EC-Lab ASCII FILE
Nb header lines : 63                          

Linear Sweep Voltammetry

Run on channel : 1 (SN 1340)
User : 
Electrode connection : standard
Potential control : Ewe
Ewe ctrl range : min = -5.00 V, max = 5.00 V
Ewe,I filtering : <None>
Safety Limits :
	Do not start on E overload
Channel : Floating
Acquisition started on : 11/03/2025 09:52:41.906
Technique started on : 11/03/2025 09:52:41.906
Loaded Setting File :  NONE
Saved on :
	File : PtPdCoNi_Test2_C01.mpr
	Directory : C:\Users\volt\Documents\Platalytix\
	Host : 127.0.0.1
Device : SP-200 (SN 0262)
Address : USB
EC-LAB for windows v11.60 (software)
Internet server v11.60 (firmware)
Command interpretor v11.60 (firmware)
Electrode material : PtPdCoNi
Initial state : 
Electrolyte : KOH (1M)
Comments : 
Cable : standard
Reference electrode : Hg/HgO (0.140 V)
Electrode surface area : 1.000 cm˛
Characteristic mass : 0.001 g
Equivalent Weight : 0.000 g/eq.
Density : 0.000 g/cm3
Volume (V) : 0.001 cmł
Cycle Definition : Charge/Discharge alternance
tR (h:m:s)          0:00:5.0000         
dER/dt (mV/h)       0.0                 
dER (mV)            0                   
dtR (s)             0.0000              
dE/dt               10.000              
dE/dt unit          mV/s                
Ei (V)              -0.200              
vs.                 Ref                 
EL (V)              -2.100              
vs.                 Ref                 
record              <I>                 
dI                  0.000               
unit dI             µA                  
tI (s)              0.0000              
step percent        50                  
N                   10                  
E range min (V)     -5.000              
E range max (V)     5.000               
I Range             Auto                
I Range min         Unset               
I Range max         Unset               
I Range init        Unset               
Bandwidth           8                   

<I>/mA	Ewe/V	control/V	Rwe/Ohm	time/s	
0.000000000000000E+000	-9.1164589E-001	0.0000000E+000	0.0000000E+000	0.000000000000000E+000
0.000000000000000E+000	-9.1158473E-001	-1.9997220E-001	0.0000000E+000	4.999799873694428E+000
2.308923026323317E+000	-2.0210096E-001	-2.0187187E-001	8.7530403E+001	5.199799868642003E+000
9.782254301273383E-001	-2.0320253E-001	-2.0297188E-001	2.0772566E+002	5.309799865863170E+000
5.940522102220944E-001	-2.0522100E-001	-2.0497178E-001	3.4545953E+002	5.509799860810745E+000
4.658319678564731E-001	-2.0730790E-001	-2.0707166E-001	4.4502722E+002	5.719799855505698E+000
3.983948909806392E-001	-2.0942342E-001	-2.0917155E-001	5.2566797E+002	5.929799850200652E+000
3.535849550092705E-001	-2.1140492E-001	-2.1117145E-001	5.9789001E+002	6.129799845148227E+000
3.208893547996102E-001	-2.1344607E-001	-2.1317135E-001	6.6517029E+002	6.329799840095802E+000
2.950539890668295E-001	-2.1540937E-001	-2.1517125E-001	7.3006763E+002	6.529799835043377E+000
2.745383588888597E-001	-2.1743779E-001	-2.1717116E-001	7.9201239E+002	6.729799829990952E+000
2.574364232393548E-001	-2.1938324E-001	-2.1917106E-001	8.5218414E+002	6.929799824938527E+000
2.425951647494085E-001	-2.2145729E-001	-2.2117093E-001	9.1286768E+002	7.129799819886102E+000
2.296670712636204E-001	-2.2338448E-001	-2.2317083E-001	9.7264484E+002	7.329799814833677E+000
2.184595764042341E-001	-2.2542500E-001	-2.2517075E-001	1.0318843E+003	7.529799809781252E+000
2.083693164318396E-001	-2.2737321E-001	-2.2717065E-001	1.0912030E+003	7.729799804728827E+000
1.995675042546159E-001	-2.2941247E-001	-2.2917055E-001	1.1495482E+003	7.929799799676402E+000
1.917977897501006E-001	-2.3137850E-001	-2.3117045E-001	1.2063668E+003	8.129799794623978E+000
1.846504604450248E-001	-2.3343281E-001	-2.3317036E-001	1.2641875E+003	8.329799789571553E+000
1.779116056601282E-001	-2.3539160E-001	-2.3517004E-001	1.3230818E+003	8.529699784521654E+000
1.716378022348533E-001	-2.3744680E-001	-2.3717013E-001	1.3834178E+003	8.729599779471755E+000
1.656890837095528E-001	-2.3942047E-001	-2.3917004E-001	1.4449985E+003	8.929599774419330E+000
1.598664999563602E-001	-2.4141727E-001	-2.4116993E-001	1.5101179E+003	9.129599769366905E+000
1.543542291206685E-001	-2.4343890E-001	-2.4316983E-001	1.5771443E+003	9.329599764314480E+000
1.491041179174082E-001	-2.4536566E-001	-2.4516973E-001	1.6455995E+003	9.529599759262055E+000
1.443663714073449E-001	-2.4746731E-001	-2.4716964E-001	1.7141617E+003	9.729599754209630E+000
1.399884230094012E-001	-2.4937733E-001	-2.4916954E-001	1.7814139E+003	9.929599749157205E+000
1.360538294053137E-001	-2.5149402E-001	-2.5116941E-001	1.8484891E+003	1.012959974410478E+001
1.321477762047549E-001	-2.5337455E-001	-2.5316936E-001	1.9173577E+003	1.032959973905236E+001
1.286336448077372E-001	-2.5547534E-001	-2.5516924E-001	1.9860693E+003	1.052959973399993E+001
1.251469060679353E-001	-2.5739723E-001	-2.5716913E-001	2.0567607E+003	1.072959972894751E+001
1.219293792117515E-001	-2.5946468E-001	-2.5916904E-001	2.1279915E+003	1.092959972389508E+001
1.189859261685586E-001	-2.6140675E-001	-2.6116893E-001	2.1969553E+003	1.112959971884266E+001
1.159849438410840E-001	-2.6337597E-001	-2.6316884E-001	2.2707771E+003	1.132959971379023E+001
1.132369191637116E-001	-2.6543280E-001	-2.6516873E-001	2.3440483E+003	1.152959970873781E+001
1.104148431129910E-001	-2.6739442E-001	-2.6716861E-001	2.4217253E+003	1.172959970368538E+001
1.079184430283908E-001	-2.6945490E-001	-2.6916853E-001	2.4968381E+003	1.192959969863296E+001
1.056339328215292E-001	-2.7136272E-001	-2.7116841E-001	2.5688972E+003	1.212959969358053E+001
1.033706339794185E-001	-2.7342194E-001	-2.7316833E-001	2.6450640E+003	1.232959968852811E+001
1.012211982484035E-001	-2.7534008E-001	-2.7516824E-001	2.7201819E+003	1.252949968347821E+001
9.935966276937502E-002	-2.7743191E-001	-2.7716812E-001	2.7921985E+003	1.272939967842831E+001
9.745568973952023E-002	-2.7936932E-001	-2.7916804E-001	2.8666292E+003	1.292939967337588E+001
9.580984321695318E-002	-2.8141195E-001	-2.8116792E-001	2.9371924E+003	1.312939966832346E+001
9.405735691179351E-002	-2.8335631E-001	-2.8316781E-001	3.0125906E+003	1.332939966327103E+001
9.247466687391848E-002	-2.8540722E-001	-2.8516772E-001	3.0863286E+003	1.352939965821861E+001
9.085031229867502E-002	-2.8738430E-001	-2.8716761E-001	3.1632725E+003	1.372939965316618E+001
8.931883633645676E-002	-2.8939658E-001	-2.8916752E-001	3.2400398E+003	1.392939964811376E+001
8.778504551284838E-002	-2.9139403E-001	-2.9116741E-001	3.3194038E+003	1.412939964306133E+001
8.633733017247636E-002	-2.9338196E-001	-2.9316732E-001	3.3980894E+003	1.432939963800891E+001
8.488603589513521E-002	-2.9542392E-001	-2.9516721E-001	3.4802417E+003	1.452939963295648E+001
8.336588145284374E-002	-2.9741821E-001	-2.9716712E-001	3.5676250E+003	1.472939962790406E+001
8.201060949058125E-002	-2.9940948E-001	-2.9916701E-001	3.6508628E+003	1.492939962285163E+001
8.074389970248919E-002	-3.0141202E-001	-3.0116689E-001	3.7329385E+003	1.512939961779921E+001
7.932397709206998E-002	-3.0341262E-001	-3.0316684E-001	3.8249800E+003	1.532939961274678E+001
7.807076589548601E-002	-3.0543938E-001	-3.0516669E-001	3.9123401E+003	1.552939960769436E+001
7.691462445833130E-002	-3.0740836E-001	-3.0716661E-001	3.9967478E+003	1.572939960264193E+001
7.605260036740014E-002	-3.0943233E-001	-3.0916649E-001	4.0686621E+003	1.592939959758951E+001
7.495085712862248E-002	-3.1140983E-001	-3.1116641E-001	4.1548535E+003	1.612939959253708E+001
7.392632150800804E-002	-3.1341362E-001	-3.1316632E-001	4.2395405E+003	1.632939958748466E+001
7.287105300596708E-002	-3.1540295E-001	-3.1516686E-001	4.3282339E+003	1.652929958243476E+001
7.169271477227790E-002	-3.1739324E-001	-3.1716609E-001	4.4271338E+003	1.672919957738486E+001
7.062268816726591E-002	-3.1939957E-001	-3.1916600E-001	4.5226196E+003	1.692919957233244E+001
6.965975512860262E-002	-3.2141018E-001	-3.2116589E-001	4.6140010E+003	1.712919956728001E+001
6.864301908957698E-002	-3.2339278E-001	-3.2316580E-001	4.7112261E+003	1.732919956222759E+001
6.779112424564149E-002	-3.2540143E-001	-3.2516569E-001	4.8000596E+003	1.752919955717516E+001
6.685522039760872E-002	-3.2738531E-001	-3.2716560E-001	4.8969297E+003	1.772919955212274E+001
6.585954736850608E-002	-3.2940885E-001	-3.2916546E-001	5.0016870E+003	1.792919954707031E+001
6.501806720979331E-002	-3.3143643E-001	-3.3116537E-001	5.0976050E+003	1.812919954201789E+001
6.421488714129842E-002	-3.3337402E-001	-3.3316529E-001	5.1915381E+003	1.832919953696546E+001
6.336499870250067E-002	-3.3538187E-001	-3.3516517E-001	5.2928569E+003	1.852919953191304E+001
6.260798002969115E-002	-3.3742154E-001	-3.3716509E-001	5.3894336E+003	1.872919952686061E+001
6.167672823928716E-002	-3.3942384E-001	-3.3916497E-001	5.5032725E+003	1.892919952180819E+001
6.087495058842518E-002	-3.4143889E-001	-3.4116489E-001	5.6088569E+003	1.912919951675576E+001
6.002723950736433E-002	-3.4340197E-001	-3.4316480E-001	5.7207690E+003	1.932919951170334E+001
5.915473740286029E-002	-3.4540835E-001	-3.4516469E-001	5.8390649E+003	1.952919950665091E+001
5.840807215230415E-002	-3.4741151E-001	-3.4716457E-001	5.9480054E+003	1.972919950159849E+001
5.755425441129525E-002	-3.4941021E-001	-3.4916446E-001	6.0709707E+003	1.992919949654606E+001
5.680527338439223E-002	-3.5138795E-001	-3.5116437E-001	6.1858330E+003	2.012919949149364E+001
5.600098798225683E-002	-3.5344687E-001	-3.5316339E-001	6.3114399E+003	2.032909948644374E+001
5.525339962312703E-002	-3.5539556E-001	-3.5516417E-001	6.4321030E+003	2.052899948139384E+001
5.464447357759411E-002	-3.5738513E-001	-3.5716411E-001	6.5401880E+003	2.072899947634141E+001
5.392417252431192E-002	-3.5943350E-001	-3.5916400E-001	6.6655356E+003	2.092899947128899E+001
5.314206699006559E-002	-3.6142474E-001	-3.6116391E-001	6.8011045E+003	2.112899946623656E+001
5.241937260460255E-002	-3.6340606E-001	-3.6316377E-001	6.9326670E+003	2.132899946118414E+001
5.159001512444544E-002	-3.6537492E-001	-3.6516365E-001	7.0822798E+003	2.152899945613171E+001
5.098679085481761E-002	-3.6738783E-001	-3.6716357E-001	7.2055493E+003	2.172899945107929E+001
5.036506001402535E-002	-3.6939779E-001	-3.6916348E-001	7.3344058E+003	2.192899944602686E+001
4.962860661413093E-002	-3.7138355E-001	-3.7116337E-001	7.4832554E+003	2.212899944097444E+001
4.905303523484036E-002	-3.7341899E-001	-3.7316328E-001	7.6125562E+003	2.232899943592201E+001
4.826780547025722E-002	-3.7536019E-001	-3.7516317E-001	7.7766162E+003	2.252899943086959E+001
4.775329749179091E-002	-3.7741259E-001	-3.7716308E-001	7.9033828E+003	2.272899942581716E+001
4.716860331635053E-002	-3.7932998E-001	-3.7916297E-001	8.0420015E+003	2.292899942076474E+001
4.652071749324793E-002	-3.8139942E-001	-3.8116288E-001	8.1984854E+003	2.312899941571231E+001
4.593609121961784E-002	-3.8334996E-001	-3.8316274E-001	8.3452891E+003	2.332899941065989E+001
4.534578563823921E-002	-3.8542399E-001	-3.8516268E-001	8.4996650E+003	2.352899940560746E+001
4.466418747905299E-002	-3.8739425E-001	-3.8716254E-001	8.6734873E+003	2.372899940055504E+001
4.408544056194619E-002	-3.8941675E-001	-3.8916245E-001	8.8332285E+003	2.392899939550261E+001
4.360142892122032E-002	-3.9143437E-001	-3.9116234E-001	8.9775586E+003	2.412899939045019E+001
4.303465703307818E-002	-3.9344394E-001	-3.9316183E-001	9.1424902E+003	2.432889938540029E+001
4.250965578467825E-002	-3.9539424E-001	-3.9516219E-001	9.3012803E+003	2.452879938035039E+001
4.203246288817764E-002	-3.9742795E-001	-3.9716205E-001	9.4552617E+003	2.472879937529797E+001
4.149498736201812E-002	-3.9936319E-001	-3.9916199E-001	9.6243721E+003	2.492879937024554E+001
4.092286167721221E-002	-4.0139249E-001	-4.0116185E-001	9.8085146E+003	2.512879936519312E+001
4.047606205842258E-002	-4.0342852E-001	-4.0316179E-001	9.9670889E+003	2.532879936014069E+001
3.983680038188131E-002	-4.0538952E-001	-4.0516165E-001	1.0176257E+004	2.552879935508827E+001
3.933115946915622E-002	-4.0742683E-001	-4.0716156E-001	1.0358882E+004	2.572879935003584E+001
3.875826297078684E-002	-4.0940815E-001	-4.0916145E-001	1.0563119E+004	2.592879934498342E+001
3.843292311021884E-002	-4.1142300E-001	-4.1116136E-001	1.0704963E+004	2.612879933993099E+001
3.790877361479891E-002	-4.1340920E-001	-4.1316125E-001	1.0905370E+004	2.632879933487857E+001
3.745713179414700E-002	-4.1545779E-001	-4.1516113E-001	1.1091554E+004	2.652879932982614E+001
3.680919793084941E-002	-4.1741914E-001	-4.1716108E-001	1.1340077E+004	2.672879932477372E+001
3.645428894019009E-002	-4.1949275E-001	-4.1916093E-001	1.1507363E+004	2.692879931972129E+001
3.588059459746412E-002	-4.2141041E-001	-4.2116088E-001	1.1744800E+004	2.712879931466887E+001
3.551976262911716E-002	-4.2347869E-001	-4.2316073E-001	1.1922340E+004	2.732879930961644E+001
3.500124337093558E-002	-4.2537794E-001	-4.2516062E-001	1.2153224E+004	2.752879930456402E+001
3.467627535278472E-002	-4.2745176E-001	-4.2716056E-001	1.2326923E+004	2.772879929951159E+001
3.405085888104131E-002	-4.2939675E-001	-4.2916045E-001	1.2610453E+004	2.792879929445917E+001
3.384357234969920E-002	-4.3144220E-001	-4.3116033E-001	1.2748128E+004	2.812879928940674E+001
3.331737641979515E-002	-4.3341187E-001	-4.3316001E-001	1.3008583E+004	2.832869928435684E+001
3.286607198833226E-002	-4.3543154E-001	-4.3516013E-001	1.3248664E+004	2.852859927930695E+001
3.235903845718791E-002	-4.3746608E-001	-4.3716004E-001	1.3519131E+004	2.872859927425452E+001
3.202345315710164E-002	-4.3944535E-001	-4.3915993E-001	1.3722609E+004	2.892859926920210E+001
3.151516581631028E-002	-4.4142681E-001	-4.4115984E-001	1.4006806E+004	2.912859926414967E+001
3.113593234281442E-002	-4.4346121E-001	-4.4315970E-001	1.4242747E+004	2.932859925909725E+001
3.068494163041768E-002	-4.4544104E-001	-4.4515964E-001	1.4516601E+004	2.952859925404482E+001
3.032503348258864E-002	-4.4751233E-001	-4.4715950E-001	1.4757191E+004	2.972859924899240E+001
2.984591585751879E-002	-4.4943461E-001	-4.4915947E-001	1.5058496E+004	2.992859924393997E+001
2.948901928061654E-002	-4.5144463E-001	-4.5115930E-001	1.5308906E+004	3.012859923888755E+001
2.903424470042348E-002	-4.5347002E-001	-4.5315924E-001	1.5618454E+004	3.032859923383512E+001
2.879174355556879E-002	-4.5545793E-001	-4.5515910E-001	1.5819046E+004	3.052859922878270E+001
2.833672506363039E-002	-4.5743948E-001	-4.5715904E-001	1.6142990E+004	3.072859922373027E+001
2.801813500909051E-002	-4.5945260E-001	-4.5915893E-001	1.6398400E+004	3.092859921867785E+001
2.777261077452774E-002	-4.6146044E-001	-4.6115881E-001	1.6615666E+004	3.112859921362542E+001
2.746588557688297E-002	-4.6342731E-001	-4.6315876E-001	1.6872834E+004	3.132859920857300E+001
2.707172271873720E-002	-4.6540841E-001	-4.6515861E-001	1.7191682E+004	3.152859920352057E+001
2.675783150468247E-002	-4.6743920E-001	-4.6715856E-001	1.7469248E+004	3.172859919846815E+001
2.649115142042913E-002	-4.6945184E-001	-4.6915841E-001	1.7721082E+004	3.192859919341572E+001
2.614114489306035E-002	-4.7138846E-001	-4.7115833E-001	1.8032434E+004	3.212859918836330E+001
2.580309454869677E-002	-4.7347799E-001	-4.7315845E-001	1.8349658E+004	3.232849918331340E+001
2.544576218858574E-002	-4.7543851E-001	-4.7515813E-001	1.8684389E+004	3.252839917826350E+001
2.510399319592627E-002	-4.7745931E-001	-4.7715804E-001	1.9019258E+004	3.272839917321107E+001
2.498234926602572E-002	-4.7940028E-001	-4.7915789E-001	1.9189559E+004	3.292839916815865E+001
2.450847861229261E-002	-4.8144037E-001	-4.8115784E-001	1.9643828E+004	3.312839916310622E+001
2.434157678773491E-002	-4.8346242E-001	-4.8315769E-001	1.9861590E+004	3.332839915805380E+001
2.393603441833414E-002	-4.8540130E-001	-4.8515767E-001	2.0279104E+004	3.352839915300137E+001
2.376369154041164E-002	-4.8744074E-001	-4.8715749E-001	2.0511996E+004	3.372839914794895E+001
2.335554585647462E-002	-4.8939916E-001	-4.8915744E-001	2.0954303E+004	3.392839914289652E+001
2.326594610804628E-002	-4.9142590E-001	-4.9115732E-001	2.1122111E+004	3.412839913784410E+001
2.293056504834712E-002	-4.9343395E-001	-4.9315715E-001	2.1518613E+004	3.432839913279167E+001
2.260784148262340E-002	-4.9542251E-001	-4.9515715E-001	2.1913746E+004	3.452839912773925E+001
2.238671116379371E-002	-4.9744344E-001	-4.9715695E-001	2.2220479E+004	3.472839912268682E+001
2.223941744484681E-002	-4.9943328E-001	-4.9915695E-001	2.2457121E+004	3.492839911763440E+001
2.188795739497107E-002	-5.0142181E-001	-5.0115681E-001	2.2908570E+004	3.512839911258197E+001
2.169817082701106E-002	-5.0347865E-001	-5.0315672E-001	2.3203736E+004	3.532839910752955E+001
2.143697994890521E-002	-5.0541013E-001	-5.0515664E-001	2.3576555E+004	3.552839910247712E+001
2.117946943111905E-002	-5.0744957E-001	-5.0715649E-001	2.3959504E+004	3.572839909742470E+001
2.096950991793008E-002	-5.0944912E-001	-5.0915641E-001	2.4294756E+004	3.592839909237227E+001
2.064676416914828E-002	-5.1142025E-001	-5.1115626E-001	2.4769996E+004	3.612839908731985E+001
2.060152772907056E-002	-5.1346183E-001	-5.1315689E-001	2.4923482E+004	3.632829908226995E+001
2.019133190877834E-002	-5.1539326E-001	-5.1515609E-001	2.5525471E+004	3.652819907722005E+001
2.005649234214174E-002	-5.1745373E-001	-5.1715600E-001	2.5799813E+004	3.672819907216763E+001
1.975184246380823E-002	-5.1939112E-001	-5.1915586E-001	2.6295832E+004	3.692819906711520E+001
1.975274494877655E-002	-5.2147454E-001	-5.2115583E-001	2.6400105E+004	3.712819906206278E+001
1.953123730782613E-002	-5.2337879E-001	-5.2315575E-001	2.6797012E+004	3.732819905701035E+001
1.937925260471254E-002	-5.2543157E-001	-5.2515560E-001	2.7113098E+004	3.752819905195793E+001
1.910801391608805E-002	-5.2745181E-001	-5.2715552E-001	2.7603697E+004	3.772819904690550E+001
1.890445316987550E-002	-5.2937347E-001	-5.2915537E-001	2.8002580E+004	3.792819904185308E+001
1.880390998654508E-002	-5.3147632E-001	-5.3115535E-001	2.8264139E+004	3.812819903680065E+001
1.856924920942621E-002	-5.3337747E-001	-5.3315520E-001	2.8723695E+004	3.832819903174823E+001
1.851061012837696E-002	-5.3545684E-001	-5.3515512E-001	2.8927023E+004	3.852819902669580E+001
1.830234530813726E-002	-5.3739995E-001	-5.3715503E-001	2.9362354E+004	3.872819902164338E+001
1.820255663534187E-002	-5.3943300E-001	-5.3915489E-001	2.9635014E+004	3.892819901659095E+001
1.800146848351389E-002	-5.4145724E-001	-5.4115480E-001	3.0078504E+004	3.912819901153853E+001
1.775371117447146E-002	-5.4337782E-001	-5.4315466E-001	3.0606436E+004	3.932819900648610E+001
1.777275044182230E-002	-5.4551071E-001	-5.4515463E-001	3.0693656E+004	3.952819900143368E+001
1.751649976457750E-002	-5.4732668E-001	-5.4715449E-001	3.1246350E+004	3.972819899638125E+001
1.745440293992553E-002	-5.4945123E-001	-5.4915434E-001	3.1479234E+004	3.992819899132883E+001
1.726350996581355E-002	-5.5137891E-001	-5.5115342E-001	3.1938980E+004	4.012809898627893E+001
1.720172743490769E-002	-5.5345410E-001	-5.5315506E-001	3.2174332E+004	4.032809898122650E+001
1.709151426050390E-002	-5.5542612E-001	-5.5515409E-001	3.2497186E+004	4.052799897617660E+001
1.690979458997757E-002	-5.5737031E-001	-5.5715394E-001	3.2961387E+004	4.072799897112418E+001
1.692275691351406E-002	-5.5946112E-001	-5.5915391E-001	3.3059691E+004	4.092799896607175E+001
1.671116212551857E-002	-5.6141990E-001	-5.6115371E-001	3.3595504E+004	4.112799896101933E+001
1.663024362827101E-002	-5.6339908E-001	-5.6315374E-001	3.3877980E+004	4.132799895596690E+001
1.648484167612270E-002	-5.6545776E-001	-5.6515354E-001	3.4301680E+004	4.152799895091448E+001
1.634017542168781E-002	-5.6737667E-001	-5.6715351E-001	3.4722801E+004	4.172799894586205E+001
1.617649058249621E-002	-5.6938404E-001	-5.6915337E-001	3.5198242E+004	4.192799894080963E+001
1.615499896633544E-002	-5.7142985E-001	-5.7115322E-001	3.5371703E+004	4.212799893575720E+001
1.594217090121450E-002	-5.7336485E-001	-5.7315320E-001	3.5965293E+004	4.232799893070478E+001
1.591223671880837E-002	-5.7539904E-001	-5.7515299E-001	3.6160789E+004	4.252799892565236E+001
1.576582205895216E-002	-5.7741755E-001	-5.7715297E-001	3.6624641E+004	4.272799892059993E+001
1.559607817790346E-002	-5.7939714E-001	-5.7915282E-001	3.7150184E+004	4.292799891554751E+001
1.554289251004184E-002	-5.8138674E-001	-5.8115280E-001	3.7405313E+004	4.312799891049508E+001
1.549181262627261E-002	-5.8340180E-001	-5.8315265E-001	3.7658719E+004	4.332799890544266E+001
1.548293390500843E-002	-5.8538711E-001	-5.8515263E-001	3.7808539E+004	4.352799890039023E+001
1.516545052302773E-002	-5.8736056E-001	-5.8715248E-001	3.8730176E+004	4.372799889533781E+001
1.510654706278258E-002	-5.8942914E-001	-5.8915234E-001	3.9018125E+004	4.392799889028538E+001
1.494280312016158E-002	-5.9142518E-001	-5.9115165E-001	3.9579266E+004	4.412789888523548E+001
1.478434589286518E-002	-5.9340912E-001	-5.9315211E-001	4.0137664E+004	4.432779888018558E+001
1.479614062589546E-002	-5.9542245E-001	-5.9515208E-001	4.0241738E+004	4.452779887513316E+001
1.462925930680126E-002	-5.9742397E-001	-5.9715194E-001	4.0837609E+004	4.472779887008073E+001
1.445267287842181E-002	-5.9944022E-001	-5.9915185E-001	4.1476078E+004	4.492779886502831E+001
1.439542569208979E-002	-6.0140312E-001	-6.0115170E-001	4.1777375E+004	4.512779885997588E+001
1.429387961715975E-002	-6.0341781E-001	-6.0315168E-001	4.2215117E+004	4.532779885492346E+001
1.418616306622744E-002	-6.0542989E-001	-6.0515159E-001	4.2677492E+004	4.552779884987103E+001
1.395414927272157E-002	-6.0741681E-001	-6.0715145E-001	4.3529477E+004	4.572779884481861E+001
1.398366441764892E-002	-6.0944623E-001	-6.0915136E-001	4.3582727E+004	4.592779883976618E+001
1.379302923175313E-002	-6.1147249E-001	-6.1115122E-001	4.4331992E+004	4.612779883471376E+001
1.365415750772542E-002	-6.1342812E-001	-6.1315119E-001	4.4926105E+004	4.632779882966133E+001
1.366058031618159E-002	-6.1545247E-001	-6.1515105E-001	4.5053172E+004	4.652779882460891E+001
1.337356505561262E-002	-6.1743844E-001	-6.1715096E-001	4.6168574E+004	4.672779881955648E+001
1.336122534748344E-002	-6.1947733E-001	-6.1915082E-001	4.6363813E+004	4.692779881450406E+001
1.310752968389914E-002	-6.2143803E-001	-6.2115073E-001	4.7410766E+004	4.712779880945163E+001
1.305077545191186E-002	-6.2340766E-001	-6.2315065E-001	4.7767863E+004	4.732779880439921E+001
1.288472880599310E-002	-6.2542993E-001	-6.2515050E-001	4.8540402E+004	4.752779879934678E+001
1.281359818391292E-002	-6.2745517E-001	-6.2715048E-001	4.8967914E+004	4.772779879429436E+001
1.265485674475984E-002	-6.2940109E-001	-6.2915033E-001	4.9735930E+004	4.792779878924193E+001
1.261944227498925E-002	-6.3146544E-001	-6.3115054E-001	5.0039094E+004	4.812769878419203E+001
1.244859070735702E-002	-6.3344282E-001	-6.3315016E-001	5.0884703E+004	4.832759877914214E+001
1.227651128357710E-002	-6.3542241E-001	-6.3515007E-001	5.1759199E+004	4.852759877408971E+001
1.218432074918488E-002	-6.3745254E-001	-6.3714993E-001	5.2317445E+004	4.872759876903729E+001
1.203960649065447E-002	-6.3941878E-001	-6.3914979E-001	5.3109609E+004	4.892759876398486E+001
1.190914735361692E-002	-6.4146781E-001	-6.4114976E-001	5.3863453E+004	4.912759875893244E+001
1.181662398339783E-002	-6.4351469E-001	-6.4314961E-001	5.4458422E+004	4.932759875388001E+001
1.162707458096851E-002	-6.4541072E-001	-6.4514959E-001	5.5509297E+004	4.952759874882759E+001
1.146478730250175E-002	-6.4753783E-001	-6.4714944E-001	5.6480578E+004	4.972759874377516E+001
1.135153820929058E-002	-6.4946693E-001	-6.4914936E-001	5.7214004E+004	4.992759873872274E+001
1.118973858497171E-002	-6.5146267E-001	-6.5114921E-001	5.8219652E+004	5.012759873367031E+001
1.112698574420830E-002	-6.5348679E-001	-6.5314919E-001	5.8729902E+004	5.032759872861789E+001
1.075445686945063E-002	-6.5538478E-001	-6.5514904E-001	6.0940762E+004	5.052759872356546E+001
1.086164774000165E-002	-6.5752727E-001	-6.5714890E-001	6.0536605E+004	5.072759871851304E+001
1.064011365086284E-002	-6.5937752E-001	-6.5914881E-001	6.1970910E+004	5.092759871346061E+001
1.058533999828945E-002	-6.6146469E-001	-6.6114867E-001	6.2488754E+004	5.112759870840819E+001
1.041585118076902E-002	-6.6347677E-001	-6.6314870E-001	6.3698758E+004	5.132759870335576E+001
1.027623945251877E-002	-6.6542435E-001	-6.6514856E-001	6.4753684E+004	5.152759869830334E+001
1.013130886713044E-002	-6.6748101E-001	-6.6714841E-001	6.5883000E+004	5.172759869325091E+001
1.006390456860207E-002	-6.6944283E-001	-6.6914743E-001	6.6519195E+004	5.192749868820101E+001
9.830558585199739E-003	-6.7143011E-001	-6.7114866E-001	6.8300305E+004	5.212749868314859E+001
9.815353973184740E-003	-6.7346925E-001	-6.7314810E-001	6.8613852E+004	5.232739867809869E+001
9.555693760159464E-003	-6.7538142E-001	-6.7514801E-001	7.0678430E+004	5.252739867304626E+001
9.476773551181636E-003	-6.7746860E-001	-6.7714792E-001	7.1487266E+004	5.272739866799384E+001
9.414413020549616E-003	-6.7944634E-001	-6.7914778E-001	7.2170867E+004	5.292739866294141E+001
9.092466991440736E-003	-6.8140012E-001	-6.8114769E-001	7.4941172E+004	5.312739865788899E+001
9.082178440900104E-003	-6.8349177E-001	-6.8314761E-001	7.5256367E+004	5.332739865283656E+001
8.896270730293001E-003	-6.8536061E-001	-6.8514752E-001	7.7039094E+004	5.352739864778414E+001
8.718818561884098E-003	-6.8746412E-001	-6.8714738E-001	7.8848313E+004	5.372739864273171E+001
8.743921978253438E-003	-6.8947726E-001	-6.8914729E-001	7.8852172E+004	5.392739863767929E+001
8.344392084053034E-003	-6.9132745E-001	-6.9114721E-001	8.2849352E+004	5.412739863262686E+001
8.434804919523684E-003	-6.9351476E-001	-6.9314706E-001	8.2220602E+004	5.432739862757444E+001
8.163471449358695E-003	-6.9544852E-001	-6.9514704E-001	8.5190289E+004	5.452739862252201E+001
8.073335261041398E-003	-6.9741058E-001	-6.9714689E-001	8.6384445E+004	5.472739861746959E+001
7.919914862539623E-003	-6.9945210E-001	-6.9914681E-001	8.8315609E+004	5.492739861241716E+001
7.733492700284329E-003	-7.0145494E-001	-7.0114672E-001	9.0703508E+004	5.512739860736474E+001
7.626104301178063E-003	-7.0340550E-001	-7.0314664E-001	9.2236547E+004	5.532739860231231E+001
7.492197652678934E-003	-7.0543790E-001	-7.0514655E-001	9.4156336E+004	5.552739859725989E+001
7.331211837586726E-003	-7.0745528E-001	-7.0714635E-001	9.6499094E+004	5.572739859220746E+001
7.083341676884874E-003	-7.0940542E-001	-7.0914549E-001	1.0015123E+005	5.592729858715757E+001
7.022293481134784E-003	-7.1144551E-001	-7.1114624E-001	1.0131241E+005	5.612719858210767E+001
6.820577835477265E-003	-7.1342981E-001	-7.1314615E-001	1.0459962E+005	5.632719857705524E+001
6.626686131776482E-003	-7.1540517E-001	-7.1514601E-001	1.0795821E+005	5.652719857200282E+001
6.454346946872525E-003	-7.1747500E-001	-7.1714586E-001	1.1116152E+005	5.672719856695039E+001
6.207342878949682E-003	-7.1942234E-001	-7.1914583E-001	1.1589860E+005	5.692719856189797E+001
6.121207263158915E-003	-7.2168994E-001	-7.2134560E-001	1.1789994E+005	5.714719855634030E+001
5.942446550217376E-003	-7.2390765E-001	-7.2354555E-001	1.2181980E+005	5.736719855078263E+001
5.684918104702619E-003	-7.2576118E-001	-7.2554547E-001	1.2766431E+005	5.756719854573021E+001
5.574919533247416E-003	-7.2792476E-001	-7.2754538E-001	1.3057135E+005	5.776719854067778E+001
5.402519329358129E-003	-7.2975528E-001	-7.2954535E-001	1.3507684E+005	5.796719853562536E+001
5.306074341296849E-003	-7.3186010E-001	-7.3154515E-001	1.3792873E+005	5.816719853057293E+001
5.163080095157202E-003	-7.3380798E-001	-7.3354506E-001	1.4212602E+005	5.836719852552051E+001
4.972998378818164E-003	-7.3583680E-001	-7.3554498E-001	1.4796642E+005	5.856719852046808E+001
4.725117119003530E-003	-7.3779505E-001	-7.3754489E-001	1.5614323E+005	5.876719851541566E+001
4.631821688309765E-003	-7.3985040E-001	-7.3954475E-001	1.5973206E+005	5.896719851036323E+001
4.420133857744153E-003	-7.4181688E-001	-7.4154466E-001	1.6782680E+005	5.916719850531081E+001
4.298452312891495E-003	-7.4380773E-001	-7.4354458E-001	1.7304083E+005	5.936719850025838E+001
4.076695134543840E-003	-7.4589026E-001	-7.4554449E-001	1.8296444E+005	5.956719849520596E+001
3.923685640122257E-003	-7.4778396E-001	-7.4754441E-001	1.9058203E+005	5.976719849015353E+001
3.741350865662831E-003	-7.4986619E-001	-7.4954426E-001	2.0042659E+005	5.996709848510363E+001
3.543460507752582E-003	-7.5182152E-001	-7.5154418E-001	2.1217155E+005	6.016699848005374E+001
3.271577572315415E-003	-7.5380480E-001	-7.5354409E-001	2.3041019E+005	6.036699847500131E+001
3.146379295444330E-003	-7.5592250E-001	-7.5554389E-001	2.4025155E+005	6.056699846994889E+001
2.855802350373957E-003	-7.5776863E-001	-7.5754386E-001	2.6534350E+005	6.076699846489646E+001
2.665659875037199E-003	-7.5993997E-001	-7.5954372E-001	2.8508513E+005	6.096699845984404E+001
2.566804910568404E-003	-7.6186109E-001	-7.6154369E-001	2.9681300E+005	6.116699845479161E+001
2.267655200258133E-003	-7.6380974E-001	-7.6354349E-001	3.3682800E+005	6.136699844973919E+001
2.139615348545594E-003	-7.6591265E-001	-7.6554352E-001	3.5796744E+005	6.156699844468676E+001
1.859009727384699E-003	-7.6785469E-001	-7.6754332E-001	4.1304500E+005	6.176699843963434E+001
1.674224194400414E-003	-7.6984233E-001	-7.6954329E-001	4.5982034E+005	6.196699843458191E+001
1.506003491637452E-003	-7.7182204E-001	-7.7154320E-001	5.1249684E+005	6.216699842952949E+001
1.323756849253743E-003	-7.7384347E-001	-7.7354300E-001	5.8458125E+005	6.236699842447706E+001
9.879818247733214E-004	-7.7580839E-001	-7.7554291E-001	7.8524563E+005	6.256699841942464E+001
7.821398854820651E-004	-7.7781743E-001	-7.7754283E-001	9.9447356E+005	6.276699841437221E+001
5.507778999957278E-004	-7.7984035E-001	-7.7954280E-001	1.4158890E+006	6.296699840931979E+001
2.606108511841098E-004	-7.8183985E-001	-7.8154272E-001	3.0000280E+006	6.316699840426736E+001
2.333583861730227E-005	-7.8380072E-001	-7.8354263E-001	3.3587852E+007	6.336699839921494E+001
-1.716844906617396E-004	-7.8585923E-001	-7.8554243E-001	4.5773455E+006	6.356699839416251E+001
-5.314228854149811E-004	-7.8789592E-001	-7.8754234E-001	1.4826158E+006	6.376699838911009E+001
-7.658633814992908E-004	-7.8977436E-001	-7.8954208E-001	1.0312209E+006	6.396679838406271E+001
-1.008806427661860E-003	-7.9185134E-001	-7.9154223E-001	7.8493881E+005	6.416679837901029E+001
-1.395282150564316E-003	-7.9385233E-001	-7.9354215E-001	5.6895469E+005	6.436679837395786E+001
-1.589031009060164E-003	-7.9576969E-001	-7.9554194E-001	5.0078928E+005	6.456679836890544E+001
-1.823142892658173E-003	-7.9792821E-001	-7.9754186E-001	4.3766631E+005	6.476679836385301E+001
-2.173953466059963E-003	-7.9984242E-001	-7.9954183E-001	3.6792066E+005	6.496679835880059E+001
-2.515812185977043E-003	-8.0175823E-001	-8.0154163E-001	3.1868763E+005	6.516679835374816E+001
-2.802159607531465E-003	-8.0390793E-001	-8.0354154E-001	2.8688869E+005	6.536679834869574E+001
-3.127566803886362E-003	-8.0575031E-001	-8.0554146E-001	2.5762848E+005	6.556679834364331E+001
-3.417781649558388E-003	-8.0792201E-001	-8.0754137E-001	2.3638783E+005	6.576679833859089E+001
-3.782300836433834E-003	-8.0984193E-001	-8.0954123E-001	2.1411356E+005	6.596679833353846E+001
-4.106905690619778E-003	-8.1180823E-001	-8.1154114E-001	1.9766906E+005	6.616679832848604E+001
-4.438367086162243E-003	-8.1387401E-001	-8.1354105E-001	1.8337239E+005	6.636679832343361E+001
-4.801882400058351E-003	-8.1582350E-001	-8.1554097E-001	1.6989659E+005	6.656679831838119E+001
-5.177065818594305E-003	-8.1781816E-001	-8.1754082E-001	1.5796944E+005	6.676679831332876E+001
-5.523302288033799E-003	-8.1986517E-001	-8.1954074E-001	1.4843750E+005	6.696679830827634E+001
-5.923079031750822E-003	-8.2183379E-001	-8.2154065E-001	1.3875111E+005	6.716679830322391E+001
-6.258421195929689E-003	-8.2381409E-001	-8.2354045E-001	1.3163289E+005	6.736679829817149E+001
-6.644927046014611E-003	-8.2585990E-001	-8.2554048E-001	1.2428427E+005	6.756679829311906E+001
-7.052591628059240E-003	-8.2781303E-001	-8.2754034E-001	1.1737714E+005	6.776679828806664E+001
-7.367603762941224E-003	-8.2977647E-001	-8.2954067E-001	1.1262502E+005	6.796669828301674E+001
-7.795684611440104E-003	-8.3185011E-001	-8.3154011E-001	1.0670648E+005	6.816659827796684E+001
-8.162172702935663E-003	-8.3384687E-001	-8.3353996E-001	1.0215991E+005	6.836659827291442E+001
-8.695517901316452E-003	-8.3577871E-001	-8.3554000E-001	9.6116039E+004	6.856659826786199E+001
-9.066012799578846E-003	-8.3794254E-001	-8.3753979E-001	9.2426797E+004	6.876659826280957E+001
-9.492528677694657E-003	-8.3977973E-001	-8.3953977E-001	8.8467445E+004	6.896659825775714E+001
-9.996030690523863E-003	-8.4180772E-001	-8.4153956E-001	8.4214203E+004	6.916659825270472E+001
-1.033321509041137E-002	-8.4394979E-001	-8.4353960E-001	8.1673492E+004	6.936659824765229E+001
-1.086650294467684E-002	-8.4571719E-001	-8.4553945E-001	7.7827906E+004	6.956659824259987E+001
-1.137670823284465E-002	-8.4787458E-001	-8.4753937E-001	7.4527234E+004	6.976659823754744E+001
-1.173296712568322E-002	-8.4986395E-001	-8.4953922E-001	7.2433844E+004	6.996659823249502E+001
-1.221795185720403E-002	-8.5177463E-001	-8.5153908E-001	6.9715008E+004	7.016659822744259E+001
-1.278498359900943E-002	-8.5386294E-001	-8.5353911E-001	6.6786391E+004	7.036659822239017E+001
-1.329202275979809E-002	-8.5586351E-001	-8.5553890E-001	6.4389262E+004	7.056659821733774E+001
-1.374693350737610E-002	-8.5784352E-001	-8.5753888E-001	6.2402535E+004	7.076659821228532E+001
-1.449019515774974E-002	-8.5983890E-001	-8.5953867E-001	5.9339359E+004	7.096659820723289E+001
-1.439029351299175E-002	-8.6185449E-001	-8.6153859E-001	5.9891379E+004	7.116659820218047E+001
-1.519260894720470E-002	-8.6386532E-001	-8.6353850E-001	5.6860895E+004	7.136659819712804E+001
-1.641990589635250E-002	-8.6585265E-001	-8.6553848E-001	5.2731891E+004	7.156659819207562E+001
-1.752861157598723E-002	-8.6782199E-001	-8.6753833E-001	4.9508883E+004	7.176659818702319E+001
-1.852004211021657E-002	-8.6989319E-001	-8.6953795E-001	4.6970367E+004	7.196639818197582E+001
-1.993157379178739E-002	-8.7181592E-001	-8.7153810E-001	4.3740445E+004	7.216639817692339E+001
-2.122421541408046E-002	-8.7390184E-001	-8.7353802E-001	4.1174754E+004	7.236639817187097E+001
-2.278323220276501E-002	-8.7596077E-001	-8.7553799E-001	3.8447605E+004	7.256639816681854E+001
-2.464694820651736E-002	-8.7776637E-001	-8.7753773E-001	3.5613594E+004	7.276639816176612E+001
-2.672370455820161E-002	-8.7983936E-001	-8.7953770E-001	3.2923555E+004	7.296639815671369E+001
-2.896722277669672E-002	-8.8188285E-001	-8.8153762E-001	3.0444162E+004	7.316639815166127E+001
-3.144184603987277E-002	-8.8382369E-001	-8.8353753E-001	2.8109791E+004	7.336639814660884E+001
-3.458966013538300E-002	-8.8594818E-001	-8.8553745E-001	2.5613094E+004	7.356639814155642E+001
-3.762761587562152E-002	-8.8781977E-001	-8.8753730E-001	2.3594898E+004	7.376639813650399E+001
-4.145710556129054E-002	-8.8984609E-001	-8.8953722E-001	2.1464260E+004	7.396639813145157E+001
-4.592136267462815E-002	-8.9185518E-001	-8.9153713E-001	1.9421357E+004	7.416639812639914E+001
-5.069210221610820E-002	-8.9385277E-001	-8.9353704E-001	1.7632979E+004	7.436639812134672E+001
-5.619084587755707E-002	-8.9585674E-001	-8.9553690E-001	1.5943108E+004	7.456639811629429E+001
-6.275742300659370E-002	-8.9779902E-001	-8.9753681E-001	1.4305861E+004	7.476639811124187E+001
-6.978792849455095E-002	-8.9989799E-001	-8.9953673E-001	1.2894751E+004	7.496639810618944E+001
-7.790964796596422E-002	-9.0183198E-001	-9.0153664E-001	1.1575357E+004	7.516639810113702E+001
-8.732871801082154E-002	-9.0392685E-001	-9.0363646E-001	1.0350854E+004	7.537639809583197E+001
-9.832877915747562E-002	-9.0602237E-001	-9.0573639E-001	9.2142139E+003	7.558639809052693E+001
-1.100645518282103E-001	-9.0800577E-001	-9.0773565E-001	8.2497568E+003	7.578629808547703E+001
-1.230086876098446E-001	-9.1004026E-001	-9.0973628E-001	7.3981787E+003	7.598619808042713E+001
-1.374352721068706E-001	-9.1199499E-001	-9.1173613E-001	6.6358145E+003	7.618619807537470E+001
-1.538477046647513E-001	-9.1398942E-001	-9.1373599E-001	5.9408716E+003	7.638619807032228E+001
-1.712030033494375E-001	-9.1607100E-001	-9.1573584E-001	5.3507881E+003	7.658619806526985E+001
-1.907488314757995E-001	-9.1805524E-001	-9.1773576E-001	4.8129009E+003	7.678619806021743E+001
-2.122204418266680E-001	-9.1996706E-001	-9.1973567E-001	4.3349595E+003	7.698619805516500E+001
-2.353684203171271E-001	-9.2207152E-001	-9.2173558E-001	3.9175669E+003	7.718619805011258E+001
-2.608287239747105E-001	-9.2405069E-001	-9.2373550E-001	3.5427490E+003	7.738619804506016E+001
-2.879436690415229E-001	-9.2598230E-001	-9.2573535E-001	3.2158452E+003	7.758619804000773E+001
-3.167862668548995E-001	-9.2809117E-001	-9.2773539E-001	2.9297078E+003	7.778619803495531E+001
-3.484766672443493E-001	-9.3004149E-001	-9.2973518E-001	2.6688774E+003	7.798619802990288E+001
-3.813583686474757E-001	-9.3196958E-001	-9.3173510E-001	2.4438157E+003	7.818619802485046E+001
-4.169123590566919E-001	-9.3405658E-001	-9.3373495E-001	2.2404148E+003	7.838619801979803E+001
-4.545991183585931E-001	-9.3600821E-001	-9.3573487E-001	2.0589751E+003	7.858619801474561E+001
-4.943412647555139E-001	-9.3803519E-001	-9.3773478E-001	1.8975458E+003	7.878619800969318E+001
-5.359728457469517E-001	-9.4002068E-001	-9.3973470E-001	1.7538588E+003	7.898619800464076E+001
-5.795092470732719E-001	-9.4200581E-001	-9.4173461E-001	1.6255233E+003	7.918619799958833E+001
-6.254063284155538E-001	-9.4405097E-001	-9.4373441E-001	1.5095002E+003	7.938619799453591E+001
-6.734131773777499E-001	-9.4602358E-001	-9.4573438E-001	1.4048190E+003	7.958619798948348E+001
-7.224300267161681E-001	-9.4802338E-001	-9.4773436E-001	1.3122701E+003	7.978609798443358E+001
-7.741085571319299E-001	-9.5011419E-001	-9.4973421E-001	1.2273656E+003	7.998599797938368E+001
-8.268574198745959E-001	-9.5207030E-001	-9.5173407E-001	1.1514323E+003	8.018599797433126E+001
-8.815390189640748E-001	-9.5398897E-001	-9.5373392E-001	1.0821858E+003	8.038599796927883E+001
-9.377383856428025E-001	-9.5608455E-001	-9.5573390E-001	1.0195643E+003	8.058599796422641E+001
-9.954322959526571E-001	-9.5810378E-001	-9.5773369E-001	9.6250018E+002	8.078599795917398E+001
-1.057647573961784E+000	-9.6005177E-001	-9.5983368E-001	9.0772369E+002	8.099599795386894E+001
-1.121656998814574E+000	-9.6219254E-001	-9.6193355E-001	8.5783136E+002	8.120599794856389E+001
-1.184175454401103E+000	-9.6426147E-001	-9.6393341E-001	8.1428937E+002	8.140599794351147E+001
-1.249166520772814E+000	-9.6619022E-001	-9.6593332E-001	7.7346790E+002	8.160599793845904E+001
-1.314732575784868E+000	-9.6818781E-001	-9.6793324E-001	7.3641425E+002	8.180599793340662E+001
-1.381876953275635E+000	-9.7025830E-001	-9.6993315E-001	7.0213074E+002	8.200599792835419E+001
-1.451930125816276E+000	-9.7215855E-001	-9.7193301E-001	6.6956293E+002	8.220599792330177E+001
-1.522082047574983E+000	-9.7428244E-001	-9.7393292E-001	6.4009851E+002	8.240599791824934E+001
-1.593486026537658E+000	-9.7621644E-001	-9.7593284E-001	6.1262946E+002	8.260599791319692E+001
-1.666900468335534E+000	-9.7819883E-001	-9.7793281E-001	5.8683698E+002	8.280599790814449E+001
-1.741410180318113E+000	-9.8022753E-001	-9.7993267E-001	5.6289294E+002	8.300599790309207E+001
-1.818293743038268E+000	-9.8223025E-001	-9.8193252E-001	5.4019336E+002	8.320599789803964E+001
-1.896360043360263E+000	-9.8419142E-001	-9.8393244E-001	5.1898975E+002	8.340599789298722E+001
-1.975406448755951E+000	-9.8622358E-001	-9.8593235E-001	4.9925098E+002	8.360599788793479E+001
-2.056621772107054E+000	-9.8822910E-001	-9.8793209E-001	4.8051086E+002	8.380579788288742E+001
-2.138570257680083E+000	-9.9022192E-001	-9.8993212E-001	4.6302988E+002	8.400579787783499E+001
-2.222392553341090E+000	-9.9220979E-001	-9.9193203E-001	4.4646017E+002	8.420579787278257E+001
-2.308419986680793E+000	-9.9421543E-001	-9.9393189E-001	4.3069089E+002	8.440579786773014E+001
-2.395735012008348E+000	-9.9621123E-001	-9.9593186E-001	4.1582697E+002	8.460579786267772E+001
-2.484701907705691E+000	-9.9821687E-001	-9.9793178E-001	4.0174512E+002	8.480579785762529E+001
-2.575034796211725E+000	-1.0002382E+000	-9.9993157E-001	3.8843677E+002	8.500579785257287E+001
-2.668145409517009E+000	-1.0022072E+000	-1.0019315E+000	3.7561938E+002	8.520579784752044E+001
-2.762875247755154E+000	-1.0042223E+000	-1.0039314E+000	3.6347000E+002	8.540579784246802E+001
-2.859238378010907E+000	-1.0062286E+000	-1.0059314E+000	3.5192188E+002	8.560579783741559E+001
-2.957988833911429E+000	-1.0082133E+000	-1.0079312E+000	3.4084418E+002	8.580579783236317E+001
-3.058279440989573E+000	-1.0102015E+000	-1.0099311E+000	3.3031693E+002	8.600579782731074E+001
-3.160112167465719E+000	-1.0121802E+000	-1.0119311E+000	3.2029883E+002	8.620579782225832E+001
-3.264657600970764E+000	-1.0142399E+000	-1.0139309E+000	3.1067267E+002	8.640579781720589E+001
-3.370881405074051E+000	-1.0162745E+000	-1.0159308E+000	3.0148627E+002	8.660579781215347E+001
-3.480177090788374E+000	-1.0181538E+000	-1.0179307E+000	2.9255804E+002	8.680579780710104E+001
-3.590330744478983E+000	-1.0202540E+000	-1.0199306E+000	2.8416714E+002	8.700579780204862E+001
-3.704252323123058E+000	-1.0222285E+000	-1.0219306E+000	2.7596082E+002	8.720579779699619E+001
-3.821034032099632E+000	-1.0242239E+000	-1.0239303E+000	2.6804889E+002	8.740579779194377E+001
-3.943644944148367E+000	-1.0262115E+000	-1.0259305E+000	2.6021902E+002	8.760579778689134E+001
-4.067150923933809E+000	-1.0282639E+000	-1.0279309E+000	2.5282169E+002	8.780569778184145E+001
-4.191371532321803E+000	-1.0302664E+000	-1.0299301E+000	2.4580650E+002	8.800559777679155E+001
-4.318890679855734E+000	-1.0322365E+000	-1.0319300E+000	2.3900500E+002	8.820559777173912E+001
-4.449327136214649E+000	-1.0342627E+000	-1.0339299E+000	2.3245372E+002	8.840559776668670E+001
-4.583363036720121E+000	-1.0362523E+000	-1.0359298E+000	2.2608994E+002	8.860559776163427E+001
-4.720299112249407E+000	-1.0382673E+000	-1.0379298E+000	2.1995793E+002	8.880559775658185E+001
-4.860947632667967E+000	-1.0402389E+000	-1.0399295E+000	2.1399919E+002	8.900559775152942E+001
-5.006201230411893E+000	-1.0422776E+000	-1.0419295E+000	2.0819730E+002	8.920559774647700E+001
-5.154713765124626E+000	-1.0442455E+000	-1.0439293E+000	2.0258069E+002	8.940559774142457E+001
-5.306964057744764E+000	-1.0462172E+000	-1.0459293E+000	1.9714044E+002	8.960559773637215E+001
-5.463569158869820E+000	-1.0482826E+000	-1.0479292E+000	1.9186774E+002	8.980559773131972E+001
-5.624537204026922E+000	-1.0502154E+000	-1.0499291E+000	1.8672032E+002	9.000559772626730E+001
-5.791191401564078E+000	-1.0522701E+000	-1.0519290E+000	1.8170183E+002	9.020559772121487E+001
-5.963960538003697E+000	-1.0542383E+000	-1.0539290E+000	1.7676816E+002	9.040559771616245E+001
-6.140964991381360E+000	-1.0562253E+000	-1.0559287E+000	1.7199663E+002	9.060559771111002E+001
-6.321482170499923E+000	-1.0582768E+000	-1.0579288E+000	1.6740959E+002	9.080559770605760E+001
-6.507366359639320E+000	-1.0602387E+000	-1.0599285E+000	1.6292900E+002	9.100559770100517E+001
-6.698247300186367E+000	-1.0622746E+000	-1.0619285E+000	1.5858994E+002	9.120559769595275E+001
-6.893937894546553E+000	-1.0642642E+000	-1.0639282E+000	1.5437682E+002	9.140559769090032E+001
-7.095470639837956E+000	-1.0663042E+000	-1.0659276E+000	1.5027956E+002	9.160549768585042E+001
-7.302586290610563E+000	-1.0682724E+000	-1.0679280E+000	1.4628685E+002	9.180539768080052E+001
-7.513669793905819E+000	-1.0702720E+000	-1.0699281E+000	1.4244331E+002	9.200539767574810E+001
-7.733278079773584E+000	-1.0722513E+000	-1.0719280E+000	1.3865417E+002	9.220539767069567E+001
-7.961465452871629E+000	-1.0742582E+000	-1.0739279E+000	1.3493222E+002	9.240539766564325E+001
-8.196086018061152E+000	-1.0762353E+000	-1.0759277E+000	1.3131088E+002	9.260539766059082E+001
-8.434803720977584E+000	-1.0782269E+000	-1.0779277E+000	1.2783070E+002	9.280539765553840E+001
-8.678756039429175E+000	-1.0802437E+000	-1.0799276E+000	1.2446988E+002	9.300539765048597E+001
-8.930058463225276E+000	-1.0822827E+000	-1.0819275E+000	1.2119547E+002	9.320539764543355E+001
-9.185155586185402E+000	-1.0842290E+000	-1.0839274E+000	1.1804144E+002	9.340539764038112E+001
-9.443729712781987E+000	-1.0862447E+000	-1.0859272E+000	1.1502285E+002	9.360539763532870E+001
-9.703916341336679E+000	-1.0883242E+000	-1.0879272E+000	1.1215309E+002	9.380539763027627E+001
-9.971593037957234E+000	-1.0901949E+000	-1.0899271E+000	1.0933007E+002	9.400539762522385E+001
-1.024873250351200E+001	-1.0923301E+000	-1.0919269E+000	1.0658197E+002	9.420539762017142E+001
-1.052719394420013E+001	-1.0942752E+000	-1.0939268E+000	1.0394748E+002	9.440539761511900E+001
-1.081537812576539E+001	-1.0961672E+000	-1.0959268E+000	1.0135265E+002	9.460539761006658E+001
-1.115449179117638E+001	-1.0984089E+000	-1.0981266E+000	9.8472343E+001	9.482539760450891E+001
-1.145705628523484E+001	-1.1004214E+000	-1.1001266E+000	9.6047485E+001	9.502539759945648E+001
-1.176827777803896E+001	-1.1024233E+000	-1.1021265E+000	9.3677544E+001	9.522539759440406E+001
-1.207834395732465E+001	-1.1044074E+000	-1.1041263E+000	9.1436989E+001	9.542539758935163E+001
-1.239160211130627E+001	-1.1064301E+000	-1.1061263E+000	8.9288704E+001	9.562529758430173E+001
-1.271168568926333E+001	-1.1084567E+000	-1.1081262E+000	8.7199821E+001	9.582519757925184E+001
-1.303281837647734E+001	-1.1103965E+000	-1.1101260E+000	8.5200027E+001	9.602519757419941E+001
-1.336133566248709E+001	-1.1124535E+000	-1.1121260E+000	8.3259148E+001	9.622519756914699E+001
-1.369879224862639E+001	-1.1144412E+000	-1.1141258E+000	8.1353241E+001	9.642519756409456E+001
-1.403491181473078E+001	-1.1164131E+000	-1.1161258E+000	7.9545433E+001	9.662519755904214E+001
-1.437109508927983E+001	-1.1183997E+000	-1.1181257E+000	7.7822861E+001	9.682519755398971E+001
-1.471472511756457E+001	-1.1204108E+000	-1.1201257E+000	7.6142151E+001	9.702519754893729E+001
-1.505807416847232E+001	-1.1224290E+000	-1.1221254E+000	7.4540009E+001	9.722519754388486E+001
-1.541228071145736E+001	-1.1244042E+000	-1.1241254E+000	7.2955078E+001	9.742519753883244E+001
-1.576319161834624E+001	-1.1264501E+000	-1.1261252E+000	7.1460785E+001	9.762519753378001E+001
-1.611521692962603E+001	-1.1284543E+000	-1.1281252E+000	7.0024147E+001	9.782519752872759E+001
-1.647602872472774E+001	-1.1304015E+000	-1.1301250E+000	6.8608856E+001	9.802519752367516E+001
-1.686534104352619E+001	-1.1324319E+000	-1.1321249E+000	6.7145508E+001	9.822519751862274E+001
-1.725395425620272E+001	-1.1344324E+000	-1.1341248E+000	6.5749130E+001	9.842519751357031E+001
-1.764712353912340E+001	-1.1364673E+000	-1.1361248E+000	6.4399582E+001	9.862519750851789E+001
-1.805296296246192E+001	-1.1384898E+000	-1.1381247E+000	6.3063877E+001	9.882519750346546E+001
-1.847212358450946E+001	-1.1403742E+000	-1.1401246E+000	6.1734871E+001	9.902519749841304E+001
-1.889019956488720E+001	-1.1424452E+000	-1.1421244E+000	6.0478195E+001	9.922519749336061E+001
-1.930426552155123E+001	-1.1444670E+000	-1.1441244E+000	5.9285706E+001	9.942519748830819E+001
-1.972525625529929E+001	-1.1464386E+000	-1.1461247E+000	5.8120338E+001	9.962509748325829E+001
-2.014424338335355E+001	-1.1484021E+000	-1.1481241E+000	5.7008945E+001	9.982499747820839E+001
-2.055854421083624E+001	-1.1504430E+000	-1.1501240E+000	5.5959358E+001	1.000249974731560E+002
-2.097905218425524E+001	-1.1524563E+000	-1.1521239E+000	5.4933666E+001	1.002249974681035E+002
-2.140441320934534E+001	-1.1544378E+000	-1.1541238E+000	5.3934566E+001	1.004249974630511E+002
-2.183224872977824E+001	-1.1564448E+000	-1.1561238E+000	5.2969566E+001	1.006249974579987E+002
-2.227793668862631E+001	-1.1584209E+000	-1.1581236E+000	5.1998573E+001	1.008249974529463E+002
-2.273809723235036E+001	-1.1604257E+000	-1.1601236E+000	5.1034424E+001	1.010249974478938E+002
-2.320548377556042E+001	-1.1624413E+000	-1.1621233E+000	5.0093388E+001	1.012249974428414E+002
-2.367010951231396E+001	-1.1644366E+000	-1.1641234E+000	4.9194389E+001	1.014249974377890E+002
-2.412962539085187E+001	-1.1664615E+000	-1.1661232E+000	4.8341465E+001	1.016249974327366E+002
-2.460081374388432E+001	-1.1684586E+000	-1.1681231E+000	4.7496746E+001	1.018249974276841E+002
-2.508023465112231E+001	-1.1704562E+000	-1.1701229E+000	4.6668468E+001	1.020249974226317E+002
-2.558169337870584E+001	-1.1724460E+000	-1.1721228E+000	4.5831448E+001	1.022249974175793E+002
-2.611316362692389E+001	-1.1744131E+000	-1.1741228E+000	4.4973988E+001	1.024249974125269E+002
-2.662439573405823E+001	-1.1764572E+000	-1.1761227E+000	4.4187187E+001	1.026249974074744E+002
-2.714181941139455E+001	-1.1784319E+000	-1.1781226E+000	4.3417572E+001	1.028249974024220E+002
-2.766280943709445E+001	-1.1804378E+000	-1.1801225E+000	4.2672375E+001	1.030249973973696E+002
-2.819303680790800E+001	-1.1824123E+000	-1.1821223E+000	4.1939869E+001	1.032249973923172E+002
-2.873845759626909E+001	-1.1844070E+000	-1.1841227E+000	4.1213310E+001	1.034249973872647E+002
-2.927424694977776E+001	-1.1864817E+000	-1.1861221E+000	4.0529881E+001	1.036247973822174E+002
-2.981151001685870E+001	-1.1884009E+000	-1.1881222E+000	3.9863827E+001	1.038247973771649E+002
-3.036179609255441E+001	-1.1904259E+000	-1.1901220E+000	3.9208019E+001	1.040247973721125E+002
-3.093012565117579E+001	-1.1924372E+000	-1.1921219E+000	3.8552612E+001	1.042247973670601E+002
-3.149704861478745E+001	-1.1944169E+000	-1.1941218E+000	3.7921551E+001	1.044247973620077E+002
-3.206740181678555E+001	-1.1964195E+000	-1.1961217E+000	3.7309525E+001	1.046247973569552E+002
-3.263651341051207E+001	-1.1983995E+000	-1.1981215E+000	3.6719593E+001	1.048247973519028E+002
-3.320913581621073E+001	-1.2004316E+000	-1.2001214E+000	3.6147633E+001	1.050247973468504E+002
-3.378359979539769E+001	-1.2024282E+000	-1.2021214E+000	3.5592068E+001	1.052247973417980E+002
-3.437117369915613E+001	-1.2044421E+000	-1.2041214E+000	3.5042217E+001	1.054247973367455E+002
-3.495518874202975E+001	-1.2064134E+000	-1.2061211E+000	3.4513142E+001	1.056247973316931E+002
-3.555096461307969E+001	-1.2084367E+000	-1.2081211E+000	3.3991673E+001	1.058247973266407E+002
-3.613269871270569E+001	-1.2104490E+000	-1.2101209E+000	3.3500099E+001	1.060247973215883E+002
-3.675071410392161E+001	-1.2123910E+000	-1.2121209E+000	3.2989590E+001	1.062247973165358E+002
-3.737012535941835E+001	-1.2143989E+000	-1.2141207E+000	3.2496517E+001	1.064247973114834E+002
-3.800504030608272E+001	-1.2164189E+000	-1.2161206E+000	3.2006779E+001	1.066247973064310E+002
-3.862609041277756E+001	-1.2184081E+000	-1.2181206E+000	3.1543655E+001	1.068247973013786E+002
-3.925519666352795E+001	-1.2204134E+000	-1.2201205E+000	3.1089220E+001	1.070247972963261E+002
-3.992470145901305E+001	-1.2224243E+000	-1.2221204E+000	3.0618244E+001	1.072247972912737E+002
-4.057023582951365E+001	-1.2244426E+000	-1.2241201E+000	3.0180811E+001	1.074246972862238E+002
-4.121912493997695E+001	-1.2264893E+000	-1.2261202E+000	2.9755346E+001	1.076245972811739E+002
-4.189370662663271E+001	-1.2284019E+000	-1.2281201E+000	2.9321873E+001	1.078245972761215E+002
-4.255732313954107E+001	-1.2304611E+000	-1.2301199E+000	2.8913029E+001	1.080245972710691E+002
-4.322392933330843E+001	-1.2324610E+000	-1.2321198E+000	2.8513395E+001	1.082245972660166E+002
-4.392580313125688E+001	-1.2344773E+000	-1.2341198E+000	2.8103693E+001	1.084245972609642E+002
-4.461814495387252E+001	-1.2365071E+000	-1.2361196E+000	2.7713099E+001	1.086245972559118E+002
-4.530549474232862E+001	-1.2384608E+000	-1.2381196E+000	2.7335773E+001	1.088245972508594E+002
-4.603014152850142E+001	-1.2404727E+000	-1.2401195E+000	2.6949139E+001	1.090245972458069E+002
-4.672615263791863E+001	-1.2424712E+000	-1.2421193E+000	2.6590488E+001	1.092245972407545E+002
-4.744391088393832E+001	-1.2444565E+000	-1.2441193E+000	2.6230059E+001	1.094245972357021E+002
-4.815865077264175E+001	-1.2464546E+000	-1.2461191E+000	2.5882257E+001	1.096245972306497E+002
-4.887863547569485E+001	-1.2484562E+000	-1.2481191E+000	2.5541962E+001	1.098245972255972E+002
-4.959793242278283E+001	-1.2504889E+000	-1.2501190E+000	2.5212521E+001	1.100245972205448E+002
-5.031778106613774E+001	-1.2524644E+000	-1.2521188E+000	2.4891090E+001	1.102245972154924E+002
-5.104818477435992E+001	-1.2544951E+000	-1.2541188E+000	2.4574726E+001	1.104245972104400E+002
-5.183279549778172E+001	-1.2564150E+000	-1.2561187E+000	2.4239769E+001	1.106245972053875E+002
-5.259329212820184E+001	-1.2584988E+000	-1.2581186E+000	2.3928885E+001	1.108245972003351E+002
-5.334302325421731E+001	-1.2604865E+000	-1.2601185E+000	2.3629827E+001	1.110245971952827E+002
-5.407903536485173E+001	-1.2624323E+000	-1.2621183E+000	2.3344210E+001	1.112245971902303E+002
-5.481494066228015E+001	-1.2645153E+000	-1.2641175E+000	2.3068808E+001	1.114243971851829E+002
-5.560016855469121E+001	-1.2664456E+000	-1.2661183E+000	2.2777731E+001	1.116243971801305E+002
-5.633197713006354E+001	-1.2684115E+000	-1.2681180E+000	2.2516724E+001	1.118243971750780E+002
-5.711877208934584E+001	-1.2704924E+000	-1.2701180E+000	2.2242992E+001	1.120243971700256E+002
-5.787210206920599E+001	-1.2724704E+000	-1.2721179E+000	2.1987629E+001	1.122243971649732E+002
-5.865216253674237E+001	-1.2744722E+000	-1.2741178E+000	2.1729330E+001	1.124243971599208E+002
-5.944100698484021E+001	-1.2764484E+000	-1.2761176E+000	2.1474205E+001	1.126243971548683E+002
-6.020672975483929E+001	-1.2784584E+000	-1.2781175E+000	2.1234476E+001	1.128243971498159E+002
-6.100988352541998E+001	-1.2804869E+000	-1.2801174E+000	2.0988188E+001	1.130243971447635E+002
-6.181910840183718E+001	-1.2824755E+000	-1.2821172E+000	2.0745615E+001	1.132243971397111E+002
-6.263544588024115E+001	-1.2844336E+000	-1.2841172E+000	2.0506496E+001	1.134243971346586E+002
-6.348440018208385E+001	-1.2864698E+000	-1.2861173E+000	2.0264345E+001	1.136243971296062E+002
-6.432054390172061E+001	-1.2884755E+000	-1.2881171E+000	2.0032099E+001	1.138243971245538E+002
-6.511052673582049E+001	-1.2904414E+000	-1.2901170E+000	1.9819244E+001	1.140243971195014E+002
-6.595141707201924E+001	-1.2924583E+000	-1.2921168E+000	1.9597128E+001	1.142243971144489E+002
-6.678084580265735E+001	-1.2944534E+000	-1.2941169E+000	1.9383602E+001	1.144243971093965E+002
-6.759218041696795E+001	-1.2964785E+000	-1.2961166E+000	1.9180895E+001	1.146243971043441E+002
-6.840990661006936E+001	-1.2984776E+000	-1.2981166E+000	1.8980843E+001	1.148243970992917E+002
-6.923130590142591E+001	-1.3004427E+000	-1.3001163E+000	1.8784027E+001	1.150243970942392E+002
-7.005683286926353E+001	-1.3025323E+000	-1.3021165E+000	1.8592510E+001	1.152243970891868E+002
-7.088666776353966E+001	-1.3044515E+000	-1.3041167E+000	1.8401930E+001	1.154242970841369E+002
-7.170410288596622E+001	-1.3064525E+000	-1.3061162E+000	1.8220053E+001	1.156241970790870E+002
-7.261951635321816E+001	-1.3085110E+000	-1.3081161E+000	1.8018724E+001	1.158241970740346E+002
-7.348847810805785E+001	-1.3104713E+000	-1.3101159E+000	1.7832336E+001	1.160241970689822E+002
-7.430303146563386E+001	-1.3124982E+000	-1.3121158E+000	1.7664127E+001	1.162241970639298E+002
-7.518275433494955E+001	-1.3145014E+000	-1.3141158E+000	1.7484081E+001	1.164241970588773E+002
-7.609052156753273E+001	-1.3164799E+000	-1.3161155E+000	1.7301497E+001	1.166241970538249E+002
-7.694979245592401E+001	-1.3184471E+000	-1.3181155E+000	1.7133862E+001	1.168241970487725E+002
-7.782428118755490E+001	-1.3204954E+000	-1.3201154E+000	1.6967653E+001	1.170241970437201E+002
-7.870285124357071E+001	-1.3224908E+000	-1.3221153E+000	1.6803595E+001	1.172241970386676E+002
-7.964657409553331E+001	-1.3244616E+000	-1.3241153E+000	1.6629234E+001	1.174241970336152E+002
-8.049959349091614E+001	-1.3264743E+000	-1.3261151E+000	1.6478025E+001	1.176241970285628E+002
-8.142331832823061E+001	-1.3285125E+000	-1.3281150E+000	1.6316118E+001	1.178241970235104E+002
-8.226011797846547E+001	-1.3304867E+000	-1.3301150E+000	1.6174139E+001	1.180241970184579E+002
-8.312834311937263E+001	-1.3324884E+000	-1.3321148E+000	1.6029291E+001	1.182241970134055E+002
-8.406483449579122E+001	-1.3344731E+000	-1.3341148E+000	1.5874332E+001	1.184241970083531E+002
-8.502748705416263E+001	-1.3365024E+000	-1.3361145E+000	1.5718475E+001	1.186241970033007E+002
-8.596192401228609E+001	-1.3384863E+000	-1.3381145E+000	1.5570688E+001	1.188241969982482E+002
-8.688793792475894E+001	-1.3404796E+000	-1.3401144E+000	1.5427684E+001	1.190241969931958E+002
-8.785489472646464E+001	-1.3425002E+000	-1.3421137E+000	1.5280881E+001	1.192240969881459E+002
-8.879820860351663E+001	-1.3444375E+000	-1.3441139E+000	1.5140368E+001	1.194239969830960E+002
-8.961047629272025E+001	-1.3465004E+000	-1.3461140E+000	1.5026150E+001	1.196239969780436E+002
-9.061411109208495E+001	-1.3485042E+000	-1.3481140E+000	1.4881834E+001	1.198239969729912E+002
-9.152421193382406E+001	-1.3504592E+000	-1.3501139E+000	1.4755213E+001	1.200239969679387E+002
-9.238679439032165E+001	-1.3524935E+000	-1.3521137E+000	1.4639468E+001	1.202239969628863E+002
-9.331259777973025E+001	-1.3544422E+000	-1.3541137E+000	1.4515106E+001	1.204239969578339E+002
-9.416964704001036E+001	-1.3565155E+000	-1.3561136E+000	1.4405019E+001	1.206239969527815E+002
-9.510316736519735E+001	-1.3584170E+000	-1.3581135E+000	1.4283615E+001	1.208239969477290E+002
-9.605119701523881E+001	-1.3604789E+000	-1.3601135E+000	1.4164102E+001	1.210239969426766E+002
-9.702520491044288E+001	-1.3625877E+000	-1.3621132E+000	1.4043647E+001	1.212239969376242E+002
-9.791993384134230E+001	-1.3644216E+000	-1.3641132E+000	1.3934053E+001	1.214239969325718E+002
-9.893106927298635E+001	-1.3664974E+000	-1.3661131E+000	1.3812621E+001	1.216239969275193E+002
-9.977259467734757E+001	-1.3685106E+000	-1.3681130E+000	1.3716298E+001	1.218239969224669E+002
-1.006311454372883E+002	-1.3705052E+000	-1.3701129E+000	1.3619096E+001	1.220239969174145E+002
-1.015182908527436E+002	-1.3724713E+000	-1.3721128E+000	1.3519449E+001	1.222239969123621E+002
-1.024916839080605E+002	-1.3744837E+000	-1.3741126E+000	1.3410686E+001	1.224239969073096E+002
-1.034176402621800E+002	-1.3765079E+000	-1.3761126E+000	1.3310184E+001	1.226239969022572E+002
-1.047671299218591E+002	-1.3784792E+000	-1.3781124E+000	1.3157555E+001	1.228239968972048E+002
-1.058433769554777E+002	-1.3805072E+000	-1.3801124E+000	1.3042925E+001	1.230239968921524E+002
-1.068196529095935E+002	-1.3824701E+000	-1.3821120E+000	1.2942096E+001	1.232238968871025E+002
-1.079923821587679E+002	-1.3845035E+000	-1.3841122E+000	1.2820381E+001	1.234237968820526E+002
-1.088918995251734E+002	-1.3864970E+000	-1.3861121E+000	1.2732784E+001	1.236237968770001E+002
-1.100676603307534E+002	-1.3885605E+000	-1.3882121E+000	1.2615518E+001	1.238337968716951E+002
-1.112283409112160E+002	-1.3906442E+000	-1.3903120E+000	1.2502606E+001	1.240437968663900E+002
-1.121773959979450E+002	-1.3926775E+000	-1.3923118E+000	1.2414957E+001	1.242437968613376E+002
-1.132456394517776E+002	-1.3946683E+000	-1.3943117E+000	1.2315427E+001	1.244437968562852E+002
-1.142503024931666E+002	-1.3966392E+000	-1.3963116E+000	1.2224381E+001	1.246437968512328E+002
-1.153089725100804E+002	-1.3986281E+000	-1.3983114E+000	1.2129395E+001	1.248437968461803E+002
-1.161107713522011E+002	-1.4007169E+000	-1.4003115E+000	1.2063626E+001	1.250437968411279E+002
-1.170799052753146E+002	-1.4026152E+000	-1.4023113E+000	1.1979982E+001	1.252437968360755E+002
-1.180611781154896E+002	-1.4046910E+000	-1.4043112E+000	1.1897992E+001	1.254437968310231E+002
-1.189869509283926E+002	-1.4066689E+000	-1.4063109E+000	1.1822043E+001	1.256437968259706E+002
-1.200913346932857E+002	-1.4086138E+000	-1.4083110E+000	1.1729521E+001	1.258437968209182E+002
-1.210233165639327E+002	-1.4107081E+000	-1.4103110E+000	1.1656498E+001	1.260437968158658E+002
-1.221852981617126E+002	-1.4126639E+000	-1.4123108E+000	1.1561652E+001	1.262437968108134E+002
-1.231120473057238E+002	-1.4146607E+000	-1.4143107E+000	1.1490839E+001	1.264437968057609E+002
-1.241405718461721E+002	-1.4166689E+000	-1.4163107E+000	1.1411812E+001	1.266437968007085E+002
-1.251617659916952E+002	-1.4186561E+000	-1.4183104E+000	1.1334580E+001	1.268437967956561E+002
-1.260164007553976E+002	-1.4206660E+000	-1.4203095E+000	1.1273660E+001	1.270436967906062E+002
-1.270722784492959E+002	-1.4226773E+000	-1.4223105E+000	1.1195811E+001	1.272436967855538E+002
-1.281237003549159E+002	-1.4246435E+000	-1.4243102E+000	1.1119282E+001	1.274435967805039E+002
-1.293161110694173E+002	-1.4266300E+000	-1.4263102E+000	1.1032113E+001	1.276435967754514E+002
-1.303145566397516E+002	-1.4286529E+000	-1.4283100E+000	1.0963111E+001	1.278435967703990E+002
-1.313127858276539E+002	-1.4306252E+000	-1.4303099E+000	1.0894790E+001	1.280435967653466E+002
-1.324706121431730E+002	-1.4326458E+000	-1.4323099E+000	1.0814819E+001	1.282435967602942E+002
-1.336941655974263E+002	-1.4346700E+000	-1.4343096E+000	1.0730984E+001	1.284435967552417E+002
-1.345996857111140E+002	-1.4366691E+000	-1.4363097E+000	1.0673644E+001	1.286435967501893E+002
-1.357107963432254E+002	-1.4387059E+000	-1.4383096E+000	1.0601264E+001	1.288435967451369E+002
-1.366892953275824E+002	-1.4407215E+000	-1.4403094E+000	1.0540119E+001	1.290435967400845E+002
-1.377348500044161E+002	-1.4427407E+000	-1.4423091E+000	1.0474769E+001	1.292435967350320E+002
-1.385791480925080E+002	-1.4447078E+000	-1.4443092E+000	1.0425145E+001	1.294435967299796E+002
-1.396556375626794E+002	-1.4466095E+000	-1.4463090E+000	1.0358404E+001	1.296435967249272E+002
-1.406875154685542E+002	-1.4487652E+000	-1.4483091E+000	1.0297752E+001	1.298435967198748E+002
-1.415163445007777E+002	-1.4506890E+000	-1.4503088E+000	1.0251035E+001	1.300435967148223E+002
-1.425735599556747E+002	-1.4526539E+000	-1.4523087E+000	1.0188803E+001	1.302435967097699E+002
-1.435061319052772E+002	-1.4547619E+000	-1.4543086E+000	1.0137280E+001	1.304435967047175E+002
-1.444077113296437E+002	-1.4566958E+000	-1.4563085E+000	1.0087382E+001	1.306435966996651E+002
-1.458269705188522E+002	-1.4585484E+000	-1.4583083E+000	1.0001911E+001	1.308435966946126E+002
-1.469021187150333E+002	-1.4606918E+000	-1.4603088E+000	9.9433002E+000	1.310435966895602E+002
-1.480800883242073E+002	-1.4627032E+000	-1.4623080E+000	9.8777847E+000	1.312433966845128E+002
-1.494432947046364E+002	-1.4646753E+000	-1.4643081E+000	9.8008766E+000	1.314433966794604E+002
-1.504781806852811E+002	-1.4666691E+000	-1.4663081E+000	9.7467222E+000	1.316433966744080E+002
-1.514195443291774E+002	-1.4686601E+000	-1.4683079E+000	9.6992769E+000	1.318433966693556E+002
-1.523972900146243E+002	-1.4706714E+000	-1.4703078E+000	9.6502466E+000	1.320433966643031E+002
-1.537334781687816E+002	-1.4726721E+000	-1.4723077E+000	9.5793848E+000	1.322433966592507E+002
-1.553064849036077E+002	-1.4746927E+000	-1.4743077E+000	9.4953709E+000	1.324433966541983E+002
-1.564985646704155E+002	-1.4766536E+000	-1.4763075E+000	9.4355726E+000	1.326433966491459E+002
-1.575170339856827E+002	-1.4786696E+000	-1.4783074E+000	9.3873634E+000	1.328433966440934E+002
-1.582722013975217E+002	-1.4807016E+000	-1.4803073E+000	9.3554115E+000	1.330433966390410E+002
-1.591968727587578E+002	-1.4826870E+000	-1.4823072E+000	9.3135433E+000	1.332433966339886E+002
-1.601220968585976E+002	-1.4846659E+000	-1.4843072E+000	9.2720861E+000	1.334433966289362E+002
-1.613392436012387E+002	-1.4866481E+000	-1.4863070E+000	9.2144232E+000	1.336433966238837E+002
-1.623896773634576E+002	-1.4886968E+000	-1.4883069E+000	9.1674347E+000	1.338433966188313E+002
-1.633820059564380E+002	-1.4907089E+000	-1.4903069E+000	9.1240702E+000	1.340433966137789E+002
-1.645946183939911E+002	-1.4926689E+000	-1.4923067E+000	9.0687590E+000	1.342433966087265E+002
-1.654686299711132E+002	-1.4946964E+000	-1.4943066E+000	9.0331106E+000	1.344433966036740E+002
-1.666609049708394E+002	-1.4966513E+000	-1.4963065E+000	8.9802179E+000	1.346433965986216E+002
-1.677520867053611E+002	-1.4987301E+000	-1.4983064E+000	8.9341965E+000	1.348433965935692E+002
-1.691602985962022E+002	-1.5006413E+000	-1.5003059E+000	8.8711205E+000	1.350432965885193E+002
-1.705816218162768E+002	-1.5026770E+000	-1.5023072E+000	8.8091373E+000	1.352432965834669E+002
-1.717435742581513E+002	-1.5047061E+000	-1.5043061E+000	8.7613535E+000	1.354431965784170E+002
-1.728074818652233E+002	-1.5066829E+000	-1.5063061E+000	8.7188520E+000	1.356431965733645E+002
-1.738657551828153E+002	-1.5086775E+000	-1.5083058E+000	8.6772547E+000	1.358431965683121E+002
-1.746432993309299E+002	-1.5106573E+000	-1.5103059E+000	8.6499586E+000	1.360431965632597E+002
-1.759683114168597E+002	-1.5127584E+000	-1.5123057E+000	8.5967655E+000	1.362431965582073E+002
-1.770154601235508E+002	-1.5146133E+000	-1.5143056E+000	8.5563898E+000	1.364431965531548E+002
-1.778348379059441E+002	-1.5166689E+000	-1.5163056E+000	8.5285254E+000	1.366431965481024E+002
-1.787327144756880E+002	-1.5186774E+000	-1.5183054E+000	8.4969187E+000	1.368431965430500E+002
-1.801488273051873E+002	-1.5207067E+000	-1.5203054E+000	8.4413910E+000	1.370431965379976E+002
-1.814473969747160E+002	-1.5226854E+000	-1.5223053E+000	8.3918839E+000	1.372431965329451E+002
-1.825362020166003E+002	-1.5246692E+000	-1.5243051E+000	8.3526945E+000	1.374431965278927E+002
-1.835228038937057E+002	-1.5266943E+000	-1.5263051E+000	8.3188257E+000	1.376431965228403E+002
-1.848667380393508E+002	-1.5286868E+000	-1.5283049E+000	8.2691278E+000	1.378431965177879E+002
-1.861072592367664E+002	-1.5306873E+000	-1.5303049E+000	8.2247591E+000	1.380431965127354E+002
-1.869821468513296E+002	-1.5326786E+000	-1.5323048E+000	8.1969252E+000	1.382431965076830E+002
-1.879459595669427E+002	-1.5346820E+000	-1.5343046E+000	8.1655493E+000	1.384431965026306E+002
-1.888294959457553E+002	-1.5366937E+000	-1.5363046E+000	8.1379957E+000	1.386431964975782E+002
-1.900170369851085E+002	-1.5387076E+000	-1.5383044E+000	8.0977354E+000	1.388431964925257E+002
-1.916678321074014E+002	-1.5406845E+000	-1.5403042E+000	8.0383053E+000	1.390430964874759E+002
-1.930800788613402E+002	-1.5426930E+000	-1.5423043E+000	7.9899130E+000	1.392429964824260E+002
-1.941519860767185E+002	-1.5446800E+000	-1.5443040E+000	7.9560351E+000	1.394429964773735E+002
-1.953029693854369E+002	-1.5467213E+000	-1.5463041E+000	7.9195995E+000	1.396429964723211E+002
-1.961578433335235E+002	-1.5486853E+000	-1.5483040E+000	7.8950977E+000	1.398429964672687E+002
-1.970841747703466E+002	-1.5507696E+000	-1.5503038E+000	7.8685646E+000	1.400429964622163E+002
-1.982465169781185E+002	-1.5526507E+000	-1.5523036E+000	7.8319192E+000	1.402429964571638E+002
-1.989476728806967E+002	-1.5547106E+000	-1.5543036E+000	7.8146710E+000	1.404429964521114E+002
-2.003330283932673E+002	-1.5565997E+000	-1.5563034E+000	7.7700605E+000	1.406429964470590E+002
-2.012990234768581E+002	-1.5588555E+000	-1.5583035E+000	7.7439795E+000	1.408429964420066E+002
-2.024653102567681E+002	-1.5606439E+000	-1.5603032E+000	7.7082038E+000	1.410429964369541E+002
-2.036881730994400E+002	-1.5626338E+000	-1.5623031E+000	7.6716962E+000	1.412429964319017E+002
-2.052936553609075E+002	-1.5647004E+000	-1.5643032E+000	7.6217666E+000	1.414429964268493E+002
-2.064179028621338E+002	-1.5668324E+000	-1.5663029E+000	7.5905838E+000	1.416429964217969E+002
-2.075138817395750E+002	-1.5685366E+000	-1.5683029E+000	7.5587072E+000	1.418429964167444E+002
-2.083985678138652E+002	-1.5707344E+000	-1.5703027E+000	7.5371652E+000	1.420429964116920E+002
-2.098399754997836E+002	-1.5727347E+000	-1.5723026E+000	7.4949241E+000	1.422429964066396E+002
-2.110501499219290E+002	-1.5746900E+000	-1.5743027E+000	7.4612122E+000	1.424429964015872E+002
-2.122709421624950E+002	-1.5767102E+000	-1.5763025E+000	7.4278193E+000	1.426429963965347E+002
-2.135774089985623E+002	-1.5787058E+000	-1.5783017E+000	7.3917265E+000	1.428428963914848E+002
-2.149234506607563E+002	-1.5807185E+000	-1.5803028E+000	7.3547978E+000	1.430428963864324E+002
-2.154893773223803E+002	-1.5827116E+000	-1.5823023E+000	7.3447313E+000	1.432427963813825E+002
-2.165122341363608E+002	-1.5847152E+000	-1.5843021E+000	7.3192873E+000	1.434427963763301E+002
-2.176751002832880E+002	-1.5867013E+000	-1.5863020E+000	7.2893100E+000	1.436427963712777E+002
-2.190180730084430E+002	-1.5886909E+000	-1.5883018E+000	7.2536974E+000	1.438427963662252E+002
-2.203825477807713E+002	-1.5907340E+000	-1.5903018E+000	7.2180581E+000	1.440427963611728E+002
-2.218707784925195E+002	-1.5927020E+000	-1.5923018E+000	7.1785121E+000	1.442427963561204E+002
-2.230001316286816E+002	-1.5947143E+000	-1.5943017E+000	7.1511807E+000	1.444427963510680E+002
-2.240786181988360E+002	-1.5967458E+000	-1.5963014E+000	7.1258287E+000	1.446427963460155E+002
-2.251027244191598E+002	-1.5987270E+000	-1.5983015E+000	7.1022105E+000	1.448427963409631E+002
-2.261393997101554E+002	-1.6007262E+000	-1.6003013E+000	7.0784936E+000	1.450427963359107E+002
-2.268216927759777E+002	-1.6027497E+000	-1.6023011E+000	7.0661216E+000	1.452427963308583E+002
-2.273757708348394E+002	-1.6047422E+000	-1.6043011E+000	7.0576658E+000	1.454427963258058E+002
-2.291764928856692E+002	-1.6067297E+000	-1.6063010E+000	7.0108838E+000	1.456427963207534E+002
-2.306332417204806E+002	-1.6087481E+000	-1.6083008E+000	6.9753523E+000	1.458427963157010E+002
-2.313510365302336E+002	-1.6107259E+000	-1.6103009E+000	6.9622593E+000	1.460427963106486E+002
-2.322164684239433E+002	-1.6127075E+000	-1.6123006E+000	6.9448457E+000	1.462427963055961E+002
-2.334488904373447E+002	-1.6146696E+000	-1.6143007E+000	6.9165869E+000	1.464427963005437E+002
-2.350654799986864E+002	-1.6167927E+000	-1.6163005E+000	6.8780522E+000	1.466427962954913E+002
-2.363929390859148E+002	-1.6186959E+000	-1.6183007E+000	6.8474798E+000	1.468427962904389E+002
-2.372762640569581E+002	-1.6206926E+000	-1.6203003E+000	6.8304033E+000	1.470425962853915E+002
-2.388297330808728E+002	-1.6227071E+000	-1.6223001E+000	6.7944102E+000	1.472425962803391E+002
-2.401025649911949E+002	-1.6247375E+000	-1.6243000E+000	6.7668476E+000	1.474425962752866E+002
-2.409394368606351E+002	-1.6267095E+000	-1.6263000E+000	6.7515283E+000	1.476425962702342E+002
-2.422961768022742E+002	-1.6287613E+000	-1.6282998E+000	6.7221913E+000	1.478425962651818E+002
-2.432648933414962E+002	-1.6307122E+000	-1.6302999E+000	6.7034421E+000	1.480425962601294E+002
-2.442300628977837E+002	-1.6326866E+000	-1.6322997E+000	6.6850352E+000	1.482425962550769E+002
-2.450320253588443E+002	-1.6347306E+000	-1.6342995E+000	6.6714978E+000	1.484425962500245E+002
-2.464200815797662E+002	-1.6367513E+000	-1.6362995E+000	6.6421180E+000	1.486425962449721E+002
-2.479615348785628E+002	-1.6387241E+000	-1.6382993E+000	6.6087832E+000	1.488425962399197E+002
-2.489983783427806E+002	-1.6407129E+000	-1.6402993E+000	6.5892510E+000	1.490425962348672E+002
-2.502911088407184E+002	-1.6427364E+000	-1.6422992E+000	6.5633030E+000	1.492425962298148E+002
-2.512786917394524E+002	-1.6447214E+000	-1.6442990E+000	6.5454073E+000	1.494425962247624E+002
-2.523803162563963E+002	-1.6467677E+000	-1.6462991E+000	6.5249453E+000	1.496425962197100E+002
-2.532247753143301E+002	-1.6487507E+000	-1.6482989E+000	6.5110164E+000	1.498425962146575E+002
-2.541242488030671E+002	-1.6507397E+000	-1.6502987E+000	6.4957976E+000	1.500425962096051E+002
-2.553220683874188E+002	-1.6527293E+000	-1.6522987E+000	6.4731154E+000	1.502425962045527E+002
-2.562504624022913E+002	-1.6547382E+000	-1.6542985E+000	6.4575033E+000	1.504425961995003E+002
-2.581460836977099E+002	-1.6567870E+000	-1.6562985E+000	6.4180212E+000	1.506425961944478E+002
-2.592596496097635E+002	-1.6587262E+000	-1.6582984E+000	6.3979344E+000	1.508425961893954E+002
-2.608629161211326E+002	-1.6607732E+000	-1.6602981E+000	6.3664594E+000	1.510424961843455E+002
-2.616175738051370E+002	-1.6627043E+000	-1.6622982E+000	6.3554764E+000	1.512423961792956E+002
-2.628951361303684E+002	-1.6647396E+000	-1.6642981E+000	6.3323331E+000	1.514423961742432E+002
-2.642480759004341E+002	-1.6668364E+000	-1.6662980E+000	6.3078470E+000	1.516423961691908E+002
-2.656489928455317E+002	-1.6687772E+000	-1.6682979E+000	6.2818880E+000	1.518423961641383E+002
-2.665803187666561E+002	-1.6707237E+000	-1.6702977E+000	6.2672434E+000	1.520423961590859E+002
-2.675350074919447E+002	-1.6727231E+000	-1.6722977E+000	6.2523522E+000	1.522423961540335E+002
-2.689342899409003E+002	-1.6748298E+000	-1.6742976E+000	6.2276545E+000	1.524423961489811E+002
-2.701370578190636E+002	-1.6767566E+000	-1.6762975E+000	6.2070589E+000	1.526423961439286E+002
-2.717218710862589E+002	-1.6787223E+000	-1.6782973E+000	6.1780901E+000	1.528423961388762E+002
-2.730264973088988E+002	-1.6807657E+000	-1.6802973E+000	6.1560535E+000	1.530423961338238E+002
-2.743171006524913E+002	-1.6827823E+000	-1.6822970E+000	6.1344419E+000	1.532423961287714E+002
-2.751173034611734E+002	-1.6847725E+000	-1.6842971E+000	6.1238332E+000	1.534423961237189E+002
-2.765129914532445E+002	-1.6867634E+000	-1.6862971E+000	6.1001234E+000	1.536423961186665E+002
-2.772576368422742E+002	-1.6887376E+000	-1.6882969E+000	6.0908608E+000	1.538423961136141E+002
-2.789047956488312E+002	-1.6907270E+000	-1.6902968E+000	6.0620217E+000	1.540423961085617E+002
-2.800604930799841E+002	-1.6927366E+000	-1.6922967E+000	6.0441823E+000	1.542423961035092E+002
-2.809626975459569E+002	-1.6947592E+000	-1.6942965E+000	6.0319724E+000	1.544423960984568E+002
-2.815433036086226E+002	-1.6967360E+000	-1.6962963E+000	6.0265541E+000	1.546423960934044E+002
-2.823369137705585E+002	-1.6987138E+000	-1.6982962E+000	6.0166197E+000	1.548423960883520E+002
-2.839781177104663E+002	-1.7007357E+000	-1.7002968E+000	5.9889674E+000	1.550422960833021E+002
-2.855122435044268E+002	-1.7027429E+000	-1.7022963E+000	5.9638176E+000	1.552421960782522E+002
-2.862224154007392E+002	-1.7047602E+000	-1.7042961E+000	5.9560680E+000	1.554421960731997E+002
-2.877214997501330E+002	-1.7067424E+000	-1.7062960E+000	5.9319253E+000	1.556421960681473E+002
-2.885941214745276E+002	-1.7087150E+000	-1.7082959E+000	5.9208241E+000	1.558421960630949E+002
-2.898205046296944E+002	-1.7107462E+000	-1.7102957E+000	5.9027781E+000	1.560421960580425E+002
-2.915315232244484E+002	-1.7127547E+000	-1.7122955E+000	5.8750243E+000	1.562421960529900E+002
-2.930447729547543E+002	-1.7147784E+000	-1.7142955E+000	5.8515921E+000	1.564421960479376E+002
-2.938333732622277E+002	-1.7167908E+000	-1.7162954E+000	5.8427358E+000	1.566421960428852E+002
-2.947116740782517E+002	-1.7187284E+000	-1.7182952E+000	5.8318982E+000	1.568421960378328E+002
-2.966793605151361E+002	-1.7207716E+000	-1.7202953E+000	5.8001056E+000	1.570421960327803E+002
-2.977625040521434E+002	-1.7227420E+000	-1.7222950E+000	5.7856240E+000	1.572421960277279E+002
-2.986688028171229E+002	-1.7248720E+000	-1.7242951E+000	5.7751999E+000	1.574421960226755E+002
-3.003526657389957E+002	-1.7267406E+000	-1.7262949E+000	5.7490435E+000	1.576421960176231E+002
-3.016889613599178E+002	-1.7288080E+000	-1.7282947E+000	5.7304320E+000	1.578421960125706E+002
-3.024364076493271E+002	-1.7306089E+000	-1.7302947E+000	5.7222242E+000	1.580421960075182E+002
-3.034480288455808E+002	-1.7328883E+000	-1.7322946E+000	5.7106595E+000	1.582421960024658E+002
-3.047872078370078E+002	-1.7347925E+000	-1.7342944E+000	5.6918154E+000	1.584421959974134E+002
-3.053380112269570E+002	-1.7367250E+000	-1.7362944E+000	5.6878767E+000	1.586421959923609E+002
-3.066680705623603E+002	-1.7387074E+000	-1.7382938E+000	5.6696720E+000	1.588420959873110E+002
-3.074858998668935E+002	-1.7408226E+000	-1.7402951E+000	5.6614714E+000	1.590420959822586E+002
-3.082677227850663E+002	-1.7427466E+000	-1.7422941E+000	5.6533542E+000	1.592419959772087E+002
-3.096447467609325E+002	-1.7447088E+000	-1.7442939E+000	5.6345501E+000	1.594419959721563E+002
-3.108935477090254E+002	-1.7467895E+000	-1.7462939E+000	5.6186094E+000	1.596419959671039E+002
-3.122197788048215E+002	-1.7487862E+000	-1.7482938E+000	5.6011386E+000	1.598419959620514E+002
-3.135190731057229E+002	-1.7508004E+000	-1.7502937E+000	5.5843506E+000	1.600419959569990E+002
-3.144241743455405E+002	-1.7527552E+000	-1.7522936E+000	5.5744925E+000	1.602419959519466E+002
-3.151317989604540E+002	-1.7547526E+000	-1.7542934E+000	5.5683136E+000	1.604419959468942E+002
-3.161614632422688E+002	-1.7567840E+000	-1.7562935E+000	5.5566039E+000	1.606419959418417E+002
-3.174614344746087E+002	-1.7587725E+000	-1.7582933E+000	5.5401139E+000	1.608419959367893E+002
-3.190351877558535E+002	-1.7607957E+000	-1.7602932E+000	5.5191269E+000	1.610419959317369E+002
-3.196689464543142E+002	-1.7627616E+000	-1.7622931E+000	5.5143347E+000	1.612419959266845E+002
-3.203645838588272E+002	-1.7647594E+000	-1.7642930E+000	5.5085969E+000	1.614419959216320E+002
-3.232071249522871E+002	-1.7667677E+000	-1.7662929E+000	5.4663639E+000	1.616419959165796E+002
-3.247831094573141E+002	-1.7688024E+000	-1.7682928E+000	5.4461036E+000	1.618419959115272E+002
-3.254349984582047E+002	-1.7707846E+000	-1.7702925E+000	5.4412851E+000	1.620419959064748E+002
-3.264250456600223E+002	-1.7727562E+000	-1.7722926E+000	5.4308219E+000	1.622419959014223E+002
-3.271513755997303E+002	-1.7747331E+000	-1.7742925E+000	5.4248071E+000	1.624419958963699E+002
-3.284671645586174E+002	-1.7767606E+000	-1.7762924E+000	5.4092488E+000	1.626419958913175E+002
-3.298129626831783E+002	-1.7787641E+000	-1.7782930E+000	5.3932509E+000	1.628419958862651E+002
-3.307377293325135E+002	-1.7808071E+000	-1.7802920E+000	5.3843484E+000	1.630417958812177E+002
-3.319659375538899E+002	-1.7827847E+000	-1.7822921E+000	5.3703842E+000	1.632417958761653E+002
-3.333354841543710E+002	-1.7848113E+000	-1.7842920E+000	5.3543992E+000	1.634417958711128E+002
-3.340029041026451E+002	-1.7868072E+000	-1.7862920E+000	5.3496757E+000	1.636417958660604E+002
-3.350089952378039E+002	-1.7888081E+000	-1.7882918E+000	5.3395824E+000	1.638417958610080E+002
-3.356814227958384E+002	-1.7907553E+000	-1.7902917E+000	5.3346868E+000	1.640417958559556E+002
-3.367296436681775E+002	-1.7927850E+000	-1.7922914E+000	5.3241081E+000	1.642417958509031E+002
-3.378106659156135E+002	-1.7947708E+000	-1.7942915E+000	5.3129492E+000	1.644417958458507E+002
-3.393184585592917E+002	-1.7967829E+000	-1.7962915E+000	5.2952700E+000	1.646417958407983E+002
-3.405537024863452E+002	-1.7987307E+000	-1.7982914E+000	5.2817831E+000	1.648417958357459E+002
-3.420288625509543E+002	-1.8008071E+000	-1.8002914E+000	5.2650738E+000	1.650417958306934E+002
-3.435576716637124E+002	-1.8027827E+000	-1.8022912E+000	5.2473946E+000	1.652417958256410E+002
-3.443183312794506E+002	-1.8047434E+000	-1.8042910E+000	5.2414966E+000	1.654417958205886E+002
-3.446890354329498E+002	-1.8067757E+000	-1.8062907E+000	5.2417555E+000	1.656417958155362E+002
-3.458394688759790E+002	-1.8087417E+000	-1.8082907E+000	5.2300038E+000	1.658417958104837E+002
-3.484851308225775E+002	-1.8107501E+000	-1.8102907E+000	5.1960611E+000	1.660417958054313E+002
-3.498403235260312E+002	-1.8127587E+000	-1.8122907E+000	5.1816745E+000	1.662417958003789E+002
-3.507555887845097E+002	-1.8147727E+000	-1.8142905E+000	5.1738954E+000	1.664417957953265E+002
-3.514493617449198E+002	-1.8167697E+000	-1.8162904E+000	5.1693640E+000	1.666417957902740E+002
-3.532568684396269E+002	-1.8187677E+000	-1.8182902E+000	5.1485701E+000	1.668416957852241E+002
-3.542144198592064E+002	-1.8208030E+000	-1.8202913E+000	5.1403980E+000	1.670416957801717E+002
-3.550635452681381E+002	-1.8228058E+000	-1.8222902E+000	5.1337452E+000	1.672415957751218E+002
-3.559310186931052E+002	-1.8247606E+000	-1.8242899E+000	5.1267252E+000	1.674415957700694E+002
-3.570139786315888E+002	-1.8267719E+000	-1.8262898E+000	5.1168075E+000	1.676415957650170E+002
-3.579488387745787E+002	-1.8287927E+000	-1.8282896E+000	5.1090894E+000	1.678415957599645E+002
-3.597516129487235E+002	-1.8307681E+000	-1.8302897E+000	5.0889783E+000	1.680415957549121E+002
-3.619131149477972E+002	-1.8327787E+000	-1.8322897E+000	5.0641398E+000	1.682415957498597E+002
-3.633087583182887E+002	-1.8348125E+000	-1.8342896E+000	5.0502844E+000	1.684415957448073E+002
-3.636215970954127E+002	-1.8368109E+000	-1.8362894E+000	5.0514350E+000	1.686415957397548E+002
-3.649262808326148E+002	-1.8387983E+000	-1.8382894E+000	5.0388212E+000	1.688415957347024E+002
-3.660207760306985E+002	-1.8408431E+000	-1.8402891E+000	5.0293403E+000	1.690415957296500E+002
-3.669038543830957E+002	-1.8427985E+000	-1.8422890E+000	5.0225649E+000	1.692415957245976E+002
-3.681826032759654E+002	-1.8447967E+000	-1.8442889E+000	5.0105481E+000	1.694415957195451E+002
-3.692852598674717E+002	-1.8468318E+000	-1.8462888E+000	5.0010982E+000	1.696415957144927E+002
-3.709816302517900E+002	-1.8488213E+000	-1.8482889E+000	4.9835925E+000	1.698415957094403E+002
-3.721176140886860E+002	-1.8508244E+000	-1.8502886E+000	4.9737616E+000	1.700415957043879E+002
-3.738921033595434E+002	-1.8527994E+000	-1.8522886E+000	4.9554386E+000	1.702415956993354E+002
-3.747652812166261E+002	-1.8548234E+000	-1.8542886E+000	4.9492936E+000	1.704415956942830E+002
-3.758134285738670E+002	-1.8568166E+000	-1.8562884E+000	4.9407940E+000	1.706415956892306E+002
-3.772578931699663E+002	-1.8588133E+000	-1.8582889E+000	4.9271688E+000	1.708414956841807E+002
-3.776861718149685E+002	-1.8607634E+000	-1.8602881E+000	4.9267449E+000	1.710413956791308E+002
-3.783404184587953E+002	-1.8628227E+000	-1.8622880E+000	4.9236679E+000	1.712413956740784E+002
-3.796001063647464E+002	-1.8649373E+000	-1.8642877E+000	4.9129000E+000	1.714413956690260E+002
-3.805191769848634E+002	-1.8668433E+000	-1.8662879E+000	4.9060426E+000	1.716413956639735E+002
-3.826495934959983E+002	-1.8687723E+000	-1.8682877E+000	4.8837690E+000	1.718413956589211E+002
-3.838401054114183E+002	-1.8707585E+000	-1.8702878E+000	4.8737965E+000	1.720413956538687E+002
-3.849557193012183E+002	-1.8728701E+000	-1.8722875E+000	4.8651571E+000	1.722413956488163E+002
-3.860278488340828E+002	-1.8748542E+000	-1.8742876E+000	4.8567848E+000	1.724413956437638E+002
-3.878607562729030E+002	-1.8768395E+000	-1.8762873E+000	4.8389521E+000	1.726413956387114E+002
-3.886237510283243E+002	-1.8788244E+000	-1.8782872E+000	4.8345590E+000	1.728413956336590E+002
-3.907013003853181E+002	-1.8808362E+000	-1.8802869E+000	4.8140006E+000	1.730413956286066E+002
-3.910474670955127E+002	-1.8828021E+000	-1.8822870E+000	4.8147664E+000	1.732413956235541E+002
-3.920567509787434E+002	-1.8848228E+000	-1.8842869E+000	4.8075256E+000	1.734413956185017E+002
-3.922997000190408E+002	-1.8867940E+000	-1.8862869E+000	4.8095727E+000	1.736413956134493E+002
-3.936773561404134E+002	-1.8888292E+000	-1.8882868E+000	4.7979116E+000	1.738413956083969E+002
-3.950085202409578E+002	-1.8908285E+000	-1.8902868E+000	4.7868042E+000	1.740413956033444E+002
-3.960637894585016E+002	-1.8928384E+000	-1.8922867E+000	4.7791252E+000	1.742413955982920E+002
-3.977385438456295E+002	-1.8948144E+000	-1.8942864E+000	4.7639699E+000	1.744413955932396E+002
-3.987830706445911E+002	-1.8968270E+000	-1.8962855E+000	4.7565384E+000	1.746412955881897E+002
-3.994482561727691E+002	-1.8988434E+000	-1.8982872E+000	4.7536654E+000	1.748412955831373E+002
-4.006446348869322E+002	-1.9008276E+000	-1.9002860E+000	4.7444229E+000	1.750411955780874E+002
-4.016790488106860E+002	-1.9028263E+000	-1.9022861E+000	4.7371807E+000	1.752411955730349E+002
-4.031587781106009E+002	-1.9048220E+000	-1.9042859E+000	4.7247438E+000	1.754411955679825E+002
-4.046168710012280E+002	-1.9067936E+000	-1.9062860E+000	4.7125902E+000	1.756411955629301E+002
-4.058277549138129E+002	-1.9088076E+000	-1.9082857E+000	4.7034922E+000	1.758411955578777E+002
-4.076144207199704E+002	-1.9108065E+000	-1.9102858E+000	4.6877794E+000	1.760411955528252E+002
-4.084347972653641E+002	-1.9128217E+000	-1.9122856E+000	4.6832976E+000	1.762411955477728E+002
-4.087933726797305E+002	-1.9148351E+000	-1.9142854E+000	4.6841149E+000	1.764411955427204E+002
-4.099189998341230E+002	-1.9167910E+000	-1.9162852E+000	4.6760235E+000	1.766411955376680E+002
-4.118739828338985E+002	-1.9188446E+000	-1.9182851E+000	4.6588149E+000	1.768411955326155E+002
-4.133326853192011E+002	-1.9208190E+000	-1.9202851E+000	4.6471500E+000	1.770411955275631E+002
-4.147139201867058E+002	-1.9227940E+000	-1.9222851E+000	4.6364346E+000	1.772411955225107E+002
-4.156919310044254E+002	-1.9248813E+000	-1.9242849E+000	4.6305475E+000	1.774411955174583E+002
-4.166384611929902E+002	-1.9268723E+000	-1.9262848E+000	4.6248064E+000	1.776411955124058E+002
-4.178159950368809E+002	-1.9288472E+000	-1.9282848E+000	4.6164989E+000	1.778411955073534E+002
-4.196357925094981E+002	-1.9308558E+000	-1.9302846E+000	4.6012654E+000	1.780411955023010E+002
-4.214908439956282E+002	-1.9327248E+000	-1.9322846E+000	4.5854492E+000	1.782411954972486E+002
-4.224928944256844E+002	-1.9348165E+000	-1.9342843E+000	4.5795245E+000	1.784411954921961E+002
-4.237552433716323E+002	-1.9368812E+000	-1.9362847E+000	4.5707545E+000	1.786411954871437E+002
-4.249052986705833E+002	-1.9388102E+000	-1.9382840E+000	4.5629230E+000	1.788409954820963E+002
-4.257170256746595E+002	-1.9407852E+000	-1.9402841E+000	4.5588622E+000	1.790409954770439E+002
-4.259928350167493E+002	-1.9428495E+000	-1.9422841E+000	4.5607562E+000	1.792409954719915E+002
-4.270011041040061E+002	-1.9449128E+000	-1.9442840E+000	4.5548191E+000	1.794409954669391E+002
-4.280144778746853E+002	-1.9467889E+000	-1.9462838E+000	4.5484185E+000	1.796409954618866E+002
-4.288068479767171E+002	-1.9488553E+000	-1.9482838E+000	4.5448322E+000	1.798409954568342E+002
-4.298904574084991E+002	-1.9508605E+000	-1.9502835E+000	4.5380411E+000	1.800409954517818E+002
-4.307410125256665E+002	-1.9528142E+000	-1.9522834E+000	4.5336156E+000	1.802409954467294E+002
-4.318232663299491E+002	-1.9548007E+000	-1.9542834E+000	4.5268536E+000	1.804409954416769E+002
-4.327156565659734E+002	-1.9568436E+000	-1.9562832E+000	4.5222392E+000	1.806409954366245E+002
-4.339995600468992E+002	-1.9588091E+000	-1.9582833E+000	4.5133896E+000	1.808409954315721E+002
-4.362607926522269E+002	-1.9608486E+000	-1.9602830E+000	4.4946704E+000	1.810409954265197E+002
-4.387510417151070E+002	-1.9628322E+000	-1.9622831E+000	4.4736810E+000	1.812409954214672E+002
-4.394890695861682E+002	-1.9648118E+000	-1.9642830E+000	4.4706726E+000	1.814409954164148E+002
-4.403919990176242E+002	-1.9668263E+000	-1.9662828E+000	4.4660811E+000	1.816409954113624E+002
-4.411425058966070E+002	-1.9688169E+000	-1.9682828E+000	4.4629951E+000	1.818409954063100E+002
-4.434424468232933E+002	-1.9708396E+000	-1.9702826E+000	4.4444089E+000	1.820409954012575E+002
-4.434207928845699E+002	-1.9728483E+000	-1.9722824E+000	4.4491558E+000	1.822409953962051E+002
-4.458199545801044E+002	-1.9748632E+000	-1.9742815E+000	4.4297328E+000	1.824408953911552E+002
-4.474822203512249E+002	-1.9768571E+000	-1.9762825E+000	4.4177332E+000	1.826408953861028E+002
-4.481909352603116E+002	-1.9788402E+000	-1.9782821E+000	4.4151726E+000	1.828407953810529E+002
-4.495974763320958E+002	-1.9808607E+000	-1.9802822E+000	4.4058537E+000	1.830407953760005E+002
-4.501831308611390E+002	-1.9828404E+000	-1.9822820E+000	4.4045196E+000	1.832407953709480E+002
-4.511017765771778E+002	-1.9848390E+000	-1.9842820E+000	4.3999805E+000	1.834407953658956E+002
-4.525938567293470E+002	-1.9868871E+000	-1.9862818E+000	4.3900003E+000	1.836407953608432E+002
-4.531991621134234E+002	-1.9888418E+000	-1.9882816E+000	4.3884497E+000	1.838407953557908E+002
-4.543162889588730E+002	-1.9908516E+000	-1.9902816E+000	4.3820829E+000	1.840407953507383E+002
-4.556347702355069E+002	-1.9928708E+000	-1.9922814E+000	4.3738341E+000	1.842407953456859E+002
-4.562827032093546E+002	-1.9948202E+000	-1.9942813E+000	4.3718953E+000	1.844407953406335E+002
-4.573646665516917E+002	-1.9968956E+000	-1.9962813E+000	4.3660908E+000	1.846407953355811E+002
-4.591674947717020E+002	-1.9989483E+000	-1.9982814E+000	4.3534188E+000	1.848407953305286E+002
-4.608574138779750E+002	-2.0008399E+000	-2.0002813E+000	4.3415594E+000	1.850407953254762E+002
-4.625605037801688E+002	-2.0028622E+000	-2.0022810E+000	4.3299465E+000	1.852407953204238E+002
-4.636486933096203E+002	-2.0048237E+000	-2.0042810E+000	4.3240147E+000	1.854407953153714E+002
-4.647183226155033E+002	-2.0068142E+000	-2.0062809E+000	4.3183455E+000	1.856407953103189E+002
-4.661939182497745E+002	-2.0089567E+000	-2.0082805E+000	4.3092728E+000	1.858407953052665E+002
-4.680543568280268E+002	-2.0108521E+000	-2.0102804E+000	4.2961936E+000	1.860407953002141E+002
-4.695468908945732E+002	-2.0128000E+000	-2.0122807E+000	4.2866859E+000	1.862407952951617E+002
-4.699748816803731E+002	-2.0148327E+000	-2.0142803E+000	4.2871075E+000	1.864407952901092E+002
-4.711054221583909E+002	-2.0168157E+000	-2.0162799E+000	4.2810283E+000	1.866406952850593E+002
-4.713742747810184E+002	-2.0189323E+000	-2.0182807E+000	4.2830772E+000	1.868406952800069E+002
-4.724834832871220E+002	-2.0207918E+000	-2.0202804E+000	4.2769575E+000	1.870405952749570E+002
-4.737567757673522E+002	-2.0227413E+000	-2.0222800E+000	4.2695775E+000	1.872405952699046E+002
-4.738707114368863E+002	-2.0248680E+000	-2.0242798E+000	4.2730389E+000	1.874405952648522E+002
-4.747477537271934E+002	-2.0268435E+000	-2.0262797E+000	4.2693062E+000	1.876405952597997E+002
-4.750493928904971E+002	-2.0288579E+000	-2.0282798E+000	4.2708359E+000	1.878405952547473E+002
-4.759868142264236E+002	-2.0308754E+000	-2.0302796E+000	4.2666631E+000	1.880405952496949E+002
-4.773426772439830E+002	-2.0328705E+000	-2.0322795E+000	4.2587237E+000	1.882405952446425E+002
-4.791472318004871E+002	-2.0348554E+000	-2.0342793E+000	4.2468271E+000	1.884405952395900E+002
-4.811897673055400E+002	-2.0368345E+000	-2.0362794E+000	4.2329130E+000	1.886405952345376E+002
-4.835900165704879E+002	-2.0388365E+000	-2.0382793E+000	4.2160435E+000	1.888405952294852E+002
-4.843320624941861E+002	-2.0408645E+000	-2.0402792E+000	4.2137713E+000	1.890405952244328E+002
-4.858310527152764E+002	-2.0428462E+000	-2.0422790E+000	4.2048488E+000	1.892405952193803E+002
-4.874100230210515E+002	-2.0448680E+000	-2.0442789E+000	4.1953754E+000	1.894405952143279E+002
-4.889416185582309E+002	-2.0468640E+000	-2.0462787E+000	4.1863160E+000	1.896405952092755E+002
-4.897967022443845E+002	-2.0488620E+000	-2.0482786E+000	4.1830864E+000	1.898405952042231E+002
-4.906939039814238E+002	-2.0508792E+000	-2.0502787E+000	4.1795492E+000	1.900405951991706E+002
-4.927865000614499E+002	-2.0529313E+000	-2.0522788E+000	4.1659651E+000	1.902405951941182E+002
-4.937932281710391E+002	-2.0549128E+000	-2.0542784E+000	4.1614842E+000	1.904405951890658E+002
-4.952545530467373E+002	-2.0568807E+000	-2.0562785E+000	4.1531787E+000	1.906404951840159E+002
-4.966676878997118E+002	-2.0588923E+000	-2.0582781E+000	4.1454120E+000	1.908403951789660E+002
-4.972678535487388E+002	-2.0609002E+000	-2.0602782E+000	4.1444468E+000	1.910403951739136E+002
-4.979431637917533E+002	-2.0628870E+000	-2.0622778E+000	4.1428161E+000	1.912403951688611E+002
-5.001057513403521E+002	-2.0649328E+000	-2.0642779E+000	4.1289926E+000	1.914403951638087E+002
-5.014855915813482E+002	-2.0669010E+000	-2.0662777E+000	4.1215558E+000	1.916403951587563E+002
-5.010213388888474E+002	-2.0688617E+000	-2.0682778E+000	4.1292887E+000	1.918403951537039E+002
-5.011844061550901E+002	-2.0709319E+000	-2.0702777E+000	4.1320758E+000	1.920403951486514E+002
-5.028221253764859E+002	-2.0728915E+000	-2.0722775E+000	4.1225142E+000	1.922403951435990E+002
-5.046477085727677E+002	-2.0749052E+000	-2.0742774E+000	4.1115913E+000	1.924403951385466E+002
-5.054677904176615E+002	-2.0769229E+000	-2.0762773E+000	4.1089125E+000	1.926403951334942E+002
-5.063730520693907E+002	-2.0788441E+000	-2.0782771E+000	4.1053610E+000	1.928403951284417E+002
-5.077416583123932E+002	-2.0808799E+000	-2.0802770E+000	4.0983043E+000	1.930403951233893E+002
-5.092553550997018E+002	-2.0828655E+000	-2.0822768E+000	4.0900216E+000	1.932403951183369E+002
-5.094099723141212E+002	-2.0848508E+000	-2.0842769E+000	4.0926776E+000	1.934403951132845E+002
-5.119481849973176E+002	-2.0869188E+000	-2.0862768E+000	4.0764260E+000	1.936403951082320E+002
-5.121297659106285E+002	-2.0889394E+000	-2.0882766E+000	4.0789261E+000	1.938403951031796E+002
-5.132661762886310E+002	-2.0908034E+000	-2.0902767E+000	4.0735264E+000	1.940403950981272E+002
-5.141613867277492E+002	-2.0928488E+000	-2.0922768E+000	4.0704122E+000	1.942403950930748E+002
-5.155604660100216E+002	-2.0948994E+000	-2.0942760E+000	4.0633440E+000	1.944402950880249E+002
-5.165090995535697E+002	-2.0969448E+000	-2.0962768E+000	4.0598412E+000	1.946402950829724E+002
-5.183642379259036E+002	-2.0990133E+000	-2.0982764E+000	4.0493021E+000	1.948401950779225E+002
-5.191408663379930E+002	-2.1002779E+000	-2.0995755E+000	4.0456800E+000	1.949701950746385E+002
-5.190965627034507E+002	-2.1006274E+000	-2.0999756E+000	4.0466986E+000	1.950027950738149E+002