EC-Lab ASCII FILE
Nb header lines : 63                          

Linear Sweep Voltammetry

Run on channel : 1 (SN 1340)
User : 
Electrode connection : standard
Potential control : Ewe
Ewe ctrl range : min = -5.00 V, max = 10.00 V
Ewe,I filtering : <None>
Safety Limits :
	Do not start on E overload
Channel : Floating
Acquisition started on : 03/05/2026 18:19:48.713
Technique started on : 03/05/2026 18:19:51.396
Loaded Setting File :  NONE
Saved on :
	File : PtPdCoNi_N52magB_up_3-5_02_LSV_C01.mpr
	Directory : C:\Users\volt\Documents\Platalytix\
	Host : 127.0.0.1
Device : SP-200 (SN 0262)
Address : USB
EC-LAB for windows v11.60 (software)
Internet server v11.60 (firmware)
Command interpretor v11.60 (firmware)
Electrode material : PtPdCoNi
Initial state : 
Electrolyte : KOH (1 M)
Comments : N52 disk magnet, B side up (-), up orientation
Cable : standard
Reference electrode : Hg/HgO (0.140 V)
Electrode surface area : 1.000 cm˛
Characteristic mass : 0.001 g
Equivalent Weight : 0.000 g/eq.
Density : 0.000 g/cm3
Volume (V) : 0.001 cmł
Cycle Definition : Charge/Discharge alternance
tR (h:m:s)          0:00:5.0000         
dER/dt (mV/h)       0.0                 
dER (mV)            0                   
dtR (s)             0.0000              
dE/dt               10.000              
dE/dt unit          mV/s                
Ei (V)              -0.200              
vs.                 Ref                 
EL (V)              -2.500              
vs.                 Ref                 
record              <I>                 
dI                  0.000               
unit dI             µA                  
tI (s)              0.0000              
step percent        50                  
N                   10                  
E range min (V)     -5.000              
E range max (V)     10.000              
I Range             Auto                
I Range min         Unset               
I Range max         Unset               
I Range init        Unset               
Bandwidth           8                   

Rwe/Ohm	time/s	Ewe/V	<I>/mA	Pwe/W	control/V	error	
0.0000000E+000	2.683400127425557E+000	-1.5977171E-001	0.000000000000000E+000	0.0000000E+000	0.0000000E+000	0
0.0000000E+000	7.683200001119985E+000	-3.3008721E-002	0.000000000000000E+000	0.0000000E+000	-1.9989736E-001	0
2.2609729E+003	7.863999996552593E+000	-2.0167542E-001	-8.919851109385490E-002	1.7989147E-005	-2.0155303E-001	0
1.5406696E+003	7.984399993511033E+000	-2.0295502E-001	-1.317316968153697E-001	2.6735610E-005	-2.0275731E-001	0
1.1380645E+003	8.165299988941115E+000	-2.0474674E-001	-1.799078517127679E-001	3.6835547E-005	-2.0456606E-001	0
1.2536343E+003	8.390699983247032E+000	-2.0693135E-001	-1.650651636505147E-001	3.4157158E-005	-2.0682092E-001	0
1.4146261E+003	8.690599975670921E+000	-2.0997967E-001	-1.484347464119613E-001	3.1168278E-005	-2.0982072E-001	0
1.5441647E+003	8.990599968092283E+000	-2.1295919E-001	-1.379122198713172E-001	2.9369674E-005	-2.1282052E-001	0
1.6555039E+003	9.290599960513646E+000	-2.1596119E-001	-1.304504233827295E-001	2.8172228E-005	-2.1582027E-001	0
1.7525483E+003	9.590599952935008E+000	-2.1894662E-001	-1.249304351996299E-001	2.7353097E-005	-2.1882007E-001	0
1.8411295E+003	9.890599945356371E+000	-2.2202246E-001	-1.205903562736714E-001	2.6773767E-005	-2.2181985E-001	0
1.9223544E+003	1.019059993777773E+001	-2.2497925E-001	-1.170331825808937E-001	2.6330037E-005	-2.2481962E-001	0
1.9990486E+003	1.049059993019910E+001	-2.2800440E-001	-1.140564552865351E-001	2.6005373E-005	-2.2781940E-001	0
2.0713013E+003	1.079059992262046E+001	-2.3096628E-001	-1.115078182091137E-001	2.5754547E-005	-2.3081915E-001	0
2.1402046E+003	1.109049991504435E+001	-2.3399401E-001	-1.093325466710664E-001	2.5583160E-005	-2.3381893E-001	0
2.2062466E+003	1.139039990746824E+001	-2.3699449E-001	-1.074197674421845E-001	2.5457894E-005	-2.3681873E-001	0
2.2707141E+003	1.169039989988960E+001	-2.3998415E-001	-1.056866482901455E-001	2.5363121E-005	-2.3981851E-001	0
2.3329426E+003	1.199039989231096E+001	-2.4300122E-001	-1.041608250320505E-001	2.5311208E-005	-2.4281831E-001	0
2.3933958E+003	1.229039988473232E+001	-2.4601446E-001	-1.027888752216166E-001	2.5287549E-005	-2.4581805E-001	0
2.4541218E+003	1.259039987715369E+001	-2.4896340E-001	-1.014470388167523E-001	2.5256601E-005	-2.4881785E-001	0
2.5130264E+003	1.289039986957505E+001	-2.5200617E-001	-1.002799516275259E-001	2.5271167E-005	-2.5181764E-001	0
2.5717900E+003	1.319039986199641E+001	-2.5498357E-001	-9.914633824216823E-002	2.5280688E-005	-2.5481743E-001	0
2.6287522E+003	1.349039985441777E+001	-2.5802311E-001	-9.815421399265989E-002	2.5326055E-005	-2.5781718E-001	0
2.6847634E+003	1.379019984684419E+001	-2.6099181E-001	-9.721222308144761E-002	2.5371593E-005	-2.6081634E-001	0
2.7430237E+003	1.409019983926555E+001	-2.6404282E-001	-9.625977217345622E-002	2.5416703E-005	-2.6381674E-001	0
2.7992136E+003	1.439019983168691E+001	-2.6702973E-001	-9.539455629314686E-002	2.5473182E-005	-2.6681656E-001	0
2.8535291E+003	1.469019982410828E+001	-2.6998889E-001	-9.461578300914475E-002	2.5545211E-005	-2.6981631E-001	0
2.9074753E+003	1.499019981652964E+001	-2.7300042E-001	-9.389603768174237E-002	2.5633657E-005	-2.7281609E-001	0
2.9628469E+003	1.529019980895100E+001	-2.7596784E-001	-9.314279290600377E-002	2.5704416E-005	-2.7581587E-001	0
3.0188447E+003	1.559019980137236E+001	-2.7903393E-001	-9.243070238919648E-002	2.5791302E-005	-2.7881566E-001	0
3.0726792E+003	1.589019979379373E+001	-2.8197145E-001	-9.176729734263589E-002	2.5875759E-005	-2.8181544E-001	0
3.1282275E+003	1.619019978621509E+001	-2.8501561E-001	-9.111089812399586E-002	2.5968029E-005	-2.8481522E-001	0
3.1854556E+003	1.649009977863898E+001	-2.8803304E-001	-9.042129820522871E-002	2.6044321E-005	-2.8781497E-001	0
3.2388699E+003	1.678999977106287E+001	-2.9102769E-001	-8.985470732332757E-002	2.6150208E-005	-2.9081476E-001	0
3.2964153E+003	1.708999976348423E+001	-2.9399616E-001	-8.918662463315730E-002	2.6220525E-005	-2.9381454E-001	0
3.3497039E+003	1.738999975590559E+001	-2.9699710E-001	-8.866369179650424E-002	2.6332860E-005	-2.9681429E-001	0
3.4074163E+003	1.768999974832695E+001	-3.0003285E-001	-8.805289172713804E-002	2.6418760E-005	-2.9981413E-001	0
3.4623655E+003	1.798999974074832E+001	-3.0301020E-001	-8.751536963378848E-002	2.6518050E-005	-3.0281386E-001	0
3.5182759E+003	1.828999973316968E+001	-3.0601475E-001	-8.697861024981246E-002	2.6616737E-005	-3.0581367E-001	0
3.5756282E+003	1.858999972559104E+001	-3.0902311E-001	-8.642484455484079E-002	2.6707274E-005	-3.0881345E-001	0
3.6331726E+003	1.888999971801240E+001	-3.1200707E-001	-8.587730433456264E-002	2.6794327E-005	-3.1181321E-001	0
3.6910918E+003	1.918989971043629E+001	-3.1502777E-001	-8.534812496099842E-002	2.6887030E-005	-3.1481293E-001	0
3.7487231E+003	1.948979970286018E+001	-3.1801912E-001	-8.483398660879435E-002	2.6978831E-005	-3.1781277E-001	0
3.8067285E+003	1.978979969528154E+001	-3.2096297E-001	-8.431464565211166E-002	2.7061878E-005	-3.2081255E-001	0
3.8650142E+003	2.008979968770291E+001	-3.2403034E-001	-8.383677694368541E-002	2.7165659E-005	-3.2381231E-001	0
3.9245354E+003	2.038979968012427E+001	-3.2700011E-001	-8.332199167862964E-002	2.7246300E-005	-3.2681212E-001	0
3.9841541E+003	2.068979967254563E+001	-3.3002183E-001	-8.283359970379078E-002	2.7336897E-005	-3.2981190E-001	0
4.0444387E+003	2.098979966496699E+001	-3.3306199E-001	-8.235061032654645E-002	2.7427859E-005	-3.3281168E-001	0
4.1045635E+003	2.128979965738836E+001	-3.3601794E-001	-8.186447713896994E-002	2.7507933E-005	-3.3581144E-001	0
4.1660420E+003	2.158979964980972E+001	-3.3899215E-001	-8.137031651854335E-002	2.7583899E-005	-3.3881125E-001	0
4.2239482E+003	2.188969964223361E+001	-3.4195885E-001	-8.095716271484643E-002	2.7684018E-005	-3.4181097E-001	0
4.2849907E+003	2.218959963465750E+001	-3.4505579E-001	-8.052661573911513E-002	2.7786175E-005	-3.4481078E-001	0
4.3460449E+003	2.248959962707886E+001	-3.4801835E-001	-8.007702265620911E-002	2.7868273E-005	-3.4781057E-001	0
4.4117793E+003	2.278959961950022E+001	-3.5102689E-001	-7.956583375806714E-002	2.7929747E-005	-3.5081038E-001	0
4.4717549E+003	2.308959961192159E+001	-3.5398877E-001	-7.916104270740054E-002	2.8022119E-005	-3.5381007E-001	0
4.5360342E+003	2.338959960434295E+001	-3.5700482E-001	-7.870417042403255E-002	2.8097767E-005	-3.5680988E-001	0
4.5980703E+003	2.368959959676431E+001	-3.5999683E-001	-7.829302514122938E-002	2.8185241E-005	-3.5980970E-001	0
4.6585581E+003	2.398959958918567E+001	-3.6298963E-001	-7.791888185994011E-002	2.8283746E-005	-3.6280945E-001	0
4.7181636E+003	2.428959958160704E+001	-3.6597043E-001	-7.756628549925315E-002	2.8386967E-005	-3.6580923E-001	0
4.7835493E+003	2.458949957403092E+001	-3.6897880E-001	-7.713494315034819E-002	2.8461158E-005	-3.6880919E-001	0
4.8462939E+003	2.488939956645481E+001	-3.7201220E-001	-7.676220094194053E-002	2.8556475E-005	-3.7180880E-001	0
4.9094907E+003	2.518939955887618E+001	-3.7495333E-001	-7.637316217595669E-002	2.8636372E-005	-3.7480852E-001	0
4.9709287E+003	2.548939955129754E+001	-3.7794554E-001	-7.603117240382151E-002	2.8735643E-005	-3.7780833E-001	0
5.0340923E+003	2.578939954371890E+001	-3.8098979E-001	-7.568192077862190E-002	2.8834040E-005	-3.8080814E-001	0
5.0963667E+003	2.608939953614026E+001	-3.8401085E-001	-7.534992200852919E-002	2.8935188E-005	-3.8380787E-001	0
5.1571855E+003	2.638939952856163E+001	-3.8702154E-001	-7.504510910840315E-002	2.9044073E-005	-3.8680765E-001	0
5.2241470E+003	2.668939952098299E+001	-3.9000723E-001	-7.465472145171992E-002	2.9115881E-005	-3.8980749E-001	0
5.2840825E+003	2.698939951340435E+001	-3.9301220E-001	-7.437661705488274E-002	2.9230918E-005	-3.9280722E-001	0
5.3451064E+003	2.728929950582824E+001	-3.9604023E-001	-7.409398125504474E-002	2.9344197E-005	-3.9580694E-001	0
5.4043496E+003	2.758919949825213E+001	-3.9901361E-001	-7.383193741846195E-002	2.9459949E-005	-3.9880678E-001	0
5.4617432E+003	2.788919949067349E+001	-4.0199420E-001	-7.360181539553468E-002	2.9587503E-005	-4.0180656E-001	0
5.5205723E+003	2.818919948309485E+001	-4.0500340E-001	-7.336257601919427E-002	2.9712093E-005	-4.0480635E-001	0
5.5800142E+003	2.848919947551622E+001	-4.0798101E-001	-7.311469224748679E-002	2.9829405E-005	-4.0780613E-001	0
5.6383696E+003	2.878919946793758E+001	-4.1098195E-001	-7.289020999803708E-002	2.9956562E-005	-4.1080594E-001	0
5.6949775E+003	2.908919946035894E+001	-4.1394487E-001	-7.268595218087937E-002	3.0087976E-005	-4.1380566E-001	0
5.7494893E+003	2.938919945278030E+001	-4.1704005E-001	-7.253514947901071E-002	3.0250063E-005	-4.1680548E-001	0
5.8030503E+003	2.968919944520167E+001	-4.1996375E-001	-7.236948012149658E-002	3.0392557E-005	-4.1980526E-001	0
5.8534219E+003	2.998899943762808E+001	-4.2300826E-001	-7.226683335335082E-002	3.0569467E-005	-4.2280409E-001	0
5.9074595E+003	3.028899943004944E+001	-4.2600250E-001	-7.211263944675483E-002	3.0720166E-005	-4.2580476E-001	0
5.9601821E+003	3.058899942247081E+001	-4.2897099E-001	-7.197280082146851E-002	3.0874246E-005	-4.2880458E-001	0
6.0144180E+003	3.088899941489217E+001	-4.3199208E-001	-7.182608218910169E-002	3.1028299E-005	-4.3180436E-001	0
6.0586343E+003	3.118899940731353E+001	-4.3495440E-001	-7.179083410851850E-002	3.1225740E-005	-4.3480411E-001	0
6.1110327E+003	3.148899939973489E+001	-4.3793920E-001	-7.166369932072486E-002	3.1384341E-005	-4.3780389E-001	0
6.1586401E+003	3.178899939215626E+001	-4.4103587E-001	-7.161254246996052E-002	3.1583699E-005	-4.4080374E-001	0
6.2072734E+003	3.208899938457762E+001	-4.4399968E-001	-7.152893983137154E-002	3.1758827E-005	-4.4380346E-001	0
6.2580176E+003	3.238899937699898E+001	-4.4697240E-001	-7.142395950906000E-002	3.1924537E-005	-4.4680321E-001	0
6.3030957E+003	3.268889936942287E+001	-4.4998619E-001	-7.139129685536938E-002	3.2125099E-005	-4.4980279E-001	0
6.3497085E+003	3.298879936184676E+001	-4.5296749E-001	-7.133673866455648E-002	3.2313223E-005	-4.5280281E-001	0
6.3945747E+003	3.328879935426812E+001	-4.5597202E-001	-7.130607301546432E-002	3.2513573E-005	-4.5580256E-001	0
6.4391426E+003	3.358879934668948E+001	-4.5895743E-001	-7.127617384578361E-002	3.2712731E-005	-4.5880234E-001	0
6.4876768E+003	3.388879933911085E+001	-4.6198431E-001	-7.120951246731239E-002	3.2897678E-005	-4.6180218E-001	0
6.5391328E+003	3.418879933153221E+001	-4.6501195E-001	-7.111217325238206E-002	3.3068012E-005	-4.6480191E-001	0
6.5835928E+003	3.448879932395357E+001	-4.6802431E-001	-7.108949863718263E-002	3.3271615E-005	-4.6780169E-001	0
6.6354834E+003	3.478879931637493E+001	-4.7098690E-001	-7.098004234874548E-002	3.3430671E-005	-4.7080150E-001	0
6.6825005E+003	3.508879930879630E+001	-4.7398654E-001	-7.092951771498313E-002	3.3619635E-005	-4.7380129E-001	0
6.7332368E+003	3.538869930122019E+001	-4.7693983E-001	-7.083366190791529E-002	3.3783395E-005	-4.7680074E-001	0
6.7820684E+003	3.568859929364407E+001	-4.7997737E-001	-7.077153119350887E-002	3.3968732E-005	-4.7980082E-001	0
6.8357280E+003	3.598859928606544E+001	-4.8303646E-001	-7.066349930468352E-002	3.4133045E-005	-4.8280057E-001	0
6.8917026E+003	3.628859927848680E+001	-4.8598117E-001	-7.051685275612496E-002	3.4269862E-005	-4.8580036E-001	0
6.9463740E+003	3.658859927090816E+001	-4.8898020E-001	-7.039359117857180E-002	3.4421071E-005	-4.8880014E-001	0
7.0037192E+003	3.688859926332952E+001	-4.9197859E-001	-7.024533254606230E-002	3.4559198E-005	-4.9179995E-001	0
7.0565996E+003	3.718859925575089E+001	-4.9494448E-001	-7.013923128613753E-002	3.4715027E-005	-4.9479973E-001	0
7.1107852E+003	3.748859924817225E+001	-4.9800977E-001	-7.003583355589593E-002	3.4878529E-005	-4.9779949E-001	0
7.1786113E+003	3.778859924059361E+001	-5.0096214E-001	-6.978538434661630E-002	3.4959834E-005	-5.0079930E-001	0
7.2452974E+003	3.808849923301750E+001	-5.0401258E-001	-6.956409872950386E-002	3.5061181E-005	-5.0379944E-001	0
7.3101162E+003	3.838839922544139E+001	-5.0699937E-001	-6.935585524935362E-002	3.5163375E-005	-5.0679880E-001	0
7.3623481E+003	3.868839921786275E+001	-5.0991565E-001	-6.925991973518048E-002	3.5316716E-005	-5.0979865E-001	0
7.4370679E+003	3.898839921028411E+001	-5.1295865E-001	-6.897323714612102E-002	3.5380417E-005	-5.1279843E-001	0
7.5038311E+003	3.928839920270548E+001	-5.1595980E-001	-6.875951866991259E-002	3.5477147E-005	-5.1579809E-001	0
7.5741504E+003	3.958839919512684E+001	-5.1899958E-001	-6.852248316543078E-002	3.5563138E-005	-5.1879793E-001	0
7.6431128E+003	3.988839918754820E+001	-5.2199137E-001	-6.829565123667025E-002	3.5649740E-005	-5.2179778E-001	0
7.7170996E+003	4.018839917996957E+001	-5.2499992E-001	-6.803073161360873E-002	3.5716130E-005	-5.2479756E-001	0
7.7941533E+003	4.048839917239093E+001	-5.2800709E-001	-6.774399484857591E-002	3.5769310E-005	-5.2779746E-001	0
7.8642871E+003	4.078829916481482E+001	-5.3098804E-001	-6.751890288985374E-002	3.5851728E-005	-5.3079754E-001	0
7.9461582E+003	4.108819915723871E+001	-5.3394037E-001	-6.719478353619346E-002	3.5878009E-005	-5.3379685E-001	0
8.0180171E+003	4.138819914966007E+001	-5.3696716E-001	-6.697006935386107E-002	3.5960729E-005	-5.3679663E-001	0
8.0984287E+003	4.168819914208143E+001	-5.3993994E-001	-6.667218449617796E-002	3.5998975E-005	-5.3979641E-001	0
8.1819976E+003	4.198819913450279E+001	-5.4299515E-001	-6.636461790267023E-002	3.6035664E-005	-5.4279619E-001	0
8.2618867E+003	4.228819912692416E+001	-5.4593992E-001	-6.607932736304756E-002	3.6075344E-005	-5.4579592E-001	0
8.3409512E+003	4.258819911934552E+001	-5.4895711E-001	-6.581469154352715E-002	3.6129444E-005	-5.4879576E-001	0
8.4271875E+003	4.288829911176435E+001	-5.5198306E-001	-6.550026729233149E-002	3.6155037E-005	-5.5179739E-001	0
8.5125576E+003	4.318819910418824E+001	-5.5499977E-001	-6.519776780915265E-002	3.6184745E-005	-5.5479676E-001	0
8.6008955E+003	4.348819909660961E+001	-5.5803955E-001	-6.488156296616734E-002	3.6206478E-005	-5.5779654E-001	0
8.6847207E+003	4.378819908903097E+001	-5.6091785E-001	-6.458674493834060E-002	3.6227859E-005	-5.6079638E-001	0
8.7750518E+003	4.408819908145233E+001	-5.6394154E-001	-6.426645997348623E-002	3.6242527E-005	-5.6379616E-001	0
8.8660996E+003	4.438819907387369E+001	-5.6699926E-001	-6.395137479418789E-002	3.6260382E-005	-5.6679589E-001	0
8.9499541E+003	4.468819906629506E+001	-5.7002330E-001	-6.369008190204606E-002	3.6304831E-005	-5.6979567E-001	0
9.0400674E+003	4.498819905871642E+001	-5.7296187E-001	-6.338026406554825E-002	3.6314475E-005	-5.7279545E-001	0
9.1180635E+003	4.528819905113778E+001	-5.7604069E-001	-6.317576878490661E-002	3.6391812E-005	-5.7579529E-001	0
9.2089326E+003	4.558809904356167E+001	-5.7900131E-001	-6.287387869047656E-002	3.6404057E-005	-5.7879519E-001	0
9.3036113E+003	4.588799903598556E+001	-5.8206695E-001	-6.256355309963332E-002	3.6416175E-005	-5.8179486E-001	0
9.3825156E+003	4.618799902840692E+001	-5.8505714E-001	-6.235610819687409E-002	3.6481888E-005	-5.8479458E-001	0
9.4721348E+003	4.648799902082828E+001	-5.8806562E-001	-6.208374756607452E-002	3.6509318E-005	-5.8779436E-001	0
9.5623721E+003	4.678799901324965E+001	-5.9101623E-001	-6.180644680133407E-002	3.6528614E-005	-5.9079421E-001	0
9.6484150E+003	4.708799900567101E+001	-5.9405267E-001	-6.156997633836925E-002	3.6575810E-005	-5.9379393E-001	0
9.7408271E+003	4.738799899809237E+001	-5.9701902E-001	-6.129038298187472E-002	3.6591526E-005	-5.9679365E-001	0
9.8299326E+003	4.768799899051373E+001	-5.9994477E-001	-6.103243767279198E-002	3.6616093E-005	-5.9979349E-001	0
9.9170615E+003	4.798799898293510E+001	-6.0301912E-001	-6.080623050765688E-002	3.6667319E-005	-6.0279328E-001	0
9.9932969E+003	4.828779897536151E+001	-6.0604429E-001	-6.064508117954412E-002	3.6753605E-005	-6.0579216E-001	0
1.0077607E+004	4.858779896778287E+001	-6.0909384E-001	-6.044032187709147E-002	3.6813828E-005	-6.0879278E-001	0
1.0168348E+004	4.888779896020424E+001	-6.1201310E-001	-6.018805698593244E-002	3.6835878E-005	-6.1179262E-001	0
1.0236584E+004	4.918779895262560E+001	-6.1505610E-001	-6.008411538055361E-002	3.6955102E-005	-6.1479235E-001	0
1.0319257E+004	4.948779894504696E+001	-6.1804622E-001	-5.989251351701808E-002	3.7016343E-005	-6.1779213E-001	0
1.0400617E+004	4.978779893746832E+001	-6.2105644E-001	-5.971341888029669E-002	3.7085403E-005	-6.2079191E-001	0
1.0475276E+004	5.008779892988969E+001	-6.2400985E-001	-5.956977287454657E-002	3.7172125E-005	-6.2379169E-001	0
1.0557444E+004	5.038779892231105E+001	-6.2705469E-001	-5.939455549451733E-002	3.7243633E-005	-6.2679148E-001	0
1.0628916E+004	5.068779891473241E+001	-6.3002503E-001	-5.927462418525464E-002	3.7344496E-005	-6.2979126E-001	0
1.0699849E+004	5.098769890715630E+001	-6.3305110E-001	-5.916448948835029E-002	3.7454145E-005	-6.3279122E-001	0
1.0769687E+004	5.128759889958019E+001	-6.3603312E-001	-5.905771663214798E-002	3.7562662E-005	-6.3579082E-001	0
1.0837980E+004	5.158759889200155E+001	-6.3904208E-001	-5.896320803840460E-002	3.7679973E-005	-6.3879055E-001	0
1.0912017E+004	5.188759888442291E+001	-6.4203036E-001	-5.883700176663265E-002	3.7775142E-005	-6.4179039E-001	0
1.0981005E+004	5.218759887684428E+001	-6.4508325E-001	-5.874537607446106E-002	3.7895657E-005	-6.4479017E-001	0
1.1032109E+004	5.248759886926564E+001	-6.4800847E-001	-5.873840357651489E-002	3.8062983E-005	-6.4778990E-001	0
1.1100293E+004	5.278759886168700E+001	-6.5100187E-001	-5.864726996573211E-002	3.8179482E-005	-6.5078974E-001	0
1.1159063E+004	5.308759885410836E+001	-6.5402490E-001	-5.860930585765722E-002	3.8331946E-005	-6.5378952E-001	0
1.1211235E+004	5.338759884652973E+001	-6.5701336E-001	-5.860311716554456E-002	3.8503029E-005	-6.5678924E-001	0
1.1279940E+004	5.368749883895362E+001	-6.6002351E-001	-5.851303264309848E-002	3.8619979E-005	-6.5978944E-001	0
1.1324412E+004	5.398739883137750E+001	-6.6304404E-001	-5.854997168657738E-002	3.8821210E-005	-6.6278887E-001	0
1.1373247E+004	5.428739882379887E+001	-6.6601425E-001	-5.855972566702472E-002	3.9001610E-005	-6.6578853E-001	0
1.1430712E+004	5.458739881622023E+001	-6.6899842E-001	-5.852640139589727E-002	3.9154071E-005	-6.6878843E-001	0
1.1470648E+004	5.488739880864159E+001	-6.7204559E-001	-5.858828377135294E-002	3.9373997E-005	-6.7178816E-001	0
1.1515563E+004	5.518739880106295E+001	-6.7508107E-001	-5.862336633801518E-002	3.9575527E-005	-6.7478788E-001	0
1.1560923E+004	5.548739879348432E+001	-6.7802370E-001	-5.864788444285773E-002	3.9764655E-005	-6.7778772E-001	0
1.1604022E+004	5.578739878590568E+001	-6.8103051E-001	-5.868917503100513E-002	3.9969120E-005	-6.8078750E-001	0
1.1632066E+004	5.608739877832704E+001	-6.8404001E-001	-5.880640661977865E-002	4.0225936E-005	-6.8378729E-001	0
1.1670036E+004	5.638729877075093E+001	-6.8707478E-001	-5.887511807012363E-002	4.0451610E-005	-6.8678743E-001	0
1.1693749E+004	5.668719876317482E+001	-6.9001961E-001	-5.900756305119059E-002	4.0716375E-005	-6.8978679E-001	0
1.1727726E+004	5.698719875559618E+001	-6.9304466E-001	-5.909454981722773E-002	4.0955161E-005	-6.9278663E-001	0
1.1768668E+004	5.728719874801754E+001	-6.9603449E-001	-5.914301151788270E-002	4.1165575E-005	-6.9578642E-001	0
1.1781554E+004	5.758719874043891E+001	-6.9906676E-001	-5.933570262190102E-002	4.1479616E-005	-6.9878614E-001	0
1.1824562E+004	5.788719873286027E+001	-7.0206618E-001	-5.937354764467573E-002	4.1684161E-005	-7.0178604E-001	0
1.1832129E+004	5.818719872528163E+001	-7.0506221E-001	-5.958878856480443E-002	4.2013802E-005	-7.0478576E-001	0
1.1841716E+004	5.848719871770300E+001	-7.0800060E-001	-5.978868273016946E-002	4.2330423E-005	-7.0778549E-001	0
1.1863592E+004	5.878719871012436E+001	-7.1103358E-001	-5.993408846293202E-002	4.2615149E-005	-7.1078533E-001	0
1.1868963E+004	5.908709870254825E+001	-7.1404743E-001	-6.016089314660245E-002	4.2957730E-005	-7.1378523E-001	0
1.1895035E+004	5.938699869497214E+001	-7.1707475E-001	-6.028353379250628E-002	4.3227799E-005	-7.1678478E-001	0
1.1897634E+004	5.968699868739350E+001	-7.1997100E-001	-6.051379667587575E-002	4.3568180E-005	-7.1978468E-001	0
1.1909292E+004	5.998699867981486E+001	-7.2305012E-001	-6.071310749443393E-002	4.3898621E-005	-7.2278434E-001	0
1.1901110E+004	6.028699867223622E+001	-7.2604084E-001	-6.100614274664617E-002	4.4292952E-005	-7.2578412E-001	0
1.1906743E+004	6.058699866465759E+001	-7.2907990E-001	-6.123252159629677E-002	4.4643402E-005	-7.2878397E-001	0
1.1901749E+004	6.088699865707895E+001	-7.3210251E-001	-6.151217735047132E-002	4.5033219E-005	-7.3178375E-001	0
1.1919611E+004	6.118699864950031E+001	-7.3504233E-001	-6.166663368160760E-002	4.5327586E-005	-7.3478347E-001	0
1.1892414E+004	6.148699864192167E+001	-7.3803496E-001	-6.205930758232259E-002	4.5801939E-005	-7.3778331E-001	0
1.1887588E+004	6.178689863434556E+001	-7.4105161E-001	-6.233826827019184E-002	4.6195873E-005	-7.4078298E-001	0
1.1884890E+004	6.208679862676945E+001	-7.4404961E-001	-6.260466882194571E-002	4.6580979E-005	-7.4378282E-001	0
1.1873009E+004	6.238679861919081E+001	-7.4702722E-001	-6.291810447327797E-002	4.7001537E-005	-7.4678266E-001	0
1.1856096E+004	6.268679861161218E+001	-7.4998653E-001	-6.325746091358608E-002	4.7442245E-005	-7.4978232E-001	0
1.1837021E+004	6.298679860403354E+001	-7.5299788E-001	-6.361379521480354E-002	4.7901052E-005	-7.5278223E-001	0
1.1825153E+004	6.328679859645490E+001	-7.5598222E-001	-6.393001688079325E-002	4.8329955E-005	-7.5578201E-001	0
1.1812271E+004	6.358679858887626E+001	-7.5905406E-001	-6.425979439573770E-002	4.8776659E-005	-7.5878167E-001	0
1.1790858E+004	6.388679858129763E+001	-7.6203299E-001	-6.462913298013584E-002	4.9249531E-005	-7.6178151E-001	0
1.1779336E+004	6.418679857371899E+001	-7.6501924E-001	-6.494587211328051E-002	4.9684841E-005	-7.6478130E-001	0
1.1751447E+004	6.448659856614540E+001	-7.6804513E-001	-6.535749238471034E-002	5.0197505E-005	-7.6778013E-001	0
1.1722207E+004	6.478659855856677E+001	-7.7103293E-001	-6.577540773458312E-002	5.0715007E-005	-7.7078092E-001	0
1.1701067E+004	6.508659855098813E+001	-7.7407658E-001	-6.615435625440469E-002	5.1208539E-005	-7.7378058E-001	0
1.1672740E+004	6.538659854340949E+001	-7.7702886E-001	-6.656782121282867E-002	5.1725117E-005	-7.7678037E-001	0
1.1637712E+004	6.568659853583085E+001	-7.8002518E-001	-6.702564610214948E-002	5.2281692E-005	-7.7978021E-001	0
1.1606152E+004	6.598659852825222E+001	-7.8303933E-001	-6.746760795025283E-002	5.2829790E-005	-7.8277999E-001	0
1.1575192E+004	6.628659852067358E+001	-7.8606844E-001	-6.790975286244016E-002	5.3381715E-005	-7.8577965E-001	0
1.1549807E+004	6.658659851309494E+001	-7.8905129E-001	-6.831727362889517E-002	5.3905835E-005	-7.8877956E-001	0
1.1523065E+004	6.688659850551630E+001	-7.9206264E-001	-6.873714882932649E-002	5.4444128E-005	-7.9177928E-001	0
1.1476006E+004	6.718649849794019E+001	-7.9506773E-001	-6.928087225924506E-002	5.5082986E-005	-7.9477924E-001	0
1.1451127E+004	6.748639849036408E+001	-7.9801822E-001	-6.968905631680267E-002	5.5613138E-005	-7.9777890E-001	0
1.1414082E+004	6.778639848278544E+001	-8.0103439E-001	-7.017948464010369E-002	5.6216180E-005	-8.0077857E-001	0
1.1365445E+004	6.808639847520681E+001	-8.0404645E-001	-7.074482841426510E-002	5.6882127E-005	-8.0377841E-001	0
1.1341446E+004	6.838639846762817E+001	-8.0704123E-001	-7.115857835366790E-002	5.7427907E-005	-8.0677825E-001	0
1.1288411E+004	6.868639846004953E+001	-8.0998486E-001	-7.175366692543361E-002	5.8119385E-005	-8.0977792E-001	0
1.1258058E+004	6.898639845247089E+001	-8.1302196E-001	-7.221689176474400E-002	5.8713918E-005	-8.1277776E-001	0
1.1219091E+004	6.928639844489226E+001	-8.1601667E-001	-7.273465545066804E-002	5.9352693E-005	-8.1577754E-001	0
1.1168982E+004	6.958639843731362E+001	-8.1900656E-001	-7.332866549868500E-002	6.0056660E-005	-8.1877726E-001	0
1.1118073E+004	6.988629842973751E+001	-8.2200116E-001	-7.393377728601647E-002	6.0773651E-005	-8.2177699E-001	0
1.1066227E+004	7.018619842216140E+001	-8.2502323E-001	-7.455325579910221E-002	6.1508166E-005	-8.2477683E-001	0
1.1020765E+004	7.048619841458276E+001	-8.2801020E-001	-7.513182731746182E-002	6.2209918E-005	-8.2777655E-001	0
1.0956425E+004	7.078619840700412E+001	-8.3098209E-001	-7.584427250036441E-002	6.3025233E-005	-8.3077645E-001	0
1.0889219E+004	7.108619839942548E+001	-8.3400255E-001	-7.658974870524782E-002	6.3876047E-005	-8.3377618E-001	0
1.0821929E+004	7.138619839184685E+001	-8.3707726E-001	-7.735010122859842E-002	6.4748012E-005	-8.3677590E-001	0
1.0732739E+004	7.168619838426821E+001	-8.4006894E-001	-7.827162159396128E-002	6.5753557E-005	-8.3977580E-001	0
1.0639594E+004	7.198619837668957E+001	-8.4302557E-001	-7.923474832828548E-002	6.6796922E-005	-8.4277552E-001	0
1.0536901E+004	7.228619836911093E+001	-8.4601051E-001	-8.029025317812111E-002	6.7926398E-005	-8.4577537E-001	0
1.0416420E+004	7.258609836153482E+001	-8.4898925E-001	-8.150489825059459E-002	6.9196780E-005	-8.4877527E-001	0
1.0268416E+004	7.288599835395871E+001	-8.5197669E-001	-8.297060571752646E-002	7.0689021E-005	-8.5177481E-001	0
1.0107226E+004	7.318599834638007E+001	-8.5497397E-001	-8.459036883984744E-002	7.2322560E-005	-8.5477459E-001	0
9.9297324E+003	7.348599833880144E+001	-8.5802305E-001	-8.640948185385811E-002	7.4141324E-005	-8.5777450E-001	0
9.7233379E+003	7.378599833122280E+001	-8.6102563E-001	-8.855247578757969E-002	7.6245953E-005	-8.6077416E-001	0
9.4833262E+003	7.408599832364416E+001	-8.6402231E-001	-9.110963148241114E-002	7.8720754E-005	-8.6377400E-001	0
9.2367988E+003	7.438599831606552E+001	-8.6698353E-001	-9.386190157420971E-002	8.1376726E-005	-8.6677378E-001	0
8.9870098E+003	7.468599830848689E+001	-8.7001187E-001	-9.680771401191191E-002	8.4223859E-005	-8.6977351E-001	0
8.7022285E+003	7.498599830090825E+001	-8.7306857E-001	-1.003270073438639E-001	8.7592358E-005	-8.7277341E-001	0
8.4226875E+003	7.528589829333214E+001	-8.7600785E-001	-1.040057370682359E-001	9.1109840E-005	-8.7577325E-001	0
8.1327949E+003	7.558579828575603E+001	-8.7900788E-001	-1.080818948651983E-001	9.5004834E-005	-8.7877274E-001	0
7.8212100E+003	7.588579827817739E+001	-8.8203549E-001	-1.127748150607804E-001	9.9471392E-005	-8.8177270E-001	0
7.5000610E+003	7.618579827059875E+001	-8.8503301E-001	-1.180034385960518E-001	1.0443694E-004	-8.8477242E-001	0
7.1657119E+003	7.648579826302012E+001	-8.8801640E-001	-1.239257715549225E-001	1.1004812E-004	-8.8777214E-001	0
6.8020444E+003	7.678579825544148E+001	-8.9106441E-001	-1.309994941929709E-001	1.1672899E-004	-8.9077199E-001	0
6.4130708E+003	7.708579824786284E+001	-8.9406419E-001	-1.394128051807397E-001	1.2464399E-004	-8.9377177E-001	0
6.0109692E+003	7.738579824028420E+001	-8.9703786E-001	-1.492334794704333E-001	1.3386809E-004	-8.9677149E-001	0
5.5825547E+003	7.768579823270557E+001	-9.0003860E-001	-1.612234279397755E-001	1.4510730E-004	-8.9977139E-001	0
5.1477422E+003	7.798569822512945E+001	-9.0303671E-001	-1.754238464423520E-001	1.5841417E-004	-9.0277076E-001	0
4.5899399E+003	7.827059821793227E+001	-9.0588504E-001	-1.973631491973671E-001	1.7878832E-004	-9.0561956E-001	0
4.2484268E+003	7.855569821073004E+001	-9.0875983E-001	-2.139050166359753E-001	1.9438828E-004	-9.0847147E-001	0
3.8451577E+003	7.885559820315393E+001	-9.1175222E-001	-2.371169964804336E-001	2.1619195E-004	-9.1147077E-001	0
3.4596458E+003	7.915559819557529E+001	-9.1476107E-001	-2.644088811915104E-001	2.4187095E-004	-9.1447049E-001	0
3.1008018E+003	7.945559818799666E+001	-9.1776603E-001	-2.959770068779841E-001	2.7163763E-004	-9.1747034E-001	0
2.7679141E+003	7.975559818041802E+001	-9.2076242E-001	-3.326557239627572E-001	3.0629689E-004	-9.2047006E-001	0
2.4724011E+003	8.004069817321579E+001	-9.2360622E-001	-3.735664790276528E-001	3.4502833E-004	-9.2332077E-001	0
2.1788799E+003	8.032569816601608E+001	-9.2644727E-001	-4.251942674050300E-001	3.9392008E-004	-9.2617059E-001	0
1.9544784E+003	8.062559815843997E+001	-9.2944711E-001	-4.755473950014544E-001	4.4199615E-004	-9.2917091E-001	0
1.7493751E+003	8.092559815086133E+001	-9.3244380E-001	-5.330153505268438E-001	4.9700687E-004	-9.3217069E-001	0
1.5530164E+003	8.121059814366163E+001	-9.3525976E-001	-6.022214325898199E-001	5.6323345E-004	-9.3501979E-001	0
1.3973015E+003	8.149559813646192E+001	-9.3817210E-001	-6.714170817563261E-001	6.2990480E-004	-9.3787080E-001	0
1.2614247E+003	8.179559812888328E+001	-9.4119823E-001	-7.461390313846206E-001	7.0226472E-004	-9.4087088E-001	0
1.1313790E+003	8.206569812205998E+001	-9.4385332E-001	-8.342503633994411E-001	7.8740995E-004	-9.4357103E-001	0
1.0299694E+003	8.236559811448387E+001	-9.4687063E-001	-9.193191964391829E-001	8.7047636E-004	-9.4657093E-001	0
9.2609839E+002	8.266559810690524E+001	-9.4984323E-001	-1.025639623910925E+000	9.7419682E-004	-9.4956982E-001	0
8.4599579E+002	8.296559809932660E+001	-9.5281941E-001	-1.126269693439038E+000	1.0731316E-003	-9.5257062E-001	0
8.0556921E+002	8.310169809588842E+001	-9.5418364E-001	-1.184483736455960E+000	1.1302150E-003	-9.5393020E-001	0
8.0873193E+002	8.310369809583790E+001	-9.5420110E-001	-1.179873136816441E+000	1.1258363E-003	-9.5395017E-001	0
7.8933295E+002	8.312059809541097E+001	-9.5425618E-001	-1.208940009230517E+000	1.1536385E-003	-9.5411909E-001	0
7.5906018E+002	8.330129809084610E+001	-9.5617259E-001	-1.259679586571185E+000	1.2044711E-003	-9.5592713E-001	0
6.9167719E+002	8.358629808364640E+001	-9.5903736E-001	-1.386538965025990E+000	1.3297427E-003	-9.5877683E-001	0
6.4263623E+002	8.385639807682310E+001	-9.6173573E-001	-1.496547635158581E+000	1.4392834E-003	-9.6147871E-001	0
5.8843634E+002	8.414129806962592E+001	-9.6457481E-001	-1.639216921349194E+000	1.5811473E-003	-9.6432728E-001	0
5.3914154E+002	8.442629806242621E+001	-9.6740907E-001	-1.794350765204879E+000	1.7358712E-003	-9.6717685E-001	0
5.0024457E+002	8.469629805560544E+001	-9.7012234E-001	-1.939296131771341E+000	1.8813545E-003	-9.6987760E-001	0
4.6486731E+002	8.496639804878214E+001	-9.7281325E-001	-2.092668690544961E+000	2.0357759E-003	-9.7257847E-001	0
4.3206161E+002	8.525129804158496E+001	-9.7568315E-001	-2.258203675628607E+000	2.2032913E-003	-9.7542703E-001	0
4.0125900E+002	8.553619803438778E+001	-9.7853929E-001	-2.438672427644093E+000	2.3863367E-003	-9.7827607E-001	0
3.7671014E+002	8.580619802756701E+001	-9.8121876E-001	-2.604704955955221E+000	2.5557855E-003	-9.8097575E-001	0
3.5525385E+002	8.607629802074371E+001	-9.8392451E-001	-2.769637913856315E+000	2.7251146E-003	-9.8367691E-001	0
3.4102811E+002	8.628679801542603E+001	-9.8606175E-001	-2.891438366589341E+000	2.8511367E-003	-9.8578274E-001	0
3.3631931E+002	8.634829801387241E+001	-9.8663795E-001	-2.933634681627147E+000	2.8944353E-003	-9.8639619E-001	0
3.3631030E+002	8.635029801382188E+001	-9.8666155E-001	-2.933783248739530E+000	2.8946511E-003	-9.8641622E-001	0
3.2616263E+002	8.650119801000983E+001	-9.8819017E-001	-3.029746897439168E+000	2.9939662E-003	-9.8792624E-001	0
3.0835590E+002	8.678609800281265E+001	-9.9101979E-001	-3.213883180746825E+000	3.1850219E-003	-9.9077499E-001	0
2.9229987E+002	8.705619799598935E+001	-9.9373138E-001	-3.399698229505919E+000	3.3783868E-003	-9.9347562E-001	0
2.7732819E+002	8.734109798879217E+001	-9.9660659E-001	-3.593599905910459E+000	3.5814054E-003	-9.9632525E-001	0
2.6417087E+002	8.762609798159247E+001	-9.9944931E-001	-3.783344386593129E+000	3.7812609E-003	-9.9917561E-001	0
2.5070824E+002	8.792629797400878E+001	-1.0024451E+000	-3.998453030894979E+000	4.0082298E-003	-1.0021776E+000	0
2.3827487E+002	8.822649796642509E+001	-1.0054474E+000	-4.219695404230450E+000	4.2426819E-003	-1.0051795E+000	0
2.2714552E+002	8.851169795922033E+001	-1.0083066E+000	-4.439033747004444E+000	4.4759070E-003	-1.0080314E+000	0
2.1884102E+002	8.875219795314479E+001	-1.0107055E+000	-4.618446215210795E+000	4.6678889E-003	-1.0104365E+000	0
2.1579741E+002	8.884369795083330E+001	-1.0116209E+000	-4.687826919369400E+000	4.7423034E-003	-1.0113502E+000	0
2.1588091E+002	8.884569795078278E+001	-1.0116527E+000	-4.686161238389701E+000	4.7407676E-003	-1.0113702E+000	0
2.1181142E+002	8.896679794772353E+001	-1.0128690E+000	-4.781937704367607E+000	4.8434767E-003	-1.0125825E+000	0
2.0367834E+002	8.922199794127664E+001	-1.0153654E+000	-4.985141547636346E+000	5.0617401E-003	-1.0151348E+000	0
1.9478856E+002	8.952209793369548E+001	-1.0184133E+000	-5.228301336909482E+000	5.3245719E-003	-1.0181350E+000	0
1.8666891E+002	8.980729792649072E+001	-1.0212454E+000	-5.470891452226947E+000	5.5871224E-003	-1.0209872E+000	0
1.7926593E+002	9.007749791966489E+001	-1.0239459E+000	-5.711882617790533E+000	5.8486587E-003	-1.0236893E+000	0
1.7270683E+002	9.034779791283654E+001	-1.0266581E+000	-5.944513076211777E+000	6.1029824E-003	-1.0263922E+000	0
1.6579878E+002	9.063309790562926E+001	-1.0294969E+000	-6.209315410521143E+000	6.3924710E-003	-1.0292450E+000	0
1.5930724E+002	9.093329789804557E+001	-1.0324956E+000	-6.481159592978209E+000	6.6917688E-003	-1.0322475E+000	0
1.5294102E+002	9.121849789084081E+001	-1.0353426E+000	-6.769553986280798E+000	7.0088073E-003	-1.0350993E+000	0
1.4749979E+002	9.148869788401498E+001	-1.0380659E+000	-7.037744990314598E+000	7.3056431E-003	-1.0378011E+000	0
1.4236156E+002	9.175879787719168E+001	-1.0407828E+000	-7.310841328899016E+000	7.6089981E-003	-1.0405023E+000	0
1.3708968E+002	9.202879787037091E+001	-1.0434648E+000	-7.611548864396433E+000	7.9423832E-003	-1.0432024E+000	0
1.3234973E+002	9.229909786354256E+001	-1.0461862E+000	-7.904709588411890E+000	8.2697980E-003	-1.0459051E+000	0
1.2760381E+002	9.258399785634538E+001	-1.0490462E+000	-8.221119674734638E+000	8.6243339E-003	-1.0487543E+000	0
1.2275898E+002	9.286909784914315E+001	-1.0519239E+000	-8.569017723594641E+000	9.0139546E-003	-1.0516050E+000	0
1.1862087E+002	9.313939784231479E+001	-1.0545949E+000	-8.890466472097103E+000	9.3758404E-003	-1.0543079E+000	0
1.1431219E+002	9.342469783510751E+001	-1.0574325E+000	-9.250392108663974E+000	9.7816652E-003	-1.0571613E+000	0
1.1048528E+002	9.367979782866314E+001	-1.0599971E+000	-9.594011885579590E+000	1.0169624E-002	-1.0597126E+000	0
1.0667948E+002	9.396509782145586E+001	-1.0628793E+000	-9.963296778769937E+000	1.0589782E-002	-1.0625651E+000	0
1.0310120E+002	9.425009781425615E+001	-1.0657302E+000	-1.033673973308376E+001	1.1016176E-002	-1.0654153E+000	0
9.9352432E+001	9.450499780781684E+001	-1.0682287E+000	-1.075191308878992E+001	1.1485502E-002	-1.0679649E+000	0
9.5945107E+001	9.477509780099354E+001	-1.0709475E+000	-1.116208574579265E+001	1.1954008E-002	-1.0706657E+000	0
9.2837669E+001	9.504549779416266E+001	-1.0736582E+000	-1.156489839736768E+001	1.2416748E-002	-1.0733691E+000	0
9.0197456E+001	9.530099778770818E+001	-1.0762482E+000	-1.193213464523303E+001	1.2841938E-002	-1.0759238E+000	0
8.7401009E+001	9.557149778087478E+001	-1.0789497E+000	-1.234481994284564E+001	1.3319439E-002	-1.0786287E+000	0
8.5895752E+001	9.569289777780796E+001	-1.0801731E+000	-1.257539669672649E+001	1.3583606E-002	-1.0798422E+000	0
8.5900154E+001	9.569489777775743E+001	-1.0801593E+000	-1.257459097748830E+001	1.3582561E-002	-1.0798621E+000	0
8.5906784E+001	9.569689777770691E+001	-1.0801771E+000	-1.257382728531957E+001	1.3581960E-002	-1.0798820E+000	0
8.5911354E+001	9.569889777765638E+001	-1.0801963E+000	-1.257338145354557E+001	1.3581719E-002	-1.0799022E+000	0
8.4811836E+001	9.580519777497102E+001	-1.0812262E+000	-1.274852946035876E+001	1.3784044E-002	-1.0809665E+000	0
8.2424995E+001	9.604569776889548E+001	-1.0836657E+000	-1.314729509700303E+001	1.4247273E-002	-1.0833709E+000	0
8.0200485E+001	9.627109776320140E+001	-1.0859283E+000	-1.354017099811884E+001	1.4703656E-002	-1.0856260E+000	0
7.8024643E+001	9.651119775713596E+001	-1.0882591E+000	-1.394763271934048E+001	1.5178639E-002	-1.0880266E+000	0
7.5534470E+001	9.679599774994131E+001	-1.0911230E+000	-1.444536506650608E+001	1.5761670E-002	-1.0908746E+000	0
7.2964279E+001	9.708109774273908E+001	-1.0939481E+000	-1.499292688294608E+001	1.6401485E-002	-1.0937253E+000	0
7.0686050E+001	9.733639773628965E+001	-1.0965060E+000	-1.551233858757850E+001	1.7009372E-002	-1.0962784E+000	0
6.8839973E+001	9.756159773060062E+001	-1.0987517E+000	-1.596095449842936E+001	1.7537124E-002	-1.0985307E+000	0
6.6885460E+001	9.781699772414868E+001	-1.1013463E+000	-1.646615401867923E+001	1.8134937E-002	-1.1010838E+000	0
6.4871773E+001	9.807229771769926E+001	-1.1038960E+000	-1.701658441540535E+001	1.8784540E-002	-1.1036377E+000	0
6.2946720E+001	9.834269771086838E+001	-1.1066034E+000	-1.758000035985864E+001	1.9454088E-002	-1.1063408E+000	0
6.1086124E+001	9.859829770441138E+001	-1.1091268E+000	-1.815677156861938E+001	2.0138161E-002	-1.1088970E+000	0
5.9209133E+001	9.885359769796196E+001	-1.1117345E+000	-1.877640217870379E+001	2.0874374E-002	-1.1114506E+000	0
5.7650242E+001	9.907889769227040E+001	-1.1139445E+000	-1.932246034272387E+001	2.1524150E-002	-1.1137033E+000	0
5.6101486E+001	9.933419768582098E+001	-1.1164749E+000	-1.990098498766554E+001	2.2218950E-002	-1.1162564E+000	0
5.4465324E+001	9.960459767899010E+001	-1.1192449E+000	-2.054967853301144E+001	2.3000123E-002	-1.1189600E+000	0
5.2928722E+001	9.984509767291456E+001	-1.1216022E+000	-2.119080376796325E+001	2.3767652E-002	-1.1213652E+000	0
5.1453163E+001	1.001002976664677E+002	-1.1241885E+000	-2.184877447953551E+001	2.4562143E-002	-1.1239170E+000	0
5.0019550E+001	1.003554976600208E+002	-1.1267645E+000	-2.252648296509898E+001	2.5382042E-002	-1.1264693E+000	0
4.8683163E+001	1.005958976539478E+002	-1.1291484E+000	-2.319381654406948E+001	2.6189260E-002	-1.1288730E+000	0
4.7654369E+001	1.007765976493829E+002	-1.1309160E+000	-2.373163363430155E+001	2.6838483E-002	-1.1306800E+000	0
4.7495522E+001	1.008084976485770E+002	-1.1312501E+000	-2.381803797433764E+001	2.6944159E-002	-1.1309981E+000	0
4.7499142E+001	1.008104976485265E+002	-1.1312306E+000	-2.381581209848326E+001	2.6941175E-002	-1.1310180E+000	0
4.7090179E+001	1.008868976465965E+002	-1.1320879E+000	-2.404085087762769E+001	2.7216358E-002	-1.1317828E+000	0
4.6052929E+001	1.010975976412738E+002	-1.1341832E+000	-2.462781886255445E+001	2.7932458E-002	-1.1338897E+000	0
4.4808296E+001	1.013380976351982E+002	-1.1365504E+000	-2.536473240000961E+001	2.8828297E-002	-1.1362951E+000	0
4.3653748E+001	1.015780976291353E+002	-1.1389601E+000	-2.609077584065113E+001	2.9716354E-002	-1.1386955E+000	0
4.2457512E+001	1.018183976230648E+002	-1.1413424E+000	-2.688198899670476E+001	3.0681554E-002	-1.1410980E+000	0
4.1475872E+001	1.020438976173682E+002	-1.1436061E+000	-2.757280441824992E+001	3.1532425E-002	-1.1433533E+000	0
4.0441715E+001	1.022691976116766E+002	-1.1458248E+000	-2.833274547131794E+001	3.2464363E-002	-1.1456066E+000	0
3.9432598E+001	1.024943976059876E+002	-1.1481413E+000	-2.911655110986794E+001	3.3429913E-002	-1.1478579E+000	0
3.8488701E+001	1.027198976002910E+002	-1.1503985E+000	-2.988925302307820E+001	3.4384552E-002	-1.1501130E+000	0
3.7572388E+001	1.029453975945944E+002	-1.1526637E+000	-3.067847886579000E+001	3.5361968E-002	-1.1523677E+000	0
3.6726723E+001	1.031706975889028E+002	-1.1549622E+000	-3.144746232152329E+001	3.6320630E-002	-1.1546215E+000	0
3.5815369E+001	1.033959975832113E+002	-1.1571865E+000	-3.230977636817835E+001	3.7388436E-002	-1.1568741E+000	0
3.5040470E+001	1.036215975775121E+002	-1.1594276E+000	-3.308824544164202E+001	3.8363427E-002	-1.1591302E+000	0
3.4258904E+001	1.038321975721919E+002	-1.1614832E+000	-3.390310561939771E+001	3.9377887E-002	-1.1612362E+000	0
3.3567486E+001	1.040276975672532E+002	-1.1634872E+000	-3.466113760380858E+001	4.0327791E-002	-1.1631911E+000	0
3.2818359E+001	1.042531975615566E+002	-1.1657352E+000	-3.552082536764630E+001	4.1407879E-002	-1.1654460E+000	0
3.2067986E+001	1.044787975558575E+002	-1.1679884E+000	-3.642225701640132E+001	4.2540774E-002	-1.1677023E+000	0
3.1445904E+001	1.046742975509187E+002	-1.1698989E+000	-3.720353797809548E+001	4.3524377E-002	-1.1696569E+000	0
3.1008390E+001	1.048251975471067E+002	-1.1714536E+000	-3.777860005489038E+001	4.4255875E-002	-1.1711658E+000	0
3.0802120E+001	1.048718975459269E+002	-1.1719999E+000	-3.804932740454879E+001	4.4593807E-002	-1.1716322E+000	0
3.0558895E+001	1.049481975439994E+002	-1.1727095E+000	-3.837538809064483E+001	4.5003179E-002	-1.1723964E+000	0
2.9977747E+001	1.051585975386843E+002	-1.1748362E+000	-3.919027531513598E+001	4.6042152E-002	-1.1744996E+000	0
2.9286545E+001	1.053840975329877E+002	-1.1770453E+000	-4.019065124126462E+001	4.7306217E-002	-1.1767548E+000	0
2.8644453E+001	1.056097975272860E+002	-1.1792972E+000	-4.117017699625185E+001	4.8551876E-002	-1.1790117E+000	0
2.8149181E+001	1.058052975223472E+002	-1.1812623E+000	-4.196435567842886E+001	4.9570911E-002	-1.1809675E+000	0
2.7538746E+001	1.060155975170346E+002	-1.1833868E+000	-4.297170265796681E+001	5.0852146E-002	-1.1830702E+000	0
2.6947676E+001	1.062411975113355E+002	-1.1856004E+000	-4.399638659685246E+001	5.2162133E-002	-1.1853259E+000	0
2.6416267E+001	1.064517975060153E+002	-1.1877432E+000	-4.496256840776221E+001	5.3403985E-002	-1.1874321E+000	0
2.5835384E+001	1.066773975003161E+002	-1.1900125E+000	-4.606134288997760E+001	5.4813571E-002	-1.1896878E+000	0
2.5359463E+001	1.068729974953749E+002	-1.1919222E+000	-4.700108190758192E+001	5.6021631E-002	-1.1916438E+000	0
2.4820465E+001	1.070836974900521E+002	-1.1940570E+000	-4.810775953490474E+001	5.7443406E-002	-1.1937512E+000	0
2.4307932E+001	1.073092974843530E+002	-1.1962823E+000	-4.921365973584238E+001	5.8873430E-002	-1.1960067E+000	0
2.3869162E+001	1.075197974790353E+002	-1.1983712E+000	-5.020583604595868E+001	6.0165226E-002	-1.1981120E+000	0
2.3435362E+001	1.077003974744730E+002	-1.2001855E+000	-5.121258679775553E+001	6.1464608E-002	-1.1999179E+000	0
2.3015123E+001	1.078957974695368E+002	-1.2021335E+000	-5.223232926964261E+001	6.2790237E-002	-1.2018725E+000	0
2.2540909E+001	1.081210974638452E+002	-1.2044423E+000	-5.343361482837008E+001	6.4357705E-002	-1.2041252E+000	0
2.2179707E+001	1.083018974592778E+002	-1.2062262E+000	-5.438422750978319E+001	6.5599680E-002	-1.2059325E+000	0
2.1932329E+001	1.084231974562135E+002	-1.2074337E+000	-5.505269070293321E+001	6.6472471E-002	-1.2071451E+000	0
2.1692820E+001	1.085443974531518E+002	-1.2086661E+000	-5.571733619037468E+001	6.7343652E-002	-1.2083583E+000	0
2.1252136E+001	1.087699974474526E+002	-1.2109160E+000	-5.697855871204388E+001	6.8996251E-002	-1.2106141E+000	0
2.0886868E+001	1.089806974421299E+002	-1.2130141E+000	-5.807544520829140E+001	7.0446335E-002	-1.2127212E+000	0
2.0467281E+001	1.092060974364358E+002	-1.2152950E+000	-5.937744666436447E+001	7.2161108E-002	-1.2149746E+000	0
2.0168037E+001	1.093865974318760E+002	-1.2171140E+000	-6.034865928040516E+001	7.3451199E-002	-1.2167808E+000	0
1.9783922E+001	1.095969974265608E+002	-1.2192143E+000	-6.162652482579699E+001	7.5135939E-002	-1.2188839E+000	0
1.9478441E+001	1.097779974219884E+002	-1.2210323E+000	-6.268634629963071E+001	7.6542050E-002	-1.2206937E+000	0
1.9109051E+001	1.099885974166682E+002	-1.2231215E+000	-6.400744453679874E+001	7.8288883E-002	-1.2228000E+000	0
1.8765535E+001	1.101694974120983E+002	-1.2249401E+000	-6.527604900962410E+001	7.9959251E-002	-1.2246087E+000	0
1.8439127E+001	1.103651974071545E+002	-1.2268683E+000	-6.653613808237901E+001	8.1631079E-002	-1.2265658E+000	0
1.8130777E+001	1.105608974022107E+002	-1.2287781E+000	-6.777305091446465E+001	8.3278045E-002	-1.2285233E+000	0
1.7820768E+001	1.107565973972669E+002	-1.2308474E+000	-6.906814331180385E+001	8.5012339E-002	-1.2304798E+000	0
1.7541172E+001	1.109522973923231E+002	-1.2327360E+000	-7.027671703898568E+001	8.6632639E-002	-1.2324371E+000	0
1.7268293E+001	1.111479973873793E+002	-1.2346871E+000	-7.150023477025809E+001	8.8280417E-002	-1.2343940E+000	0
1.7023455E+001	1.113285973828170E+002	-1.2365669E+000	-7.263900830285348E+001	8.9822993E-002	-1.2362005E+000	0
1.6753864E+001	1.115242973778732E+002	-1.2384793E+000	-7.392200443674702E+001	9.1550872E-002	-1.2381564E+000	0
1.6509974E+001	1.117053973732982E+002	-1.2402451E+000	-7.512096162386842E+001	9.3168408E-002	-1.2399675E+000	0
1.6237143E+001	1.119012973683493E+002	-1.2421552E+000	-7.650084767332635E+001	9.5025927E-002	-1.2419266E+000	0
1.5975531E+001	1.120971973634005E+002	-1.2442145E+000	-7.788251591963410E+001	9.6902557E-002	-1.2438858E+000	0
1.5750545E+001	1.122779973588331E+002	-1.2459916E+000	-7.910784302343563E+001	9.8567709E-002	-1.2456938E+000	0
1.5501260E+001	1.124583973542758E+002	-1.2478137E+000	-8.049756661547414E+001	1.0044596E-001	-1.2474984E+000	0
1.5242618E+001	1.126537973493396E+002	-1.2497963E+000	-8.199354493086440E+001	1.0247523E-001	-1.2494522E+000	0
1.5027251E+001	1.128492973444008E+002	-1.2516906E+000	-8.329471641556989E+001	1.0425922E-001	-1.2514070E+000	0
1.4791739E+001	1.130301973398309E+002	-1.2535607E+000	-8.474734485492223E+001	1.0623594E-001	-1.2532158E+000	0
1.4590448E+001	1.132407973345107E+002	-1.2556744E+000	-8.606139571377639E+001	1.0806509E-001	-1.2553217E+000	0
1.4380495E+001	1.134365973295644E+002	-1.2576058E+000	-8.745218788534748E+001	1.0998037E-001	-1.2572793E+000	0
1.4186532E+001	1.135876973257473E+002	-1.2591505E+000	-8.875675478130415E+001	1.1175811E-001	-1.2587909E+000	0
1.3987023E+001	1.137535973215563E+002	-1.2607911E+000	-9.014005694630100E+001	1.1364778E-001	-1.2604501E+000	0
1.3769246E+001	1.139491973166150E+002	-1.2627676E+000	-9.170927241327149E+001	1.1580750E-001	-1.2624060E+000	0
1.3581830E+001	1.141294973120603E+002	-1.2645739E+000	-9.310777292394016E+001	1.1774166E-001	-1.2642092E+000	0
1.3414083E+001	1.142949973078794E+002	-1.2662154E+000	-9.439448732115204E+001	1.1952376E-001	-1.2658639E+000	0
1.3225672E+001	1.144907973029331E+002	-1.2681401E+000	-9.588473567539575E+001	1.2159528E-001	-1.2678219E+000	0
1.3042142E+001	1.146713972983707E+002	-1.2699472E+000	-9.737258973436343E+001	1.2365805E-001	-1.2696280E+000	0
1.2869586E+001	1.148372972941797E+002	-1.2716610E+000	-9.881133720324510E+001	1.2565453E-001	-1.2712868E+000	0
1.2703402E+001	1.150328972892385E+002	-1.2734933E+000	-1.002482143547341E+002	1.2766543E-001	-1.2732433E+000	0
1.2548445E+001	1.152282972843022E+002	-1.2755115E+000	-1.016469770129715E+002	1.2965189E-001	-1.2751971E+000	0
1.2356420E+001	1.154091972797323E+002	-1.2773246E+000	-1.033733586125915E+002	1.3204134E-001	-1.2770054E+000	0
1.2177691E+001	1.155898972751675E+002	-1.2791091E+000	-1.050370860272631E+002	1.3435389E-001	-1.2788131E+000	0
1.2033156E+001	1.157701972706127E+002	-1.2809643E+000	-1.064528878885451E+002	1.3636234E-001	-1.2806164E+000	0
1.1904882E+001	1.159654972656790E+002	-1.2828337E+000	-1.077569420437673E+002	1.3823424E-001	-1.2825691E+000	0
1.1706861E+001	1.161761972603563E+002	-1.2850074E+000	-1.097653216674422E+002	1.4104925E-001	-1.2846760E+000	0
1.1472057E+001	1.163719972554100E+002	-1.2869136E+000	-1.121781061933928E+002	1.4436354E-001	-1.2866341E+000	0
1.1316423E+001	1.165675972504687E+002	-1.2888565E+000	-1.138925653098354E+002	1.4679118E-001	-1.2885898E+000	0
1.1189757E+001	1.167631972455274E+002	-1.2908502E+000	-1.153599781858116E+002	1.4891244E-001	-1.2905463E+000	0
1.1076535E+001	1.169286972413465E+002	-1.2925149E+000	-1.166894601045159E+002	1.5082286E-001	-1.2922008E+000	0
1.0927475E+001	1.171090972367892E+002	-1.2943610E+000	-1.184501436287893E+002	1.5331724E-001	-1.2940048E+000	0
1.0818131E+001	1.172747972326033E+002	-1.2959619E+000	-1.197953531439764E+002	1.5525021E-001	-1.2956622E+000	0
1.0678427E+001	1.174854972272806E+002	-1.2980952E+000	-1.215624018497419E+002	1.5779957E-001	-1.2977685E+000	0
1.0543776E+001	1.176663972227107E+002	-1.2998329E+000	-1.232796446823736E+002	1.6024294E-001	-1.2995784E+000	0
1.0379628E+001	1.178321972185222E+002	-1.3015236E+000	-1.253921230035412E+002	1.6320081E-001	-1.3012356E+000	0
1.0264009E+001	1.179830972147101E+002	-1.3030553E+000	-1.269538392928221E+002	1.6542788E-001	-1.3027446E+000	0
1.0142357E+001	1.181634972101529E+002	-1.3048741E+000	-1.286559047919554E+002	1.6787976E-001	-1.3045490E+000	0
1.0059235E+001	1.182695972074725E+002	-1.3059865E+000	-1.298296077782704E+002	1.6955572E-001	-1.3056105E+000	0
9.9595728E+000	1.183757972047897E+002	-1.3069580E+000	-1.312263049011787E+002	1.7150727E-001	-1.3066720E+000	0
9.8853073E+000	1.185565972002223E+002	-1.3087872E+000	-1.323972269254209E+002	1.7327979E-001	-1.3084798E+000	0
9.7889023E+000	1.187224971960313E+002	-1.3104701E+000	-1.338730433115911E+002	1.7543662E-001	-1.3101386E+000	0
9.7167645E+000	1.188436971929696E+002	-1.3116547E+000	-1.349888269558487E+002	1.7705873E-001	-1.3113503E+000	0
9.6294909E+000	1.189648971899078E+002	-1.3129008E+000	-1.363416606057206E+002	1.7900307E-001	-1.3125623E+000	0
9.5636110E+000	1.191008971864721E+002	-1.3143014E+000	-1.374273107697777E+002	1.8062091E-001	-1.3139225E+000	0
9.4821978E+000	1.192667971822812E+002	-1.3158854E+000	-1.387743094431369E+002	1.8261109E-001	-1.3155820E+000	0
9.3898153E+000	1.194178971784640E+002	-1.3174218E+000	-1.403032736557925E+002	1.8483859E-001	-1.3170924E+000	0
9.2752371E+000	1.195688971746495E+002	-1.3188845E+000	-1.421941550572890E+002	1.8753767E-001	-1.3186026E+000	0
9.1518507E+000	1.197197971708374E+002	-1.3204266E+000	-1.442797412286210E+002	1.9051081E-001	-1.3201120E+000	0
9.0802002E+000	1.198706971670254E+002	-1.3219181E+000	-1.455824904873424E+002	1.9244814E-001	-1.3216203E+000	0
9.0151682E+000	1.199918971639636E+002	-1.3231921E+000	-1.467739876724594E+002	1.9421019E-001	-1.3228322E+000	0
8.9444866E+000	1.200236971631603E+002	-1.3234574E+000	-1.479634786496554E+002	1.9582336E-001	-1.3231502E+000	0
8.9377174E+000	1.200256971631097E+002	-1.3235019E+000	-1.480805281599360E+002	1.9598487E-001	-1.3231702E+000	0
8.9396830E+000	1.200276971630592E+002	-1.3235199E+000	-1.480499911838106E+002	1.9594711E-001	-1.3231903E+000	0
8.9407415E+000	1.200296971630087E+002	-1.3235496E+000	-1.480357821467849E+002	1.9593270E-001	-1.3232102E+000	0
8.9398212E+000	1.200316971629582E+002	-1.3235538E+000	-1.480514761971103E+002	1.9595410E-001	-1.3232303E+000	0
8.9208555E+000	1.200782971617809E+002	-1.3239977E+000	-1.484160025630945E+002	1.9650245E-001	-1.3236971E+000	0
8.8520298E+000	1.201844971590981E+002	-1.3250979E+000	-1.496942434426408E+002	1.9835953E-001	-1.3247584E+000	0
8.7826300E+000	1.203354971552835E+002	-1.3265948E+000	-1.510475658533587E+002	2.0037892E-001	-1.3262682E+000	0
8.6882153E+000	1.205161971507187E+002	-1.3283751E+000	-1.528939062852369E+002	2.0310046E-001	-1.3280761E+000	0
8.6202545E+000	1.206822971465226E+002	-1.3300984E+000	-1.542991962378912E+002	2.0523311E-001	-1.3297366E+000	0
8.5632238E+000	1.208332971427080E+002	-1.3315870E+000	-1.555006562863205E+002	2.0706265E-001	-1.3312464E+000	0
8.4964485E+000	1.209543971396488E+002	-1.3328395E+000	-1.568701889079048E+002	2.0908278E-001	-1.3324574E+000	0
8.4243221E+000	1.210457971373398E+002	-1.3337210E+000	-1.583179031595797E+002	2.1115191E-001	-1.3333720E+000	0
8.3491373E+000	1.212413971323986E+002	-1.3356203E+000	-1.599710550814832E+002	2.1366058E-001	-1.3353276E+000	0
8.2606812E+000	1.214222971278286E+002	-1.3374519E+000	-1.619057698241513E+002	2.1654119E-001	-1.3371361E+000	0
8.1640348E+000	1.215733971240115E+002	-1.3389555E+000	-1.640065921216614E+002	2.1959753E-001	-1.3386476E+000	0
8.0556087E+000	1.217096971205683E+002	-1.3403405E+000	-1.663860066721868E+002	2.2301391E-001	-1.3400102E+000	0
8.0032806E+000	1.218160971178804E+002	-1.3414122E+000	-1.676077925227441E+002	2.2483113E-001	-1.3410745E+000	0
7.9294214E+000	1.219820971136869E+002	-1.3430303E+000	-1.693730523552172E+002	2.2747314E-001	-1.3427341E+000	0
7.8686023E+000	1.221331971098698E+002	-1.3445779E+000	-1.708788802708982E+002	2.2975996E-001	-1.3442457E+000	0
7.8099527E+000	1.222691971064341E+002	-1.3459039E+000	-1.723318898357097E+002	2.3194216E-001	-1.3456054E+000	0
7.7481599E+000	1.223902971033749E+002	-1.3471559E+000	-1.738678513749474E+002	2.3422711E-001	-1.3468162E+000	0
7.6981602E+000	1.225263970999367E+002	-1.3484651E+000	-1.751671907696280E+002	2.3620684E-001	-1.3481777E+000	0
7.6310744E+000	1.226773970961221E+002	-1.3500040E+000	-1.769087711474647E+002	2.3882754E-001	-1.3496875E+000	0
7.5877495E+000	1.227538970941896E+002	-1.3507727E+000	-1.780202089448767E+002	2.4046485E-001	-1.3504523E+000	0
7.5676570E+000	1.228600970915068E+002	-1.3518642E+000	-1.786370912215139E+002	2.4149309E-001	-1.3515147E+000	0
7.5110965E+000	1.230408970869394E+002	-1.3536623E+000	-1.802216532281886E+002	2.4395925E-001	-1.3533224E+000	0
7.4795303E+000	1.231472970842515E+002	-1.3546854E+000	-1.811190459889929E+002	2.4535933E-001	-1.3543864E+000	0
7.4223676E+000	1.232833970808133E+002	-1.3560541E+000	-1.826983167895779E+002	2.4774879E-001	-1.3557473E+000	0
7.3818707E+000	1.234495970766147E+002	-1.3577490E+000	-1.839302015739117E+002	2.4973105E-001	-1.3574095E+000	0
7.3501420E+000	1.235857970731740E+002	-1.3590816E+000	-1.849054907322059E+002	2.5130165E-001	-1.3587714E+000	0
7.2706518E+000	1.236919970704912E+002	-1.3601427E+000	-1.870730082193718E+002	2.5444600E-001	-1.3598334E+000	0
7.1746583E+000	1.238430970666741E+002	-1.3616762E+000	-1.897897010662118E+002	2.5843212E-001	-1.3613446E+000	0
7.0871654E+000	1.239939970628620E+002	-1.3631915E+000	-1.923465007376731E+002	2.6220512E-001	-1.3628534E+000	0
7.0346904E+000	1.241596970586761E+002	-1.3648851E+000	-1.940220605052768E+002	2.6481780E-001	-1.3645109E+000	0
6.9941759E+000	1.243253970544902E+002	-1.3664812E+000	-1.953741557343415E+002	2.6697510E-001	-1.3661678E+000	0
6.9330482E+000	1.244761970506806E+002	-1.3679991E+000	-1.973156699661963E+002	2.6992765E-001	-1.3676754E+000	0
6.8660779E+000	1.246419970464922E+002	-1.3696709E+000	-1.994837384615207E+002	2.7322707E-001	-1.3693339E+000	0
6.8146758E+000	1.247929970426776E+002	-1.3711634E+000	-2.012074230473113E+002	2.7588823E-001	-1.3708440E+000	0
6.7468324E+000	1.249290970392394E+002	-1.3725516E+000	-2.034364393701035E+002	2.7922699E-001	-1.3722047E+000	0
6.7101359E+000	1.250948970350510E+002	-1.3742040E+000	-2.047952549298495E+002	2.8143045E-001	-1.3738623E+000	0
6.6722059E+000	1.252458970312364E+002	-1.3756794E+000	-2.061805872113463E+002	2.8363839E-001	-1.3753722E+000	0
6.6311359E+000	1.254117970270454E+002	-1.3773757E+000	-2.077133897235258E+002	2.8609937E-001	-1.3770314E+000	0
6.5786896E+000	1.255476970236123E+002	-1.3787518E+000	-2.095784835044569E+002	2.8895670E-001	-1.3783909E+000	0
6.4987020E+000	1.256985970198002E+002	-1.3802962E+000	-2.123956828568084E+002	2.9316896E-001	-1.3798996E+000	0
6.4838424E+000	1.258495970159856E+002	-1.3816973E+000	-2.130985373285621E+002	2.9443768E-001	-1.3814098E+000	0
6.4572639E+000	1.260004970121736E+002	-1.3833146E+000	-2.142261144308804E+002	2.9634210E-001	-1.3829186E+000	0
6.3925729E+000	1.261513970083615E+002	-1.3847883E+000	-2.166245595118835E+002	2.9997915E-001	-1.3844274E+000	0
6.3297901E+000	1.263171970041731E+002	-1.3863903E+000	-2.190262682448538E+002	3.0365589E-001	-1.3860857E+000	0
6.2920079E+000	1.264234970014877E+002	-1.3874542E+000	-2.205105558685136E+002	3.0594829E-001	-1.3871480E+000	0
6.2391911E+000	1.265447969984234E+002	-1.3887354E+000	-2.225826068663710E+002	3.0910835E-001	-1.3883619E+000	0
6.1778603E+000	1.266510969957380E+002	-1.3897398E+000	-2.249548777080963E+002	3.1262875E-001	-1.3894250E+000	0
6.1141739E+000	1.267723969926737E+002	-1.3910097E+000	-2.275057523648165E+002	3.1646270E-001	-1.3906370E+000	0
6.0723801E+000	1.269233969888592E+002	-1.3924547E+000	-2.293095483890083E+002	3.1930315E-001	-1.3921477E+000	0
6.0409980E+000	1.270742969850471E+002	-1.3940470E+000	-2.307643572141250E+002	3.2169637E-001	-1.3936563E+000	0
6.0122247E+000	1.272400969808587E+002	-1.3956107E+000	-2.321288270791038E+002	3.2396147E-001	-1.3953145E+000	0
5.9886551E+000	1.274356969759174E+002	-1.3976296E+000	-2.333795528877872E+002	3.2617816E-001	-1.3972703E+000	0
5.9499230E+000	1.276164969713500E+002	-1.3994278E+000	-2.352009811712205E+002	3.2914677E-001	-1.3990782E+000	0
5.9016218E+000	1.277675969675329E+002	-1.4009305E+000	-2.373806015013834E+002	3.3255374E-001	-1.4005896E+000	0
5.8591833E+000	1.279036969640947E+002	-1.4023743E+000	-2.393463704130309E+002	3.3565319E-001	-1.4019507E+000	0
5.8516769E+000	1.280545969602827E+002	-1.4037541E+000	-2.398891946874010E+002	3.3674544E-001	-1.4034599E+000	0
5.7967281E+000	1.282055969564681E+002	-1.4053196E+000	-2.424332402724522E+002	3.4069619E-001	-1.4049695E+000	0
5.7318788E+000	1.283715969522746E+002	-1.4069487E+000	-2.454603058937737E+002	3.4535006E-001	-1.4066294E+000	0
5.7037392E+000	1.285078969488313E+002	-1.4082742E+000	-2.469036669764123E+002	3.4770805E-001	-1.4079924E+000	0
5.7044411E+000	1.285546969476491E+002	-1.4088122E+000	-2.469675994813438E+002	3.4793097E-001	-1.4084603E+000	0
5.7053852E+000	1.285566969475985E+002	-1.4088057E+000	-2.469256097376344E+002	3.4787020E-001	-1.4084803E+000	0
5.7051487E+000	1.285586969475480E+002	-1.4088321E+000	-2.469404603044189E+002	3.4789765E-001	-1.4085003E+000	0
5.7059960E+000	1.285606969474975E+002	-1.4088210E+000	-2.469018555680913E+002	3.4784052E-001	-1.4085202E+000	0
5.7056823E+000	1.285626969474470E+002	-1.4088573E+000	-2.469217983318701E+002	3.4787759E-001	-1.4085402E+000	0
5.7000103E+000	1.285944969466436E+002	-1.4092237E+000	-2.472317746088543E+002	3.4840488E-001	-1.4088581E+000	0
5.6511102E+000	1.287456969428240E+002	-1.4107201E+000	-2.496359323202437E+002	3.5216644E-001	-1.4103707E+000	0
5.5846028E+000	1.289267969382490E+002	-1.4125297E+000	-2.529328900855127E+002	3.5727522E-001	-1.4121816E+000	0
5.5248804E+000	1.290925969340606E+002	-1.4141937E+000	-2.559682199504532E+002	3.6198866E-001	-1.4138397E+000	0
5.4982338E+000	1.292584969298696E+002	-1.4159043E+000	-2.575198398995426E+002	3.6462346E-001	-1.4154987E+000	0
5.4847469E+000	1.293647969271842E+002	-1.4169680E+000	-2.583470174630540E+002	3.6606947E-001	-1.4165612E+000	0
5.4600658E+000	1.295156969233722E+002	-1.4184998E+000	-2.597953677701162E+002	3.6851969E-001	-1.4180709E+000	0
5.4402437E+000	1.296966969187997E+002	-1.4203089E+000	-2.610745154168408E+002	3.7080646E-001	-1.4198803E+000	0
5.4290729E+000	1.298478969149801E+002	-1.4218049E+000	-2.618872422465388E+002	3.7235257E-001	-1.4213923E+000	0
5.3814673E+000	1.299838969115444E+002	-1.4231887E+000	-2.644610858251144E+002	3.7637803E-001	-1.4227525E+000	0
5.3533740E+000	1.300899969088641E+002	-1.4241875E+000	-2.660354921678999E+002	3.7888443E-001	-1.4238133E+000	0
5.3476586E+000	1.301664969069316E+002	-1.4249679E+000	-2.664657633119441E+002	3.7970516E-001	-1.4245785E+000	0
5.3116231E+000	1.303322969027431E+002	-1.4266258E+000	-2.685856629940844E+002	3.8317126E-001	-1.4262367E+000	0
5.2683635E+000	1.304981968985521E+002	-1.4283335E+000	-2.711152296314967E+002	3.8724297E-001	-1.4278957E+000	0
5.2337804E+000	1.306192968954929E+002	-1.4294796E+000	-2.731256362687191E+002	3.9042753E-001	-1.4291066E+000	0
5.1652136E+000	1.307105968931864E+002	-1.4304525E+000	-2.769396428806367E+002	3.9614901E-001	-1.4300197E+000	0
5.1426654E+000	1.308019968908775E+002	-1.4314305E+000	-2.783440879081907E+002	3.9843020E-001	-1.4309332E+000	0
5.1324024E+000	1.309679968866840E+002	-1.4330060E+000	-2.792076500825278E+002	4.0010625E-001	-1.4325937E+000	0
5.0923433E+000	1.311187968828744E+002	-1.4345353E+000	-2.817043376358906E+002	4.0411481E-001	-1.4341023E+000	0
5.0218844E+000	1.312398968798152E+002	-1.4357213E+000	-2.858929439088181E+002	4.1046259E-001	-1.4353125E+000	0
4.9924855E+000	1.314355968748714E+002	-1.4376850E+000	-2.879698021722106E+002	4.1400987E-001	-1.4372698E+000	0
4.9801722E+000	1.316312968699276E+002	-1.4396718E+000	-2.890807179134824E+002	4.1618136E-001	-1.4392269E+000	0
4.9451079E+000	1.317672968664920E+002	-1.4410262E+000	-2.914043970018174E+002	4.1992137E-001	-1.4405862E+000	0
4.9434748E+000	1.319033968630538E+002	-1.4423414E+000	-2.917667311666869E+002	4.2082724E-001	-1.4419473E+000	0
4.9310617E+000	1.320393968596181E+002	-1.4437685E+000	-2.927905901152258E+002	4.2272183E-001	-1.4433073E+000	0
4.9188113E+000	1.322200968550533E+002	-1.4454956E+000	-2.938709331567488E+002	4.2478913E-001	-1.4451146E+000	0
4.8560872E+000	1.323859968508623E+002	-1.4471874E+000	-2.980151369123834E+002	4.3128377E-001	-1.4467739E+000	0
4.8192244E+000	1.324624968489297E+002	-1.4479614E+000	-3.004553039901784E+002	4.3504769E-001	-1.4475383E+000	0
4.8019652E+000	1.325684968462519E+002	-1.4490451E+000	-3.017608366341706E+002	4.3726504E-001	-1.4485984E+000	0
4.7881074E+000	1.327640968413107E+002	-1.4509611E+000	-3.030343649837519E+002	4.3969107E-001	-1.4505541E+000	0
4.7909966E+000	1.328703968386253E+002	-1.4520389E+000	-3.030765976160959E+002	4.4007900E-001	-1.4516174E+000	0
4.7622876E+000	1.329469968366902E+002	-1.4528108E+000	-3.050657273277538E+002	4.4320276E-001	-1.4523832E+000	0
4.7305098E+000	1.331130968324942E+002	-1.4544579E+000	-3.074632558753154E+002	4.4719234E-001	-1.4540440E+000	0
4.6941586E+000	1.332492968290535E+002	-1.4558573E+000	-3.101423384139748E+002	4.5152298E-001	-1.4554067E+000	0
4.6970201E+000	1.333108968274973E+002	-1.4564570E+000	-3.100810761782859E+002	4.5161977E-001	-1.4560224E+000	0
4.6970358E+000	1.333128968274468E+002	-1.4564718E+000	-3.100831815169913E+002	4.5162740E-001	-1.4560422E+000	0
4.6975064E+000	1.333148968273963E+002	-1.4565072E+000	-3.100596613155474E+002	4.5160413E-001	-1.4560622E+000	0
4.6984758E+000	1.333168968273458E+002	-1.4565278E+000	-3.100000749727087E+002	4.5152375E-001	-1.4560821E+000	0
4.7026505E+000	1.333337968269188E+002	-1.4566517E+000	-3.097512183092076E+002	4.5119962E-001	-1.4562513E+000	0
4.7112637E+000	1.333953968253627E+002	-1.4573388E+000	-3.093307776067300E+002	4.5079973E-001	-1.4568673E+000	0
4.7012124E+000	1.335016968226773E+002	-1.4583383E+000	-3.102047183364853E+002	4.5238340E-001	-1.4579306E+000	0
4.6705036E+000	1.336079968199920E+002	-1.4594674E+000	-3.124860877723117E+002	4.5606327E-001	-1.4589936E+000	0
4.6524997E+000	1.337589968161774E+002	-1.4609348E+000	-3.140107057261930E+002	4.5874915E-001	-1.4605041E+000	0
4.5844603E+000	1.339398968116075E+002	-1.4627250E+000	-3.190615475383152E+002	4.6669930E-001	-1.4623121E+000	0
4.5329604E+000	1.340610968085457E+002	-1.4639887E+000	-3.229652453672811E+002	4.7281745E-001	-1.4635246E+000	0
4.5315752E+000	1.341670968058679E+002	-1.4650606E+000	-3.233005172358335E+002	4.7365484E-001	-1.4645847E+000	0
4.5232668E+000	1.343178968020584E+002	-1.4665104E+000	-3.242148976385274E+002	4.7546452E-001	-1.4660929E+000	0
4.4749141E+000	1.345136967971121E+002	-1.4684654E+000	-3.281550095123221E+002	4.8188430E-001	-1.4680507E+000	0
4.4397211E+000	1.346943967925472E+002	-1.4702671E+000	-3.311620186466581E+002	4.8689660E-001	-1.4698575E+000	0
4.3943439E+000	1.348600967883613E+002	-1.4719762E+000	-3.349706424195512E+002	4.9306881E-001	-1.4715147E+000	0
4.3819466E+000	1.349214967868102E+002	-1.4724916E+000	-3.360359440710808E+002	4.9481010E-001	-1.4721283E+000	0
4.3818154E+000	1.349832967852490E+002	-1.4731643E+000	-3.361995499679624E+002	4.9527720E-001	-1.4727461E+000	0
4.3990364E+000	1.351196967818032E+002	-1.4745158E+000	-3.351906407687677E+002	4.9424389E-001	-1.4741105E+000	0
4.3767314E+000	1.352111967794917E+002	-1.4754144E+000	-3.371041517328467E+002	4.9736831E-001	-1.4750260E+000	0
4.3644094E+000	1.353323967764300E+002	-1.4766676E+000	-3.383430522449148E+002	4.9962023E-001	-1.4762372E+000	0
4.3474369E+000	1.354537967733631E+002	-1.4778482E+000	-3.399355092907017E+002	5.0237310E-001	-1.4774512E+000	0
4.3174467E+000	1.356048967695460E+002	-1.4793479E+000	-3.426441589027827E+002	5.0688994E-001	-1.4789624E+000	0
4.2707515E+000	1.357706967653576E+002	-1.4810770E+000	-3.467954121495559E+002	5.1363069E-001	-1.4806209E+000	0
4.2493258E+000	1.359364967611691E+002	-1.4826918E+000	-3.489240131845845E+002	5.1734674E-001	-1.4822793E+000	0
4.2630329E+000	1.360424967584913E+002	-1.4837955E+000	-3.480610142438209E+002	5.1645136E-001	-1.4833384E+000	0
4.2507892E+000	1.362527967531787E+002	-1.4859124E+000	-3.495615613226860E+002	5.1941788E-001	-1.4854426E+000	0
4.2334437E+000	1.364929967471107E+002	-1.4882925E+000	-3.515559608038593E+002	5.2321810E-001	-1.4878445E+000	0
4.2200017E+000	1.367034967417931E+002	-1.4903671E+000	-3.531673905953171E+002	5.2634907E-001	-1.4899496E+000	0
4.1844616E+000	1.369436967357251E+002	-1.4928353E+000	-3.567568468172585E+002	5.3257918E-001	-1.4923519E+000	0
4.1401267E+000	1.371389967307914E+002	-1.4947016E+000	-3.610280049646226E+002	5.3962916E-001	-1.4943043E+000	0
4.1671419E+000	1.373341967258602E+002	-1.4966917E+000	-3.591650526949970E+002	5.3755933E-001	-1.4962564E+000	0
4.0824475E+000	1.375444967205476E+002	-1.4988329E+000	-3.671407904173784E+002	5.5028272E-001	-1.4983591E+000	0
4.0559330E+000	1.377698967148535E+002	-1.5010208E+000	-3.700802648873134E+002	5.5549818E-001	-1.5006137E+000	0
4.0534139E+000	1.379652967099173E+002	-1.5030720E+000	-3.708163352300908E+002	5.5736369E-001	-1.5025678E+000	0
4.0258322E+000	1.381459967053524E+002	-1.5047946E+000	-3.737847443116752E+002	5.6246924E-001	-1.5043744E+000	0
3.9964569E+000	1.383562967000398E+002	-1.5068768E+000	-3.770531977691990E+002	5.6817275E-001	-1.5064776E+000	0
3.9383180E+000	1.385813966943533E+002	-1.5091213E+000	-3.831892867359566E+002	5.7827914E-001	-1.5087284E+000	0
3.8829157E+000	1.388065966886643E+002	-1.5114053E+000	-3.892449498796841E+002	5.8830690E-001	-1.5109810E+000	0
3.8616807E+000	1.390318966829727E+002	-1.5137042E+000	-3.919806567068786E+002	5.9334278E-001	-1.5132339E+000	0
3.8406060E+000	1.392868966765309E+002	-1.5162357E+000	-3.947907404349922E+002	5.9859580E-001	-1.5157837E+000	0
3.8261771E+000	1.395271966704604E+002	-1.5186942E+000	-3.969220774370806E+002	6.0280323E-001	-1.5181868E+000	0
3.7593820E+000	1.397674966643899E+002	-1.5210375E+000	-4.045977306181649E+002	6.1540830E-001	-1.5205895E+000	0
3.7621996E+000	1.399929966586933E+002	-1.5233215E+000	-4.049018348695427E+002	6.1679566E-001	-1.5228440E+000	0
3.7759669E+000	1.402481966522464E+002	-1.5258596E+000	-4.040977224821145E+002	6.1659640E-001	-1.5253968E+000	0
3.7616715E+000	1.405031966458046E+002	-1.5284042E+000	-4.063098609955978E+002	6.2100571E-001	-1.5279465E+000	0
3.6858616E+000	1.407583966393577E+002	-1.5309955E+000	-4.153697725404400E+002	6.3592923E-001	-1.5304987E+000	0
3.6926565E+000	1.409987966332847E+002	-1.5333500E+000	-4.152430470753998E+002	6.3671291E-001	-1.5329030E+000	0
3.6547935E+000	1.412092966279670E+002	-1.5354960E+000	-4.201320671108642E+002	6.4511108E-001	-1.5350066E+000	0
3.6266804E+000	1.414347966222704E+002	-1.5377502E+000	-4.240104028192750E+002	6.5202212E-001	-1.5372624E+000	0
3.6285708E+000	1.416600966165788E+002	-1.5399935E+000	-4.244077468660502E+002	6.5358520E-001	-1.5395160E+000	0
3.5889716E+000	1.419149966101395E+002	-1.5425454E+000	-4.298015115115340E+002	6.6298836E-001	-1.5420645E+000	0
3.5794179E+000	1.421550966040741E+002	-1.5449126E+000	-4.316099951307187E+002	6.6679972E-001	-1.5444649E+000	0
3.5419021E+000	1.423803965983825E+002	-1.5475358E+000	-4.369222279838414E+002	6.7615277E-001	-1.5467185E+000	0
3.4964929E+000	1.426354965919381E+002	-1.5502665E+000	-4.433775771405763E+002	6.8735343E-001	-1.5492698E+000	0
3.4859726E+000	1.428309965869994E+002	-1.5522490E+000	-4.452843120054877E+002	6.9119209E-001	-1.5512235E+000	0
3.4710586E+000	1.430264965820606E+002	-1.5541915E+000	-4.477572056356025E+002	6.9590044E-001	-1.5531793E+000	0
3.3920794E+000	1.432070965774983E+002	-1.5559583E+000	-4.587033698919961E+002	7.1372330E-001	-1.5549855E+000	0
3.4431939E+000	1.433875965729385E+002	-1.5577792E+000	-4.524227242833745E+002	7.0477468E-001	-1.5567908E+000	0
3.4690816E+000	1.436425965664967E+002	-1.5603408E+000	-4.497849563811396E+002	7.0181781E-001	-1.5593406E+000	0
3.4703174E+000	1.438975965600548E+002	-1.5629053E+000	-4.503638128156545E+002	7.0387602E-001	-1.5618905E+000	0
3.4162991E+000	1.441226965543683E+002	-1.5651621E+000	-4.581455128229518E+002	7.1707195E-001	-1.5641413E+000	0
3.3934152E+000	1.443181965494296E+002	-1.5671222E+000	-4.618126923164064E+002	7.2371691E-001	-1.5660955E+000	0
3.4145830E+000	1.445586965433540E+002	-1.5695283E+000	-4.596544834463223E+002	7.2144073E-001	-1.5685016E+000	0
3.3982503E+000	1.447840965376599E+002	-1.5717722E+000	-4.625239762443080E+002	7.2698236E-001	-1.5707558E+000	0
3.3433304E+000	1.450392965312130E+002	-1.5743644E+000	-4.708970479077443E+002	7.4136358E-001	-1.5733076E+000	0
3.3403063E+000	1.452498965258928E+002	-1.5764977E+000	-4.719620004112776E+002	7.4404699E-001	-1.5754128E+000	0
3.3060157E+000	1.454750965202038E+002	-1.5786918E+000	-4.775209874684042E+002	7.5385851E-001	-1.5776653E+000	0
3.3366745E+000	1.456554965156465E+002	-1.5805063E+000	-4.736771118950528E+002	7.4864966E-001	-1.5794694E+000	0
3.2935100E+000	1.458657965103339E+002	-1.5826106E+000	-4.805239986371571E+002	7.6048237E-001	-1.5815723E+000	0
3.2871766E+000	1.460908965046474E+002	-1.5848860E+000	-4.821420138692265E+002	7.6414013E-001	-1.5838233E+000	0
3.3104105E+000	1.463310964985794E+002	-1.5872617E+000	-4.794757941802936E+002	7.6105356E-001	-1.5862255E+000	0
3.2927673E+000	1.465713964925089E+002	-1.5896267E+000	-4.827631250575482E+002	7.6741314E-001	-1.5886286E+000	0
3.2842062E+000	1.467520964879441E+002	-1.5915142E+000	-4.845963099541873E+002	7.7124190E-001	-1.5904344E+000	0
3.2536566E+000	1.469772964822550E+002	-1.5937756E+000	-4.898413783235974E+002	7.8069723E-001	-1.5926878E+000	0
3.2253578E+000	1.472173964761896E+002	-1.5961570E+000	-4.948774882200205E+002	7.8990215E-001	-1.5950884E+000	0
3.1946177E+000	1.474277964708745E+002	-1.5982246E+000	-5.002866409650160E+002	7.9957044E-001	-1.5971919E+000	0
3.1508110E+000	1.476383964655543E+002	-1.6003331E+000	-5.079114868220622E+002	8.1282759E-001	-1.5992984E+000	0
3.1061068E+000	1.478639964598551E+002	-1.6026154E+000	-5.159563074467897E+002	8.2687950E-001	-1.6015549E+000	0
3.1168811E+000	1.481191964534082E+002	-1.6051763E+000	-5.149943877295718E+002	8.2665682E-001	-1.6041069E+000	0
3.1549506E+000	1.483593964473403E+002	-1.6075870E+000	-5.095442790445520E+002	8.1913674E-001	-1.6065087E+000	0
3.0862694E+000	1.485845964416512E+002	-1.6098263E+000	-5.216091231398996E+002	8.3970010E-001	-1.6087600E+000	0
3.1010425E+000	1.487798964367175E+002	-1.6118373E+000	-5.197727005356664E+002	8.3778900E-001	-1.6107132E+000	0
3.0990708E+000	1.490049964310310E+002	-1.6140286E+000	-5.208105016053996E+002	8.4060305E-001	-1.6129643E+000	0
3.0861804E+000	1.492451964249631E+002	-1.6164435E+000	-5.237683209517199E+002	8.4664190E-001	-1.6153665E+000	0
3.0403972E+000	1.494555964196479E+002	-1.6185914E+000	-5.323618260435078E+002	8.6167628E-001	-1.6174699E+000	0
3.0455639E+000	1.496214964154569E+002	-1.6202168E+000	-5.319924016421955E+002	8.6194307E-001	-1.6191279E+000	0
3.0533719E+000	1.497871964112710E+002	-1.6218747E+000	-5.311749481623083E+002	8.6149919E-001	-1.6207855E+000	0
3.0596666E+000	1.499377964074665E+002	-1.6234198E+000	-5.305871583765072E+002	8.6136568E-001	-1.6222914E+000	0
3.0939844E+000	1.501182964029067E+002	-1.6252054E+000	-5.252791134035765E+002	8.5368645E-001	-1.6240975E+000	0
3.0750961E+000	1.502691963990947E+002	-1.6267289E+000	-5.290009771158470E+002	8.6054116E-001	-1.6256051E+000	0
3.0448017E+000	1.503604963967882E+002	-1.6276178E+000	-5.345562812384560E+002	8.7005335E-001	-1.6265181E+000	0
3.0371232E+000	1.504814963937315E+002	-1.6288372E+000	-5.363092165726412E+002	8.7356043E-001	-1.6277282E+000	0
3.0278034E+000	1.505727963914251E+002	-1.6296645E+000	-5.382332527457620E+002	8.7713963E-001	-1.6286411E+000	0
3.0200577E+000	1.506493963894900E+002	-1.6305498E+000	-5.399068190031194E+002	8.8034493E-001	-1.6294074E+000	0
3.0066361E+000	1.507853963860543E+002	-1.6319125E+000	-5.427702082827764E+002	8.8575345E-001	-1.6307672E+000	0
2.9636774E+000	1.509360963822473E+002	-1.6333762E+000	-5.511315963316183E+002	9.0020525E-001	-1.6322742E+000	0
2.9453423E+000	1.510571963791881E+002	-1.6346542E+000	-5.549963255291786E+002	9.0722704E-001	-1.6334850E+000	0
2.9681010E+000	1.511782963761289E+002	-1.6358402E+000	-5.511403165982304E+002	9.0157747E-001	-1.6346960E+000	0
2.9546671E+000	1.513291963723168E+002	-1.6372834E+000	-5.541346493341348E+002	9.0727550E-001	-1.6362050E+000	0
2.9197102E+000	1.514502963692576E+002	-1.6385468E+000	-5.612018933585969E+002	9.1955560E-001	-1.6374166E+000	0
2.9239814E+000	1.515415963669511E+002	-1.6395160E+000	-5.607135637284638E+002	9.1929883E-001	-1.6383291E+000	0
2.9063168E+000	1.516626963638919E+002	-1.6406698E+000	-5.645185625247013E+002	9.2618859E-001	-1.6395404E+000	0
2.8990855E+000	1.517688963612090E+002	-1.6417966E+000	-5.663153237111019E+002	9.2977458E-001	-1.6406019E+000	0
2.8901536E+000	1.518453963592765E+002	-1.6424024E+000	-5.682751355421788E+002	9.3333644E-001	-1.6413672E+000	0
2.8816333E+000	1.519068963577229E+002	-1.6430697E+000	-5.701869708534614E+002	9.3685699E-001	-1.6419821E+000	0
2.8845229E+000	1.520575963539159E+002	-1.6445804E+000	-5.701394618938850E+002	9.3764019E-001	-1.6434889E+000	0
2.8764501E+000	1.522084963501038E+002	-1.6460954E+000	-5.722663099716565E+002	9.4200492E-001	-1.6449981E+000	0
2.8672967E+000	1.522839963481965E+002	-1.6468755E+000	-5.743652343750000E+002	9.4590801E-001	-1.6457528E+000	0
2.8676240E+000	1.522849963481713E+002	-1.6472651E+000	-5.744354858398438E+002	9.4624752E-001	-1.6460527E+000	1