EC-Lab ASCII FILE
Nb header lines : 63                          

Linear Sweep Voltammetry

Run on channel : 1 (SN 1340)
User : 
Electrode connection : standard
Potential control : Ewe
Ewe ctrl range : min = -5.00 V, max = 5.00 V
Ewe,I filtering : <None>
Safety Limits :
	Do not start on E overload
Channel : Floating
Acquisition started on : 03/09/2026 12:28:28.295
Technique started on : 03/09/2026 12:28:31.133
Loaded Setting File :  C:\Users\volt\Documents\Platalytix\PtPdCoNi_N52magB_up_3-5_01_ZIR_C01.mpr
Saved on :
	File : PtPdCoNi_N52magA_flat_3-9_02_LSV_C01.mpr
	Directory : C:\Users\volt\Documents\Platalytix\
	Host : 127.0.0.1
Device : SP-200 (SN 0262)
Address : USB
EC-LAB for windows v11.60 (software)
Internet server v11.60 (firmware)
Command interpretor v11.60 (firmware)
Electrode material : PtPdNiCo
Initial state : 
Electrolyte : KOH (1M)
Comments : Magnet side A, flat position
Cable : standard
Reference electrode : Hg/HgO (0.140 V)
Electrode surface area : 1.000 cm˛
Characteristic mass : 0.001 g
Equivalent Weight : 0.000 g/eq.
Density : 0.000 g/cm3
Volume (V) : 0.001 cmł
Cycle Definition : Charge/Discharge alternance
tR (h:m:s)          0:00:5.0000         
dER/dt (mV/h)       0.0                 
dER (mV)            0                   
dtR (s)             0.0000              
dE/dt               10.000              
dE/dt unit          mV/s                
Ei (V)              -0.200              
vs.                 Eoc                 
EL (V)              -2.500              
vs.                 Eoc                 
record              <I>                 
dI                  0.000               
unit dI             µA                  
tI (s)              0.0000              
step percent        50                  
N                   10                  
E range min (V)     -5.000              
E range max (V)     5.000               
I Range             Auto                
I Range min         Unset               
I Range max         Unset               
I Range init        Unset               
Bandwidth           8                   

Rwe/Ohm	time/s	Ewe/V	<I>/mA	Pwe/W	control/V	error	
0.0000000E+000	2.838400134787662E+000	-1.4328471E-001	0.000000000000000E+000	0.0000000E+000	0.0000000E+000	0
0.0000000E+000	7.838200008482090E+000	-3.3617415E-002	0.000000000000000E+000	0.0000000E+000	-2.3361675E-001	0
1.4840793E+003	8.038200003429665E+000	-2.3541467E-001	-1.586267369240523E-001	3.7343059E-005	-2.3551653E-001	0
1.1945402E+003	8.158200000398210E+000	-2.3656055E-001	-1.980348258402813E-001	4.6847228E-005	-2.3671660E-001	0
1.3850271E+003	8.368199995093164E+000	-2.3869058E-001	-1.723363978393333E-001	4.1135074E-005	-2.3881659E-001	0
1.5383573E+003	8.568199990040739E+000	-2.4067254E-001	-1.564477552457071E-001	3.7652680E-005	-2.4081650E-001	0
1.6616656E+003	8.768199984988314E+000	-2.4265386E-001	-1.460305014097229E-001	3.5434867E-005	-2.4281643E-001	0
1.7667737E+003	8.968199979935889E+000	-2.4466510E-001	-1.384812904830154E-001	3.3881541E-005	-2.4481638E-001	0
1.8570225E+003	9.168199974883464E+000	-2.4666487E-001	-1.328281566992722E-001	3.2764041E-005	-2.4681631E-001	0
1.9363826E+003	9.368199969831039E+000	-2.4864854E-001	-1.284087916388437E-001	3.1928659E-005	-2.4881624E-001	0
2.0101084E+003	9.568199964778614E+000	-2.5066361E-001	-1.247015367526047E-001	3.1258136E-005	-2.5081617E-001	0
2.0771345E+003	9.768199959726189E+000	-2.5268289E-001	-1.216497541523520E-001	3.0738811E-005	-2.5281611E-001	0
2.1385676E+003	9.968199954673764E+000	-2.5465080E-001	-1.190753965448510E-001	3.0322644E-005	-2.5481603E-001	0
2.1974768E+003	1.016819994962134E+001	-2.5669327E-001	-1.168127391791465E-001	2.9985045E-005	-2.5681597E-001	0
2.2529531E+003	1.036819994456891E+001	-2.5869748E-001	-1.148259515753718E-001	2.9705185E-005	-2.5881588E-001	0
2.3050823E+003	1.056819993951649E+001	-2.6063171E-001	-1.130682865776493E-001	2.9469182E-005	-2.6081583E-001	0
2.3537336E+003	1.076819993446406E+001	-2.6265436E-001	-1.115905193616201E-001	2.9309736E-005	-2.6281577E-001	0
2.4025562E+003	1.096819992941164E+001	-2.6464167E-001	-1.101500509494744E-001	2.9150293E-005	-2.6481572E-001	0
2.4481479E+003	1.116819992435921E+001	-2.6666328E-001	-1.089244983085096E-001	2.9046165E-005	-2.6681563E-001	0
2.4928503E+003	1.136819991930679E+001	-2.6865882E-001	-1.077717374682914E-001	2.8953827E-005	-2.6881558E-001	0
2.5358323E+003	1.156819991425436E+001	-2.7066624E-001	-1.067366513862883E-001	2.8890008E-005	-2.7081549E-001	0
2.5788516E+003	1.176819990920194E+001	-2.7267471E-001	-1.057349366722988E-001	2.8831244E-005	-2.7281541E-001	0
2.6180215E+003	1.196819990414951E+001	-2.7463266E-001	-1.049008408863341E-001	2.8809198E-005	-2.7481535E-001	0
2.6574644E+003	1.216819989909709E+001	-2.7666596E-001	-1.041089976280336E-001	2.8803415E-005	-2.7681530E-001	0
2.6988259E+003	1.236819989404466E+001	-2.7869251E-001	-1.032643536783655E-001	2.8779003E-005	-2.7881521E-001	0
2.7345042E+003	1.256819988899224E+001	-2.8059912E-001	-1.026142562386867E-001	2.8793469E-005	-2.8081515E-001	0
2.7756016E+003	1.276819988393981E+001	-2.8266594E-001	-1.018395250939816E-001	2.8786564E-005	-2.8281507E-001	0
2.8099719E+003	1.296819987888739E+001	-2.8463283E-001	-1.012938387275940E-001	2.8831551E-005	-2.8481498E-001	0
2.8465066E+003	1.316819987383496E+001	-2.8664896E-001	-1.007020187885196E-001	2.8866129E-005	-2.8681493E-001	0
2.8835823E+003	1.336819986878254E+001	-2.8876966E-001	-1.001426831612158E-001	2.8918168E-005	-2.8881484E-001	0
2.9176504E+003	1.356809986373264E+001	-2.9067039E-001	-9.962481857382977E-002	2.8957986E-005	-2.9081568E-001	0
2.9505767E+003	1.376799985868274E+001	-2.9266083E-001	-9.918766897467446E-002	2.9028346E-005	-2.9281473E-001	0
2.9859521E+003	1.396799985363032E+001	-2.9464722E-001	-9.867781128252906E-002	2.9075143E-005	-2.9481465E-001	0
3.0192698E+003	1.416799984857789E+001	-2.9669639E-001	-9.826759783584915E-002	2.9155643E-005	-2.9681459E-001	0
3.0502954E+003	1.436799984352547E+001	-2.9860476E-001	-9.789372040296707E-002	2.9231531E-005	-2.9881454E-001	0
3.0838394E+003	1.456799983847304E+001	-3.0070931E-001	-9.751134248748183E-002	2.9322568E-005	-3.0081445E-001	0
3.1161516E+003	1.476799983342062E+001	-3.0266753E-001	-9.712862405691614E-002	2.9397681E-005	-3.0281436E-001	0
3.1480161E+003	1.496799982836819E+001	-3.0466813E-001	-9.678099282368871E-002	2.9486084E-005	-3.0481428E-001	0
3.1781135E+003	1.516799982331577E+001	-3.0666664E-001	-9.649329670639434E-002	2.9591276E-005	-3.0681422E-001	0
3.2113574E+003	1.536799981826334E+001	-3.0865642E-001	-9.611400823233474E-002	2.9666206E-005	-3.0881417E-001	0
3.2411050E+003	1.556799981321092E+001	-3.1066850E-001	-9.585265111222510E-002	2.9778399E-005	-3.1081411E-001	0
3.2734534E+003	1.576799980815849E+001	-3.1271052E-001	-9.552924286747277E-002	2.9872999E-005	-3.1281403E-001	0
3.3000776E+003	1.596799980310607E+001	-3.1468359E-001	-9.535641587485078E-002	3.0007099E-005	-3.1481397E-001	0
3.3327805E+003	1.616799979805364E+001	-3.1670645E-001	-9.502769499920039E-002	3.0095884E-005	-3.1681389E-001	0
3.3622764E+003	1.636799979300122E+001	-3.1868967E-001	-9.478390124170250E-002	3.0206651E-005	-3.1881380E-001	0
3.3892598E+003	1.656799978794879E+001	-3.2064298E-001	-9.460560712845090E-002	3.0334624E-005	-3.2081378E-001	0
3.4215391E+003	1.676799978289637E+001	-3.2264808E-001	-9.429910633598970E-002	3.0425426E-005	-3.2281366E-001	0
3.4494038E+003	1.696799977784394E+001	-3.2461920E-001	-9.410878543556089E-002	3.0549520E-005	-3.2481360E-001	0
3.4808323E+003	1.716799977279152E+001	-3.2669345E-001	-9.385497754391137E-002	3.0661806E-005	-3.2681355E-001	0
3.5089229E+003	1.736799976773909E+001	-3.2869557E-001	-9.367420813945193E-002	3.0790296E-005	-3.2881349E-001	0
3.5392576E+003	1.756799976268667E+001	-3.3069259E-001	-9.343557875780822E-002	3.0898453E-005	-3.3081341E-001	0
3.5665862E+003	1.776799975763424E+001	-3.3262360E-001	-9.326106005732626E-002	3.1020831E-005	-3.3281332E-001	0
3.5987925E+003	1.796799975258182E+001	-3.3466944E-001	-9.299492508398943E-002	3.1122559E-005	-3.3481327E-001	0
3.6268438E+003	1.816799974752939E+001	-3.3667365E-001	-9.282827547217054E-002	3.1252835E-005	-3.3681318E-001	0
3.6550876E+003	1.836799974247697E+001	-3.3867934E-001	-9.265970202825979E-002	3.1381926E-005	-3.3881313E-001	0
3.6869136E+003	1.856799973742454E+001	-3.4073430E-001	-9.241722273807151E-002	3.1489719E-005	-3.4081307E-001	0
3.7121174E+003	1.876799973237212E+001	-3.4266853E-001	-9.231079933117392E-002	3.1632007E-005	-3.4281299E-001	0
3.7433167E+003	1.896799972731969E+001	-3.4469143E-001	-9.208182505143991E-002	3.1739815E-005	-3.4481293E-001	0
3.7715120E+003	1.916789972226979E+001	-3.4664276E-001	-9.191081909417620E-002	3.1860221E-005	-3.4681219E-001	0
3.7983657E+003	1.936779971721990E+001	-3.4869882E-001	-9.180232994480153E-002	3.2011365E-005	-3.4881279E-001	0
3.8294736E+003	1.956779971216747E+001	-3.5065469E-001	-9.156733267473882E-002	3.2108514E-005	-3.5081270E-001	0
3.8587805E+003	1.976779970711505E+001	-3.5269880E-001	-9.140162447429434E-002	3.2237243E-005	-3.5281262E-001	0
3.8855056E+003	1.996779970206262E+001	-3.5463938E-001	-9.127238907908319E-002	3.2368782E-005	-3.5481256E-001	0
3.9146643E+003	2.016779969701020E+001	-3.5664761E-001	-9.110553916269160E-002	3.2492571E-005	-3.5681251E-001	0
3.9410273E+003	2.036779969195777E+001	-3.5865611E-001	-9.100573884678020E-002	3.2639764E-005	-3.5881242E-001	0
3.9695151E+003	2.056779968690535E+001	-3.6062557E-001	-9.084876904859640E-002	3.2762389E-005	-3.6081237E-001	0
4.0005754E+003	2.076779968185292E+001	-3.6263046E-001	-9.064457555039601E-002	3.2870485E-005	-3.6281231E-001	0
4.0286250E+003	2.096779967680050E+001	-3.6466059E-001	-9.051738132230591E-002	3.3008120E-005	-3.6481220E-001	0
4.0564868E+003	2.116779967174807E+001	-3.6664078E-001	-9.038382309780424E-002	3.3138396E-005	-3.6681220E-001	0
4.0877539E+003	2.136779966669565E+001	-3.6865541E-001	-9.018532583614691E-002	3.3247310E-005	-3.6881205E-001	0
4.1144824E+003	2.156779966164322E+001	-3.7059283E-001	-9.007034213662291E-002	3.3379423E-005	-3.7081203E-001	0
4.1465532E+003	2.176779965659080E+001	-3.7259641E-001	-8.985689921302442E-002	3.3480359E-005	-3.7281194E-001	0
4.1740596E+003	2.196779965153837E+001	-3.7458873E-001	-8.974206843941368E-002	3.3616368E-005	-3.7481189E-001	0
4.2032178E+003	2.216779964648595E+001	-3.7663287E-001	-8.960584139022698E-002	3.3748503E-005	-3.7681183E-001	0
4.2305186E+003	2.236779964143352E+001	-3.7870908E-001	-8.951835989341755E-002	3.3901415E-005	-3.7881172E-001	0
4.2601621E+003	2.256779963638110E+001	-3.8061568E-001	-8.934300415779660E-002	3.4005348E-005	-3.8081166E-001	0
4.2878306E+003	2.276779963132867E+001	-3.8263243E-001	-8.923683313350876E-002	3.4144905E-005	-3.8281158E-001	0
4.3178501E+003	2.296779962627625E+001	-3.8464680E-001	-8.908294719356669E-002	3.4265471E-005	-3.8481152E-001	0
4.3446875E+003	2.316779962122382E+001	-3.8666591E-001	-8.899740487349783E-002	3.4412264E-005	-3.8681147E-001	0
4.3768745E+003	2.336779961617140E+001	-3.8866740E-001	-8.880021709520092E-002	3.4513749E-005	-3.8881135E-001	0
4.4064634E+003	2.356779961111897E+001	-3.9063936E-001	-8.865144939791181E-002	3.4630746E-005	-3.9081135E-001	0
4.4382930E+003	2.376779960606655E+001	-3.9266464E-001	-8.847199619880763E-002	3.4739824E-005	-3.9281124E-001	0
4.4653979E+003	2.396779960101412E+001	-3.9468092E-001	-8.838650586015963E-002	3.4884466E-005	-3.9481118E-001	0
4.4974478E+003	2.416779959596170E+001	-3.9664629E-001	-8.819363706126460E-002	3.4981680E-005	-3.9681110E-001	0
4.5233833E+003	2.436779959090927E+001	-3.9868900E-001	-8.813956016600732E-002	3.5140274E-005	-3.9881107E-001	0
4.5581177E+003	2.456779958585685E+001	-4.0066117E-001	-8.790057534278040E-002	3.5218349E-005	-4.0081096E-001	0
4.5849116E+003	2.476779958080442E+001	-4.0265182E-001	-8.782105939462803E-002	3.5361310E-005	-4.0281090E-001	0
4.6173306E+003	2.496769957575452E+001	-4.0468463E-001	-8.764471533662177E-002	3.5468471E-005	-4.0481085E-001	0
4.6485752E+003	2.516759957070462E+001	-4.0671968E-001	-8.749340500317196E-002	3.5585290E-005	-4.0681079E-001	0
4.6748130E+003	2.536759956565220E+001	-4.0867579E-001	-8.742077763629497E-002	3.5726756E-005	-4.0881070E-001	0
4.7099229E+003	2.556759956059977E+001	-4.1065115E-001	-8.718850913926435E-002	3.5804060E-005	-4.1081065E-001	0
4.7310630E+003	2.576759955554735E+001	-4.1266939E-001	-8.722551491443120E-002	3.5995301E-005	-4.1281053E-001	0
4.7658311E+003	2.596759955049492E+001	-4.1465962E-001	-8.700677964735037E-002	3.6078200E-005	-4.1481048E-001	0
4.7956714E+003	2.616759954544250E+001	-4.1669628E-001	-8.689008466371440E-002	3.6206777E-005	-4.1681042E-001	0
4.8310234E+003	2.636759954039007E+001	-4.1870987E-001	-8.667104917392576E-002	3.6290025E-005	-4.1881034E-001	0
4.8605015E+003	2.656759953533765E+001	-4.2067423E-001	-8.654955696724270E-002	3.6409168E-005	-4.2081031E-001	0
4.8921602E+003	2.676759953028522E+001	-4.2271113E-001	-8.640582829950333E-002	3.6524707E-005	-4.2281023E-001	0
4.9206177E+003	2.696759952523280E+001	-4.2472151E-001	-8.631467641977464E-002	3.6659701E-005	-4.2481017E-001	0
4.9535664E+003	2.716759952018037E+001	-4.2672187E-001	-8.614437123169261E-002	3.6759688E-005	-4.2681006E-001	0
4.9889790E+003	2.736759951512795E+001	-4.2871726E-001	-8.593286616598880E-002	3.6840902E-005	-4.2881000E-001	0
5.0187017E+003	2.756759951007552E+001	-4.3069172E-001	-8.581736175894594E-002	3.6960828E-005	-4.3080992E-001	0
5.0526831E+003	2.776759950502310E+001	-4.3272486E-001	-8.564259088703777E-002	3.7059679E-005	-4.3280989E-001	0
5.0837676E+003	2.796759949997067E+001	-4.3466371E-001	-8.550031427315091E-002	3.7163885E-005	-4.3480974E-001	0
5.1160083E+003	2.816759949491825E+001	-4.3670741E-001	-8.536096758688561E-002	3.7277769E-005	-4.3680975E-001	0
5.1531812E+003	2.836759948986582E+001	-4.3874562E-001	-8.514072894448177E-002	3.7355123E-005	-4.3880963E-001	0
5.1862656E+003	2.856759948481340E+001	-4.4070226E-001	-8.497486884289651E-002	3.7448615E-005	-4.4080958E-001	0
5.2238413E+003	2.876759947976097E+001	-4.4265094E-001	-8.473667614594926E-002	3.7508769E-005	-4.4280949E-001	0
5.2541831E+003	2.896759947470855E+001	-4.4468847E-001	-8.463513230020103E-002	3.7636266E-005	-4.4480947E-001	0
5.2835020E+003	2.916759946965612E+001	-4.4665647E-001	-8.453795881392845E-002	3.7759426E-005	-4.4680932E-001	0
5.3269722E+003	2.936759946460370E+001	-4.4876018E-001	-8.424301238787568E-002	3.7804908E-005	-4.4880930E-001	0
5.3603438E+003	2.956759945955127E+001	-4.5070881E-001	-8.408207289954794E-002	3.7896531E-005	-4.5080924E-001	0
5.3985830E+003	2.976759945449885E+001	-4.5272240E-001	-8.385948672713239E-002	3.7965066E-005	-4.5280918E-001	0
5.4324609E+003	2.996759944944642E+001	-4.5470753E-001	-8.370193956861149E-002	3.8059901E-005	-4.5480910E-001	0
5.4729131E+003	3.016759944439400E+001	-4.5671234E-001	-8.344958956319593E-002	3.8112456E-005	-4.5680904E-001	0
5.5113091E+003	3.036759943934157E+001	-4.5870388E-001	-8.322956662914405E-002	3.8177724E-005	-4.5880893E-001	0
5.5515005E+003	3.056759943428915E+001	-4.6071047E-001	-8.298846102919355E-002	3.8233651E-005	-4.6080887E-001	0
5.5926074E+003	3.076749942923925E+001	-4.6270153E-001	-8.273449441409686E-002	3.8281378E-005	-4.6280864E-001	0
5.6273892E+003	3.096739942418935E+001	-4.6462023E-001	-8.256408361540646E-002	3.8360944E-005	-4.6480876E-001	0
5.6726025E+003	3.116739941913693E+001	-4.6672675E-001	-8.227736002062347E-002	3.8401045E-005	-4.6680871E-001	0
5.7106792E+003	3.136739941408450E+001	-4.6871167E-001	-8.207634203357661E-002	3.8470138E-005	-4.6880862E-001	0
5.7571938E+003	3.156739940903208E+001	-4.7070894E-001	-8.176013596024356E-002	3.8485228E-005	-4.7080857E-001	0
5.7906885E+003	3.176739940397965E+001	-4.7266537E-001	-8.162507464657270E-002	3.8581347E-005	-4.7280845E-001	0
5.8428599E+003	3.196739939892723E+001	-4.7469044E-001	-8.124282731212129E-002	3.8565195E-005	-4.7480845E-001	0
5.8875093E+003	3.216739939387480E+001	-4.7668657E-001	-8.096574153275926E-002	3.8595281E-005	-4.7680831E-001	0
5.9315493E+003	3.236739938882238E+001	-4.7866893E-001	-8.069880276310190E-002	3.8628008E-005	-4.7880828E-001	0
5.9776050E+003	3.256739938376995E+001	-4.8067421E-001	-8.041250845206194E-002	3.8652219E-005	-4.8080814E-001	0
6.0302905E+003	3.276739937871753E+001	-4.8268554E-001	-8.004349571612579E-002	3.8635837E-005	-4.8280817E-001	0
6.0755337E+003	3.296739937366510E+001	-4.8462310E-001	-7.976634605088684E-002	3.8656613E-005	-4.8480803E-001	0
6.1228862E+003	3.316739936861268E+001	-4.8666427E-001	-7.948282318318539E-002	3.8681450E-005	-4.8680803E-001	0
6.1767207E+003	3.336739936356025E+001	-4.8863685E-001	-7.910943169003171E-002	3.8655784E-005	-4.8880789E-001	0
6.2319258E+003	3.356739935850783E+001	-4.9065638E-001	-7.873270623470385E-002	3.8630704E-005	-4.9080786E-001	0
6.2828159E+003	3.376739935345540E+001	-4.9267584E-001	-7.841640467704769E-002	3.8633869E-005	-4.9280772E-001	0
6.3364683E+003	3.396739934840298E+001	-4.9470219E-001	-7.807222502770705E-002	3.8622500E-005	-4.9480772E-001	0
6.3969810E+003	3.416739934335055E+001	-4.9674332E-001	-7.765277341069399E-002	3.8573497E-005	-4.9680766E-001	0
6.4411191E+003	3.436739933829813E+001	-4.9872378E-001	-7.742812645477992E-002	3.8615246E-005	-4.9880758E-001	0
6.4971133E+003	3.456739933324570E+001	-5.0074267E-001	-7.707156229483364E-002	3.8593022E-005	-5.0080752E-001	0
6.5626802E+003	3.476739932819328E+001	-5.0262827E-001	-7.658886996967929E-002	3.8495731E-005	-5.0280744E-001	0
6.6157998E+003	3.496739932314085E+001	-5.0468522E-001	-7.628484172514227E-002	3.8499831E-005	-5.0480735E-001	0
6.6787783E+003	3.516739931808843E+001	-5.0670868E-001	-7.586846694185523E-002	3.8443210E-005	-5.0680727E-001	0
6.7375864E+003	3.536739931303600E+001	-5.0869429E-001	-7.550096559621272E-002	3.8406910E-005	-5.0880724E-001	0
6.8054858E+003	3.556739930798358E+001	-5.1072353E-001	-7.504585946967091E-002	3.8327686E-005	-5.1080716E-001	0
6.8578359E+003	3.576739930293115E+001	-5.1267636E-001	-7.475774799412349E-002	3.8326529E-005	-5.1280713E-001	0
6.9264077E+003	3.596739929787873E+001	-5.1473367E-001	-7.431466773452244E-002	3.8252263E-005	-5.1480699E-001	0
6.9849980E+003	3.616739929282630E+001	-5.1673001E-001	-7.397711391628292E-002	3.8226193E-005	-5.1680690E-001	0
7.0525566E+003	3.636729928777640E+001	-5.1867884E-001	-7.354479471813491E-002	3.8146129E-005	-5.1880598E-001	0
7.1178867E+003	3.656729928272398E+001	-5.2072084E-001	-7.315666308397001E-002	3.8094200E-005	-5.2080750E-001	0
7.1855522E+003	3.676719927767408E+001	-5.2265596E-001	-7.273706218255205E-002	3.8016460E-005	-5.2280670E-001	0
7.2475835E+003	3.696719927262166E+001	-5.2469927E-001	-7.239644364306053E-002	3.7986360E-005	-5.2480668E-001	0
7.3270576E+003	3.716719926756923E+001	-5.2669096E-001	-7.188301279828324E-002	3.7860133E-005	-5.2680653E-001	0
7.3929380E+003	3.736719926251681E+001	-5.2871406E-001	-7.151609765631817E-002	3.7811566E-005	-5.2880657E-001	0
7.4655552E+003	3.756719925746438E+001	-5.3074419E-001	-7.109239538540180E-002	3.7731876E-005	-5.3080648E-001	0
7.5386641E+003	3.776719925241196E+001	-5.3272599E-001	-7.066583386178893E-002	3.7645525E-005	-5.3280640E-001	0
7.6051333E+003	3.796719924735953E+001	-5.3471977E-001	-7.031037453076294E-002	3.7596346E-005	-5.3480631E-001	0
7.6818120E+003	3.816719924230711E+001	-5.3668851E-001	-6.986483111671360E-002	3.7495651E-005	-5.3680629E-001	0
7.7497803E+003	3.836719923725468E+001	-5.3870851E-001	-6.951274680102520E-002	3.7447109E-005	-5.3880620E-001	0
7.8311611E+003	3.856719923220226E+001	-5.4071379E-001	-6.904643842561886E-002	3.7334361E-005	-5.4080611E-001	0
7.8947207E+003	3.876719922714983E+001	-5.4270142E-001	-6.874232096840416E-002	3.7306556E-005	-5.4280609E-001	0
7.9787646E+003	3.896719922209741E+001	-5.4471785E-001	-6.827095060455118E-002	3.7188405E-005	-5.4480594E-001	0
8.0441768E+003	3.916719921704498E+001	-5.4674411E-001	-6.796768893458160E-002	3.7160935E-005	-5.4680592E-001	0
8.1254922E+003	3.936719921199256E+001	-5.4867893E-001	-6.752562365291925E-002	3.7049886E-005	-5.4880583E-001	0
8.2028271E+003	3.956719920694013E+001	-5.5069309E-001	-6.713454525964224E-002	3.6970530E-005	-5.5080581E-001	0
8.2702773E+003	3.976719920188771E+001	-5.5269039E-001	-6.682851764240383E-002	3.6935478E-005	-5.5280572E-001	0
8.3532666E+003	3.996719919683528E+001	-5.5473495E-001	-6.640934370787566E-002	3.6839585E-005	-5.5480564E-001	0
8.4331797E+003	4.016719919178286E+001	-5.5668461E-001	-6.601123349020932E-002	3.6747439E-005	-5.5680555E-001	0
8.5026260E+003	4.036719918673043E+001	-5.5870730E-001	-6.570996882081381E-002	3.6712638E-005	-5.5880553E-001	0
8.5869951E+003	4.056719918167801E+001	-5.6070578E-001	-6.529708745384610E-002	3.6612455E-005	-5.6080538E-001	0
8.6621357E+003	4.076719917662558E+001	-5.6273067E-001	-6.496442731020025E-002	3.6557474E-005	-5.6280535E-001	0
8.7379561E+003	4.096719917157316E+001	-5.6472552E-001	-6.462902066038079E-002	3.6497659E-005	-5.6480527E-001	0
8.8177354E+003	4.116719916652073E+001	-5.6667477E-001	-6.426534139553336E-002	3.6417547E-005	-5.6680524E-001	0
8.8936631E+003	4.136719916146831E+001	-5.6871253E-001	-6.394581332255833E-002	3.6366786E-005	-5.6880510E-001	0
8.9726689E+003	4.156719915641588E+001	-5.7069576E-001	-6.360378845852439E-002	3.6298414E-005	-5.7080507E-001	0
9.0495205E+003	4.176719915136346E+001	-5.7265866E-001	-6.328055145041578E-002	3.6238154E-005	-5.7280493E-001	0
9.1322637E+003	4.196719914631103E+001	-5.7469213E-001	-6.292986713905235E-002	3.6165300E-005	-5.7480496E-001	0
9.2158760E+003	4.216709914126113E+001	-5.7668763E-001	-6.257545828807864E-002	3.6086494E-005	-5.7680422E-001	0
9.2843975E+003	4.236699913621123E+001	-5.7866937E-001	-6.232708066389336E-002	3.6066773E-005	-5.7880479E-001	0
9.3608340E+003	4.256699913115881E+001	-5.8070689E-001	-6.203580896640437E-002	3.6024623E-005	-5.8080471E-001	0
9.4366914E+003	4.276699912610638E+001	-5.8266872E-001	-6.174502402962156E-002	3.5976893E-005	-5.8280468E-001	0
9.5210928E+003	4.296699912105396E+001	-5.8469504E-001	-6.141049462178372E-002	3.5906411E-005	-5.8480459E-001	0
9.6018643E+003	4.316699911600153E+001	-5.8671141E-001	-6.110390670631333E-002	3.5850360E-005	-5.8680451E-001	0
9.6824092E+003	4.336699911094911E+001	-5.8874744E-001	-6.080588372846635E-002	3.5799309E-005	-5.8880448E-001	0
9.7614512E+003	4.356699910589668E+001	-5.9071410E-001	-6.051498811001421E-002	3.5747056E-005	-5.9080434E-001	0
9.8299580E+003	4.376699910084426E+001	-5.9269607E-001	-6.029487462490452E-002	3.5736535E-005	-5.9280431E-001	0
9.9096162E+003	4.396699909579183E+001	-5.9471065E-001	-6.001348772810584E-002	3.5690660E-005	-5.9480423E-001	0
9.9878838E+003	4.416699909073941E+001	-5.9668905E-001	-5.974128679477975E-002	3.5646972E-005	-5.9680420E-001	0
1.0064631E+004	4.436699908568698E+001	-5.9867674E-001	-5.948323011767896E-002	3.5611225E-005	-5.9880412E-001	0
1.0145682E+004	4.456699908063456E+001	-6.0069561E-001	-5.920702504002540E-002	3.5565401E-005	-6.0080403E-001	0
1.0204671E+004	4.476699907558213E+001	-6.0264486E-001	-5.905578510050136E-002	3.5589666E-005	-6.0280395E-001	0
1.0281940E+004	4.496699907052971E+001	-6.0472059E-001	-5.881386040973879E-002	3.5565954E-005	-6.0480392E-001	0
1.0350688E+004	4.516699906547728E+001	-6.0669255E-001	-5.861374499094674E-002	3.5560523E-005	-6.0680377E-001	0
1.0434016E+004	4.536699906042486E+001	-6.0871631E-001	-5.833959883520312E-002	3.5512265E-005	-6.0880375E-001	0
1.0496524E+004	4.556699905537243E+001	-6.1067814E-001	-5.817907917167575E-002	3.5528690E-005	-6.1080366E-001	0
1.0567401E+004	4.576699905032001E+001	-6.1269021E-001	-5.797927094731167E-002	3.5523331E-005	-6.1280364E-001	0
1.0649252E+004	4.596699904526758E+001	-6.1467057E-001	-5.771960094338824E-002	3.5478541E-005	-6.1480349E-001	0
1.0697708E+004	4.616699904021516E+001	-6.1674196E-001	-5.765178199654741E-002	3.5556273E-005	-6.1680347E-001	0
1.0761089E+004	4.636699903516273E+001	-6.1868614E-001	-5.749289551116232E-002	3.5570058E-005	-6.1880338E-001	0
1.0842004E+004	4.656699903011031E+001	-6.2071455E-001	-5.725090416589662E-002	3.5536468E-005	-6.2080336E-001	0
1.0887358E+004	4.676699902505788E+001	-6.2274128E-001	-5.719856470094709E-002	3.5619909E-005	-6.2280321E-001	0
1.0956528E+004	4.696699902000546E+001	-6.2473065E-001	-5.701903079144310E-002	3.5621535E-005	-6.2480319E-001	0
1.1028014E+004	4.716699901495303E+001	-6.2670118E-001	-5.682811129187780E-002	3.5614245E-005	-6.2680310E-001	0
1.1095061E+004	4.736699900990061E+001	-6.2870640E-001	-5.666543376397604E-002	3.5625919E-005	-6.2880307E-001	0
1.1148625E+004	4.756699900484819E+001	-6.3071024E-001	-5.657291588586755E-002	3.5681118E-005	-6.3080299E-001	0
1.1204565E+004	4.776699899979576E+001	-6.3269818E-001	-5.646788851461482E-002	3.5727131E-005	-6.3280290E-001	0
1.1259002E+004	4.796689899474586E+001	-6.3469696E-001	-5.637239953160744E-002	3.5779391E-005	-6.3480312E-001	0
1.1310504E+004	4.816679898969596E+001	-6.3666600E-001	-5.628979921524643E-002	3.5837802E-005	-6.3680273E-001	0
1.1370230E+004	4.836679898464354E+001	-6.3866198E-001	-5.616966051381100E-002	3.5873425E-005	-6.3880277E-001	0
1.1425484E+004	4.856679897959111E+001	-6.4071274E-001	-5.607751150649265E-002	3.5929577E-005	-6.4080262E-001	0
1.1467920E+004	4.876679897453869E+001	-6.4273268E-001	-5.604614442649414E-002	3.6022688E-005	-6.4280266E-001	0
1.1498049E+004	4.896679896948626E+001	-6.4467430E-001	-5.606814854421439E-002	3.6145695E-005	-6.4480251E-001	0
1.1572048E+004	4.916679896443384E+001	-6.4673746E-001	-5.588790144699551E-002	3.6144800E-005	-6.4680248E-001	0
1.1613323E+004	4.936679895938141E+001	-6.4874107E-001	-5.586179177215544E-002	3.6239839E-005	-6.4880234E-001	0
1.1669252E+004	4.956679895432899E+001	-6.5072793E-001	-5.576432328101022E-002	3.6287402E-005	-6.5080231E-001	0
1.1696556E+004	4.976679894927656E+001	-6.5277183E-001	-5.580889263143862E-002	3.6430472E-005	-6.5280217E-001	0
1.1734741E+004	4.996679894422414E+001	-6.5467465E-001	-5.578944081537710E-002	3.6523932E-005	-6.5480220E-001	0
1.1769699E+004	5.016679893917171E+001	-6.5667397E-001	-5.579360683085388E-002	3.6638208E-005	-6.5680206E-001	0
1.1815042E+004	5.036679893411929E+001	-6.5870947E-001	-5.575176455659159E-002	3.6724214E-005	-6.5880203E-001	0
1.1836922E+004	5.056679892906686E+001	-6.6067970E-001	-5.581516275169696E-002	3.6875947E-005	-6.6080189E-001	0
1.1865599E+004	5.076679892401444E+001	-6.6269028E-001	-5.584971165725888E-002	3.7011061E-005	-6.6280186E-001	0
1.1913334E+004	5.096679891896201E+001	-6.6476798E-001	-5.580032985581402E-002	3.7094273E-005	-6.6480178E-001	0
1.1927173E+004	5.116679891390959E+001	-6.6669446E-001	-5.589710817885596E-002	3.7266291E-005	-6.6680175E-001	0
1.1956008E+004	5.136679890885716E+001	-6.6872889E-001	-5.593245527696489E-002	3.7403650E-005	-6.6880167E-001	0
1.1963191E+004	5.156679890380474E+001	-6.7071807E-001	-5.606514567724677E-002	3.7603906E-005	-6.7080158E-001	0
1.1987121E+004	5.176679889875231E+001	-6.7272007E-001	-5.612023649240960E-002	3.7753209E-005	-6.7280149E-001	0
1.2009647E+004	5.196679889369989E+001	-6.7462885E-001	-5.617390924857742E-002	3.7896541E-005	-6.7480147E-001	0
1.2016192E+004	5.216679888864746E+001	-6.7671633E-001	-5.631703436490809E-002	3.8110658E-005	-6.7680138E-001	0
1.2028888E+004	5.236679888359504E+001	-6.7869949E-001	-5.642246268056050E-002	3.8293896E-005	-6.7880130E-001	0
1.2030611E+004	5.256679887854261E+001	-6.8067443E-001	-5.657854137040430E-002	3.8511567E-005	-6.8080127E-001	0
1.2031557E+004	5.276679887349019E+001	-6.8269634E-001	-5.674214590955379E-002	3.8737657E-005	-6.8280113E-001	0
1.2039095E+004	5.296679886843776E+001	-6.8469119E-001	-5.687231349002753E-002	3.8939972E-005	-6.8480110E-001	0
1.2032686E+004	5.316679886338534E+001	-6.8668509E-001	-5.706831605317220E-002	3.9187962E-005	-6.8680102E-001	0
1.2027005E+004	5.336679885833291E+001	-6.8870878E-001	-5.726353073114627E-002	3.9437895E-005	-6.8880105E-001	0
1.2031260E+004	5.356679885328049E+001	-6.9069594E-001	-5.740844503246778E-002	3.9651779E-005	-6.9080108E-001	0
1.2014289E+004	5.376659884823312E+001	-6.9263732E-001	-5.765112820175394E-002	3.9931325E-005	-6.9280064E-001	0
1.1990571E+004	5.396659884318069E+001	-6.9473320E-001	-5.793995630099502E-002	4.0252813E-005	-6.9480073E-001	0
1.1983223E+004	5.416659883812827E+001	-6.9668037E-001	-5.813798283875088E-002	4.0503590E-005	-6.9680071E-001	0
1.1987447E+004	5.436659883307584E+001	-6.9872338E-001	-5.828791926984489E-002	4.0727133E-005	-6.9880062E-001	0
1.1955362E+004	5.456659882802342E+001	-7.0061213E-001	-5.860233123048852E-002	4.1057505E-005	-7.0080060E-001	0
1.1943380E+004	5.476659882297099E+001	-7.0274711E-001	-5.883988575184151E-002	4.1349558E-005	-7.0280051E-001	0
1.1920579E+004	5.496659881791857E+001	-7.0469874E-001	-5.911615037289630E-002	4.1659077E-005	-7.0480049E-001	0
1.1903000E+004	5.516659881286614E+001	-7.0672548E-001	-5.937372964105719E-002	4.1960928E-005	-7.0680028E-001	0
1.1869672E+004	5.536659880781372E+001	-7.0867550E-001	-5.970472602655197E-002	4.2311276E-005	-7.0880032E-001	0
1.1839611E+004	5.556659880276129E+001	-7.1069449E-001	-6.002684087332022E-002	4.2660744E-005	-7.1080017E-001	0
1.1813234E+004	5.576659879770887E+001	-7.1265596E-001	-6.032691374653443E-002	4.2992335E-005	-7.1280015E-001	0
1.1783616E+004	5.596659879265644E+001	-7.1470761E-001	-6.065265687505672E-002	4.3348915E-005	-7.1480006E-001	0
1.1751360E+004	5.616659878760402E+001	-7.1669865E-001	-6.098856913905737E-002	4.3710425E-005	-7.1679997E-001	0
1.1714718E+004	5.636659878255159E+001	-7.1873689E-001	-6.135332266390420E-002	4.4096898E-005	-7.1879989E-001	0
1.1659671E+004	5.656659877749917E+001	-7.2069085E-001	-6.181056526027084E-002	4.4546308E-005	-7.2079986E-001	0
1.1639688E+004	5.676659877244674E+001	-7.2270972E-001	-6.209013029740795E-002	4.4873141E-005	-7.2279984E-001	0
1.1578598E+004	5.696659876739432E+001	-7.2464538E-001	-6.258490059974609E-002	4.5351859E-005	-7.2479975E-001	0
1.1544736E+004	5.716659876234189E+001	-7.2673571E-001	-6.294952851853197E-002	4.5747671E-005	-7.2679967E-001	0
1.1517283E+004	5.736659875728947E+001	-7.2871214E-001	-6.327118151958477E-002	4.6106477E-005	-7.2879952E-001	0
1.1444482E+004	5.756659875223704E+001	-7.3075229E-001	-6.385192942336759E-002	4.6659945E-005	-7.3079956E-001	0
1.1417099E+004	5.776659874718462E+001	-7.3268521E-001	-6.417437680561919E-002	4.7019617E-005	-7.3279941E-001	0
1.1357863E+004	5.796659874213219E+001	-7.3467964E-001	-6.468467236825926E-002	4.7522513E-005	-7.3479944E-001	0
1.1335619E+004	5.816659873707977E+001	-7.3670572E-001	-6.499033975267121E-002	4.7878755E-005	-7.3679930E-001	0
1.1281743E+004	5.836659873202734E+001	-7.3870468E-001	-6.547788760567808E-002	4.8368824E-005	-7.3879933E-001	0
1.1248706E+004	5.856659872697492E+001	-7.4066776E-001	-6.584470947758780E-002	4.8769052E-005	-7.4079913E-001	0
1.1187074E+004	5.876659872192249E+001	-7.4271202E-001	-6.639019264617829E-002	4.9308794E-005	-7.4279910E-001	0
1.1137968E+004	5.896659871687007E+001	-7.4469543E-001	-6.686098040229371E-002	4.9791066E-005	-7.4479902E-001	0
1.1085939E+004	5.916659871181764E+001	-7.4669188E-001	-6.735485859369428E-002	5.0293325E-005	-7.4679899E-001	0
1.1039522E+004	5.936649870676774E+001	-7.4872428E-001	-6.782216088292636E-002	5.0780098E-005	-7.4879849E-001	0
1.0992291E+004	5.956639870171784E+001	-7.5071031E-001	-6.829425610143625E-002	5.1269202E-005	-7.5079888E-001	0
1.0957415E+004	5.976639869666542E+001	-7.5269842E-001	-6.869306314690127E-002	5.1705159E-005	-7.5279868E-001	0
1.0892366E+004	5.996639869161299E+001	-7.5470155E-001	-6.928719752235868E-002	5.2291154E-005	-7.5479871E-001	0
1.0840282E+004	6.016639868656057E+001	-7.5664783E-001	-6.979964032944508E-002	5.2813746E-005	-7.5679857E-001	0
1.0796418E+004	6.036639868150814E+001	-7.5875634E-001	-7.027852665337286E-002	5.3324278E-005	-7.5879854E-001	0
1.0742112E+004	6.056639867645572E+001	-7.6070988E-001	-7.081566999091993E-002	5.3870179E-005	-7.6079845E-001	0
1.0689706E+004	6.076639867140329E+001	-7.6266700E-001	-7.134593039267423E-002	5.4413187E-005	-7.6279837E-001	0
1.0635892E+004	6.096639866635087E+001	-7.6474750E-001	-7.190252777163675E-002	5.4987278E-005	-7.6479828E-001	0
1.0580980E+004	6.116639866129844E+001	-7.6675248E-001	-7.246516157277449E-002	5.5562843E-005	-7.6679826E-001	0
1.0552089E+004	6.136639865624602E+001	-7.6868260E-001	-7.284648463556564E-002	5.5995824E-005	-7.6879823E-001	0
1.0493370E+004	6.156639865119359E+001	-7.7068794E-001	-7.344522261400815E-002	5.6603349E-005	-7.7079815E-001	0
1.0429152E+004	6.176639864614117E+001	-7.7272338E-001	-7.409263230636398E-002	5.7253110E-005	-7.7279806E-001	0
1.0373926E+004	6.196639864108874E+001	-7.7473873E-001	-7.468134828667899E-002	5.7858531E-005	-7.7479798E-001	0
1.0329480E+004	6.216639863603632E+001	-7.7665424E-001	-7.518812394943808E-002	5.8395177E-005	-7.7679795E-001	0
1.0285499E+004	6.236639863098389E+001	-7.7863145E-001	-7.570186227215769E-002	5.8943850E-005	-7.7879781E-001	0
1.0226510E+004	6.256639862593147E+001	-7.8067619E-001	-7.633847854038900E-002	5.9595634E-005	-7.8079784E-001	0
1.0157532E+004	6.276639862087904E+001	-7.8275245E-001	-7.706128089908348E-002	6.0319908E-005	-7.8279769E-001	0
1.0121632E+004	6.296639861582662E+001	-7.8471428E-001	-7.752843737357229E-002	6.0837672E-005	-7.8479773E-001	0
1.0069230E+004	6.316639861077419E+001	-7.8668785E-001	-7.812790406124470E-002	6.1462270E-005	-7.8679758E-001	0
1.0004562E+004	6.336639860572177E+001	-7.8864616E-001	-7.882865753273993E-002	6.2167921E-005	-7.8879762E-001	0
9.9523838E+003	6.356639860066934E+001	-7.9068655E-001	-7.944695431688409E-002	6.2817635E-005	-7.9079741E-001	0
9.8823926E+003	6.376639859561692E+001	-7.9273009E-001	-8.021641002023983E-002	6.3589963E-005	-7.9279745E-001	0
9.8169150E+003	6.396639859056450E+001	-7.9470897E-001	-8.095302343497335E-002	6.4334097E-005	-7.9479730E-001	0
9.7614893E+003	6.416639858551207E+001	-7.9661930E-001	-8.160837780253447E-002	6.5010805E-005	-7.9679728E-001	0
9.6979414E+003	6.436639858045965E+001	-7.9866844E-001	-8.235443405787984E-002	6.5773886E-005	-7.9879707E-001	0
9.6547314E+003	6.456639857540722E+001	-8.0068243E-001	-8.293160838877461E-002	6.6401881E-005	-8.0079716E-001	0
9.5798916E+003	6.476639857035480E+001	-8.0269003E-001	-8.378905548488103E-002	6.7256638E-005	-8.0279708E-001	0
9.5114873E+003	6.496639856530237E+001	-8.0469638E-001	-8.460257994750164E-002	6.8079389E-005	-8.0479699E-001	0
9.4597988E+003	6.516629856025247E+001	-8.0670834E-001	-8.527753310297648E-002	6.8794099E-005	-8.0679709E-001	0
9.4009189E+003	6.536619855520257E+001	-8.0869228E-001	-8.602268260147600E-002	6.9565882E-005	-8.0879682E-001	0
9.3344375E+003	6.556619855015015E+001	-8.1068683E-001	-8.684902517293958E-002	7.0407361E-005	-8.1079674E-001	0
9.2615283E+003	6.576619854509772E+001	-8.1268084E-001	-8.774802835485029E-002	7.1311144E-005	-8.1279665E-001	0
9.2046191E+003	6.596619854004530E+001	-8.1468916E-001	-8.850873399963044E-002	7.2107105E-005	-8.1479663E-001	0
9.1349580E+003	6.616619853499287E+001	-8.1670737E-001	-8.940461034835834E-002	7.3017407E-005	-8.1679654E-001	0
9.0682158E+003	6.636619852994045E+001	-8.1874257E-001	-9.028706732554487E-002	7.3921867E-005	-8.1879652E-001	0
9.0029219E+003	6.656619852488802E+001	-8.2070124E-001	-9.115942937159316E-002	7.4814656E-005	-8.2079643E-001	0
8.9284727E+003	6.676619851983560E+001	-8.2271129E-001	-9.214468846887414E-002	7.5808479E-005	-8.2279634E-001	0
8.8630293E+003	6.696619851478317E+001	-8.2470566E-001	-9.305008654292624E-002	7.6738936E-005	-8.2479632E-001	0
8.8004736E+003	6.716619850973075E+001	-8.2668948E-001	-9.393692968831391E-002	7.7656674E-005	-8.2679623E-001	0
8.7167275E+003	6.736619850467832E+001	-8.2871938E-001	-9.507230622324331E-002	7.8788260E-005	-8.2879609E-001	0
8.6503926E+003	6.756619849962590E+001	-8.3067167E-001	-9.602704681846749E-002	7.9766949E-005	-8.3079612E-001	0
8.5743320E+003	6.776619849457347E+001	-8.3270496E-001	-9.711601804517400E-002	8.0868987E-005	-8.3279598E-001	0
8.4816113E+003	6.796619848952105E+001	-8.3471173E-001	-9.841428454247358E-002	8.2147555E-005	-8.3479601E-001	0
8.4019424E+003	6.816619848446862E+001	-8.3672428E-001	-9.958700576792934E-002	8.3326864E-005	-8.3679581E-001	0
8.3185342E+003	6.836619847941620E+001	-8.3865595E-001	-1.008177581707825E-001	8.4551415E-005	-8.3879590E-001	0
8.2360840E+003	6.856619847436377E+001	-8.4069496E-001	-1.020746030918662E-001	8.5813605E-005	-8.4079570E-001	0
8.1224194E+003	6.876619846931135E+001	-8.4269577E-001	-1.037493537057637E-001	8.7429144E-005	-8.4279567E-001	0
8.0210098E+003	6.896619846425892E+001	-8.4468001E-001	-1.053084412783958E-001	8.8951936E-005	-8.4479547E-001	0
7.8985581E+003	6.916619845920650E+001	-8.4668887E-001	-1.071953737966780E-001	9.0761132E-005	-8.4679556E-001	0
7.7611675E+003	6.936619845415407E+001	-8.4871626E-001	-1.093542008954278E-001	9.2810689E-005	-8.4879547E-001	0
7.6264771E+003	6.956619844910165E+001	-8.5070652E-001	-1.115464591980824E-001	9.4893301E-005	-8.5079539E-001	0
7.4791978E+003	6.976619844404922E+001	-8.5273641E-001	-1.140144254068283E-001	9.7224249E-005	-8.5279524E-001	0
7.3220049E+003	6.996619843899680E+001	-8.5471344E-001	-1.167321599304019E-001	9.9772544E-005	-8.5479528E-001	0
7.1196196E+003	7.016619843394437E+001	-8.5669142E-001	-1.203282584917735E-001	1.0308419E-004	-8.5679513E-001	0
6.9396387E+003	7.036619842889195E+001	-8.5868669E-001	-1.237365095010301E-001	1.0625090E-004	-8.5879505E-001	0
6.7166064E+003	7.056619842383952E+001	-8.6070049E-001	-1.281451397562767E-001	1.1029458E-004	-8.6079502E-001	0
6.4842534E+003	7.076619841878710E+001	-8.6268705E-001	-1.330433909299777E-001	1.1477481E-004	-8.6279494E-001	0
6.2426577E+003	7.096609841373720E+001	-8.6466360E-001	-1.385088880974397E-001	1.1976359E-004	-8.6479443E-001	0
6.0316968E+003	7.116599840868730E+001	-8.6672294E-001	-1.436947133157683E-001	1.2454350E-004	-8.6679482E-001	0
5.8409053E+003	7.136599840363488E+001	-8.6873013E-001	-1.487320985512013E-001	1.2920806E-004	-8.6879474E-001	0
5.6871655E+003	7.156599839858245E+001	-8.7069452E-001	-1.530981504890539E-001	1.3330171E-004	-8.7079465E-001	0
5.5431538E+003	7.176599839353003E+001	-8.7269551E-001	-1.574366361793982E-001	1.3739425E-004	-8.7279463E-001	0
5.4279497E+003	7.196599838847760E+001	-8.7469375E-001	-1.611462563345989E-001	1.4095362E-004	-8.7479448E-001	0
5.3168584E+003	7.216599838342518E+001	-8.7660450E-001	-1.648726461554486E-001	1.4452811E-004	-8.7679452E-001	0
5.2028442E+003	7.236599837837275E+001	-8.7869358E-001	-1.688871553575291E-001	1.4840005E-004	-8.7879437E-001	0
5.1029971E+003	7.256599837332033E+001	-8.8075185E-001	-1.725950108222296E-001	1.5201338E-004	-8.8079447E-001	0
5.0035107E+003	7.276599836826790E+001	-8.8267720E-001	-1.764115759841003E-001	1.5571447E-004	-8.8279468E-001	0
4.8757939E+003	7.296599836321548E+001	-8.8467985E-001	-1.814432444722480E-001	1.6051918E-004	-8.8479459E-001	0
4.7517993E+003	7.316599835816305E+001	-8.8667470E-001	-1.865976817088617E-001	1.6545145E-004	-8.8679475E-001	0
4.6102759E+003	7.336599835311063E+001	-8.8867253E-001	-1.927590860241857E-001	1.7129970E-004	-8.8879472E-001	0
4.4701045E+003	7.356599834805820E+001	-8.9067906E-001	-1.992524100315515E-001	1.7746995E-004	-8.9079463E-001	0
4.3190317E+003	7.376599834300578E+001	-8.9273328E-001	-2.066975465960921E-001	1.8452578E-004	-8.9279473E-001	0
4.1634619E+003	7.396599833795335E+001	-8.9469975E-001	-2.148932256923821E-001	1.9226491E-004	-8.9479476E-001	0
4.0100781E+003	7.416599833290093E+001	-8.9665562E-001	-2.236005345363663E-001	2.0049268E-004	-8.9679468E-001	0
3.8522109E+003	7.436599832784850E+001	-8.9868093E-001	-2.332896451041309E-001	2.0965295E-004	-8.9879465E-001	0
3.6983789E+003	7.456599832279608E+001	-9.0071505E-001	-2.435432013014420E-001	2.1936302E-004	-9.0079474E-001	0
3.5471099E+003	7.476599831774365E+001	-9.0272200E-001	-2.544950830355263E-001	2.2973830E-004	-9.0279472E-001	0
3.3902195E+003	7.496599831269123E+001	-9.0470916E-001	-2.668585820913387E-001	2.4142940E-004	-9.0479463E-001	0
3.2313174E+003	7.516599830763880E+001	-9.0671146E-001	-2.806011689763497E-001	2.5442429E-004	-9.0679479E-001	0
3.0732673E+003	7.536599830258638E+001	-9.0873355E-001	-2.956897063252608E-001	2.6870315E-004	-9.0879464E-001	0
2.9101099E+003	7.556599829753395E+001	-9.1063571E-001	-3.129214312767190E-001	2.8495744E-004	-9.1079473E-001	0
2.7470740E+003	7.576599829248153E+001	-9.1265696E-001	-3.322287541951416E-001	3.0321089E-004	-9.1279471E-001	0
2.5319727E+003	7.596599828742910E+001	-9.1475230E-001	-3.612804865261854E-001	3.3048214E-004	-9.1479468E-001	0
2.3781306E+003	7.616599828237668E+001	-9.1684246E-001	-3.855307363586125E-001	3.5347094E-004	-9.1679478E-001	0
2.2181287E+003	7.636599827732425E+001	-9.1876769E-001	-4.142084587787771E-001	3.8056134E-004	-9.1879469E-001	0
2.0591560E+003	7.656599827227183E+001	-9.2066872E-001	-4.471097570250555E-001	4.1163998E-004	-9.2079473E-001	0
1.9048796E+003	7.676599826721940E+001	-9.2264926E-001	-4.843609205778687E-001	4.4689525E-004	-9.2279470E-001	0
1.7369775E+003	7.696599826216698E+001	-9.2478245E-001	-5.324090068437606E-001	4.9236248E-004	-9.2479467E-001	0
1.6005570E+003	7.716599825711455E+001	-9.2679590E-001	-5.790458479875102E-001	5.3665735E-004	-9.2679471E-001	0
1.4802124E+003	7.736599825206213E+001	-9.2866039E-001	-6.273831836034525E-001	5.8262591E-004	-9.2879474E-001	0
1.3583149E+003	7.756599824700970E+001	-9.3066013E-001	-6.851578344022875E-001	6.3764909E-004	-9.3079472E-001	0
1.2375785E+003	7.776599824195728E+001	-9.3270582E-001	-7.536538591071995E-001	7.0293737E-004	-9.3279463E-001	0
1.1470933E+003	7.796599823690485E+001	-9.3478411E-001	-8.149155474979644E-001	7.6177012E-004	-9.3479472E-001	0
1.0462887E+003	7.816599823185243E+001	-9.3677926E-001	-8.953353963758524E-001	8.3873165E-004	-9.3679470E-001	0
9.6603613E+002	7.836599822680000E+001	-9.3873841E-001	-9.717425636338950E-001	9.1221207E-004	-9.3879467E-001	0
8.8640558E+002	7.857599822149496E+001	-9.4076025E-001	-1.061320337481860E+000	9.9844800E-004	-9.4089484E-001	0
8.1595935E+002	7.878599821618991E+001	-9.4288719E-001	-1.155556579582948E+000	1.0895595E-003	-9.4299471E-001	0
7.5004205E+002	7.898599821113748E+001	-9.4491267E-001	-1.259812934100289E+000	1.1904133E-003	-9.4499469E-001	0
6.9791229E+002	7.918599820608506E+001	-9.4694304E-001	-1.356822408414757E+000	1.2848335E-003	-9.4699472E-001	0
6.4298639E+002	7.938599820103263E+001	-9.4890147E-001	-1.475772319222187E+000	1.4003626E-003	-9.4899476E-001	0
5.9829724E+002	7.958599819598021E+001	-9.5085692E-001	-1.589271708343027E+000	1.5111701E-003	-9.5099467E-001	0
5.5738391E+002	7.978599819092778E+001	-9.5288050E-001	-1.709558698984370E+000	1.6290052E-003	-9.5299464E-001	0
5.1912708E+002	7.998599818587536E+001	-9.5494431E-001	-1.839519401273083E+000	1.7566386E-003	-9.5499474E-001	0
4.8432666E+002	8.018599818082294E+001	-9.5692861E-001	-1.975791715322034E+000	1.8906916E-003	-9.5699471E-001	0
4.5392429E+002	8.038599817577051E+001	-9.5889252E-001	-2.112450367502883E+000	2.0256129E-003	-9.5899463E-001	0
4.2646594E+002	8.058599817071809E+001	-9.6093571E-001	-2.253253160386663E+000	2.1652314E-003	-9.6099478E-001	0
4.0158914E+002	8.078599816566566E+001	-9.6287864E-001	-2.397671010488816E+000	2.3086662E-003	-9.6299464E-001	0
3.7841586E+002	8.098599816061324E+001	-9.6493435E-001	-2.549931045984867E+000	2.4605161E-003	-9.6499473E-001	0
3.5731119E+002	8.118599815556081E+001	-9.6691954E-001	-2.706099297488096E+000	2.6165803E-003	-9.6699470E-001	0
3.3787161E+002	8.138599815050839E+001	-9.6892124E-001	-2.867720312238280E+000	2.7785951E-003	-9.6899480E-001	0
3.2014261E+002	8.158599814545596E+001	-9.7090590E-001	-3.032729359677303E+000	2.9444948E-003	-9.7099477E-001	0
3.0429163E+002	8.178599814040354E+001	-9.7288173E-001	-3.197201806469032E+000	3.1104994E-003	-9.7299469E-001	0
2.8951471E+002	8.198599813535111E+001	-9.7488779E-001	-3.367316866238653E+000	3.2827561E-003	-9.7499472E-001	0
2.7602744E+002	8.218599813029869E+001	-9.7691190E-001	-3.539184117837564E+000	3.4574710E-003	-9.7699469E-001	0
2.6351202E+002	8.238599812524626E+001	-9.7892970E-001	-3.714933890908499E+000	3.6366591E-003	-9.7899467E-001	0
2.5172488E+002	8.258599812019384E+001	-9.8088783E-001	-3.896666147439916E+000	3.8221923E-003	-9.8099470E-001	0
2.4102357E+002	8.278599811514141E+001	-9.8286676E-001	-4.077886427171904E+000	4.0080189E-003	-9.8299474E-001	0
2.3106934E+002	8.298599811008899E+001	-9.8492306E-001	-4.262456767041371E+000	4.1981922E-003	-9.8499471E-001	0
2.2170265E+002	8.318599810503656E+001	-9.8682350E-001	-4.451112598146992E+000	4.3924623E-003	-9.8699462E-001	0
2.1296135E+002	8.338599809998414E+001	-9.8892987E-001	-4.643705713370466E+000	4.5922995E-003	-9.8899472E-001	0
2.0469559E+002	8.358599809493171E+001	-9.9088109E-001	-4.840754590675132E+000	4.7966121E-003	-9.9099469E-001	0
1.9717514E+002	8.378599808987929E+001	-9.9292082E-001	-5.035730329737056E+000	5.0000814E-003	-9.9299467E-001	0
1.9002306E+002	8.398599808482686E+001	-9.9491441E-001	-5.235756481416921E+000	5.2091298E-003	-9.9499464E-001	0
1.8335747E+002	8.418599807977444E+001	-9.9689412E-001	-5.436888775857952E+000	5.4200026E-003	-9.9699461E-001	0
1.7694571E+002	8.438599807472201E+001	-9.9891007E-001	-5.645291274434598E+000	5.6391382E-003	-9.9899465E-001	0
1.7100122E+002	8.458619806966453E+001	-1.0008925E+000	-5.853131018432180E+000	5.8583552E-003	-1.0009964E+000	0
1.6541599E+002	8.478669806459948E+001	-1.0029027E+000	-6.062913352843211E+000	6.0805124E-003	-1.0030010E+000	0
1.6001634E+002	8.498739805952937E+001	-1.0049149E+000	-6.280076526635106E+000	6.3109421E-003	-1.0050080E+000	0
1.5500470E+002	8.518779805446684E+001	-1.0069191E+000	-6.496055285946852E+000	6.5410025E-003	-1.0070126E+000	0
1.5018112E+002	8.538779804941441E+001	-1.0089254E+000	-6.718057987033077E+000	6.7780195E-003	-1.0090126E+000	0
1.4559860E+002	8.558789804435946E+001	-1.0109160E+000	-6.943170774532916E+000	7.0189624E-003	-1.0110135E+000	0
1.4120898E+002	8.578849803929188E+001	-1.0130035E+000	-7.173789361270636E+000	7.2670737E-003	-1.0130190E+000	0
1.3707489E+002	8.598889803422935E+001	-1.0150362E+000	-7.404975380146336E+000	7.5163185E-003	-1.0150235E+000	0
1.3306297E+002	8.618909802917187E+001	-1.0169305E+000	-7.642475184804255E+000	7.7718659E-003	-1.0170256E+000	0
1.2918655E+002	8.638959802410682E+001	-1.0189756E+000	-7.887629096058284E+000	8.0373017E-003	-1.0190300E+000	0
1.2560283E+002	8.659009801904176E+001	-1.0210378E+000	-8.129098711601557E+000	8.3001172E-003	-1.0210356E+000	0
1.2206124E+002	8.679039801398176E+001	-1.0230262E+000	-8.381253898232018E+000	8.5742427E-003	-1.0230381E+000	0
1.1879694E+002	8.699079800891923E+001	-1.0250254E+000	-8.628381861701612E+000	8.8443104E-003	-1.0250422E+000	0
1.1547775E+002	8.719139800385165E+001	-1.0269964E+000	-8.893456439382676E+000	9.1335475E-003	-1.0270483E+000	0
1.1239851E+002	8.739189799878659E+001	-1.0290323E+000	-9.155213574485657E+000	9.4210105E-003	-1.0290530E+000	0
1.0947381E+002	8.759229799372406E+001	-1.0310465E+000	-9.418202633041645E+000	9.7106053E-003	-1.0310575E+000	0
1.0671804E+002	8.779279798865900E+001	-1.0330108E+000	-9.679814568780188E+000	9.9993534E-003	-1.0330620E+000	0
1.0389666E+002	8.799329798359395E+001	-1.0349925E+000	-9.961749061883626E+000	1.0310335E-002	-1.0350676E+000	0
1.0125819E+002	8.819349797853647E+001	-1.0370241E+000	-1.024138537591361E+001	1.0620564E-002	-1.0370694E+000	0
9.8741646E+001	8.839369797347899E+001	-1.0390557E+000	-1.052297319709238E+001	1.0933955E-002	-1.0390714E+000	0
9.6089630E+001	8.860389796816889E+001	-1.0411247E+000	-1.083493306326977E+001	1.1280516E-002	-1.0411736E+000	0
9.3464836E+001	8.881409796285880E+001	-1.0432217E+000	-1.116164873801740E+001	1.1644075E-002	-1.0432756E+000	0
9.1229935E+001	8.901449795779627E+001	-1.0452160E+000	-1.145694108272914E+001	1.1974977E-002	-1.0452789E+000	0
8.9072456E+001	8.921509795272868E+001	-1.0472032E+000	-1.175675627670813E+001	1.2311713E-002	-1.0472850E+000	0
8.6851135E+001	8.941559794766363E+001	-1.0491911E+000	-1.208033865194453E+001	1.2674584E-002	-1.0492903E+000	0
8.4690781E+001	8.961629794259352E+001	-1.0512244E+000	-1.241249999900663E+001	1.3048322E-002	-1.0512971E+000	0
8.2633598E+001	8.981679793752846E+001	-1.0532513E+000	-1.274604192806311E+001	1.3424785E-002	-1.0533023E+000	0
8.0609177E+001	9.001729793246341E+001	-1.0552448E+000	-1.309087630080387E+001	1.3814080E-002	-1.0553070E+000	0
7.8736557E+001	9.021759792740340E+001	-1.0572387E+000	-1.342754516620482E+001	1.4196120E-002	-1.0573107E+000	0
7.6871819E+001	9.041779792234593E+001	-1.0592755E+000	-1.377976394622506E+001	1.4596567E-002	-1.0593125E+000	0
7.5107376E+001	9.061829791728087E+001	-1.0612185E+000	-1.412935120705583E+001	1.4994329E-002	-1.0613168E+000	0
7.3352089E+001	9.081879791221581E+001	-1.0632609E+000	-1.449530552704249E+001	1.5412292E-002	-1.0633223E+000	0
7.1669479E+001	9.101939790714823E+001	-1.0652703E+000	-1.486365366400375E+001	1.5833808E-002	-1.0653281E+000	0
6.9976563E+001	9.121979790208570E+001	-1.0672913E+000	-1.525212554882823E+001	1.6278461E-002	-1.0673323E+000	0
6.8386520E+001	9.142039789701812E+001	-1.0692860E+000	-1.563591728236588E+001	1.6719267E-002	-1.0693381E+000	0
6.6784500E+001	9.162089789195306E+001	-1.0712668E+000	-1.604064893860073E+001	1.7183814E-002	-1.0713435E+000	0
6.5250603E+001	9.182109788689559E+001	-1.0733023E+000	-1.644892560914559E+001	1.7654669E-002	-1.0733454E+000	0
6.3742573E+001	9.202149788183306E+001	-1.0752788E+000	-1.686908280480736E+001	1.8138966E-002	-1.0753490E+000	0
6.2205791E+001	9.222199787676800E+001	-1.0772771E+000	-1.731795443054881E+001	1.8656235E-002	-1.0773542E+000	0
6.0808983E+001	9.242229787170800E+001	-1.0792944E+000	-1.774893151375608E+001	1.9156324E-002	-1.0793575E+000	0
5.9348141E+001	9.262259786664799E+001	-1.0812747E+000	-1.821918464550991E+001	1.9699944E-002	-1.0813602E+000	0
5.8043388E+001	9.282309786158294E+001	-1.0832959E+000	-1.866355485506995E+001	2.0218153E-002	-1.0833650E+000	0
5.6760803E+001	9.302359785651788E+001	-1.0853343E+000	-1.912119309365714E+001	2.0752886E-002	-1.0853702E+000	0
5.5428280E+001	9.322399785145535E+001	-1.0872940E+000	-1.961623131916713E+001	2.1328609E-002	-1.0873742E+000	0
5.4136044E+001	9.342439784639282E+001	-1.0892951E+000	-2.012144056455065E+001	2.1918187E-002	-1.0893782E+000	0
5.2917225E+001	9.362479784133029E+001	-1.0912731E+000	-2.062226534132822E+001	2.2504523E-002	-1.0913824E+000	0
5.1715878E+001	9.382519783626776E+001	-1.0933348E+000	-2.114118194985883E+001	2.3114391E-002	-1.0933862E+000	0
5.0502068E+001	9.402569783120271E+001	-1.0953526E+000	-2.168926295181501E+001	2.3757393E-002	-1.0953914E+000	0
4.9389446E+001	9.422619782613765E+001	-1.0973276E+000	-2.221785610750447E+001	2.4380267E-002	-1.0973963E+000	0
4.8213585E+001	9.442659782107512E+001	-1.0993351E+000	-2.280135573142911E+001	2.5066331E-002	-1.0994003E+000	0
4.7124313E+001	9.462689781601512E+001	-1.1013665E+000	-2.337151259789175E+001	2.5740601E-002	-1.1014035E+000	0
4.6042171E+001	9.482719781095511E+001	-1.1033479E+000	-2.396385504583179E+001	2.6440470E-002	-1.1034063E+000	0
4.5034676E+001	9.502759780589258E+001	-1.1053491E+000	-2.454439989352841E+001	2.7130129E-002	-1.1054102E+000	0
4.4008705E+001	9.522799780083005E+001	-1.1073459E+000	-2.516197518828380E+001	2.7863011E-002	-1.1074142E+000	0
4.3053238E+001	9.542839779576752E+001	-1.1094453E+000	-2.576914874654852E+001	2.8589461E-002	-1.1094182E+000	0
4.2082561E+001	9.562879779070499E+001	-1.1113728E+000	-2.640934447315277E+001	2.9350627E-002	-1.1114222E+000	0
4.1066532E+001	9.582909778564499E+001	-1.1133711E+000	-2.711139797749570E+001	3.0185048E-002	-1.1134255E+000	0
4.0125847E+001	9.602919778059004E+001	-1.1153888E+000	-2.779726329168761E+001	3.1004755E-002	-1.1154267E+000	0
3.9214188E+001	9.622929777553509E+001	-1.1173379E+000	-2.849320762982876E+001	3.1836543E-002	-1.1174275E+000	0
3.8325062E+001	9.642959777047508E+001	-1.1193852E+000	-2.920765789911502E+001	3.2694623E-002	-1.1194303E+000	0
3.7463341E+001	9.662989776541508E+001	-1.1214185E+000	-2.993375584569199E+001	3.3568267E-002	-1.1214335E+000	0
3.6624733E+001	9.683029776035255E+001	-1.1233600E+000	-3.067217032038707E+001	3.4455892E-002	-1.1234370E+000	0
3.5793320E+001	9.703079775528749E+001	-1.1254363E+000	-3.144263398785290E+001	3.5386682E-002	-1.1254423E+000	0
3.4954273E+001	9.723109775022749E+001	-1.1273875E+000	-3.225321176553163E+001	3.6361869E-002	-1.1274456E+000	0
3.4132439E+001	9.743119774517254E+001	-1.1294113E+000	-3.308909102037637E+001	3.7371196E-002	-1.1294467E+000	0
3.3295052E+001	9.763139774011506E+001	-1.1314143E+000	-3.398145597658072E+001	3.8447104E-002	-1.1314483E+000	0
3.2524292E+001	9.783179773505253E+001	-1.1334474E+000	-3.484925767555427E+001	3.9499801E-002	-1.1334523E+000	0
3.1762526E+001	9.803239772998495E+001	-1.1354514E+000	-3.574814639299885E+001	4.0590283E-002	-1.1354582E+000	0
3.0985109E+001	9.823269772492495E+001	-1.1374037E+000	-3.670807532043114E+001	4.1751903E-002	-1.1374615E+000	0
3.0269880E+001	9.843309771986242E+001	-1.1394322E+000	-3.764244012800782E+001	4.2891007E-002	-1.1394650E+000	0
2.9591837E+001	9.863359771479736E+001	-1.1414772E+000	-3.857405751612805E+001	4.4031408E-002	-1.1414701E+000	0
2.8844749E+001	9.883429770972725E+001	-1.1434408E+000	-3.964121321883329E+001	4.5327384E-002	-1.1434768E+000	0
2.8183107E+001	9.903489770465967E+001	-1.1454374E+000	-4.064269294477091E+001	4.6553660E-002	-1.1454830E+000	0
2.7522675E+001	9.923519769959967E+001	-1.1474692E+000	-4.169177626265962E+001	4.7840029E-002	-1.1474868E+000	0
2.6861244E+001	9.943519769454724E+001	-1.1494560E+000	-4.279235901556859E+001	4.9187936E-002	-1.1494868E+000	0
2.6224892E+001	9.963539768948976E+001	-1.1514235E+000	-4.390574591649869E+001	5.0554104E-002	-1.1514882E+000	0
2.5617613E+001	9.983569768442976E+001	-1.1535300E+000	-4.502878508668533E+001	5.1942054E-002	-1.1534915E+000	0
2.5048969E+001	1.000361976793647E+002	-1.1555135E+000	-4.613018332275232E+001	5.3304050E-002	-1.1554962E+000	0
2.4500113E+001	1.002365976743022E+002	-1.1575165E+000	-4.724535204301617E+001	5.4687273E-002	-1.1575001E+000	0
2.3984591E+001	1.004368976692422E+002	-1.1595178E+000	-4.834427904833603E+001	5.6056049E-002	-1.1595035E+000	0
2.3408342E+001	1.006371976641822E+002	-1.1614819E+000	-4.961828748792243E+001	5.7630740E-002	-1.1615063E+000	0
2.2871407E+001	1.008374976591222E+002	-1.1634632E+000	-5.086977150903135E+001	5.9185110E-002	-1.1635095E+000	0
2.2370255E+001	1.010377976540622E+002	-1.1654816E+000	-5.209961091415664E+001	6.0721137E-002	-1.1655126E+000	0
2.1821136E+001	1.012380976490022E+002	-1.1675049E+000	-5.350339728562903E+001	6.2465478E-002	-1.1675150E+000	0
2.1340002E+001	1.014385976439371E+002	-1.1695201E+000	-5.480412610247032E+001	6.4094529E-002	-1.1695204E+000	0
2.0875572E+001	1.016389976388746E+002	-1.1715528E+000	-5.612075294833994E+001	6.5748423E-002	-1.1715242E+000	0
2.0409416E+001	1.018395976338070E+002	-1.1735265E+000	-5.749926700362965E+001	6.7476913E-002	-1.1735299E+000	0
1.9903189E+001	1.020402976287369E+002	-1.1755484E+000	-5.906331879425693E+001	6.9431789E-002	-1.1755370E+000	0
1.9457222E+001	1.022410976236642E+002	-1.1775821E+000	-6.052159886442404E+001	7.1269155E-002	-1.1775450E+000	0
1.9016659E+001	1.024415976185992E+002	-1.1795697E+000	-6.202823381451492E+001	7.3166624E-002	-1.1795503E+000	0
1.8608223E+001	1.026419976135367E+002	-1.1815839E+000	-6.349794187810221E+001	7.5028144E-002	-1.1815542E+000	0
1.8208813E+001	1.028421976084792E+002	-1.1836054E+000	-6.500178791389999E+001	7.6936468E-002	-1.1835567E+000	0
1.7795290E+001	1.030426976034141E+002	-1.1855764E+000	-6.662304764368133E+001	7.8986719E-002	-1.1855609E+000	0
1.7377274E+001	1.032431975983491E+002	-1.1875854E+000	-6.834129396067027E+001	8.1161119E-002	-1.1875663E+000	0
1.6999002E+001	1.034437975932815E+002	-1.1896321E+000	-6.998246560329335E+001	8.3253384E-002	-1.1895720E+000	0
1.6653780E+001	1.036443975882139E+002	-1.1916292E+000	-7.155307706099927E+001	8.5264735E-002	-1.1915781E+000	0
1.6305523E+001	1.038447975831514E+002	-1.1936105E+000	-7.320283444594281E+001	8.7375678E-002	-1.1935822E+000	0
1.5925512E+001	1.040452975780863E+002	-1.1956462E+000	-7.507740673491332E+001	8.9766011E-002	-1.1955872E+000	0
1.5588390E+001	1.042457975730213E+002	-1.1976056E+000	-7.682676471640457E+001	9.2008166E-002	-1.1975924E+000	0
1.5275841E+001	1.044461975679587E+002	-1.1996124E+000	-7.853003863645392E+001	9.4205603E-002	-1.1995963E+000	0
1.4990945E+001	1.046465975628962E+002	-1.2016361E+000	-8.015746333428785E+001	9.6320100E-002	-1.2016003E+000	0
1.4663258E+001	1.048471975578286E+002	-1.2036220E+000	-8.208421431476586E+001	9.8798364E-002	-1.2036062E+000	0
1.4326884E+001	1.050476975527636E+002	-1.2056236E+000	-8.415114079020623E+001	1.0145460E-001	-1.2056110E+000	0
1.4037231E+001	1.052483975476935E+002	-1.2076380E+000	-8.603106652389326E+001	1.0389439E-001	-1.2076181E+000	0
1.3749780E+001	1.054486975426335E+002	-1.2096382E+000	-8.797509916969580E+001	1.0641804E-001	-1.2096214E+000	0
1.3497554E+001	1.056488975375760E+002	-1.2116736E+000	-8.976986433536604E+001	1.0877178E-001	-1.2116234E+000	0
1.3209470E+001	1.058491975325160E+002	-1.2136707E+000	-9.187884076872524E+001	1.1151066E-001	-1.2136263E+000	0
1.2964419E+001	1.060496975274509E+002	-1.2156544E+000	-9.376851911186532E+001	1.1399011E-001	-1.2156310E+000	0
1.2708763E+001	1.062502975223833E+002	-1.2176616E+000	-9.581275618797872E+001	1.1666752E-001	-1.2176371E+000	0
1.2452677E+001	1.064507975173183E+002	-1.2196273E+000	-9.794097393443053E+001	1.1945148E-001	-1.2196423E+000	0
1.2206597E+001	1.066511975122557E+002	-1.2216824E+000	-1.000837792264880E+002	1.2227059E-001	-1.2216462E+000	0
1.1988063E+001	1.068516975071907E+002	-1.2236785E+000	-1.020747419408153E+002	1.2490667E-001	-1.2236514E+000	0
1.1735342E+001	1.070519975021307E+002	-1.2256655E+000	-1.044422429259785E+002	1.2801124E-001	-1.2256544E+000	0
1.1523596E+001	1.072524974970656E+002	-1.2277430E+000	-1.065416571833900E+002	1.3080578E-001	-1.2276590E+000	0
1.1281256E+001	1.074629974917480E+002	-1.2298089E+000	-1.090134782487253E+002	1.3406575E-001	-1.2297643E+000	0
1.0977015E+001	1.076733974864328E+002	-1.2319052E+000	-1.122258883698528E+002	1.3825166E-001	-1.2318683E+000	0
1.0784562E+001	1.078737974813703E+002	-1.2339092E+000	-1.144144020979097E+002	1.4117698E-001	-1.2338723E+000	0
1.0621143E+001	1.080740974763103E+002	-1.2358704E+000	-1.163594424230291E+002	1.4380519E-001	-1.2358756E+000	0
1.0429442E+001	1.082744974712477E+002	-1.2378608E+000	-1.186890656716313E+002	1.4692055E-001	-1.2378792E+000	0
1.0217845E+001	1.084748974661852E+002	-1.2399254E+000	-1.213490164423552E+002	1.5046373E-001	-1.2398835E+000	0
9.9533806E+000	1.086750974611277E+002	-1.2418830E+000	-1.247699779807008E+002	1.5494972E-001	-1.2418854E+000	0
9.8051510E+000	1.088753974560677E+002	-1.2438791E+000	-1.268597595027381E+002	1.5779820E-001	-1.2438883E+000	0
9.6406412E+000	1.090757974510052E+002	-1.2458668E+000	-1.292307017705348E+002	1.6100423E-001	-1.2458922E+000	0
9.4969168E+000	1.092761974459427E+002	-1.2478932E+000	-1.313998279646912E+002	1.6397296E-001	-1.2478962E+000	0
9.2849274E+000	1.094767974408751E+002	-1.2499665E+000	-1.346231837689006E+002	1.6827448E-001	-1.2499022E+000	0
9.1543055E+000	1.096770974358151E+002	-1.2519519E+000	-1.367609996148669E+002	1.7121820E-001	-1.2519057E+000	0
9.0241671E+000	1.098772974307576E+002	-1.2539254E+000	-1.389519295640284E+002	1.7423536E-001	-1.2539076E+000	0
8.9214630E+000	1.100773974257027E+002	-1.2559474E+000	-1.407781838462466E+002	1.7680998E-001	-1.2559087E+000	0
8.7928715E+000	1.102774974206477E+002	-1.2579285E+000	-1.430623059897730E+002	1.7996214E-001	-1.2579095E+000	0
8.6464090E+000	1.104777974155877E+002	-1.2599155E+000	-1.457154564895998E+002	1.8358916E-001	-1.2599124E+000	0
8.5079126E+000	1.106780974105277E+002	-1.2618780E+000	-1.483181624832727E+002	1.8715943E-001	-1.2619156E+000	0
8.4190073E+000	1.108783974054677E+002	-1.2639450E+000	-1.501299325877135E+002	1.8975598E-001	-1.2639183E+000	0
8.2429695E+000	1.110786974004077E+002	-1.2659208E+000	-1.535758170005042E+002	1.9441481E-001	-1.2659215E+000	0
8.1756620E+000	1.112789973953477E+002	-1.2679156E+000	-1.550841487129296E+002	1.9663361E-001	-1.2679242E+000	0
8.0902939E+000	1.114795973902801E+002	-1.2699599E+000	-1.569732836928596E+002	1.9934978E-001	-1.2699301E+000	0
7.9818902E+000	1.116797973852226E+002	-1.2719506E+000	-1.593545636521139E+002	2.0269114E-001	-1.2719322E+000	0
7.8954234E+000	1.118801973801601E+002	-1.2739607E+000	-1.613543262480819E+002	2.0555907E-001	-1.2739362E+000	0
7.7539954E+000	1.120805973750976E+002	-1.2759781E+000	-1.645574968429909E+002	2.0997176E-001	-1.2759402E+000	0
7.5868330E+000	1.122808973700376E+002	-1.2779562E+000	-1.684439708124056E+002	2.1526402E-001	-1.2779435E+000	0
7.5277019E+000	1.124814973649700E+002	-1.2799729E+000	-1.700350189395809E+002	2.1764022E-001	-1.2799491E+000	0
7.3958101E+000	1.126819973599049E+002	-1.2819539E+000	-1.733351624062129E+002	2.2220770E-001	-1.2819543E+000	0
7.3270159E+000	1.128824973548399E+002	-1.2839322E+000	-1.752326184711922E+002	2.2498681E-001	-1.2839595E+000	0
7.2160497E+000	1.130826973497824E+002	-1.2859792E+000	-1.782109642609068E+002	2.2917558E-001	-1.2859615E+000	0
7.0054669E+000	1.132832973447148E+002	-1.2879581E+000	-1.838504400539969E+002	2.3679167E-001	-1.2879668E+000	0
6.9063215E+000	1.134836973396523E+002	-1.2899832E+000	-1.867829523435080E+002	2.4094686E-001	-1.2899715E+000	0
6.8544536E+000	1.136841973345872E+002	-1.2919106E+000	-1.884775606596040E+002	2.4349616E-001	-1.2919761E+000	0
6.7794952E+000	1.138847973295196E+002	-1.2940179E+000	-1.908723119354645E+002	2.4699219E-001	-1.2939821E+000	0
6.7024035E+000	1.140852973244546E+002	-1.2960019E+000	-1.933637605605372E+002	2.5059980E-001	-1.2959869E+000	0
6.5967402E+000	1.142857973193895E+002	-1.2980360E+000	-1.967693067248506E+002	2.5541365E-001	-1.2979923E+000	0
6.5480266E+000	1.144862973143245E+002	-1.2999519E+000	-1.985257512872472E+002	2.5807393E-001	-1.2999971E+000	0
6.4628687E+000	1.146866973092619E+002	-1.3020284E+000	-2.014629161048315E+002	2.6231045E-001	-1.3020015E+000	0
6.3602877E+000	1.148868973042045E+002	-1.3040702E+000	-2.050332091933169E+002	2.6737770E-001	-1.3040035E+000	0
6.2761631E+000	1.150872972991419E+002	-1.3060085E+000	-2.080902620843362E+002	2.7176765E-001	-1.3060069E+000	0
6.2026725E+000	1.152877972940769E+002	-1.3080424E+000	-2.108836863634647E+002	2.7584481E-001	-1.3080121E+000	0
6.1299868E+000	1.154881972890144E+002	-1.3100729E+000	-2.137154455122109E+002	2.7998281E-001	-1.3100160E+000	0
6.0669999E+000	1.156884972839543E+002	-1.3120964E+000	-2.162677368856612E+002	2.8376412E-001	-1.3120195E+000	0
5.9921756E+000	1.158887972788943E+002	-1.3140775E+000	-2.192988936745046E+002	2.8817573E-001	-1.3140223E+000	0
5.8756948E+000	1.160892972738293E+002	-1.3160471E+000	-2.239815300066693E+002	2.9477024E-001	-1.3160270E+000	0
5.8366513E+000	1.162895972687693E+002	-1.3181434E+000	-2.258389692477922E+002	2.9768813E-001	-1.3180301E+000	0
5.7880211E+000	1.164898972637093E+002	-1.3201065E+000	-2.280756168178796E+002	3.0108410E-001	-1.3200337E+000	0
5.7062130E+000	1.166900972586518E+002	-1.3220731E+000	-2.316901115919943E+002	3.0631125E-001	-1.3220354E+000	0
5.5772014E+000	1.168904972535893E+002	-1.3240603E+000	-2.374058559869536E+002	3.1433967E-001	-1.3240389E+000	0
5.4844246E+000	1.170911972485192E+002	-1.3261006E+000	-2.417939220916251E+002	3.2064307E-001	-1.3260461E+000	0
5.4502044E+000	1.172915972434566E+002	-1.3281085E+000	-2.436805029252719E+002	3.2363415E-001	-1.3280499E+000	0
5.4339290E+000	1.174917972383992E+002	-1.3301833E+000	-2.447921696833732E+002	3.2561845E-001	-1.3300527E+000	0
5.4301434E+000	1.176919972333417E+002	-1.3321092E+000	-2.453174957450074E+002	3.2678971E-001	-1.3320541E+000	0
5.3602362E+000	1.178922972282817E+002	-1.3341050E+000	-2.488892267824763E+002	3.3204436E-001	-1.3340575E+000	0
5.3407006E+000	1.180925972232217E+002	-1.3361043E+000	-2.501739734089260E+002	3.3425853E-001	-1.3360602E+000	0
5.3265128E+000	1.182931972181541E+002	-1.3380846E+000	-2.512121184409652E+002	3.3614308E-001	-1.3380660E+000	0
5.2627053E+000	1.184938972130840E+002	-1.3401188E+000	-2.546444722758165E+002	3.4125385E-001	-1.3400729E+000	0
5.2181878E+000	1.186945972080139E+002	-1.3421631E+000	-2.572086479089855E+002	3.4521595E-001	-1.3420801E+000	0
5.1926470E+000	1.188352972044595E+002	-1.3436145E+000	-2.587532929951990E+002	3.4766465E-001	-1.3434861E+000	0
5.1753669E+000	1.189358972019181E+002	-1.3445535E+000	-2.597986805809505E+002	3.4931323E-001	-1.3444922E+000	0
5.1213856E+000	1.190464971991241E+002	-1.3456627E+000	-2.627536315857781E+002	3.5357776E-001	-1.3455985E+000	0
5.0810108E+000	1.191573971963226E+002	-1.3467414E+000	-2.650538401335152E+002	3.5695899E-001	-1.3467067E+000	0
5.0215607E+000	1.192286971945214E+002	-1.3475587E+000	-2.683545568974309E+002	3.6162353E-001	-1.3474196E+000	0
5.0173078E+000	1.192999971927202E+002	-1.3482218E+000	-2.687141998344841E+002	3.6228633E-001	-1.3481328E+000	0
4.9898486E+000	1.194108971899186E+002	-1.3493260E+000	-2.704142191976498E+002	3.6487693E-001	-1.3492423E+000	0
4.9555378E+000	1.195314971868720E+002	-1.3505332E+000	-2.725301187551113E+002	3.6806098E-001	-1.3504484E+000	0
4.9157701E+000	1.196621971835702E+002	-1.3519214E+000	-2.750172350955422E+002	3.7180170E-001	-1.3517555E+000	0
4.9461584E+000	1.197830971805161E+002	-1.3530020E+000	-2.735460275965229E+002	3.7010831E-001	-1.3529640E+000	0
4.9510612E+000	1.198742971782121E+002	-1.3539382E+000	-2.734642375994727E+002	3.7025368E-001	-1.3538766E+000	0
4.8975530E+000	1.199158971771612E+002	-1.3544129E+000	-2.765489115979935E+002	3.7456143E-001	-1.3542918E+000	0
4.8997216E+000	1.199770971756152E+002	-1.3549858E+000	-2.765434412480081E+002	3.7471244E-001	-1.3549044E+000	0
4.8809342E+000	1.200580971735690E+002	-1.3558172E+000	-2.777782177168901E+002	3.7661648E-001	-1.3557136E+000	0
4.8072581E+000	1.201294971717653E+002	-1.3565018E+000	-2.821778654709487E+002	3.8277480E-001	-1.3564283E+000	0
4.7506304E+000	1.202404971689612E+002	-1.3575906E+000	-2.857706206769526E+002	3.8795951E-001	-1.3575381E+000	0
4.6938338E+000	1.203512971661621E+002	-1.3587742E+000	-2.894806603952984E+002	3.9333886E-001	-1.3586464E+000	0
4.6613650E+000	1.204223971643660E+002	-1.3594259E+000	-2.916368772289898E+002	3.9645872E-001	-1.3593569E+000	0
4.6719642E+000	1.205032971623223E+002	-1.3602397E+000	-2.911494385884589E+002	3.9603305E-001	-1.3601662E+000	0
4.6917105E+000	1.205941971600259E+002	-1.3611207E+000	-2.901118422080408E+002	3.9487723E-001	-1.3610748E+000	0
4.6753645E+000	1.207146971569819E+002	-1.3623079E+000	-2.913800407966323E+002	3.9694932E-001	-1.3622806E+000	0
4.6341963E+000	1.208151971544430E+002	-1.3633652E+000	-2.941966856320551E+002	4.0109751E-001	-1.3632854E+000	0
4.6218009E+000	1.208763971528970E+002	-1.3638675E+000	-2.950943977930328E+002	4.0246966E-001	-1.3638970E+000	0
4.6136150E+000	1.209377971513459E+002	-1.3645899E+000	-2.957745431897492E+002	4.0361097E-001	-1.3645115E+000	0
4.6007390E+000	1.209694971505451E+002	-1.3649367E+000	-2.966777217818635E+002	4.0494633E-001	-1.3648278E+000	0
4.6003962E+000	1.209714971504945E+002	-1.3649237E+000	-2.966969977484805E+002	4.0496877E-001	-1.3648479E+000	0
4.6077051E+000	1.210128971494487E+002	-1.3653412E+000	-2.963169619493465E+002	4.0457374E-001	-1.3652622E+000	0
4.6100516E+000	1.211036971471549E+002	-1.3662620E+000	-2.963658726085143E+002	4.0491343E-001	-1.3661700E+000	0
4.6154060E+000	1.211451971461065E+002	-1.3667226E+000	-2.961218639473727E+002	4.0471643E-001	-1.3665845E+000	0
4.6440139E+000	1.212261971440603E+002	-1.3674437E+000	-2.944529757503672E+002	4.0264785E-001	-1.3673955E+000	0
4.6216965E+000	1.213169971417665E+002	-1.3683512E+000	-2.960711862694088E+002	4.0512937E-001	-1.3683029E+000	0
4.6018000E+000	1.213880971399703E+002	-1.3690816E+000	-2.975100152524210E+002	4.0731549E-001	-1.3690141E+000	0
4.5867476E+000	1.214689971379266E+002	-1.3698995E+000	-2.986646705700466E+002	4.0914059E-001	-1.3698230E+000	0
4.5814791E+000	1.215400971361305E+002	-1.3706024E+000	-2.991615446293017E+002	4.1003153E-001	-1.3705338E+000	0
4.5762129E+000	1.215420971360800E+002	-1.3706474E+000	-2.995156721207832E+002	4.1053039E-001	-1.3705537E+000	0
4.5623565E+000	1.215936971347764E+002	-1.3711470E+000	-3.005348293276747E+002	4.1207743E-001	-1.3710698E+000	0
4.5502987E+000	1.216650971329727E+002	-1.3718823E+000	-3.014928031585027E+002	4.1361263E-001	-1.3717835E+000	0
4.5305295E+000	1.217460971309265E+002	-1.3726572E+000	-3.029794313036991E+002	4.1588688E-001	-1.3725946E+000	0
4.4898272E+000	1.218567971281300E+002	-1.3737960E+000	-3.059797078021379E+002	4.2035368E-001	-1.3737009E+000	0
4.5007491E+000	1.219478971258286E+002	-1.3747209E+000	-3.054426867642832E+002	4.1989845E-001	-1.3746116E+000	0
4.5261245E+000	1.220388971235298E+002	-1.3756484E+000	-3.039351723554064E+002	4.1810793E-001	-1.3755223E+000	0
4.4801750E+000	1.220902971222313E+002	-1.3761104E+000	-3.071555091241989E+002	4.2267990E-001	-1.3760358E+000	0
4.4782329E+000	1.221218971214330E+002	-1.3765357E+000	-3.073836684109225E+002	4.2312458E-001	-1.3763527E+000	0
4.4605584E+000	1.221732971201345E+002	-1.3769903E+000	-3.087035844710900E+002	4.2508185E-001	-1.3768657E+000	0
4.4289484E+000	1.222842971173304E+002	-1.3781159E+000	-3.111609740781605E+002	4.2881587E-001	-1.3779767E+000	0
4.4084845E+000	1.224252971137685E+002	-1.3794644E+000	-3.129112631201251E+002	4.3164995E-001	-1.3793858E+000	0
4.3846827E+000	1.225263971112145E+002	-1.3804638E+000	-3.148377990016704E+002	4.3462220E-001	-1.3803970E+000	0
4.4110446E+000	1.226472971081603E+002	-1.3817028E+000	-3.132370855730023E+002	4.3280056E-001	-1.3816065E+000	0
4.4105024E+000	1.227581971053587E+002	-1.3828943E+000	-3.135457364318390E+002	4.3360060E-001	-1.3827156E+000	0
4.3535304E+000	1.227995971043129E+002	-1.3831835E+000	-3.177153518723762E+002	4.3945864E-001	-1.3831289E+000	0
4.3083034E+000	1.228607971027668E+002	-1.3838397E+000	-3.212029489922838E+002	4.4449341E-001	-1.3837410E+000	0
4.2921643E+000	1.229515971004730E+002	-1.3847375E+000	-3.226198613541146E+002	4.4674382E-001	-1.3846492E+000	0
4.2942095E+000	1.230722970974239E+002	-1.3860012E+000	-3.227605223345686E+002	4.4734648E-001	-1.3858560E+000	0
4.2478352E+000	1.231535970953701E+002	-1.3867607E+000	-3.264629116986580E+002	4.5272595E-001	-1.3866693E+000	0
4.2291174E+000	1.231950970943217E+002	-1.3871642E+000	-3.280032366341521E+002	4.5499435E-001	-1.3870845E+000	0
4.2351580E+000	1.232266970935234E+002	-1.3875731E+000	-3.276319519436574E+002	4.5461330E-001	-1.3873998E+000	0
4.2677178E+000	1.232682970924725E+002	-1.3879318E+000	-3.252163917930147E+002	4.5137817E-001	-1.3878155E+000	0
4.2512264E+000	1.233097970914241E+002	-1.3883120E+000	-3.265674128924819E+002	4.5337746E-001	-1.3882313E+000	0
4.2351389E+000	1.233413970906258E+002	-1.3887078E+000	-3.279013612273593E+002	4.5535916E-001	-1.3885469E+000	0
4.1923976E+000	1.233928970893248E+002	-1.3892092E+000	-3.313638981195463E+002	4.6033376E-001	-1.3890617E+000	0
4.2229118E+000	1.234837970870285E+002	-1.3901292E+000	-3.291873729089739E+002	4.5761299E-001	-1.3899708E+000	0
4.2382598E+000	1.235350970857326E+002	-1.3906164E+000	-3.281102304769721E+002	4.5627546E-001	-1.3904846E+000	0
4.2282834E+000	1.236158970836914E+002	-1.3913897E+000	-3.290672697180498E+002	4.5786083E-001	-1.3912921E+000	0
4.2204876E+000	1.236969970816426E+002	-1.3921938E+000	-3.298656305020454E+002	4.5923689E-001	-1.3921032E+000	0
4.1653666E+000	1.237978970790937E+002	-1.3932431E+000	-3.344826918377153E+002	4.6601570E-001	-1.3931127E+000	0
4.1473112E+000	1.239084970762997E+002	-1.3943061E+000	-3.361951735132870E+002	4.6875897E-001	-1.3942182E+000	0
4.0928478E+000	1.239794970745061E+002	-1.3950214E+000	-3.408437141290415E+002	4.7548428E-001	-1.3949279E+000	0
4.0774169E+000	1.240407970729575E+002	-1.3957423E+000	-3.423104395427536E+002	4.7777715E-001	-1.3955413E+000	0
4.0593700E+000	1.241515970701585E+002	-1.3967700E+000	-3.440853904069611E+002	4.8060817E-001	-1.3966501E+000	0
4.0535054E+000	1.242229970683547E+002	-1.3975339E+000	-3.447716868715206E+002	4.8183012E-001	-1.3973631E+000	0
4.0334969E+000	1.243040970663060E+002	-1.3983771E+000	-3.466910129524574E+002	4.8480475E-001	-1.3981748E+000	0
3.9959486E+000	1.244046970637646E+002	-1.3993176E+000	-3.501840879796869E+002	4.9001876E-001	-1.3991797E+000	0
3.9894509E+000	1.244857970617159E+002	-1.4001088E+000	-3.509527528044068E+002	4.9137205E-001	-1.3999909E+000	0
3.8887479E+000	1.245667970596696E+002	-1.4009477E+000	-3.602567415310980E+002	5.0470084E-001	-1.4008012E+000	0
3.8335948E+000	1.246181970583712E+002	-1.4014175E+000	-3.655622291755162E+002	5.1230532E-001	-1.4013149E+000	0
3.8287261E+000	1.246300970580705E+002	-1.4015501E+000	-3.660617306762260E+002	5.1305383E-001	-1.4014339E+000	0
3.8095379E+000	1.247011970562744E+002	-1.4022777E+000	-3.680965419746390E+002	5.1617360E-001	-1.4021453E+000	0
3.8182220E+000	1.247820970542307E+002	-1.4031215E+000	-3.674803246449819E+002	5.1561952E-001	-1.4029542E+000	0
3.7988605E+000	1.248927970514342E+002	-1.4041902E+000	-3.696345768988581E+002	5.1903725E-001	-1.4040611E+000	0
3.8132269E+000	1.250036970486326E+002	-1.4052948E+000	-3.685316310454646E+002	5.1789558E-001	-1.4051707E+000	0
3.8420370E+000	1.250352970478343E+002	-1.4056381E+000	-3.658575060963635E+002	5.1426327E-001	-1.4054857E+000	0
3.8439674E+000	1.250372970477838E+002	-1.4055806E+000	-3.656588268412479E+002	5.1396298E-001	-1.4055059E+000	0
3.8475354E+000	1.250589970472356E+002	-1.4058120E+000	-3.653798784637370E+002	5.1365542E-001	-1.4057229E+000	0
3.8081112E+000	1.251400970451868E+002	-1.4066752E+000	-3.693892280845062E+002	5.1961070E-001	-1.4065344E+000	0
3.8277993E+000	1.252508970423878E+002	-1.4077392E+000	-3.677672386643794E+002	5.1772034E-001	-1.4076421E+000	0
3.8750985E+000	1.253319970403390E+002	-1.4085969E+000	-3.634996295688279E+002	5.1202446E-001	-1.4084530E+000	0
3.8986385E+000	1.254230970380377E+002	-1.4095206E+000	-3.615417563535257E+002	5.0960058E-001	-1.4093637E+000	0
3.8930032E+000	1.254942970362390E+002	-1.4101800E+000	-3.622344777070039E+002	5.1081580E-001	-1.4100759E+000	0
3.8912311E+000	1.256050970334400E+002	-1.4113333E+000	-3.626958326435038E+002	5.1188469E-001	-1.4111845E+000	0
3.8370664E+000	1.256961970311386E+002	-1.4122305E+000	-3.680495297978466E+002	5.1977074E-001	-1.4120953E+000	0
3.7933435E+000	1.257476970298376E+002	-1.4127281E+000	-3.724229270003534E+002	5.2613235E-001	-1.4126098E+000	0
3.7713060E+000	1.257889970287943E+002	-1.4132367E+000	-3.747340459295633E+002	5.2958792E-001	-1.4130230E+000	0
3.7530773E+000	1.258502970272457E+002	-1.4137871E+000	-3.767007748018438E+002	5.3257471E-001	-1.4136360E+000	0
3.7915876E+000	1.259411970249494E+002	-1.4147420E+000	-3.731265516009339E+002	5.2787781E-001	-1.4145446E+000	0
3.7567115E+000	1.260322970226480E+002	-1.4156004E+000	-3.768190337884284E+002	5.3342521E-001	-1.4154562E+000	0
3.7376492E+000	1.261330970201016E+002	-1.4166524E+000	-3.790223064955721E+002	5.3694290E-001	-1.4164642E+000	0
3.7139072E+000	1.261746970190507E+002	-1.4170479E+000	-3.815517595079201E+002	5.4067713E-001	-1.4168799E+000	0
3.7065578E+000	1.261964970184999E+002	-1.4172765E+000	-3.823700045652022E+002	5.4192400E-001	-1.4170974E+000	0
3.7013490E+000	1.262281970176991E+002	-1.4176774E+000	-3.830164046518203E+002	5.4299372E-001	-1.4174147E+000	0
3.6817553E+000	1.262697970166482E+002	-1.4179751E+000	-3.851356059054688E+002	5.4611272E-001	-1.4178308E+000	0
3.6813257E+000	1.263311970150971E+002	-1.4186755E+000	-3.853708402450957E+002	5.4671621E-001	-1.4184449E+000	0
3.6908751E+000	1.263627970142988E+002	-1.4189473E+000	-3.844474106756425E+002	5.4551065E-001	-1.4187610E+000	0
3.6532476E+000	1.264436970122551E+002	-1.4197401E+000	-3.886241156706436E+002	5.5174524E-001	-1.4195704E+000	0
3.6296797E+000	1.265345970099588E+002	-1.4206676E+000	-3.914030342508067E+002	5.5605364E-001	-1.4204793E+000	0
3.5790198E+000	1.265662970091580E+002	-1.4209968E+000	-3.970351869662596E+002	5.6418574E-001	-1.4207959E+000	0
3.5573001E+000	1.265781970088574E+002	-1.4210696E+000	-3.994798263145027E+002	5.6768864E-001	-1.4209148E+000	0
3.5739424E+000	1.266591970068112E+002	-1.4219115E+000	-3.978551772182173E+002	5.6571484E-001	-1.4217250E+000	0
3.5832713E+000	1.267304970050100E+002	-1.4226584E+000	-3.970278362263698E+002	5.6483501E-001	-1.4224375E+000	0
3.5685873E+000	1.267720970039591E+002	-1.4231110E+000	-3.987883331564351E+002	5.6752002E-001	-1.4228535E+000	0
3.5588479E+000	1.268333970024105E+002	-1.4236715E+000	-4.000371823314699E+002	5.6952155E-001	-1.4234674E+000	0
3.5651374E+000	1.269245970001066E+002	-1.4245788E+000	-3.995859409605621E+002	5.6924164E-001	-1.4243791E+000	0
3.5805588E+000	1.270256969975526E+002	-1.4255996E+000	-3.981500212509361E+002	5.6760252E-001	-1.4253901E+000	0
3.6306593E+000	1.270772969962491E+002	-1.4261221E+000	-3.927997380163938E+002	5.6018037E-001	-1.4259057E+000	0
3.6305392E+000	1.271186969952032E+002	-1.4265144E+000	-3.929208172087865E+002	5.6050718E-001	-1.4263201E+000	0
3.6370945E+000	1.271995969931595E+002	-1.4273574E+000	-3.924444186198925E+002	5.6015843E-001	-1.4271294E+000	0
3.6444094E+000	1.272310969923637E+002	-1.4277174E+000	-3.917555107793723E+002	5.5931616E-001	-1.4274447E+000	0
3.6221447E+000	1.272526969918181E+002	-1.4278638E+000	-3.942039787418368E+002	5.6286961E-001	-1.4276605E+000	0
3.6030767E+000	1.273239969900169E+002	-1.4285575E+000	-3.964826791021897E+002	5.6639832E-001	-1.4283730E+000	0
3.6107321E+000	1.274445969869703E+002	-1.4297860E+000	-3.959823012733111E+002	5.6616992E-001	-1.4295794E+000	0
3.6606195E+000	1.275157969851716E+002	-1.4305040E+000	-3.907819383389733E+002	5.5901510E-001	-1.4302911E+000	0
3.6541445E+000	1.275672969838706E+002	-1.4310030E+000	-3.916109488775401E+002	5.6039643E-001	-1.4308058E+000	0
3.6442127E+000	1.276484969818193E+002	-1.4317448E+000	-3.928817867192547E+002	5.6250644E-001	-1.4316180E+000	0
3.6396818E+000	1.277693969787651E+002	-1.4330331E+000	-3.937248192913239E+002	5.6422073E-001	-1.4328276E+000	0
3.6238170E+000	1.279001969754609E+002	-1.4343212E+000	-3.958039872691016E+002	5.6771004E-001	-1.4341356E+000	0
3.5816493E+000	1.279911969731620E+002	-1.4352148E+000	-4.007133819105620E+002	5.7510978E-001	-1.4350449E+000	0
3.5623746E+000	1.280425969718635E+002	-1.4356558E+000	-4.030052958318483E+002	5.7857692E-001	-1.4355589E+000	0
3.5566494E+000	1.280840969708152E+002	-1.4361233E+000	-4.037854446983947E+002	5.7988566E-001	-1.4359746E+000	0
3.5394473E+000	1.281454969692641E+002	-1.4366895E+000	-4.059078613551196E+002	5.8316356E-001	-1.4365889E+000	0
3.5022180E+000	1.282167969674629E+002	-1.4374598E+000	-4.104427027950787E+002	5.8999491E-001	-1.4373014E+000	0
3.4754229E+000	1.282581969664170E+002	-1.4379041E+000	-4.137350151974777E+002	5.9491128E-001	-1.4377149E+000	0
3.4714596E+000	1.283094969651211E+002	-1.4384570E+000	-4.143666173019637E+002	5.9604859E-001	-1.4382280E+000	0
3.4648962E+000	1.284100969625797E+002	-1.4394433E+000	-4.154362028017131E+002	5.9799689E-001	-1.4392343E+000	0
3.4742229E+000	1.284711969610362E+002	-1.4400625E+000	-4.144991782429731E+002	5.9690475E-001	-1.4398445E+000	0
3.4742854E+000	1.285027969602379E+002	-1.4402909E+000	-4.145574558677617E+002	5.9708333E-001	-1.4401612E+000	0
3.4957345E+000	1.285343969594396E+002	-1.4406871E+000	-4.121271535986107E+002	5.9374624E-001	-1.4404767E+000	0
3.4852269E+000	1.285660969586388E+002	-1.4409969E+000	-4.134585552967887E+002	5.9579247E-001	-1.4407935E+000	0
3.5202353E+000	1.286175969573378E+002	-1.4414679E+000	-4.094805346793351E+002	5.9025306E-001	-1.4413089E+000	0
3.5311556E+000	1.286887969555391E+002	-1.4422102E+000	-4.084244253153993E+002	5.8903384E-001	-1.4420210E+000	0
3.5281498E+000	1.287894969529953E+002	-1.4432119E+000	-4.090562882800677E+002	5.9035492E-001	-1.4430276E+000	0
3.5206172E+000	1.288706969509440E+002	-1.4440026E+000	-4.101561041962723E+002	5.9226650E-001	-1.4438396E+000	0
3.5224838E+000	1.289516969488977E+002	-1.4448878E+000	-4.101900209401374E+002	5.9267855E-001	-1.4446502E+000	0
3.5538666E+000	1.290029969476018E+002	-1.4453452E+000	-4.066965182141230E+002	5.8781683E-001	-1.4451624E+000	0
3.5285454E+000	1.290641969460557E+002	-1.4459351E+000	-4.097822089014371E+002	5.9251851E-001	-1.4457750E+000	0
3.4533889E+000	1.291646969435169E+002	-1.4470048E+000	-4.190100739688298E+002	6.0630959E-001	-1.4467803E+000	0
3.4382310E+000	1.292653969409730E+002	-1.4479499E+000	-4.211322222377139E+002	6.0977834E-001	-1.4477867E+000	0
3.4382575E+000	1.293365969391743E+002	-1.4486778E+000	-4.213406958347136E+002	6.1038691E-001	-1.4484992E+000	0
3.4290454E+000	1.294175969371281E+002	-1.4495271E+000	-4.227202962185929E+002	6.1274457E-001	-1.4493089E+000	0
3.4282904E+000	1.294986969350794E+002	-1.4502974E+000	-4.230380839419363E+002	6.1353099E-001	-1.4501196E+000	0
3.4193270E+000	1.295700969332756E+002	-1.4510028E+000	-4.243533480104925E+002	6.1573792E-001	-1.4508339E+000	0
3.3481772E+000	1.296613969309692E+002	-1.4519566E+000	-4.336558527250203E+002	6.2964952E-001	-1.4517468E+000	0
3.3087716E+000	1.297227969294181E+002	-1.4525739E+000	-4.390069960006667E+002	6.3769013E-001	-1.4523615E+000	0
3.2618043E+000	1.297839969278721E+002	-1.4531757E+000	-4.455128229789902E+002	6.4740837E-001	-1.4529731E+000	0
3.2525277E+000	1.298648969258284E+002	-1.4540286E+000	-4.470457198539475E+002	6.5001726E-001	-1.4537817E+000	0
3.2556713E+000	1.299262969242773E+002	-1.4546117E+000	-4.467931621197076E+002	6.4991057E-001	-1.4543958E+000	0
3.2728961E+000	1.299777969229763E+002	-1.4550991E+000	-4.445906991041680E+002	6.4692354E-001	-1.4549109E+000	0
3.2568076E+000	1.300192969219279E+002	-1.4555541E+000	-4.469266723991695E+002	6.5052599E-001	-1.4553260E+000	0
3.2746439E+000	1.301103969196265E+002	-1.4563999E+000	-4.447506306936266E+002	6.4773476E-001	-1.4562370E+000	0
3.2606027E+000	1.301619969183230E+002	-1.4569051E+000	-4.468208005888061E+002	6.5097553E-001	-1.4567529E+000	0
3.2414942E+000	1.301738969180224E+002	-1.4570912E+000	-4.495122211906655E+002	6.5498030E-001	-1.4568719E+000	0
3.2273355E+000	1.302448969162288E+002	-1.4577423E+000	-4.516860222149217E+002	6.5844184E-001	-1.4575825E+000	0
3.3062565E+000	1.303554969134348E+002	-1.4588904E+000	-4.412514437568971E+002	6.4373749E-001	-1.4586884E+000	0
3.3863645E+000	1.303968969123889E+002	-1.4593124E+000	-4.309378012352527E+002	6.2887287E-001	-1.4591018E+000	0
3.3974524E+000	1.304186969118382E+002	-1.4595433E+000	-4.295993462919942E+002	6.2701887E-001	-1.4593194E+000	0
3.3592503E+000	1.304897969100421E+002	-1.4602588E+000	-4.346978425060236E+002	6.3477135E-001	-1.4600312E+000	0
3.3082097E+000	1.305903969075007E+002	-1.4612056E+000	-4.416907595349676E+002	6.4540100E-001	-1.4610370E+000	0
3.2627361E+000	1.306811969052069E+002	-1.4621395E+000	-4.481329479323940E+002	6.5523291E-001	-1.4619455E+000	0
3.2586396E+000	1.308020969021527E+002	-1.4633269E+000	-4.490606894403372E+002	6.5712261E-001	-1.4631546E+000	0
3.2475562E+000	1.309131968993461E+002	-1.4644784E+000	-4.509478229417437E+002	6.6040331E-001	-1.4642657E+000	0
3.1986172E+000	1.309547968982952E+002	-1.4649391E+000	-4.579913947209233E+002	6.7092949E-001	-1.4646807E+000	0
3.1977835E+000	1.309961968972493E+002	-1.4653454E+000	-4.582378323536104E+002	6.7147666E-001	-1.4650949E+000	0
3.2390704E+000	1.310375968962035E+002	-1.4657354E+000	-4.525173268122307E+002	6.6327065E-001	-1.4655093E+000	0
3.2321250E+000	1.311281968939147E+002	-1.4666269E+000	-4.537655263184747E+002	6.6550469E-001	-1.4664149E+000	0
3.2274933E+000	1.312191968916159E+002	-1.4675434E+000	-4.547006654876250E+002	6.6729295E-001	-1.4673247E+000	0
3.1937146E+000	1.312904968898147E+002	-1.4682708E+000	-4.597376303792407E+002	6.7501932E-001	-1.4680381E+000	0
3.1299627E+000	1.314409968860127E+002	-1.4697241E+000	-4.695659932809085E+002	6.9013244E-001	-1.4695445E+000	0
3.1091344E+000	1.316409968809603E+002	-1.4717783E+000	-4.733723346511242E+002	6.9669914E-001	-1.4715444E+000	0
3.1392016E+000	1.318409968759079E+002	-1.4737297E+000	-4.694600413056460E+002	6.9185722E-001	-1.4735445E+000	0
3.0894380E+000	1.320409968708555E+002	-1.4757371E+000	-4.776717039873784E+002	7.0491785E-001	-1.4755445E+000	0
3.0361464E+000	1.322409968658030E+002	-1.4777418E+000	-4.867162711171604E+002	7.1924102E-001	-1.4775444E+000	0
3.0571504E+000	1.324409968607506E+002	-1.4797823E+000	-4.840397737896637E+002	7.1627349E-001	-1.4795445E+000	0
3.0695252E+000	1.326409968556982E+002	-1.4817491E+000	-4.827290525977041E+002	7.1528333E-001	-1.4815446E+000	0
3.0002425E+000	1.328409968506458E+002	-1.4838301E+000	-4.945700552371627E+002	7.3385793E-001	-1.4835445E+000	0
2.9854441E+000	1.330409968455933E+002	-1.4858186E+000	-4.976876431246728E+002	7.3947358E-001	-1.4855444E+000	0
3.0330849E+000	1.332409968405409E+002	-1.4878074E+000	-4.905261483354625E+002	7.2980845E-001	-1.4875444E+000	0
2.9879065E+000	1.334409968354885E+002	-1.4898070E+000	-4.986123454641038E+002	7.4283618E-001	-1.4895445E+000	0
2.9625385E+000	1.336409968304361E+002	-1.4918150E+000	-5.035596795244292E+002	7.5121784E-001	-1.4915446E+000	0
2.9526327E+000	1.338409968253836E+002	-1.4937783E+000	-5.059140691476086E+002	7.5572348E-001	-1.4935445E+000	0
2.8971887E+000	1.340409968203312E+002	-1.4958138E+000	-5.162983961732489E+002	7.7228630E-001	-1.4955444E+000	0
2.8492701E+000	1.342409968152788E+002	-1.4978168E+000	-5.256843858230127E+002	7.8737891E-001	-1.4975445E+000	0
2.8331859E+000	1.344409968102264E+002	-1.4998412E+000	-5.293832483053766E+002	7.9399079E-001	-1.4995445E+000	0
2.8848438E+000	1.346409968051739E+002	-1.5018523E+000	-5.206009071549070E+002	7.8186566E-001	-1.5015445E+000	0
2.9029875E+000	1.348409968001215E+002	-1.5037811E+000	-5.180115760405315E+002	7.7897602E-001	-1.5035446E+000	0
2.8978674E+000	1.350409967950691E+002	-1.5057573E+000	-5.196087849026662E+002	7.8240472E-001	-1.5055444E+000	0
2.8309021E+000	1.352409967900167E+002	-1.5077844E+000	-5.326161993031019E+002	8.0307037E-001	-1.5075445E+000	0
2.8270111E+000	1.354409967849642E+002	-1.5097510E+000	-5.340449343311539E+002	8.0627483E-001	-1.5095445E+000	0
2.8693104E+000	1.356409967799118E+002	-1.5117648E+000	-5.268738893478621E+002	7.9650939E-001	-1.5115446E+000	0
2.8701982E+000	1.358409967748594E+002	-1.5137721E+000	-5.274103247454368E+002	7.9837906E-001	-1.5135446E+000	0
2.8730695E+000	1.360409967698070E+002	-1.5157791E+000	-5.275817865860422E+002	7.9969746E-001	-1.5155445E+000	0
2.9331124E+000	1.362409967647545E+002	-1.5177869E+000	-5.174663189219791E+002	7.8540361E-001	-1.5175445E+000	0
2.8779504E+000	1.364409967597021E+002	-1.5197754E+000	-5.280756183676149E+002	8.0255634E-001	-1.5195446E+000	0
2.8493779E+000	1.366409967546497E+002	-1.5218077E+000	-5.340841840670510E+002	8.1277341E-001	-1.5215445E+000	0
2.8600256E+000	1.368409967495973E+002	-1.5237646E+000	-5.327800332413235E+002	8.1183136E-001	-1.5235445E+000	0
2.8305221E+000	1.370409967445448E+002	-1.5258293E+000	-5.390628615658284E+002	8.2251793E-001	-1.5255444E+000	0
2.8320417E+000	1.372409967394924E+002	-1.5278119E+000	-5.394736357881345E+002	8.2421422E-001	-1.5275445E+000	0
2.8335183E+000	1.373609967364609E+002	-1.5289605E+000	-5.395978769964095E+002	8.2502383E-001	-1.5287442E+000	0
2.8396511E+000	1.373795967359911E+002	-1.5294632E+000	-5.386095566860465E+002	8.2378346E-001	-1.5290443E+000	0