EC-Lab ASCII FILE
Nb header lines : 63                          

Linear Sweep Voltammetry

Run on channel : 1 (SN 1340)
User : 
Electrode connection : standard
Potential control : Ewe
Ewe ctrl range : min = -5.00 V, max = 5.00 V
Ewe,I filtering : <None>
Safety Limits :
	Do not start on E overload
Channel : Floating
Acquisition started on : 03/09/2026 12:36:38.573
Technique started on : 03/09/2026 12:36:41.411
Loaded Setting File :  NONE
Saved on :
	File : PtPdCoNi_N52magB_flat_3-9_02_LSV_C01.mpr
	Directory : C:\Users\volt\Documents\Platalytix\
	Host : 127.0.0.1
Device : SP-200 (SN 0262)
Address : USB
EC-LAB for windows v11.60 (software)
Internet server v11.60 (firmware)
Command interpretor v11.60 (firmware)
Electrode material : PtPdNiCo
Initial state : 
Electrolyte : KOH (1M)
Comments : Magnet side B, flat position
Cable : standard
Reference electrode : Hg/HgO (0.140 V)
Electrode surface area : 1.000 cm˛
Characteristic mass : 0.001 g
Equivalent Weight : 0.000 g/eq.
Density : 0.000 g/cm3
Volume (V) : 0.001 cmł
Cycle Definition : Charge/Discharge alternance
tR (h:m:s)          0:00:5.0000         
dER/dt (mV/h)       0.0                 
dER (mV)            0                   
dtR (s)             0.0000              
dE/dt               10.000              
dE/dt unit          mV/s                
Ei (V)              -0.200              
vs.                 Eoc                 
EL (V)              -2.500              
vs.                 Eoc                 
record              <I>                 
dI                  0.000               
unit dI             µA                  
tI (s)              0.0000              
step percent        50                  
N                   10                  
E range min (V)     -5.000              
E range max (V)     5.000               
I Range             Auto                
I Range min         Unset               
I Range max         Unset               
I Range init        Unset               
Bandwidth           8                   

Rwe/Ohm	time/s	Ewe/V	<I>/mA	Pwe/W	control/V	error	
0.0000000E+000	2.838400134787662E+000	-1.7630748E-001	0.000000000000000E+000	0.0000000E+000	0.0000000E+000	0
0.0000000E+000	7.838200008482090E+000	-5.0246168E-002	0.000000000000000E+000	0.0000000E+000	-2.4961649E-001	0
2.2182952E+003	8.038200003429665E+000	-2.5154859E-001	-1.133972585201264E-001	2.8524921E-005	-2.5151625E-001	0
1.4981975E+003	8.158200000398210E+000	-2.5278029E-001	-1.687229337341778E-001	4.2649834E-005	-2.5271633E-001	0
1.6956600E+003	8.368199995093164E+000	-2.5484696E-001	-1.502936662696386E-001	3.8301885E-005	-2.5481632E-001	0
1.8717572E+003	8.568199990040739E+000	-2.5686613E-001	-1.372326149123713E-001	3.5250410E-005	-2.5681630E-001	0
2.0167087E+003	8.768199984988314E+000	-2.5886005E-001	-1.283576766730135E-001	3.3226675E-005	-2.5881630E-001	0
2.1412244E+003	8.968199979935889E+000	-2.6089302E-001	-1.218429102061864E-001	3.1787964E-005	-2.6081631E-001	0
2.2506726E+003	9.168199974883464E+000	-2.6284474E-001	-1.167849744437793E-001	3.0696316E-005	-2.6281631E-001	0
2.3480461E+003	9.368199969831039E+000	-2.6484865E-001	-1.127953319282371E-001	2.9873690E-005	-2.6481631E-001	0
2.4404495E+003	9.568199964778614E+000	-2.6690918E-001	-1.093688677329053E-001	2.9191555E-005	-2.6681632E-001	0
2.5242034E+003	9.768199959726189E+000	-2.6887810E-001	-1.065199874962375E-001	2.8640892E-005	-2.6881632E-001	0
2.6044839E+003	9.968199954673764E+000	-2.7083787E-001	-1.039890795513193E-001	2.8164181E-005	-2.7081633E-001	0
2.6805076E+003	1.016819994962134E+001	-2.7288055E-001	-1.018018211911762E-001	2.7779737E-005	-2.7281633E-001	0
2.7532405E+003	1.036819994456891E+001	-2.7492037E-001	-9.985338334129290E-002	2.7451730E-005	-2.7481630E-001	0
2.8259395E+003	1.056819993951649E+001	-2.7682135E-001	-9.795728053152053E-002	2.7116666E-005	-2.7681634E-001	0
2.8968762E+003	1.076819993446406E+001	-2.7885705E-001	-9.626129128423233E-002	2.6843139E-005	-2.7881631E-001	0
2.9646035E+003	1.096819992941164E+001	-2.8086650E-001	-9.473999122383647E-002	2.6609290E-005	-2.8081632E-001	0
3.0310317E+003	1.116819992435921E+001	-2.8285766E-001	-9.332058922748754E-002	2.6396443E-005	-2.8281632E-001	0
3.0977458E+003	1.136819991930679E+001	-2.8489339E-001	-9.196796731774137E-002	2.6201067E-005	-2.8481632E-001	0
3.1625544E+003	1.156819991425436E+001	-2.8686824E-001	-9.070776579711504E-002	2.6021178E-005	-2.8681633E-001	0
3.2268774E+003	1.176819990920194E+001	-2.8885582E-001	-8.951558581713881E-002	2.5857098E-005	-2.8881633E-001	0
3.2908928E+003	1.196819990414951E+001	-2.9085162E-001	-8.838076547554774E-002	2.5705689E-005	-2.9081631E-001	0
3.3554299E+003	1.216819989909709E+001	-2.9292068E-001	-8.729750827396210E-002	2.5571246E-005	-2.9281631E-001	0
3.4176003E+003	1.236819989404466E+001	-2.9486707E-001	-8.627898144311885E-002	2.5440830E-005	-2.9481632E-001	0
3.4813987E+003	1.256819988899224E+001	-2.9691511E-001	-8.528615783714177E-002	2.5322750E-005	-2.9681632E-001	0
3.5435764E+003	1.276819988393981E+001	-2.9885599E-001	-8.433738843138716E-002	2.5204734E-005	-2.9881629E-001	0
3.6027979E+003	1.296819987888739E+001	-3.0089575E-001	-8.351724491298396E-002	2.5129984E-005	-3.0081633E-001	0
3.6643213E+003	1.316819987383496E+001	-3.0287421E-001	-8.265492512027217E-002	2.5034045E-005	-3.0281633E-001	0
3.7233689E+003	1.336819986878254E+001	-3.0486366E-001	-8.187844481291739E-002	2.4961762E-005	-3.0481631E-001	0
3.7864805E+003	1.356819986373011E+001	-3.0680284E-001	-8.102586056167022E-002	2.4858964E-005	-3.0681634E-001	0
3.8491467E+003	1.376819985867769E+001	-3.0886829E-001	-8.024331405463170E-002	2.4784615E-005	-3.0881631E-001	0
3.9109597E+003	1.396819985362527E+001	-3.1087157E-001	-7.948728749642597E-002	2.4710338E-005	-3.1081632E-001	0
3.9704929E+003	1.416819984857284E+001	-3.1287163E-001	-7.879919360989440E-002	2.4654033E-005	-3.1281632E-001	0
4.0284900E+003	1.436819984352042E+001	-3.1486875E-001	-7.816048688836026E-002	2.4610295E-005	-3.1481633E-001	0
4.0861492E+003	1.456819983846799E+001	-3.1684121E-001	-7.754029443037724E-002	2.4567960E-005	-3.1681630E-001	0
4.1447432E+003	1.476819983341557E+001	-3.1889161E-001	-7.693880804404668E-002	2.4535140E-005	-3.1881633E-001	0
4.2052363E+003	1.496819982836314E+001	-3.2088214E-001	-7.630537543815408E-002	2.4485033E-005	-3.2081631E-001	0
4.2623057E+003	1.516819982331072E+001	-3.2283813E-001	-7.574260067944405E-002	2.4452600E-005	-3.2281631E-001	0
4.3212500E+003	1.536819981825829E+001	-3.2488424E-001	-7.518293051463060E-002	2.4425748E-005	-3.2481632E-001	0
4.3811919E+003	1.556819981320587E+001	-3.2687432E-001	-7.460853979867910E-002	2.4387615E-005	-3.2681632E-001	0
4.4388853E+003	1.576819980815344E+001	-3.2893446E-001	-7.410294578628203E-002	2.4375013E-005	-3.2881632E-001	0
4.4957134E+003	1.596819980310102E+001	-3.3086517E-001	-7.359570132931714E-002	2.4350255E-005	-3.3081630E-001	0
4.5500435E+003	1.616819979804859E+001	-3.3289689E-001	-7.316345023255261E-002	2.4355884E-005	-3.3281636E-001	0
4.6056855E+003	1.636819979299617E+001	-3.3491477E-001	-7.271768371711862E-002	2.4354227E-005	-3.3481631E-001	0
4.6644648E+003	1.656819978794374E+001	-3.3692357E-001	-7.223198716338652E-002	2.4336659E-005	-3.3681634E-001	0
4.7230581E+003	1.676819978289132E+001	-3.3887991E-001	-7.175010459628492E-002	2.4314670E-005	-3.3881631E-001	0
4.7703003E+003	1.696819977783889E+001	-3.4084287E-001	-7.145103286157739E-002	2.4353576E-005	-3.4081632E-001	0
4.8260327E+003	1.716819977278647E+001	-3.4284699E-001	-7.104116854154430E-002	2.4356250E-005	-3.4281632E-001	0
4.8785449E+003	1.736819976773404E+001	-3.4488904E-001	-7.069506465780520E-002	2.4381954E-005	-3.4481633E-001	0
4.9315386E+003	1.756819976268162E+001	-3.4690019E-001	-7.034319564024344E-002	2.4402068E-005	-3.4681633E-001	0
4.9833276E+003	1.776819975762919E+001	-3.4889355E-001	-7.001216454767167E-002	2.4426792E-005	-3.4881634E-001	0
5.0300947E+003	1.796819975257677E+001	-3.5080785E-001	-6.974179475661157E-002	2.4465970E-005	-3.5081634E-001	0
5.0844780E+003	1.816819974752434E+001	-3.5288432E-001	-6.940423542910290E-002	2.4491666E-005	-3.5281631E-001	0
5.1347158E+003	1.836819974247192E+001	-3.5491350E-001	-6.912037918910152E-002	2.4531755E-005	-3.5481635E-001	0
5.1847520E+003	1.856819973741949E+001	-3.5690168E-001	-6.883679086008798E-002	2.4567966E-005	-3.5681632E-001	0
5.2330918E+003	1.876819973236707E+001	-3.5891154E-001	-6.858498675488944E-002	2.4615943E-005	-3.5881630E-001	0
5.2783496E+003	1.896819972731464E+001	-3.6084262E-001	-6.836277121242929E-002	2.4668201E-005	-3.6081633E-001	0
5.3223179E+003	1.916819972226222E+001	-3.6287668E-001	-6.818019777067552E-002	2.4741004E-005	-3.6281633E-001	0
5.3677095E+003	1.936819971720979E+001	-3.6481163E-001	-6.796411356715515E-002	2.4794099E-005	-3.6481631E-001	0
5.4066099E+003	1.956819971215737E+001	-3.6683205E-001	-6.784880928781771E-002	2.4889117E-005	-3.6681634E-001	0
5.4553467E+003	1.976819970710494E+001	-3.6888200E-001	-6.761843141045865E-002	2.4943221E-005	-3.6881635E-001	0
5.4929863E+003	1.996819970205252E+001	-3.7080145E-001	-6.750452763172898E-002	2.5030777E-005	-3.7081635E-001	0
5.5378672E+003	2.016819969700009E+001	-3.7286648E-001	-6.733033933746468E-002	2.5105226E-005	-3.7281632E-001	0
5.5773804E+003	2.036819969194767E+001	-3.7490600E-001	-6.721901244118544E-002	2.5200812E-005	-3.7481636E-001	0
5.6143486E+003	2.056819968689524E+001	-3.7682122E-001	-6.711753204046755E-002	2.5291311E-005	-3.7681633E-001	0
5.6551694E+003	2.076819968184282E+001	-3.7885526E-001	-6.699273531492000E-002	2.5380550E-005	-3.7881631E-001	0
5.6913662E+003	2.096819967679039E+001	-3.8084516E-001	-6.691630062057952E-002	2.5484749E-005	-3.8081631E-001	0
5.7289414E+003	2.116819967173797E+001	-3.8285780E-001	-6.682871793060996E-002	2.5585896E-005	-3.8281631E-001	0
5.7639019E+003	2.136819966668554E+001	-3.8484702E-001	-6.676848958744769E-002	2.5695654E-005	-3.8481635E-001	0
5.7942817E+003	2.156819966163312E+001	-3.8682991E-001	-6.676063499816798E-002	2.5825011E-005	-3.8681635E-001	0
5.8250728E+003	2.176819965658069E+001	-3.8886207E-001	-6.675660515113258E-002	2.5959112E-005	-3.8881633E-001	0
5.8608789E+003	2.196819965152827E+001	-3.9086109E-001	-6.668984324960625E-002	2.6066466E-005	-3.9081636E-001	0
5.8927578E+003	2.216819964647584E+001	-3.9289129E-001	-6.667358279090962E-002	2.6195470E-005	-3.9281636E-001	0
5.9253755E+003	2.236819964142342E+001	-3.9485002E-001	-6.663712742104866E-002	2.6311671E-005	-3.9481637E-001	0
5.9497822E+003	2.256819963637099E+001	-3.9686134E-001	-6.670182696100158E-002	2.6471376E-005	-3.9681634E-001	0
5.9766333E+003	2.276819963131857E+001	-3.9888752E-001	-6.674117452460748E-002	2.6622221E-005	-3.9881632E-001	0
6.0038765E+003	2.296819962626614E+001	-4.0081632E-001	-6.675958764462708E-002	2.6758333E-005	-4.0081635E-001	0
6.0382700E+003	2.316819962121372E+001	-4.0290466E-001	-6.672518188133836E-002	2.6883887E-005	-4.0281639E-001	0
6.0637236E+003	2.336819961616129E+001	-4.0486658E-001	-6.676864038251096E-002	2.7032391E-005	-4.0481636E-001	0
6.0846211E+003	2.356819961110887E+001	-4.0687707E-001	-6.686974829115644E-002	2.7207767E-005	-4.0681633E-001	0
6.1063022E+003	2.376819960605644E+001	-4.0891272E-001	-6.696568658235447E-002	2.7383121E-005	-4.0881637E-001	0
6.1339888E+003	2.396819960100402E+001	-4.1092026E-001	-6.699070896079029E-002	2.7527840E-005	-4.1081631E-001	0
6.1544443E+003	2.416819959595159E+001	-4.1286689E-001	-6.708434826426257E-002	2.7696906E-005	-4.1281635E-001	0
6.1762920E+003	2.436819959089917E+001	-4.1490752E-001	-6.717744378674995E-002	2.7872426E-005	-4.1481638E-001	0
6.1951191E+003	2.456819958584674E+001	-4.1692564E-001	-6.729905215586168E-002	2.8058701E-005	-4.1681638E-001	0
6.2163550E+003	2.476819958079432E+001	-4.1885737E-001	-6.737989894285518E-002	2.8222566E-005	-4.1881633E-001	0
6.2392554E+003	2.496819957574189E+001	-4.2087695E-001	-6.745628009195448E-002	2.8390794E-005	-4.2081636E-001	0
6.2619873E+003	2.516819957068947E+001	-4.2293733E-001	-6.754043511887931E-002	2.8565371E-005	-4.2281634E-001	0
6.2777510E+003	2.536819956563704E+001	-4.2489877E-001	-6.768327999106144E-002	2.8758543E-005	-4.2481634E-001	0
6.2981064E+003	2.556819956058462E+001	-4.2689416E-001	-6.778134964723237E-002	2.8935463E-005	-4.2681634E-001	0
6.3189307E+003	2.576819955553219E+001	-4.2893481E-001	-6.788092033933357E-002	2.9116491E-005	-4.2881638E-001	0
6.3363701E+003	2.596819955047977E+001	-4.3092343E-001	-6.800793012859685E-002	2.9306211E-005	-4.3081632E-001	0
6.3471367E+003	2.616819954542734E+001	-4.3284905E-001	-6.819595268382650E-002	2.9518553E-005	-4.3281636E-001	0
6.3654629E+003	2.636819954037492E+001	-4.3492275E-001	-6.832539500634871E-002	2.9716270E-005	-4.3481633E-001	0
6.3897393E+003	2.656819953532249E+001	-4.3691689E-001	-6.837789172120790E-002	2.9875455E-005	-4.3681636E-001	0
6.4000811E+003	2.676819953027007E+001	-4.3893439E-001	-6.858263096704564E-002	3.0103274E-005	-4.3881634E-001	0
6.4201641E+003	2.696819952521764E+001	-4.4095123E-001	-6.868223624795955E-002	3.0285517E-005	-4.4081631E-001	0
6.4343491E+003	2.716819952016522E+001	-4.4288573E-001	-6.883147279858648E-002	3.0484476E-005	-4.4281635E-001	0
6.4470664E+003	2.736819951511279E+001	-4.4493398E-001	-6.901340198791794E-002	3.0706407E-005	-4.4481635E-001	0
6.4601079E+003	2.756819951006037E+001	-4.4692561E-001	-6.918237345555002E-002	3.0919375E-005	-4.4681635E-001	0
6.4823916E+003	2.776819950500794E+001	-4.4892612E-001	-6.925316351041366E-002	3.1089556E-005	-4.4881636E-001	0
6.5027349E+003	2.796819949995552E+001	-4.5091668E-001	-6.934262178215267E-002	3.1267744E-005	-4.5081636E-001	0
6.5079756E+003	2.816819949490309E+001	-4.5287961E-001	-6.958839908303427E-002	3.1515166E-005	-4.5281631E-001	0
6.5337285E+003	2.836819948985067E+001	-4.5494142E-001	-6.962968174858086E-002	3.1677428E-005	-4.5481634E-001	0
6.5429121E+003	2.856819948479824E+001	-4.5692408E-001	-6.983497224974111E-002	3.1909280E-005	-4.5681638E-001	0
6.5628765E+003	2.876819947974582E+001	-4.5895302E-001	-6.993168493143598E-002	3.2095359E-005	-4.5881635E-001	0
6.5791616E+003	2.896819947469339E+001	-4.6089774E-001	-7.005417514793033E-002	3.2287811E-005	-4.6081632E-001	0
6.5954761E+003	2.916819946964097E+001	-4.6293750E-001	-7.019015598161560E-002	3.2493655E-005	-4.6281636E-001	0
6.6057446E+003	2.936819946458854E+001	-4.6486923E-001	-7.037347700666508E-002	3.2714463E-005	-4.6481633E-001	0
6.6252021E+003	2.956819945953612E+001	-4.6691430E-001	-7.047547889258809E-002	3.2906009E-005	-4.6681634E-001	0
6.6390420E+003	2.976819945448369E+001	-4.6891695E-001	-7.063021360740251E-002	3.3119704E-005	-4.6881637E-001	0
6.6629834E+003	2.996819944943127E+001	-4.7091788E-001	-7.067672880799344E-002	3.3282937E-005	-4.7081637E-001	0
6.6812227E+003	3.016819944437884E+001	-4.7288465E-001	-7.077815910577434E-002	3.3469907E-005	-4.7281632E-001	0
6.6969956E+003	3.036819943932642E+001	-4.7488776E-001	-7.091056693676867E-002	3.3674562E-005	-4.7481635E-001	0
6.7163208E+003	3.056819943427399E+001	-4.7689179E-001	-7.100491227884094E-002	3.3861659E-005	-4.7681639E-001	0
6.7386118E+003	3.076819942922157E+001	-4.7895387E-001	-7.107604246759730E-002	3.4042147E-005	-4.7881633E-001	0
6.7624189E+003	3.096819942416914E+001	-4.8095840E-001	-7.112224383993503E-002	3.4206842E-005	-4.8081633E-001	0
6.7769131E+003	3.116819941911672E+001	-4.8284432E-001	-7.124841433069129E-002	3.4401892E-005	-4.8281637E-001	0
6.8046299E+003	3.136819941406429E+001	-4.8492017E-001	-7.126327109250696E-002	3.4556997E-005	-4.8481640E-001	0
6.8260068E+003	3.156819940901187E+001	-4.8691320E-001	-7.133207344946335E-002	3.4732529E-005	-4.8681635E-001	0
6.8474751E+003	3.176819940395944E+001	-4.8889124E-001	-7.139730378679171E-002	3.4905515E-005	-4.8881632E-001	0
6.8748931E+003	3.196819939890702E+001	-4.9093440E-001	-7.140975266319083E-002	3.5057503E-005	-4.9081635E-001	0
6.9025757E+003	3.216819939385459E+001	-4.9288914E-001	-7.140655068853807E-002	3.5195513E-005	-4.9281633E-001	0
6.9265469E+003	3.236819938880217E+001	-4.9488577E-001	-7.144769108505744E-002	3.5358447E-005	-4.9481636E-001	0
6.9536460E+003	3.256819938374974E+001	-4.9693403E-001	-7.146380795165905E-002	3.5512800E-005	-4.9681640E-001	0
6.9859644E+003	3.276819937869732E+001	-4.9888980E-001	-7.141316087511052E-002	3.5627298E-005	-4.9881637E-001	0
7.0107031E+003	3.296819937364489E+001	-5.0090539E-001	-7.144866645802850E-002	3.5789024E-005	-5.0081635E-001	0
7.0481353E+003	3.316819936859247E+001	-5.0290143E-001	-7.135240987150193E-002	3.5883229E-005	-5.0281638E-001	0
7.0640728E+003	3.336819936354004E+001	-5.0493181E-001	-7.147885088137265E-002	3.6091944E-005	-5.0481635E-001	0
7.1119619E+003	3.356819935848762E+001	-5.0688988E-001	-7.127285975690478E-002	3.6127491E-005	-5.0681633E-001	0
7.1328193E+003	3.376819935343519E+001	-5.0895727E-001	-7.135429244294189E-002	3.6316287E-005	-5.0881636E-001	0
7.1689258E+003	3.396819934838277E+001	-5.1091003E-001	-7.126730916252932E-002	3.6411184E-005	-5.1081640E-001	0
7.2028896E+003	3.416819934333034E+001	-5.1294357E-001	-7.121358060514513E-002	3.6528549E-005	-5.1281637E-001	0
7.2332114E+003	3.436819933827792E+001	-5.1493269E-001	-7.119005264306794E-002	3.6658086E-005	-5.1481634E-001	0
7.2681353E+003	3.456819933322549E+001	-5.1692361E-001	-7.112190293997156E-002	3.6764592E-005	-5.1681638E-001	0
7.3050366E+003	3.476819932817307E+001	-5.1892579E-001	-7.103671079930235E-002	3.6862781E-005	-5.1881641E-001	0
7.3511411E+003	3.496819932312064E+001	-5.2095205E-001	-7.086682526812882E-002	3.6918216E-005	-5.2081633E-001	0
7.3862324E+003	3.516819931806822E+001	-5.2288824E-001	-7.079228171825280E-002	3.7016453E-005	-5.2281630E-001	0
7.4218452E+003	3.536819931301579E+001	-5.2490503E-001	-7.072432853425070E-002	3.7123555E-005	-5.2481639E-001	0
7.4629761E+003	3.556819930796337E+001	-5.2691472E-001	-7.060383110150870E-002	3.7202197E-005	-5.2681631E-001	0
7.5047124E+003	3.576819930291094E+001	-5.2895641E-001	-7.048323598337658E-002	3.7282560E-005	-5.2881634E-001	0
7.5576909E+003	3.596819929785852E+001	-5.3095222E-001	-7.025323031879852E-002	3.7301110E-005	-5.3081632E-001	0
7.5967974E+003	3.616819929280609E+001	-5.3288269E-001	-7.014570260935749E-002	3.7379432E-005	-5.3281641E-001	0
7.6304619E+003	3.636819928775367E+001	-5.3497577E-001	-7.011053635783110E-002	3.7507438E-005	-5.3481632E-001	0
7.6766616E+003	3.656819928270124E+001	-5.3687781E-001	-6.993636716835128E-002	3.7547285E-005	-5.3681636E-001	0
7.7225415E+003	3.676819927764882E+001	-5.3887808E-001	-6.977988902612475E-002	3.7602851E-005	-5.3881639E-001	0
7.7722402E+003	3.696819927259639E+001	-5.4089707E-001	-6.959345883187179E-002	3.7642898E-005	-5.4081637E-001	0
7.8253672E+003	3.716819926754397E+001	-5.4294193E-001	-6.938229512704137E-002	3.7670558E-005	-5.4281634E-001	0
7.8677222E+003	3.736819926249154E+001	-5.4488367E-001	-6.925558225228484E-002	3.7736234E-005	-5.4481637E-001	0
7.9162476E+003	3.756819925743912E+001	-5.4690766E-001	-6.908673062379952E-002	3.7784062E-005	-5.4681635E-001	0
7.9667646E+003	3.776819925238669E+001	-5.4895020E-001	-6.890503394094372E-002	3.7825434E-005	-5.4881638E-001	0
8.0156592E+003	3.796819924733427E+001	-5.5092287E-001	-6.873082408423861E-002	3.7865382E-005	-5.5081636E-001	0
8.0681323E+003	3.816819924228184E+001	-5.5296141E-001	-6.853648443556404E-002	3.7898029E-005	-5.5281639E-001	0
8.1147646E+003	3.836819923722942E+001	-5.5487937E-001	-6.837898446722143E-002	3.7942089E-005	-5.5481637E-001	0
8.1744473E+003	3.856819923217699E+001	-5.5692196E-001	-6.812961535293893E-002	3.7942878E-005	-5.5681634E-001	0
8.2276172E+003	3.876819922712457E+001	-5.5890948E-001	-6.793090214006736E-002	3.7967224E-005	-5.5881637E-001	0
8.2844297E+003	3.896819922207214E+001	-5.6089526E-001	-6.770475336789772E-002	3.7975275E-005	-5.6081635E-001	0
8.3312734E+003	3.916819921701972E+001	-5.6294191E-001	-6.756973387768528E-002	3.8037833E-005	-5.6281632E-001	0
8.3805303E+003	3.936819921196729E+001	-5.6494254E-001	-6.741130917782856E-002	3.8083515E-005	-5.6481636E-001	0
8.4414775E+003	3.956819920691487E+001	-5.6691682E-001	-6.715848358176957E-002	3.8073274E-005	-5.6681639E-001	0
8.4925576E+003	3.976819920186244E+001	-5.6886506E-001	-6.698395185861006E-002	3.8104830E-005	-5.6881636E-001	0
8.5480654E+003	3.996819919681002E+001	-5.7089978E-001	-6.678701855998265E-002	3.8128695E-005	-5.7081634E-001	0
8.6147822E+003	4.016819919175759E+001	-5.7289559E-001	-6.650145572099131E-002	3.8098391E-005	-5.7281637E-001	0
8.6619502E+003	4.036819918670517E+001	-5.7492030E-001	-6.637307930929931E-002	3.8159229E-005	-5.7481635E-001	0
8.7249336E+003	4.056819918165274E+001	-5.7689029E-001	-6.611973551353278E-002	3.8143833E-005	-5.7681632E-001	0
8.7750410E+003	4.076819917660032E+001	-5.7888955E-001	-6.597000881586057E-002	3.8189348E-005	-5.7881635E-001	0
8.8389180E+003	4.096819917154789E+001	-5.8092946E-001	-6.572404352139249E-002	3.8181031E-005	-5.8081639E-001	0
8.8972949E+003	4.116819916649547E+001	-5.8286697E-001	-6.551057993024700E-002	3.8183953E-005	-5.8281636E-001	0
8.9528574E+003	4.136819916144304E+001	-5.8491206E-001	-6.533244497759383E-002	3.8213737E-005	-5.8481640E-001	0
9.0028984E+003	4.156819915639062E+001	-5.8689386E-001	-6.518943082644713E-002	3.8259277E-005	-5.8681637E-001	0
9.0657764E+003	4.176819915133819E+001	-5.8889437E-001	-6.495796641769935E-002	3.8253380E-005	-5.8881640E-001	0
9.1288232E+003	4.196819914628577E+001	-5.9088320E-001	-6.472720450863156E-002	3.8246217E-005	-5.9081632E-001	0
9.1691738E+003	4.216819914123334E+001	-5.9292126E-001	-6.466463050549498E-002	3.8341033E-005	-5.9281635E-001	0
9.2312295E+003	4.236819913618092E+001	-5.9494621E-001	-6.444928978090381E-002	3.8343860E-005	-5.9481639E-001	0
9.2949219E+003	4.256819913112849E+001	-5.9688854E-001	-6.421662773197834E-002	3.8330170E-005	-5.9681630E-001	0
9.3419287E+003	4.276819912607607E+001	-5.9888691E-001	-6.410741315396451E-002	3.8393089E-005	-5.9881639E-001	0
9.4065547E+003	4.296819912102364E+001	-6.0092181E-001	-6.388330273171827E-002	3.8388869E-005	-6.0081637E-001	0
9.4562100E+003	4.316819911597122E+001	-6.0291708E-001	-6.375884808243071E-002	3.8441300E-005	-6.0281634E-001	0
9.5182480E+003	4.336819911091879E+001	-6.0494488E-001	-6.355632920147614E-002	3.8448077E-005	-6.0481632E-001	0
9.5739482E+003	4.356819910586637E+001	-6.0690975E-001	-6.339179644996801E-002	3.8473099E-005	-6.0681635E-001	0
9.6249092E+003	4.376819910081394E+001	-6.0895419E-001	-6.326856276404746E-002	3.8527658E-005	-6.0881644E-001	0
9.6930010E+003	4.396819909576152E+001	-6.1090058E-001	-6.302491707311253E-002	3.8501959E-005	-6.1081636E-001	0
9.7483359E+003	4.416819909070909E+001	-6.1288708E-001	-6.287094153613776E-002	3.8532788E-005	-6.1281633E-001	0
9.7975400E+003	4.436819908565667E+001	-6.1488926E-001	-6.275955453576276E-002	3.8590177E-005	-6.1481643E-001	0
9.8522705E+003	4.456819908060425E+001	-6.1693543E-001	-6.261860734367097E-002	3.8631639E-005	-6.1681634E-001	0
9.9133047E+003	4.476819907555182E+001	-6.1892241E-001	-6.243350832034611E-002	3.8641498E-005	-6.1881638E-001	0
9.9532373E+003	4.496819907049940E+001	-6.2091839E-001	-6.238356036452930E-002	3.8735099E-005	-6.2081635E-001	0
1.0010662E+004	4.516819906544697E+001	-6.2293208E-001	-6.222686225278062E-002	3.8763108E-005	-6.2281638E-001	0
1.0060525E+004	4.536819906039455E+001	-6.2494886E-001	-6.211891037183905E-002	3.8821141E-005	-6.2481636E-001	0
1.0120026E+004	4.556819905534212E+001	-6.2691337E-001	-6.194780218888019E-002	3.8835904E-005	-6.2681633E-001	0
1.0170024E+004	4.576819905028970E+001	-6.2892705E-001	-6.184125135234553E-002	3.8893635E-005	-6.2881643E-001	0
1.0213026E+004	4.596819904523727E+001	-6.3091373E-001	-6.177539524332931E-002	3.8974944E-005	-6.3081634E-001	0
1.0271380E+004	4.616819904018485E+001	-6.3292545E-001	-6.162029217618209E-002	3.9001050E-005	-6.3281637E-001	0
1.0306540E+004	4.636819903513242E+001	-6.3488418E-001	-6.160012772940338E-002	3.9108945E-005	-6.3481641E-001	0
1.0369646E+004	4.656819903008000E+001	-6.3697195E-001	-6.142659059962219E-002	3.9127015E-005	-6.3681638E-001	0
1.0415818E+004	4.676819902502757E+001	-6.3891083E-001	-6.134043315049581E-002	3.9191065E-005	-6.3881636E-001	0
1.0477893E+004	4.696819901997515E+001	-6.4092433E-001	-6.116920139940440E-002	3.9204831E-005	-6.4081633E-001	0
1.0499263E+004	4.716819901492272E+001	-6.4290082E-001	-6.123294813617575E-002	3.9366714E-005	-6.4281642E-001	0
1.0554605E+004	4.736819900987030E+001	-6.4495075E-001	-6.110609651389015E-002	3.9410421E-005	-6.4481634E-001	0
1.0600791E+004	4.756819900481787E+001	-6.4690500E-001	-6.102421833255026E-002	3.9476872E-005	-6.4681631E-001	0
1.0645846E+004	4.776819899976545E+001	-6.4892632E-001	-6.095582606585545E-002	3.9555838E-005	-6.4881641E-001	0
1.0679616E+004	4.796819899471302E+001	-6.5091115E-001	-6.094892669781640E-002	3.9672337E-005	-6.5081632E-001	0
1.0747160E+004	4.816819898966060E+001	-6.5288597E-001	-6.074962468528500E-002	3.9662576E-005	-6.5281636E-001	0
1.0774771E+004	4.836819898460817E+001	-6.5489858E-001	-6.078074470768488E-002	3.9805225E-005	-6.5481633E-001	0
1.0821295E+004	4.856819897955575E+001	-6.5692896E-001	-6.070705332852411E-002	3.9880222E-005	-6.5681636E-001	0
1.0858133E+004	4.876819897450332E+001	-6.5892243E-001	-6.068469085382189E-002	3.9986506E-005	-6.5881634E-001	0
1.0886624E+004	4.896819896945090E+001	-6.6088313E-001	-6.070597744662998E-002	4.0119558E-005	-6.6081637E-001	0
1.0959100E+004	4.916819896439847E+001	-6.6294158E-001	-6.049233890252592E-002	4.0102885E-005	-6.6281641E-001	0
1.0982464E+004	4.936819895934605E+001	-6.6492802E-001	-6.054451915408055E-002	4.0257746E-005	-6.6481638E-001	0
1.1034351E+004	4.956819895429362E+001	-6.6697401E-001	-6.044524316908284E-002	4.0315404E-005	-6.6681629E-001	0
1.1062596E+004	4.976819894924120E+001	-6.6891825E-001	-6.046666489975272E-002	4.0447256E-005	-6.6881639E-001	0
1.1096628E+004	4.996819894418877E+001	-6.7090178E-001	-6.045997040103401E-002	4.0562700E-005	-6.7081636E-001	0
1.1130414E+004	5.016819893913635E+001	-6.7287213E-001	-6.045346677962221E-002	4.0677452E-005	-6.7281634E-001	0
1.1168260E+004	5.036819893408392E+001	-6.7496812E-001	-6.043628635319975E-002	4.0792565E-005	-6.7481637E-001	0
1.1208282E+004	5.056819892903150E+001	-6.7689186E-001	-6.039211290250690E-002	4.0878931E-005	-6.7681640E-001	0
1.1214095E+004	5.076819892397907E+001	-6.7889470E-001	-6.053941398795676E-002	4.1099887E-005	-6.7881638E-001	0
1.1258448E+004	5.096819891892665E+001	-6.8095016E-001	-6.048348421640637E-002	4.1186238E-005	-6.8081629E-001	0
1.1286408E+004	5.116819891387422E+001	-6.8292665E-001	-6.050876785458281E-002	4.1323052E-005	-6.8281639E-001	0
1.1333421E+004	5.136819890882180E+001	-6.8497944E-001	-6.043889608324970E-002	4.1399402E-005	-6.8481636E-001	0
1.1341986E+004	5.156819890376937E+001	-6.8688905E-001	-6.056161627042506E-002	4.1599113E-005	-6.8681633E-001	0
1.1376579E+004	5.176819889871695E+001	-6.8891251E-001	-6.055533171783434E-002	4.1717325E-005	-6.8881637E-001	0
1.1405775E+004	5.196819889366452E+001	-6.9094586E-001	-6.057859580043096E-002	4.1856529E-005	-6.9081634E-001	0
1.1423380E+004	5.216819888861210E+001	-6.9291991E-001	-6.065804842023195E-002	4.2031170E-005	-6.9281638E-001	0
1.1452248E+004	5.236819888355967E+001	-6.9489288E-001	-6.067742363342774E-002	4.2164309E-005	-6.9481635E-001	0
1.1482859E+004	5.256819887850725E+001	-6.9686610E-001	-6.068750629000919E-002	4.2291067E-005	-6.9681644E-001	0
1.1501441E+004	5.276819887345482E+001	-6.9893706E-001	-6.076951857757584E-002	4.2474068E-005	-6.9881642E-001	0
1.1522529E+004	5.296819886840240E+001	-7.0091552E-001	-6.083000494830310E-002	4.2636693E-005	-7.0081633E-001	0
1.1549386E+004	5.316819886334997E+001	-7.0293260E-001	-6.086320380623239E-002	4.2782729E-005	-7.0281637E-001	0
1.1571319E+004	5.336819885829755E+001	-7.0494330E-001	-6.092159993906399E-002	4.2946274E-005	-7.0481640E-001	0
1.1595194E+004	5.356819885324512E+001	-7.0691198E-001	-6.096594612316864E-002	4.3097556E-005	-7.0681638E-001	0
1.1611968E+004	5.376819884819270E+001	-7.0892507E-001	-6.105124299644660E-002	4.3280757E-005	-7.0881635E-001	0
1.1614175E+004	5.396819884314027E+001	-7.1091658E-001	-6.121111473347363E-002	4.3515996E-005	-7.1081644E-001	0
1.1635630E+004	5.416819883808785E+001	-7.1294731E-001	-6.127277152431154E-002	4.3684257E-005	-7.1281642E-001	0
1.1649226E+004	5.436819883303542E+001	-7.1494967E-001	-6.137315122159348E-002	4.3878714E-005	-7.1481639E-001	0
1.1684446E+004	5.456819882798300E+001	-7.1686828E-001	-6.135235315868731E-002	4.3981556E-005	-7.1681637E-001	0
1.1685389E+004	5.476819882293057E+001	-7.1896040E-001	-6.152644110664041E-002	4.4235076E-005	-7.1881646E-001	0
1.1701446E+004	5.496819881787815E+001	-7.2095054E-001	-6.161208591126155E-002	4.4419266E-005	-7.2081631E-001	0
1.1721714E+004	5.516819881282572E+001	-7.2293580E-001	-6.167492078978332E-002	4.4587006E-005	-7.2281641E-001	0
1.1705834E+004	5.536819880777330E+001	-7.2492862E-001	-6.192882870780125E-002	4.4893979E-005	-7.2481644E-001	0
1.1734248E+004	5.556819880272087E+001	-7.2693443E-001	-6.194981051368198E-002	4.5033452E-005	-7.2681636E-001	0
1.1751568E+004	5.576819879766845E+001	-7.2891629E-001	-6.202714771028095E-002	4.5212597E-005	-7.2881633E-001	0
1.1753953E+004	5.596819879261602E+001	-7.3087710E-001	-6.218138798414508E-002	4.5446952E-005	-7.3081642E-001	0
1.1752166E+004	5.616819878756360E+001	-7.3293769E-001	-6.236618092492674E-002	4.5710523E-005	-7.3281640E-001	0
1.1772193E+004	5.636819878251117E+001	-7.3493505E-001	-6.242974644923882E-002	4.5881807E-005	-7.3481631E-001	0
1.1770214E+004	5.656819877745875E+001	-7.3691404E-001	-6.260838119636225E-002	4.6136996E-005	-7.3681635E-001	0
1.1769495E+004	5.676819877240632E+001	-7.3887646E-001	-6.277894440356246E-002	4.6385885E-005	-7.3881644E-001	0
1.1790087E+004	5.696819876735390E+001	-7.4089682E-001	-6.284065759379653E-002	4.6558442E-005	-7.4081635E-001	0
1.1792726E+004	5.716819876230147E+001	-7.4289602E-001	-6.299612425635170E-002	4.6799571E-005	-7.4281639E-001	0
1.1781126E+004	5.736819875724905E+001	-7.4491167E-001	-6.322924171673683E-002	4.7100199E-005	-7.4481642E-001	0
1.1789453E+004	5.756819875219662E+001	-7.4694848E-001	-6.335734700216000E-002	4.7324673E-005	-7.4681640E-001	0
1.1765633E+004	5.776819874714420E+001	-7.4890327E-001	-6.365176285205243E-002	4.7669015E-005	-7.4881637E-001	0
1.1774351E+004	5.796819874209177E+001	-7.5090426E-001	-6.377457822683606E-002	4.7888603E-005	-7.5081635E-001	0
1.1765627E+004	5.816819873703935E+001	-7.5291854E-001	-6.399306745422573E-002	4.8181566E-005	-7.5281650E-001	0
1.1761860E+004	5.836819873198692E+001	-7.5497103E-001	-6.418806128467824E-002	4.8460126E-005	-7.5481629E-001	0
1.1760345E+004	5.856819872693450E+001	-7.5691980E-001	-6.436204049385696E-002	4.8716902E-005	-7.5681639E-001	0
1.1763658E+004	5.876819872188207E+001	-7.5895792E-001	-6.451716800188656E-002	4.8965816E-005	-7.5881642E-001	0
1.1745635E+004	5.896819871682965E+001	-7.6090634E-001	-6.478205470837139E-002	4.9293078E-005	-7.6081634E-001	0
1.1732128E+004	5.916819871177722E+001	-7.6290268E-001	-6.502679547309742E-002	4.9609116E-005	-7.6281631E-001	0
1.1720854E+004	5.936819870672480E+001	-7.6492584E-001	-6.526195397019796E-002	4.9920556E-005	-7.6481640E-001	0
1.1696102E+004	5.956819870167237E+001	-7.6692426E-001	-6.557092798637240E-002	5.0287934E-005	-7.6681650E-001	0
1.1693622E+004	5.976819869661995E+001	-7.6890415E-001	-6.575414676603575E-002	5.0558636E-005	-7.6881635E-001	0
1.1688105E+004	5.996819869156752E+001	-7.7092445E-001	-6.595803241619236E-002	5.0848659E-005	-7.7081639E-001	0
1.1661146E+004	6.016819868651510E+001	-7.7292114E-001	-6.628175215086030E-002	5.1230567E-005	-7.7281642E-001	0
1.1641204E+004	6.036819868146267E+001	-7.7491891E-001	-6.656690627387180E-002	5.1583957E-005	-7.7481639E-001	0
1.1612246E+004	6.056819867641025E+001	-7.7694738E-001	-6.690758648075068E-002	5.1983672E-005	-7.7681631E-001	0
1.1584757E+004	6.076819867135782E+001	-7.7891564E-001	-6.723625396690858E-002	5.2371372E-005	-7.7881640E-001	0
1.1546950E+004	6.096819866630540E+001	-7.8090662E-001	-6.762882173663254E-002	5.2811796E-005	-7.8081638E-001	0
1.1524768E+004	6.116819866125297E+001	-7.8288090E-001	-6.793029688387403E-002	5.3181331E-005	-7.8281641E-001	0
1.1502594E+004	6.136819865620055E+001	-7.8492701E-001	-6.823913006654708E-002	5.3562737E-005	-7.8481638E-001	0
1.1473806E+004	6.156819865114812E+001	-7.8686869E-001	-6.857957169117923E-002	5.3963118E-005	-7.8681642E-001	0
1.1420118E+004	6.176819864609570E+001	-7.8889984E-001	-6.907983378363602E-002	5.4497068E-005	-7.8881645E-001	0
1.1412204E+004	6.196819864104327E+001	-7.9092598E-001	-6.930527600561098E-002	5.4815344E-005	-7.9081637E-001	0
1.1348221E+004	6.216819863599085E+001	-7.9291099E-001	-6.987095433192292E-002	5.5401448E-005	-7.9281646E-001	0
1.1320533E+004	6.236819863093842E+001	-7.9491740E-001	-7.021907975320674E-002	5.5818367E-005	-7.9481643E-001	0
1.1268846E+004	6.256819862588600E+001	-7.9691058E-001	-7.071803337757110E-002	5.6355948E-005	-7.9681641E-001	0
1.1218145E+004	6.276819862083357E+001	-7.9894936E-001	-7.121938335985911E-002	5.6900681E-005	-7.9881638E-001	0
1.1177260E+004	6.296819861578115E+001	-8.0089593E-001	-7.165405019070292E-002	5.7387439E-005	-8.0081636E-001	0
1.1129486E+004	6.316819861072872E+001	-8.0295205E-001	-7.214637210248420E-002	5.7930076E-005	-8.0281651E-001	0
1.1102423E+004	6.336819860567630E+001	-8.0490887E-001	-7.249848745169851E-002	5.8354675E-005	-8.0481637E-001	0
1.1012452E+004	6.356819860062387E+001	-8.0692774E-001	-7.327412192756233E-002	5.9126920E-005	-8.0681646E-001	0
1.0963742E+004	6.376819859557145E+001	-8.0890346E-001	-7.377987135150987E-002	5.9680791E-005	-8.0881649E-001	0
1.0915025E+004	6.396819859051902E+001	-8.1090546E-001	-7.429258765012881E-002	6.0244263E-005	-8.1081635E-001	0
1.0864882E+004	6.416819858546660E+001	-8.1292093E-001	-7.482096663614990E-002	6.0823531E-005	-8.1281644E-001	0
1.0773119E+004	6.436819858041417E+001	-8.1490129E-001	-7.564209494264612E-002	6.1640843E-005	-8.1481642E-001	0
1.0699032E+004	6.456819857536175E+001	-8.1691676E-001	-7.635426698907255E-002	6.2375082E-005	-8.1681639E-001	0
1.0635547E+004	6.476819857030932E+001	-8.1891936E-001	-7.699832932172501E-002	6.3055420E-005	-8.1881636E-001	0
1.0552234E+004	6.496819856525690E+001	-8.2096207E-001	-7.779983604958296E-002	6.3870713E-005	-8.2081646E-001	0
1.0464859E+004	6.516819856020447E+001	-8.2291687E-001	-7.863620797155291E-002	6.4711065E-005	-8.2281643E-001	0
1.0375991E+004	6.536819855515205E+001	-8.2489508E-001	-7.950036280446360E-002	6.5579457E-005	-8.2481641E-001	0
1.0314394E+004	6.556819855009962E+001	-8.2692719E-001	-8.017215718485637E-002	6.6296539E-005	-8.2681644E-001	0
1.0224518E+004	6.576819854504720E+001	-8.2894146E-001	-8.107389589083158E-002	6.7205518E-005	-8.2881647E-001	0
1.0110225E+004	6.596819853999477E+001	-8.3092415E-001	-8.218651769108343E-002	6.8290763E-005	-8.3081639E-001	0
1.0014177E+004	6.616819853494235E+001	-8.3289343E-001	-8.317143481030476E-002	6.9272945E-005	-8.3281636E-001	0
9.9010557E+003	6.636819852988992E+001	-8.3492160E-001	-8.432652000834118E-002	7.0406029E-005	-8.3481646E-001	0
9.7979121E+003	6.656819852483750E+001	-8.3690721E-001	-8.541688928961377E-002	7.1486007E-005	-8.3681643E-001	0
9.6879219E+003	6.676819851978507E+001	-8.3890182E-001	-8.659254897717394E-002	7.2642644E-005	-8.3881640E-001	0
9.5725342E+003	6.696819851473265E+001	-8.4095794E-001	-8.785113169233072E-002	7.3879106E-005	-8.4081650E-001	0
9.4183965E+003	6.716819850968022E+001	-8.4287757E-001	-8.949268175407288E-002	7.5431373E-005	-8.4281647E-001	0
9.2793193E+003	6.736819850462780E+001	-8.4493124E-001	-9.105530726858557E-002	7.6935474E-005	-8.4481633E-001	0
9.1064063E+003	6.756819849957537E+001	-8.4690607E-001	-9.300113145141631E-002	7.8763223E-005	-8.4681642E-001	0
8.9513955E+003	6.776819849452295E+001	-8.4893149E-001	-9.483789388341646E-002	8.0510872E-005	-8.4881651E-001	0
8.7809102E+003	6.796819848947052E+001	-8.5093981E-001	-9.690792396107106E-002	8.2462808E-005	-8.5081637E-001	0
8.5716660E+003	6.816819848441810E+001	-8.5298449E-001	-9.951209582920573E-002	8.4882275E-005	-8.5281640E-001	0
8.3656133E+003	6.836819847936567E+001	-8.5493273E-001	-1.021960557157557E-001	8.7370754E-005	-8.5481644E-001	0
8.1398813E+003	6.856819847431325E+001	-8.5689265E-001	-1.052709025544136E-001	9.0205860E-005	-8.5681641E-001	0
7.8989810E+003	6.876819846926082E+001	-8.5892510E-001	-1.087387258972541E-001	9.3398419E-005	-8.5881639E-001	0
7.6257788E+003	6.896819846420840E+001	-8.6092222E-001	-1.128963029409109E-001	9.7194934E-005	-8.6081642E-001	0
7.3667544E+003	6.916819845915597E+001	-8.6294526E-001	-1.171404968518468E-001	1.0108584E-004	-8.6281645E-001	0
7.1044756E+003	6.936819845410355E+001	-8.6489791E-001	-1.217398699320209E-001	1.0529256E-004	-8.6481643E-001	0
6.8529536E+003	6.956819844905112E+001	-8.6693645E-001	-1.265055218895224E-001	1.0967225E-004	-8.6681634E-001	0
6.6193335E+003	6.976819844399870E+001	-8.6893946E-001	-1.312729584184092E-001	1.1406825E-004	-8.6881649E-001	0
6.4037583E+003	6.996819843894627E+001	-8.7090945E-001	-1.359997343772479E-001	1.1844345E-004	-8.7081641E-001	0
6.2132676E+003	7.016819843389385E+001	-8.7291795E-001	-1.404925733730793E-001	1.2263849E-004	-8.7281638E-001	0
6.0312866E+003	7.036819842884142E+001	-8.7484163E-001	-1.450505844515887E-001	1.2689630E-004	-8.7481648E-001	0
5.8586465E+003	7.056819842378900E+001	-8.7688988E-001	-1.496744878038909E-001	1.3124805E-004	-8.7681645E-001	0
5.6858389E+003	7.076819841873657E+001	-8.7892121E-001	-1.545807394640444E-001	1.3586429E-004	-8.7881643E-001	0
5.5152744E+003	7.096819841368415E+001	-8.8091707E-001	-1.597231660680234E-001	1.4070286E-004	-8.8081640E-001	0
5.3454697E+003	7.116819840863172E+001	-8.8288939E-001	-1.651659139881836E-001	1.4582323E-004	-8.8281649E-001	0
5.1720215E+003	7.136819840357930E+001	-8.8495761E-001	-1.711047857687245E-001	1.5142048E-004	-8.8481635E-001	0
4.9935503E+003	7.156819839852687E+001	-8.8693678E-001	-1.776164728185150E-001	1.5753458E-004	-8.8681644E-001	0
4.8167910E+003	7.176819839347445E+001	-8.8894385E-001	-1.845510600571883E-001	1.6405553E-004	-8.8881642E-001	0
4.6348101E+003	7.196819838842202E+001	-8.9093173E-001	-1.922261507721315E-001	1.7126037E-004	-8.9081639E-001	0
4.4480522E+003	7.216819838336960E+001	-8.9289916E-001	-2.007393496165935E-001	1.7924000E-004	-8.9281648E-001	0
4.2025405E+003	7.236819837831717E+001	-8.9492631E-001	-2.129488863080500E-001	1.9057356E-004	-8.9481646E-001	0
4.0519570E+003	7.256819837326475E+001	-8.9694989E-001	-2.213621428236362E-001	1.9855076E-004	-8.9681655E-001	0
3.8983254E+003	7.276819836821232E+001	-8.9896488E-001	-2.306028323062185E-001	2.0730385E-004	-8.9881641E-001	0
3.7528059E+003	7.296819836315990E+001	-9.0086824E-001	-2.400519103656539E-001	2.1625514E-004	-9.0081638E-001	0
3.6141104E+003	7.316819835810747E+001	-9.0291417E-001	-2.498302681143478E-001	2.2557529E-004	-9.0281647E-001	0
3.4722151E+003	7.336819835305505E+001	-9.0491670E-001	-2.606165433458802E-001	2.3583627E-004	-9.0481645E-001	0
3.3235200E+003	7.356819834800262E+001	-9.0690303E-001	-2.728742571154807E-001	2.4747048E-004	-9.0681642E-001	0
3.1681252E+003	7.376819834295020E+001	-9.0893406E-001	-2.868996595228908E-001	2.6077288E-004	-9.0881646E-001	0
2.9936968E+003	7.396819833789777E+001	-9.1090775E-001	-3.042752187606150E-001	2.7716666E-004	-9.1081649E-001	0
2.8140020E+003	7.416819833284535E+001	-9.1294968E-001	-3.244310653158151E-001	2.9618925E-004	-9.1281646E-001	0
2.6277039E+003	7.436819832779292E+001	-9.1493642E-001	-3.481885630937294E-001	3.1857041E-004	-9.1481638E-001	0
2.4424910E+003	7.456819832274050E+001	-9.1696507E-001	-3.754220866912867E-001	3.4424893E-004	-9.1681647E-001	0
2.2645164E+003	7.476819831768807E+001	-9.1893029E-001	-4.057954078172745E-001	3.7289769E-004	-9.1881645E-001	0
2.0866541E+003	7.496819831263565E+001	-9.2093557E-001	-4.413455911825430E-001	4.0645085E-004	-9.2081636E-001	0
1.8898483E+003	7.516819830758323E+001	-9.2296457E-001	-4.883802607571042E-001	4.5075768E-004	-9.2281651E-001	0
1.7512140E+003	7.536819830253080E+001	-9.2492110E-001	-5.281599596725641E-001	4.8850628E-004	-9.2481637E-001	0
1.6136576E+003	7.556819829747838E+001	-9.2690653E-001	-5.744133994633707E-001	5.3242751E-004	-9.2681646E-001	0
1.4847042E+003	7.576819829242595E+001	-9.2893797E-001	-6.256720877744586E-001	5.8121054E-004	-9.2881644E-001	0
1.3570547E+003	7.596819828737353E+001	-9.3095404E-001	-6.860107010961087E-001	6.3864444E-004	-9.3081653E-001	0
1.2310828E+003	7.616819828232110E+001	-9.3297273E-001	-7.578473105612703E-001	7.0705090E-004	-9.3281651E-001	0
1.1378641E+003	7.636819827726868E+001	-9.3495744E-001	-8.216775651691728E-001	7.6823356E-004	-9.3481642E-001	0
1.0482137E+003	7.656819827221625E+001	-9.3696564E-001	-8.938689233224132E-001	8.3752448E-004	-9.3681645E-001	0
9.4938794E+002	7.676819826716383E+001	-9.3897116E-001	-9.890278954726224E-001	9.2866865E-004	-9.3881643E-001	0
8.7995331E+002	7.697819826185878E+001	-9.4106096E-001	-1.069444211004530E+000	1.0064122E-003	-9.4091642E-001	0
8.1141345E+002	7.718819825655373E+001	-9.4313872E-001	-1.162340511945912E+000	1.0962484E-003	-9.4301641E-001	0
7.4158966E+002	7.738819825150131E+001	-9.4509536E-001	-1.274418247335690E+000	1.2044468E-003	-9.4501638E-001	0
6.9151135E+002	7.758819824644888E+001	-9.4713205E-001	-1.369655125037412E+000	1.2972442E-003	-9.4701648E-001	0
6.3446899E+002	7.778819824139646E+001	-9.4914526E-001	-1.495967967439938E+000	1.4198909E-003	-9.4901645E-001	0
5.9406152E+002	7.798819823634403E+001	-9.5112735E-001	-1.601058588259747E+000	1.5228107E-003	-9.5101643E-001	0
5.4936536E+002	7.818819823129161E+001	-9.5312083E-001	-1.734948819389153E+000	1.6536159E-003	-9.5301640E-001	0
5.1628741E+002	7.838819822623918E+001	-9.5513439E-001	-1.850005111540931E+000	1.7670036E-003	-9.5501643E-001	0
4.8012198E+002	7.858819822118676E+001	-9.5712435E-001	-1.993502438406288E+000	1.9080298E-003	-9.5701647E-001	0
4.5228076E+002	7.878819821613433E+001	-9.5910960E-001	-2.120606681690996E+000	2.0338942E-003	-9.5901656E-001	0
4.2384641E+002	7.898819821108191E+001	-9.6113318E-001	-2.267645074869762E+000	2.1795090E-003	-9.6101642E-001	0
3.9973929E+002	7.918819820602948E+001	-9.6309865E-001	-2.409316967370287E+000	2.3204100E-003	-9.6301645E-001	0
3.7798013E+002	7.938819820097706E+001	-9.6512038E-001	-2.553362649888676E+000	2.4643023E-003	-9.6501648E-001	0
3.5655014E+002	7.958819819592463E+001	-9.6712798E-001	-2.712459959224923E+000	2.6232959E-003	-9.6701640E-001	0
3.3870020E+002	7.978819819087221E+001	-9.6913040E-001	-2.861322191600902E+000	2.7729943E-003	-9.6901637E-001	0
3.2133569E+002	7.998819818581978E+001	-9.7119600E-001	-3.022371857479854E+000	2.9353155E-003	-9.7101647E-001	0
3.0544431E+002	8.018819818076736E+001	-9.7311676E-001	-3.185905626689909E+000	3.1002581E-003	-9.7301644E-001	0
2.9236972E+002	8.038819817571493E+001	-9.7510898E-001	-3.335191347296274E+000	3.2521749E-003	-9.7501636E-001	0
2.7862448E+002	8.058819817066251E+001	-9.7715586E-001	-3.507071238526406E+000	3.4269553E-003	-9.7701651E-001	0
2.6625735E+002	8.078819816561008E+001	-9.7912449E-001	-3.677361169572308E+000	3.6005944E-003	-9.7901636E-001	0
2.5542307E+002	8.098819816055766E+001	-9.8111552E-001	-3.841139103279618E+000	3.7686012E-003	-9.8101646E-001	0
2.4512599E+002	8.118819815550523E+001	-9.8316133E-001	-4.010840889581752E+000	3.9433036E-003	-9.8301643E-001	0
2.3508110E+002	8.138819815045281E+001	-9.8511881E-001	-4.190548762881846E+000	4.1281884E-003	-9.8501652E-001	0
2.2619911E+002	8.158819814540038E+001	-9.8714554E-001	-4.364055751774316E+000	4.3079583E-003	-9.8701650E-001	0
2.1811137E+002	8.178819814034796E+001	-9.8912954E-001	-4.534974658131055E+000	4.4856775E-003	-9.8901641E-001	0
2.1004845E+002	8.198819813529553E+001	-9.9107856E-001	-4.718333107408739E+000	4.6762386E-003	-9.9101645E-001	0
2.0252077E+002	8.218819813024311E+001	-9.9312711E-001	-4.903828474027790E+000	4.8701251E-003	-9.9301642E-001	0
1.9584451E+002	8.238819812519068E+001	-9.9512678E-001	-5.081208228524307E+000	5.0564464E-003	-9.9501640E-001	0
1.8928915E+002	8.258819812013826E+001	-9.9713373E-001	-5.267780774608754E+000	5.2526817E-003	-9.9701643E-001	0
1.8320036E+002	8.278819811508583E+001	-9.9918723E-001	-5.454067806132500E+000	5.4496350E-003	-9.9901646E-001	0
1.7711725E+002	8.298819811003341E+001	-1.0011231E+000	-5.652318563895157E+000	5.6586666E-003	-1.0010164E+000	0
1.7185170E+002	8.318819810498098E+001	-1.0031667E+000	-5.837397382035022E+000	5.8558825E-003	-1.0030164E+000	0
1.6687198E+002	8.338819809992856E+001	-1.0051535E+000	-6.023501066224910E+000	6.0545434E-003	-1.0050164E+000	0
1.6175824E+002	8.358819809487613E+001	-1.0071499E+000	-6.226266839336654E+000	6.2707844E-003	-1.0070164E+000	0
1.5694841E+002	8.378819808982371E+001	-1.0091515E+000	-6.429829422713979E+000	6.4886715E-003	-1.0090164E+000	0
1.5241393E+002	8.398819808477128E+001	-1.0111663E+000	-6.634343265811353E+000	6.7084245E-003	-1.0110164E+000	0
1.4822560E+002	8.418819807971886E+001	-1.0131614E+000	-6.835265852291300E+000	6.9252276E-003	-1.0130163E+000	0
1.4426224E+002	8.438819807466643E+001	-1.0151551E+000	-7.036873184296539E+000	7.1435175E-003	-1.0150164E+000	0
1.4032123E+002	8.458819806961401E+001	-1.0171288E+000	-7.248574525253076E+000	7.3727341E-003	-1.0170164E+000	0
1.3666992E+002	8.478819806456158E+001	-1.0191319E+000	-7.456884686773847E+000	7.5995489E-003	-1.0190165E+000	0
1.3298074E+002	8.498819805950916E+001	-1.0211564E+000	-7.678979460141569E+000	7.8414390E-003	-1.0210164E+000	0
1.2956888E+002	8.518819805445673E+001	-1.0231332E+000	-7.896442561057711E+000	8.0791125E-003	-1.0230165E+000	0
1.2632252E+002	8.538819804940431E+001	-1.0251766E+000	-8.115549354866829E+000	8.3198715E-003	-1.0250164E+000	0
1.2310201E+002	8.558819804435188E+001	-1.0271847E+000	-8.344175437140073E+000	8.5710092E-003	-1.0270165E+000	0
1.2014876E+002	8.578819803929946E+001	-1.0291479E+000	-8.565613982155767E+000	8.8152830E-003	-1.0290164E+000	0
1.1704565E+002	8.598819803424703E+001	-1.0311354E+000	-8.809685589099395E+000	9.0839788E-003	-1.0310165E+000	0
1.1414151E+002	8.618819802919461E+001	-1.0331737E+000	-9.051690922775506E+000	9.3519688E-003	-1.0330164E+000	0
1.1144113E+002	8.638819802414218E+001	-1.0351745E+000	-9.288980412172364E+000	9.6157156E-003	-1.0350164E+000	0
1.0877691E+002	8.658819801908976E+001	-1.0371268E+000	-9.534438925670599E+000	9.8884217E-003	-1.0370165E+000	0
1.0624329E+002	8.678819801403733E+001	-1.0391355E+000	-9.780716603845690E+000	1.0163490E-002	-1.0390165E+000	0
1.0363251E+002	8.698819800898491E+001	-1.0411948E+000	-1.004698935164613E+001	1.0460873E-002	-1.0410165E+000	0
1.0116919E+002	8.718819800393248E+001	-1.0431658E+000	-1.031110168131842E+001	1.0756189E-002	-1.0430164E+000	0
9.8819260E+001	8.738819799888006E+001	-1.0451565E+000	-1.057644538307677E+001	1.1054041E-002	-1.0450164E+000	0
9.6338211E+001	8.759819799357501E+001	-1.0472825E+000	-1.087089391539286E+001	1.1384897E-002	-1.0471165E+000	0
9.3913544E+001	8.780819798826997E+001	-1.0493066E+000	-1.117311311376335E+001	1.1724021E-002	-1.0492165E+000	0
9.1843971E+001	8.800819798321754E+001	-1.0513726E+000	-1.144737772673966E+001	1.2035460E-002	-1.0512165E+000	0
8.9792427E+001	8.820819797816512E+001	-1.0533553E+000	-1.173100455095165E+001	1.2356916E-002	-1.0532165E+000	0
8.7648415E+001	8.840819797311269E+001	-1.0553375E+000	-1.204057765757146E+001	1.2706874E-002	-1.0552164E+000	0
8.5614052E+001	8.860819796806027E+001	-1.0573517E+000	-1.235021258691273E+001	1.3058518E-002	-1.0572165E+000	0
8.3616508E+001	8.880819796300784E+001	-1.0593828E+000	-1.266954069099734E+001	1.3421893E-002	-1.0592165E+000	0
8.1729271E+001	8.900819795795542E+001	-1.0613531E+000	-1.298620520265195E+001	1.3782949E-002	-1.0612165E+000	0
8.0044090E+001	8.920819795290299E+001	-1.0633295E+000	-1.328429736517995E+001	1.4125585E-002	-1.0632164E+000	0
7.8246216E+001	8.940819794785057E+001	-1.0653530E+000	-1.361539374889971E+001	1.4505201E-002	-1.0652164E+000	0
7.6466621E+001	8.960819794279814E+001	-1.0673437E+000	-1.395829545708204E+001	1.4898299E-002	-1.0672165E+000	0
7.4800743E+001	8.980819793774572E+001	-1.0693460E+000	-1.429592672389111E+001	1.5287291E-002	-1.0692165E+000	0
7.3157669E+001	9.000819793269329E+001	-1.0713079E+000	-1.464382213529814E+001	1.5688043E-002	-1.0712165E+000	0
7.1553474E+001	9.020819792764087E+001	-1.0733277E+000	-1.500035638860567E+001	1.6100297E-002	-1.0732164E+000	0
6.9888748E+001	9.040819792258844E+001	-1.0753127E+000	-1.538606330529362E+001	1.6544830E-002	-1.0752165E+000	0
6.8308525E+001	9.060819791753602E+001	-1.0773970E+000	-1.577251081645090E+001	1.6993256E-002	-1.0772165E+000	0
6.6826004E+001	9.080819791248359E+001	-1.0793471E+000	-1.615160393660840E+001	1.7433187E-002	-1.0792165E+000	0
6.5388382E+001	9.100819790743117E+001	-1.0813665E+000	-1.653759510514419E+001	1.7883202E-002	-1.0812165E+000	0
6.3885712E+001	9.120819790237874E+001	-1.0833563E+000	-1.695772399004898E+001	1.8371256E-002	-1.0832163E+000	0
6.2459244E+001	9.140819789732632E+001	-1.0853751E+000	-1.737733331505132E+001	1.8860925E-002	-1.0852165E+000	0
6.1161335E+001	9.160819789227389E+001	-1.0873737E+000	-1.777877661552014E+001	1.9332174E-002	-1.0872165E+000	0
5.9825687E+001	9.180819788722147E+001	-1.0893909E+000	-1.820941731286425E+001	1.9837173E-002	-1.0892164E+000	0
5.8542435E+001	9.200819788216904E+001	-1.0913963E+000	-1.864282407660602E+001	2.0346710E-002	-1.0912164E+000	0
5.7184036E+001	9.220819787711662E+001	-1.0933475E+000	-1.911980407159618E+001	2.0904591E-002	-1.0932164E+000	0
5.5896103E+001	9.240819787206419E+001	-1.0953367E+000	-1.959594009590248E+001	2.1464152E-002	-1.0952165E+000	0
5.4627789E+001	9.260819786701177E+001	-1.0973183E+000	-2.008718151570451E+001	2.2042032E-002	-1.0972165E+000	0
5.3466110E+001	9.280819786195934E+001	-1.0993543E+000	-2.056170238510546E+001	2.2604596E-002	-1.0992163E+000	0
5.2385929E+001	9.300819785690692E+001	-1.1013663E+000	-2.102408656011636E+001	2.3155220E-002	-1.1012164E+000	0
5.1182697E+001	9.320819785185449E+001	-1.1033872E+000	-2.155781714405322E+001	2.3786621E-002	-1.1032164E+000	0
5.0043774E+001	9.340819784680207E+001	-1.1053672E+000	-2.208800569913296E+001	2.4415357E-002	-1.1052164E+000	0
4.8913689E+001	9.360819784174964E+001	-1.1073207E+000	-2.263825721589365E+001	2.5067810E-002	-1.1072165E+000	0
4.7839897E+001	9.380819783669722E+001	-1.1093313E+000	-2.318841275444368E+001	2.5723631E-002	-1.1092165E+000	0
4.6768475E+001	9.400819783164479E+001	-1.1113741E+000	-2.376331789396249E+001	2.6409937E-002	-1.1112164E+000	0
4.5740376E+001	9.420819782659237E+001	-1.1133316E+000	-2.434023590950193E+001	2.7098753E-002	-1.1132164E+000	0
4.4748920E+001	9.440819782153994E+001	-1.1153240E+000	-2.492404203593327E+001	2.7798383E-002	-1.1152165E+000	0
4.3756077E+001	9.460819781648752E+001	-1.1173368E+000	-2.553557843632171E+001	2.8531840E-002	-1.1172165E+000	0
4.2783928E+001	9.480819781143509E+001	-1.1193439E+000	-2.616271976548793E+001	2.9285081E-002	-1.1192164E+000	0
4.1770309E+001	9.500819780638267E+001	-1.1213449E+000	-2.684550204623042E+001	3.0103067E-002	-1.1212164E+000	0
4.0774612E+001	9.520819780133024E+001	-1.1233392E+000	-2.754996560571408E+001	3.0947955E-002	-1.1232164E+000	0
3.9918953E+001	9.540819779627782E+001	-1.1253560E+000	-2.819101781099022E+001	3.1724930E-002	-1.1252165E+000	0
3.9054573E+001	9.560819779122539E+001	-1.1273397E+000	-2.886575372338024E+001	3.2541510E-002	-1.1272165E+000	0
3.8087566E+001	9.580819778617297E+001	-1.1293365E+000	-2.965105312481489E+001	3.3486016E-002	-1.1292164E+000	0
3.7220947E+001	9.600819778112054E+001	-1.1313418E+000	-3.039529904513677E+001	3.4387473E-002	-1.1312164E+000	0
3.6480106E+001	9.620819777606812E+001	-1.1333802E+000	-3.106844400818920E+001	3.5212360E-002	-1.1332164E+000	0
3.5654907E+001	9.640819777101569E+001	-1.1353670E+000	-3.184322104459454E+001	3.6153745E-002	-1.1352165E+000	0
3.4840157E+001	9.660819776596327E+001	-1.1373688E+000	-3.264534072081244E+001	3.7129793E-002	-1.1372164E+000	0
3.4086018E+001	9.680819776091084E+001	-1.1393455E+000	-3.342559776825158E+001	3.8083304E-002	-1.1392164E+000	0
3.3237411E+001	9.700819775585842E+001	-1.1413019E+000	-3.433786831502204E+001	3.9189875E-002	-1.1412164E+000	0
3.2456078E+001	9.720819775080599E+001	-1.1433923E+000	-3.522891280386190E+001	4.0280469E-002	-1.1432165E+000	0
3.1664200E+001	9.740819774575357E+001	-1.1453588E+000	-3.617204256555110E+001	4.1429967E-002	-1.1452165E+000	0
3.0998596E+001	9.760819774070114E+001	-1.1473583E+000	-3.701323382492234E+001	4.2467441E-002	-1.1472164E+000	0
3.0217028E+001	9.780819773564872E+001	-1.1493951E+000	-3.803799396523542E+001	4.3720685E-002	-1.1492165E+000	0
2.9473583E+001	9.800819773059629E+001	-1.1513404E+000	-3.906346860142776E+001	4.4975348E-002	-1.1512164E+000	0
2.8793121E+001	9.820819772554387E+001	-1.1533271E+000	-4.005564816306224E+001	4.6197265E-002	-1.1532165E+000	0
2.8110851E+001	9.840819772049144E+001	-1.1553794E+000	-4.110083349437670E+001	4.7487058E-002	-1.1552165E+000	0
2.7459488E+001	9.860819771543902E+001	-1.1573632E+000	-4.214802535266834E+001	4.8780572E-002	-1.1572165E+000	0
2.6861774E+001	9.880819771038659E+001	-1.1593436E+000	-4.315960729500608E+001	5.0036814E-002	-1.1592164E+000	0
2.6195726E+001	9.900819770533417E+001	-1.1613088E+000	-4.433199398344584E+001	5.1483132E-002	-1.1612164E+000	0
2.5601578E+001	9.920819770028174E+001	-1.1633260E+000	-4.543962360455600E+001	5.2861098E-002	-1.1632165E+000	0
2.4998808E+001	9.940819769522932E+001	-1.1653036E+000	-4.661436602398919E+001	5.4319888E-002	-1.1652164E+000	0
2.4384758E+001	9.960819769017689E+001	-1.1673926E+000	-4.787386529786272E+001	5.5887595E-002	-1.1672164E+000	0
2.3768969E+001	9.980819768512447E+001	-1.1693615E+000	-4.919698122785758E+001	5.7529055E-002	-1.1692164E+000	0
2.3221144E+001	1.000081976800720E+002	-1.1713495E+000	-5.044323170104008E+001	5.9086654E-002	-1.1712164E+000	0
2.2703037E+001	1.002081976750196E+002	-1.1733489E+000	-5.168246236950381E+001	6.0641561E-002	-1.1732163E+000	0
2.2075861E+001	1.004081976699672E+002	-1.1753559E+000	-5.324167774756211E+001	6.2577918E-002	-1.1752164E+000	0
2.1539093E+001	1.006081976649148E+002	-1.1773467E+000	-5.466092206453237E+001	6.4354859E-002	-1.1772165E+000	0
2.1066504E+001	1.008081976598623E+002	-1.1793709E+000	-5.598322887647714E+001	6.6024989E-002	-1.1792164E+000	0
2.0583977E+001	1.010081976548099E+002	-1.1813608E+000	-5.739225627343421E+001	6.7800961E-002	-1.1812164E+000	0
2.0083170E+001	1.012081976497575E+002	-1.1833827E+000	-5.892410309839130E+001	6.9729768E-002	-1.1832165E+000	0
1.9556139E+001	1.014081976447051E+002	-1.1854510E+000	-6.061784723502420E+001	7.1859486E-002	-1.1852165E+000	0
1.9085775E+001	1.016081976396526E+002	-1.1873875E+000	-6.221321301287230E+001	7.3871188E-002	-1.1872164E+000	0
1.8642986E+001	1.018081976346002E+002	-1.1894042E+000	-6.379901789051064E+001	7.5882822E-002	-1.1892164E+000	0
1.8218594E+001	1.020081976295478E+002	-1.1914203E+000	-6.539584423625269E+001	7.7913940E-002	-1.1912165E+000	0
1.7774754E+001	1.022081976244954E+002	-1.1933975E+000	-6.714002963420754E+001	8.0124743E-002	-1.1932164E+000	0
1.7317535E+001	1.024081976194429E+002	-1.1954000E+000	-6.902829819525732E+001	8.2516424E-002	-1.1952164E+000	0
1.6931734E+001	1.026081976143905E+002	-1.1974099E+000	-7.071985825659749E+001	8.4680654E-002	-1.1972164E+000	0
1.6568245E+001	1.028081976093381E+002	-1.1994282E+000	-7.239319582050351E+001	8.6830437E-002	-1.1992165E+000	0
1.6168091E+001	1.030081976042857E+002	-1.2014080E+000	-7.430735260396887E+001	8.9273453E-002	-1.2012165E+000	0
1.5829391E+001	1.032081975992332E+002	-1.2034429E+000	-7.602584800806690E+001	9.1492772E-002	-1.2032164E+000	0
1.5451036E+001	1.034081975941808E+002	-1.2054297E+000	-7.801610617194353E+001	9.4042927E-002	-1.2052165E+000	0
1.5114809E+001	1.036081975891284E+002	-1.2074139E+000	-7.988284095668996E+001	9.6451655E-002	-1.2072165E+000	0
1.4749666E+001	1.038081975840760E+002	-1.2094392E+000	-8.199772903275880E+001	9.9171266E-002	-1.2092165E+000	0
1.4434960E+001	1.040081975790235E+002	-1.2114297E+000	-8.392331699881683E+001	1.0166720E-001	-1.2112164E+000	0
1.4132334E+001	1.042081975739711E+002	-1.2133715E+000	-8.585783244639003E+001	1.0417745E-001	-1.2132164E+000	0
1.3841693E+001	1.044081975689187E+002	-1.2153943E+000	-8.780676311430202E+001	1.0671984E-001	-1.2152165E+000	0
1.3535201E+001	1.046081975638663E+002	-1.2174668E+000	-8.994819190118278E+001	1.0950894E-001	-1.2172165E+000	0
1.3213152E+001	1.048081975588138E+002	-1.2193774E+000	-9.228512857884743E+001	1.1253040E-001	-1.2192165E+000	0
1.2914853E+001	1.050081975537614E+002	-1.2214234E+000	-9.457509225458284E+001	1.1551623E-001	-1.2212164E+000	0
1.2685990E+001	1.052081975487090E+002	-1.2233915E+000	-9.643642459759093E+001	1.1797950E-001	-1.2232164E+000	0
1.2427872E+001	1.054081975436566E+002	-1.2254496E+000	-9.860493781939658E+001	1.2083538E-001	-1.2252165E+000	0
1.2178168E+001	1.056081975386041E+002	-1.2274492E+000	-1.007909502361365E+002	1.2371577E-001	-1.2272165E+000	0
1.1856235E+001	1.058081975335517E+002	-1.2294135E+000	-1.036934188001549E+002	1.2748209E-001	-1.2292165E+000	0
1.1588689E+001	1.060081975284993E+002	-1.2314205E+000	-1.062605576536824E+002	1.3085143E-001	-1.2312164E+000	0
1.1362721E+001	1.062081975234469E+002	-1.2334181E+000	-1.085495333541824E+002	1.3388696E-001	-1.2332164E+000	0
1.1084009E+001	1.064181975181418E+002	-1.2355070E+000	-1.114675234989245E+002	1.3771890E-001	-1.2353165E+000	0
1.0847651E+001	1.066281975128368E+002	-1.2375942E+000	-1.140886893477837E+002	1.4119551E-001	-1.2374165E+000	0
1.0586818E+001	1.068281975077844E+002	-1.2395796E+000	-1.170870790330196E+002	1.4513876E-001	-1.2394164E+000	0
1.0373512E+001	1.070281975027319E+002	-1.2415867E+000	-1.196881735427580E+002	1.4860325E-001	-1.2414165E+000	0
1.0177432E+001	1.072281974976795E+002	-1.2435713E+000	-1.221890977202086E+002	1.5195085E-001	-1.2434164E+000	0
1.0041318E+001	1.074281974926271E+002	-1.2456126E+000	-1.240487207858204E+002	1.5451665E-001	-1.2454165E+000	0
9.8847904E+000	1.076281974875747E+002	-1.2475883E+000	-1.262129167969806E+002	1.5746176E-001	-1.2474165E+000	0
9.7094698E+000	1.078281974825222E+002	-1.2495401E+000	-1.286929277141080E+002	1.6080697E-001	-1.2494164E+000	0
9.5181255E+000	1.080281974774698E+002	-1.2516288E+000	-1.314994997415956E+002	1.6458856E-001	-1.2514164E+000	0
9.3247423E+000	1.082281974724174E+002	-1.2536246E+000	-1.344406601360868E+002	1.6853811E-001	-1.2534165E+000	0
9.1920576E+000	1.084281974673650E+002	-1.2555887E+000	-1.365949441689213E+002	1.7150706E-001	-1.2554165E+000	0
8.9644003E+000	1.086281974623125E+002	-1.2576101E+000	-1.402893651131865E+002	1.7642932E-001	-1.2574165E+000	0
8.8172178E+000	1.088281974572601E+002	-1.2596130E+000	-1.428583258403944E+002	1.7994621E-001	-1.2594165E+000	0
8.7013721E+000	1.090281974522077E+002	-1.2616758E+000	-1.449973342564645E+002	1.8293963E-001	-1.2614163E+000	0
8.5784311E+000	1.092281974471553E+002	-1.2636068E+000	-1.473004506126290E+002	1.8612985E-001	-1.2634164E+000	0
8.4636536E+000	1.094281974421028E+002	-1.2656111E+000	-1.495348305594084E+002	1.8925293E-001	-1.2654165E+000	0
8.3233900E+000	1.096281974370504E+002	-1.2675737E+000	-1.522905537665829E+002	1.9303951E-001	-1.2674164E+000	0
8.1938457E+000	1.098281974319980E+002	-1.2695930E+000	-1.549447023192769E+002	1.9671671E-001	-1.2694165E+000	0
8.0807381E+000	1.100281974269456E+002	-1.2715911E+000	-1.573607486889204E+002	2.0009853E-001	-1.2714164E+000	0
7.9706631E+000	1.102281974218931E+002	-1.2735907E+000	-1.597847855366817E+002	2.0350042E-001	-1.2734165E+000	0
7.8328133E+000	1.104281974168407E+002	-1.2756279E+000	-1.628569196151760E+002	2.0774482E-001	-1.2754165E+000	0
7.7418976E+000	1.106281974117883E+002	-1.2775958E+000	-1.650235900359904E+002	2.1083345E-001	-1.2774165E+000	0
7.6369977E+000	1.108281974067359E+002	-1.2796336E+000	-1.675571574148403E+002	2.1441178E-001	-1.2794164E+000	0
7.4416418E+000	1.110281974016834E+002	-1.2816234E+000	-1.722232025961755E+002	2.2072528E-001	-1.2814164E+000	0
7.3490691E+000	1.112281973966310E+002	-1.2835964E+000	-1.746610822028847E+002	2.2419433E-001	-1.2834164E+000	0
7.2432518E+000	1.114281973915786E+002	-1.2856140E+000	-1.774912722591913E+002	2.2818527E-001	-1.2854165E+000	0
7.0787926E+000	1.116281973865262E+002	-1.2876673E+000	-1.819049365947582E+002	2.3423304E-001	-1.2874165E+000	0
6.9998612E+000	1.118281973814737E+002	-1.2896168E+000	-1.842346229239654E+002	2.3759207E-001	-1.2894164E+000	0
6.9180837E+000	1.120281973764213E+002	-1.2916448E+000	-1.867055721964157E+002	2.4115728E-001	-1.2914164E+000	0
6.8212876E+000	1.122281973713689E+002	-1.2936361E+000	-1.896469092488021E+002	2.4533409E-001	-1.2934165E+000	0
6.7137794E+000	1.124281973663165E+002	-1.2956681E+000	-1.929863995554229E+002	2.5004631E-001	-1.2954165E+000	0
6.6453938E+000	1.126281973612640E+002	-1.2976611E+000	-1.952722550216995E+002	2.5339720E-001	-1.2974164E+000	0
6.5421638E+000	1.128281973562116E+002	-1.2996773E+000	-1.986616745827696E+002	2.5819606E-001	-1.2994164E+000	0
6.5252976E+000	1.130281973511592E+002	-1.3016922E+000	-1.994839687898857E+002	2.5966674E-001	-1.3014165E+000	0
6.3964520E+000	1.132281973461068E+002	-1.3036215E+000	-2.038038494624785E+002	2.6568308E-001	-1.3034165E+000	0
6.3300734E+000	1.134281973410543E+002	-1.3056760E+000	-2.062655440306721E+002	2.6931596E-001	-1.3054165E+000	0
6.2427492E+000	1.136281973360019E+002	-1.3076429E+000	-2.094658762181434E+002	2.7390656E-001	-1.3074164E+000	0
6.1060472E+000	1.138281973309495E+002	-1.3096640E+000	-2.144863842793329E+002	2.8090510E-001	-1.3094164E+000	0
6.0840778E+000	1.140281973258971E+002	-1.3116220E+000	-2.155827146214415E+002	2.8276303E-001	-1.3114165E+000	0
6.0130129E+000	1.142281973208446E+002	-1.3136766E+000	-2.184722811035017E+002	2.8700191E-001	-1.3134165E+000	0
5.8994865E+000	1.144281973157922E+002	-1.3156509E+000	-2.230110878025325E+002	2.9340476E-001	-1.3154165E+000	0
5.7634754E+000	1.146281973107398E+002	-1.3176931E+000	-2.286282125914167E+002	3.0126181E-001	-1.3174164E+000	0
5.7319646E+000	1.148281973056874E+002	-1.3196876E+000	-2.302330266667068E+002	3.0383566E-001	-1.3194164E+000	0
5.6476731E+000	1.150281973006349E+002	-1.3216439E+000	-2.340156643882619E+002	3.0928537E-001	-1.3214164E+000	0
5.6108823E+000	1.152281972955825E+002	-1.3236167E+000	-2.359017074351418E+002	3.1224346E-001	-1.3234165E+000	0
5.5143275E+000	1.154281972905301E+002	-1.3256392E+000	-2.403990693103169E+002	3.1868243E-001	-1.3254164E+000	0
5.4754934E+000	1.156281972854777E+002	-1.3276807E+000	-2.424769070099801E+002	3.2193190E-001	-1.3274164E+000	0
5.4618630E+000	1.158281972804252E+002	-1.3296163E+000	-2.434363956883908E+002	3.2367700E-001	-1.3294164E+000	0
5.5231175E+000	1.160281972753728E+002	-1.3316729E+000	-2.411089291021126E+002	3.2107824E-001	-1.3314164E+000	0
5.4880948E+000	1.162281972703204E+002	-1.3336575E+000	-2.430092021743179E+002	3.2409105E-001	-1.3334165E+000	0
5.4534221E+000	1.164281972652680E+002	-1.3356539E+000	-2.449203245591148E+002	3.2712880E-001	-1.3354164E+000	0
5.4430656E+000	1.166281972602155E+002	-1.3376856E+000	-2.457595897229075E+002	3.2874906E-001	-1.3374164E+000	0
5.3443789E+000	1.168281972551631E+002	-1.3396713E+000	-2.506692075015742E+002	3.3581433E-001	-1.3394165E+000	0
5.2887058E+000	1.170281972501107E+002	-1.3416740E+000	-2.536866405902251E+002	3.4036475E-001	-1.3414164E+000	0
5.2003875E+000	1.172281972450583E+002	-1.3436912E+000	-2.583829004218521E+002	3.4718683E-001	-1.3434165E+000	0
5.0970058E+000	1.174281972400058E+002	-1.3456572E+000	-2.640093638750964E+002	3.5526612E-001	-1.3454164E+000	0
4.9661751E+000	1.176281972349534E+002	-1.3476801E+000	-2.713718572473846E+002	3.6572245E-001	-1.3474164E+000	0
4.9125533E+000	1.178281972299010E+002	-1.3497388E+000	-2.747530142660848E+002	3.7084481E-001	-1.3494164E+000	0
4.8319860E+000	1.180281972248486E+002	-1.3516893E+000	-2.797378468524294E+002	3.7811866E-001	-1.3514163E+000	0
4.7194762E+000	1.182281972197961E+002	-1.3536851E+000	-2.868295340375835E+002	3.8827688E-001	-1.3534164E+000	0
4.7042155E+000	1.184281972147437E+002	-1.3556608E+000	-2.881799847284956E+002	3.9067429E-001	-1.3554165E+000	0
4.6259012E+000	1.186281972096913E+002	-1.3576974E+000	-2.934990000324729E+002	3.9848283E-001	-1.3574164E+000	0
4.5891118E+000	1.188281972046389E+002	-1.3597172E+000	-2.962920236046888E+002	4.0287337E-001	-1.3594164E+000	0
4.6062503E+000	1.190281971995864E+002	-1.3616784E+000	-2.956153513741874E+002	4.0253302E-001	-1.3614165E+000	0
4.4951282E+000	1.192281971945340E+002	-1.3636986E+000	-3.033725804028318E+002	4.1370878E-001	-1.3634164E+000	0
4.4625087E+000	1.194281971894816E+002	-1.3656849E+000	-3.060352454996437E+002	4.1794771E-001	-1.3654165E+000	0
4.4276276E+000	1.196281971844292E+002	-1.3677354E+000	-3.089093277081352E+002	4.2250621E-001	-1.3674165E+000	0
4.4250379E+000	1.198281971793767E+002	-1.3697131E+000	-3.095370213169083E+002	4.2397690E-001	-1.3694164E+000	0
4.4356608E+000	1.200281971743243E+002	-1.3717370E+000	-3.092520094999104E+002	4.2421243E-001	-1.3714164E+000	0
4.4480162E+000	1.202281971692719E+002	-1.3737025E+000	-3.088348933888110E+002	4.2424726E-001	-1.3734164E+000	0
4.4447436E+000	1.204281971642195E+002	-1.3757265E+000	-3.095176069925684E+002	4.2581156E-001	-1.3754165E+000	0
4.4154983E+000	1.206281971591670E+002	-1.3777165E+000	-3.120183714782289E+002	4.2987287E-001	-1.3774165E+000	0
4.4239388E+000	1.208281971541146E+002	-1.3797200E+000	-3.118759180921002E+002	4.3030143E-001	-1.3794165E+000	0
4.3728046E+000	1.210281971490622E+002	-1.3817512E+000	-3.159874023839725E+002	4.3661597E-001	-1.3814164E+000	0
4.3633356E+000	1.212281971440098E+002	-1.3837483E+000	-3.171308321098625E+002	4.3882924E-001	-1.3834165E+000	0
4.3150678E+000	1.214283971389523E+002	-1.3857670E+000	-3.211460517756918E+002	4.4503361E-001	-1.3854182E+000	0
4.2301731E+000	1.216286971338923E+002	-1.3877025E+000	-3.280486189937942E+002	4.5523387E-001	-1.3874209E+000	0
4.2673721E+000	1.218288971288348E+002	-1.3897331E+000	-3.256648559893153E+002	4.5258722E-001	-1.3894233E+000	0
4.2538362E+000	1.220290971237773E+002	-1.3917768E+000	-3.271815739548074E+002	4.5536372E-001	-1.3914253E+000	0
4.0501223E+000	1.222292971187198E+002	-1.3937733E+000	-3.441311622352914E+002	4.7964084E-001	-1.3934273E+000	0
4.0180411E+000	1.224293971136649E+002	-1.3957740E+000	-3.473767399171589E+002	4.8485944E-001	-1.3954284E+000	0
4.0557437E+000	1.226293971086125E+002	-1.3977764E+000	-3.446411821252905E+002	4.8173130E-001	-1.3974285E+000	0
4.0210524E+000	1.228293971035600E+002	-1.3997551E+000	-3.481066542904377E+002	4.8726407E-001	-1.3994285E+000	0
3.9587913E+000	1.230295970985026E+002	-1.4017878E+000	-3.540948834204214E+002	4.9636588E-001	-1.4014300E+000	0
3.9424362E+000	1.232298970934426E+002	-1.4037510E+000	-3.560618277974545E+002	4.9982214E-001	-1.4034332E+000	0
3.9736147E+000	1.234299970883876E+002	-1.4058115E+000	-3.537865831555487E+002	4.9735728E-001	-1.4054343E+000	0
3.9718478E+000	1.236301970833301E+002	-1.4078403E+000	-3.544547434957962E+002	4.9901566E-001	-1.4074360E+000	0
3.9808989E+000	1.238304970782701E+002	-1.4097689E+000	-3.541333248913356E+002	4.9924615E-001	-1.4094393E+000	0
3.8377743E+000	1.240306970732127E+002	-1.4117968E+000	-3.678686485947101E+002	5.1935577E-001	-1.4114412E+000	0
3.7688715E+000	1.242308970681552E+002	-1.4138350E+000	-3.751348461570378E+002	5.3037882E-001	-1.4134432E+000	0
3.6192701E+000	1.244310970630977E+002	-1.4157890E+000	-3.911808174239198E+002	5.5382949E-001	-1.4154452E+000	0
3.4127612E+000	1.246311970580427E+002	-1.4178009E+000	-4.154409923164221E+002	5.8901262E-001	-1.4174464E+000	0
3.3710206E+000	1.248312970529878E+002	-1.4198223E+000	-4.211847018625058E+002	5.9800744E-001	-1.4194474E+000	0
3.4009140E+000	1.250313970479328E+002	-1.4218147E+000	-4.180684009041624E+002	5.9441578E-001	-1.4214486E+000	0
3.3904090E+000	1.252314970428779E+002	-1.4238480E+000	-4.199635087162033E+002	5.9796423E-001	-1.4234494E+000	0
3.3508716E+000	1.254315970378229E+002	-1.4258330E+000	-4.255110679418867E+002	6.0670769E-001	-1.4254506E+000	0
3.3911455E+000	1.256317970327655E+002	-1.4278460E+000	-4.210512238296733E+002	6.0119629E-001	-1.4274520E+000	0
3.3779283E+000	1.258320970277055E+002	-1.4298677E+000	-4.232972509118536E+002	6.0525906E-001	-1.4294554E+000	0
3.4042113E+000	1.260321970226505E+002	-1.4318224E+000	-4.206032784779854E+002	6.0222918E-001	-1.4314564E+000	0
3.3943086E+000	1.262321970175981E+002	-1.4338086E+000	-4.224154982101886E+002	6.0566294E-001	-1.4334565E+000	0
3.3165267E+000	1.264321970125457E+002	-1.4358811E+000	-4.329472735182217E+002	6.2166083E-001	-1.4354565E+000	0
3.3065541E+000	1.266321970074932E+002	-1.4378399E+000	-4.348454110757575E+002	6.2523806E-001	-1.4374565E+000	0
3.2545331E+000	1.268321970024408E+002	-1.4398240E+000	-4.424057004759915E+002	6.3698632E-001	-1.4394565E+000	0
3.0937586E+000	1.270321969973884E+002	-1.4418786E+000	-4.660604748498808E+002	6.7200261E-001	-1.4414566E+000	0
3.0337214E+000	1.272325969923259E+002	-1.4438745E+000	-4.759416701775572E+002	6.8720001E-001	-1.4434599E+000	0
2.9857409E+000	1.274328969872658E+002	-1.4459304E+000	-4.842785651562132E+002	7.0023310E-001	-1.4454632E+000	0
3.0036838E+000	1.276330969822084E+002	-1.4478848E+000	-4.820363590450870E+002	6.9793314E-001	-1.4474652E+000	0
2.9882376E+000	1.278332969771509E+002	-1.4499241E+000	-4.852104299679231E+002	7.0351833E-001	-1.4494672E+000	0
2.9752769E+000	1.280334969720934E+002	-1.4519000E+000	-4.879881774193036E+002	7.0851004E-001	-1.4514692E+000	0
3.0349023E+000	1.282336969670359E+002	-1.4539223E+000	-4.790672403402623E+002	6.9652653E-001	-1.4534713E+000	0
3.0335228E+000	1.284338969619785E+002	-1.4559352E+000	-4.799486794761215E+002	6.9877422E-001	-1.4554734E+000	0
3.0600436E+000	1.286340969569210E+002	-1.4578878E+000	-4.764271390179292E+002	6.9457728E-001	-1.4574753E+000	0
3.0734632E+000	1.288343969518610E+002	-1.4598945E+000	-4.749998384347173E+002	6.9344968E-001	-1.4594779E+000	0
2.9299128E+000	1.290345969468035E+002	-1.4619055E+000	-4.989586993539688E+002	7.2943044E-001	-1.4614805E+000	0
2.9066834E+000	1.292346969417486E+002	-1.4638953E+000	-5.036308039003488E+002	7.3726279E-001	-1.4634812E+000	0
2.9114096E+000	1.294349969366885E+002	-1.4659405E+000	-5.035156973165522E+002	7.3812401E-001	-1.4654840E+000	0
2.9480176E+000	1.296354969316235E+002	-1.4678968E+000	-4.979267438526267E+002	7.3090506E-001	-1.4674891E+000	0
2.9495671E+000	1.298357969265635E+002	-1.4699229E+000	-4.983520773896721E+002	7.3253912E-001	-1.4694924E+000	0
2.9722114E+000	1.300358969215085E+002	-1.4719052E+000	-4.952222636478514E+002	7.2892022E-001	-1.4714932E+000	0
2.8675692E+000	1.302363969164435E+002	-1.4739126E+000	-5.139937197508543E+002	7.5758183E-001	-1.4734979E+000	0
2.7972498E+000	1.304367969113810E+002	-1.4759407E+000	-5.276399429960538E+002	7.7876526E-001	-1.4755020E+000	0
2.7866898E+000	1.306369969063235E+002	-1.4779236E+000	-5.303509706423647E+002	7.8381824E-001	-1.4775044E+000	0
2.7782018E+000	1.308369969012711E+002	-1.4799945E+000	-5.327167322024732E+002	7.8841788E-001	-1.4795045E+000	0
2.8091884E+000	1.310370968962161E+002	-1.4819256E+000	-5.275280312253490E+002	7.8175730E-001	-1.4815053E+000	0
2.7888904E+000	1.312371968911611E+002	-1.4839467E+000	-5.320921657934221E+002	7.8959638E-001	-1.4835066E+000	0
2.7181649E+000	1.314373968861037E+002	-1.4859716E+000	-5.466818929498850E+002	8.1235373E-001	-1.4855081E+000	0
2.7359600E+000	1.316376968810437E+002	-1.4879618E+000	-5.438536379793554E+002	8.0923343E-001	-1.4875114E+000	0
2.7624571E+000	1.318377968759887E+002	-1.4899331E+000	-5.393506998031853E+002	8.0359650E-001	-1.4895124E+000	0
2.7599385E+000	1.320378968709338E+002	-1.4919778E+000	-5.405837196692210E+002	8.0653894E-001	-1.4915134E+000	0
2.7787302E+000	1.322379968658788E+002	-1.4939706E+000	-5.376451001762034E+002	8.0322599E-001	-1.4935145E+000	0
2.7291656E+000	1.324379968608264E+002	-1.4959286E+000	-5.481267710272708E+002	8.1995857E-001	-1.4955144E+000	0
2.6235394E+000	1.326380968557714E+002	-1.4979972E+000	-5.709832591821214E+002	8.5533130E-001	-1.4975152E+000	0
2.4758570E+000	1.328382968507140E+002	-1.4999750E+000	-6.058407057493368E+002	9.0874588E-001	-1.4995172E+000	0
2.4637511E+000	1.330383968456590E+002	-1.5020411E+000	-6.096562081507855E+002	9.1572869E-001	-1.5015181E+000	0
2.4735143E+000	1.332383968406066E+002	-1.5039752E+000	-6.080316879419506E+002	9.1446453E-001	-1.5035182E+000	0
2.4786201E+000	1.333883968368173E+002	-1.5054817E+000	-6.073870447217196E+002	9.1441011E-001	-1.5050180E+000	0
2.4651461E+000	1.334483968353015E+002	-1.5060440E+000	-6.109349913305168E+002	9.2009497E-001	-1.5056180E+000	1