EC-Lab ASCII FILE
Nb header lines : 63                          

Linear Sweep Voltammetry

Run on channel : 1 (SN 1340)
User : 
Electrode connection : standard
Potential control : Ewe
Ewe ctrl range : min = -5.00 V, max = 10.00 V
Ewe,I filtering : <None>
Safety Limits :
	Do not start on E overload
Channel : Floating
Acquisition started on : 03/05/2026 16:59:51.126
Technique started on : 03/05/2026 16:59:53.963
Loaded Setting File :  C:\Users\volt\Documents\Platalytix\Pt_N52magB_flat_3-5.mps
Saved on :
	File : PtPdCoNi_N52magA_up_3-5_02_LSV_C01.mpr
	Directory : C:\Users\volt\Documents\Platalytix\
	Host : 127.0.0.1
Device : SP-200 (SN 0262)
Address : USB
EC-LAB for windows v11.60 (software)
Internet server v11.60 (firmware)
Command interpretor v11.60 (firmware)
Electrode material : PtPdCoNi
Initial state : 
Electrolyte : KOH (1 M)
Comments : N52 disk magnet, A side up (+), flat orientation
Cable : standard
Reference electrode : Hg/HgO (0.140 V)
Electrode surface area : 1.000 cm˛
Characteristic mass : 0.001 g
Equivalent Weight : 0.000 g/eq.
Density : 0.000 g/cm3
Volume (V) : 0.001 cmł
Cycle Definition : Charge/Discharge alternance
tR (h:m:s)          0:00:5.0000         
dER/dt (mV/h)       0.0                 
dER (mV)            0                   
dtR (s)             0.0000              
dE/dt               10.000              
dE/dt unit          mV/s                
Ei (V)              -0.200              
vs.                 Ref                 
EL (V)              -2.500              
vs.                 Ref                 
record              <I>                 
dI                  0.000               
unit dI             µA                  
tI (s)              0.0000              
step percent        50                  
N                   10                  
E range min (V)     -5.000              
E range max (V)     10.000              
I Range             Auto                
I Range min         Unset               
I Range max         Unset               
I Range init        Unset               
Bandwidth           8                   

Rwe/Ohm	time/s	Ewe/V	<I>/mA	Pwe/W	control/V	error	
0.0000000E+000	2.837400134740165E+000	-1.3937424E-001	0.000000000000000E+000	0.0000000E+000	0.0000000E+000	0
0.0000000E+000	7.837200008434593E+000	-1.8455662E-002	0.000000000000000E+000	0.0000000E+000	-1.9995478E-001	0
9.6994922E+002	8.017600003877305E+000	-2.0168832E-001	-2.079369872808456E-001	4.1938463E-005	-2.0160645E-001	0
7.7452368E+002	8.078400002341368E+000	-2.0223707E-001	-2.611115301315394E-001	5.2806430E-005	-2.0221497E-001	0
8.5729346E+002	8.318899996265827E+000	-2.0469128E-001	-2.387645450623692E-001	4.8873018E-005	-2.0462027E-001	0
1.0219608E+003	8.604099989061069E+000	-2.0753655E-001	-2.030768327094998E-001	4.2145864E-005	-2.0747206E-001	0
1.1202889E+003	8.829599983364460E+000	-2.0981552E-001	-1.872869762466185E-001	3.9295715E-005	-2.0972735E-001	0
1.2028285E+003	9.114799976159702E+000	-2.1267000E-001	-1.768082529959394E-001	3.7601811E-005	-2.1257937E-001	0
1.2869000E+003	9.414799968581065E+000	-2.1564110E-001	-1.675663081762262E-001	3.6134181E-005	-2.1557936E-001	0
1.3603832E+003	9.714799961002427E+000	-2.1864767E-001	-1.607250626902506E-001	3.5142162E-005	-2.1857935E-001	0
1.4254417E+003	1.001469995342632E+001	-2.2166021E-001	-1.555028291001941E-001	3.4468791E-005	-2.2157848E-001	0
1.4866929E+003	1.031459994585020E+001	-2.2464596E-001	-1.511044860971991E-001	3.3945013E-005	-2.2457758E-001	0
1.5434659E+003	1.061459993827157E+001	-2.2769353E-001	-1.475209304560503E-001	3.3589560E-005	-2.2757736E-001	0
1.5972755E+003	1.091459993069293E+001	-2.3070425E-001	-1.444361012111375E-001	3.3322023E-005	-2.3057736E-001	0
1.6489120E+003	1.121479992310924E+001	-2.3368391E-001	-1.417200646932466E-001	3.3117700E-005	-2.3357959E-001	0
1.6974081E+003	1.151479991553060E+001	-2.3666009E-001	-1.394243952056746E-001	3.2996191E-005	-2.3657957E-001	0
1.7452469E+003	1.181479990795197E+001	-2.3969196E-001	-1.373398569180990E-001	3.2919259E-005	-2.3957935E-001	0
1.7917848E+003	1.211469990037585E+001	-2.4264318E-001	-1.354198209769684E-001	3.2858694E-005	-2.4257846E-001	0
1.8371105E+003	1.241459989279974E+001	-2.4568284E-001	-1.337332933854478E-001	3.2855976E-005	-2.4557759E-001	0
1.8816205E+003	1.271459988522111E+001	-2.4868268E-001	-1.321640994973765E-001	3.2866923E-005	-2.4857736E-001	0
1.9241339E+003	1.301459987764247E+001	-2.5165549E-001	-1.307889707919689E-001	3.2913762E-005	-2.5157759E-001	0
1.9673556E+003	1.331479987005878E+001	-2.5466979E-001	-1.294477676132595E-001	3.2966436E-005	-2.5457957E-001	0
2.0088333E+003	1.361479986248014E+001	-2.5768957E-001	-1.282782266645490E-001	3.3055960E-005	-2.5757980E-001	0
2.0505266E+003	1.391479985490150E+001	-2.6066068E-001	-1.271188978741800E-001	3.3134897E-005	-2.6057962E-001	0
2.0909963E+003	1.421459984732792E+001	-2.6363572E-001	-1.260813917621263E-001	3.3239558E-005	-2.6357761E-001	0
2.1325786E+003	1.451459983974928E+001	-2.6663128E-001	-1.250276348627803E-001	3.3336277E-005	-2.6657760E-001	0
2.1726965E+003	1.481459983217064E+001	-2.6967725E-001	-1.241209975795412E-001	3.3472610E-005	-2.6957759E-001	0
2.2127185E+003	1.511469982458948E+001	-2.7267686E-001	-1.232316058734679E-001	3.3602406E-005	-2.7257866E-001	0
2.2533230E+003	1.541479981700832E+001	-2.7568057E-001	-1.223440153629767E-001	3.3727869E-005	-2.7557960E-001	0
2.2939434E+003	1.571479980942968E+001	-2.7867380E-001	-1.214824228263929E-001	3.3853968E-005	-2.7857959E-001	0
2.3332295E+003	1.601469980185357E+001	-2.8169340E-001	-1.207311191073477E-001	3.4009161E-005	-2.8157875E-001	0
2.3729563E+003	1.631459979427746E+001	-2.8469038E-001	-1.199728714972785E-001	3.4155124E-005	-2.8457758E-001	0
2.4128674E+003	1.661459978669882E+001	-2.8768665E-001	-1.192301919619387E-001	3.4300934E-005	-2.8757760E-001	0
2.4522498E+003	1.691459977912018E+001	-2.9071733E-001	-1.185512750481786E-001	3.4464909E-005	-2.9057759E-001	0
2.4926155E+003	1.721469977153902E+001	-2.9367143E-001	-1.178165766599779E-001	3.4599361E-005	-2.9357865E-001	0
2.5302446E+003	1.751479976395785E+001	-2.9668605E-001	-1.172558733874198E-001	3.4788183E-005	-2.9657957E-001	0
2.5705872E+003	1.781479975637922E+001	-2.9971400E-001	-1.165935949274715E-001	3.4944733E-005	-2.9957959E-001	0
2.6069333E+003	1.811469974880310E+001	-3.0266044E-001	-1.160982640877180E-001	3.5138350E-005	-3.0257875E-001	0
2.6472935E+003	1.841459974122699E+001	-3.0569166E-001	-1.154732763586348E-001	3.5299217E-005	-3.0557758E-001	0
2.6846060E+003	1.871459973364836E+001	-3.0870163E-001	-1.149895543529926E-001	3.5497462E-005	-3.0857763E-001	0
2.7248894E+003	1.901459972606972E+001	-3.1172192E-001	-1.143980037098581E-001	3.5660367E-005	-3.1157762E-001	0
2.7660757E+003	1.931469971848855E+001	-3.1470755E-001	-1.137740188496823E-001	3.5805544E-005	-3.1457865E-001	0
2.8044204E+003	1.961479971090739E+001	-3.1765610E-001	-1.132697845413364E-001	3.5980836E-005	-3.1757963E-001	0
2.8463298E+003	1.991479970332875E+001	-3.2072747E-001	-1.126810619106928E-001	3.6139911E-005	-3.2057959E-001	0
2.8853528E+003	2.021469969575264E+001	-3.2368886E-001	-1.121834581819625E-001	3.6312536E-005	-3.2357872E-001	0
2.9258167E+003	2.051459968817653E+001	-3.2671243E-001	-1.116653833899957E-001	3.6482470E-005	-3.2657763E-001	0
2.9661443E+003	2.081459968059789E+001	-3.2971430E-001	-1.111592205509410E-001	3.6650785E-005	-3.2957759E-001	0
3.0054626E+003	2.111459967301926E+001	-3.3268669E-001	-1.106940042560784E-001	3.6826423E-005	-3.3257759E-001	0
3.0469949E+003	2.141469966543809E+001	-3.3571982E-001	-1.101806311054773E-001	3.6989823E-005	-3.3557865E-001	0
3.0894512E+003	2.171479965785693E+001	-3.3870184E-001	-1.096317229330662E-001	3.7132468E-005	-3.3857957E-001	0
3.1320198E+003	2.201479965027829E+001	-3.4172222E-001	-1.091060217705078E-001	3.7283953E-005	-3.4157959E-001	0
3.1746182E+003	2.231469964270218E+001	-3.4471089E-001	-1.085834191559193E-001	3.7429887E-005	-3.4457871E-001	0
3.2182478E+003	2.261459963512607E+001	-3.4770319E-001	-1.080411500489484E-001	3.7566253E-005	-3.4757760E-001	0
3.2601902E+003	2.291459962754743E+001	-3.5064459E-001	-1.075534145511701E-001	3.7713024E-005	-3.5057762E-001	0
3.3034463E+003	2.321459961996879E+001	-3.5370797E-001	-1.070724154495428E-001	3.7872367E-005	-3.5357761E-001	0
3.3485134E+003	2.351469961238763E+001	-3.5669562E-001	-1.065235768219184E-001	3.7996495E-005	-3.5657868E-001	0
3.3933484E+003	2.381479960480647E+001	-3.5966265E-001	-1.059904890460830E-001	3.8120819E-005	-3.5957959E-001	0
3.4349622E+003	2.411479959722783E+001	-3.6268923E-001	-1.055875468678502E-001	3.8295464E-005	-3.6257961E-001	0
3.4797441E+003	2.441469958965172E+001	-3.6569443E-001	-1.050923318272512E-001	3.8431681E-005	-3.6557868E-001	0
3.5257759E+003	2.471459958207561E+001	-3.6869669E-001	-1.045717908959827E-001	3.8555274E-005	-3.6857760E-001	0
3.5709507E+003	2.501459957449697E+001	-3.7166476E-001	-1.040800585239173E-001	3.8682891E-005	-3.7157765E-001	0
3.6170967E+003	2.531459956691833E+001	-3.7468326E-001	-1.035867403417461E-001	3.8812217E-005	-3.7457758E-001	0
3.6645583E+003	2.561469955933717E+001	-3.7767014E-001	-1.030602040105426E-001	3.8922761E-005	-3.7757868E-001	0
3.7090554E+003	2.591479955175600E+001	-3.8068494E-001	-1.026366307247422E-001	3.9072220E-005	-3.8057962E-001	0
3.7581279E+003	2.621479954417737E+001	-3.8373443E-001	-1.021078695481732E-001	3.9182305E-005	-3.8357961E-001	0
3.8038896E+003	2.651469953660126E+001	-3.8669354E-001	-1.016574041042002E-001	3.9310260E-005	-3.8657874E-001	0
3.8538252E+003	2.681459952902514E+001	-3.8965538E-001	-1.011087356277379E-001	3.9397564E-005	-3.8957763E-001	0
3.9006455E+003	2.711459952144651E+001	-3.9270520E-001	-1.006769770249263E-001	3.9536371E-005	-3.9257762E-001	0
3.9493010E+003	2.741459951386787E+001	-3.9573091E-001	-1.002027706920607E-001	3.9653332E-005	-3.9557758E-001	0
3.9974504E+003	2.771479950628418E+001	-3.9870220E-001	-9.973912144365826E-002	3.9766208E-005	-3.9857963E-001	0
4.0469321E+003	2.801479949870554E+001	-4.0170979E-001	-9.926279532290816E-002	3.9874838E-005	-4.0157986E-001	0
4.0958950E+003	2.831479949112691E+001	-4.0472633E-001	-9.881266941051017E-002	3.9992090E-005	-4.0457961E-001	0
4.1471685E+003	2.861459948355332E+001	-4.0770414E-001	-9.830904006572083E-002	4.0081002E-005	-4.0757763E-001	0
4.1988701E+003	2.891459947597468E+001	-4.1065532E-001	-9.780138690771167E-002	4.0162660E-005	-4.1057760E-001	0
4.2509526E+003	2.921459946839605E+001	-4.1368636E-001	-9.731615451086340E-002	4.0258365E-005	-4.1357762E-001	0
4.3031929E+003	2.951459946081741E+001	-4.1667861E-001	-9.683010523507174E-002	4.0347033E-005	-4.1657758E-001	0
4.3565645E+003	2.981479945323372E+001	-4.1968930E-001	-9.633491752375678E-002	4.0430736E-005	-4.1957960E-001	0
4.4113682E+003	3.011479944565508E+001	-4.2272797E-001	-9.582695667605368E-002	4.0508734E-005	-4.2257985E-001	0
4.4636118E+003	3.041479943807644E+001	-4.2568922E-001	-9.536878201274002E-002	4.0597464E-005	-4.2557961E-001	0
4.5210278E+003	3.071459943050286E+001	-4.2870224E-001	-9.482406000819077E-002	4.0651288E-005	-4.2857763E-001	0
4.5769521E+003	3.101459942292422E+001	-4.3170264E-001	-9.432098945674028E-002	4.0718620E-005	-4.3157765E-001	0
4.6366133E+003	3.131459941534558E+001	-4.3467656E-001	-9.374872386305877E-002	4.0750372E-005	-4.3457761E-001	0
4.6912344E+003	3.161459940776695E+001	-4.3767610E-001	-9.329657732783714E-002	4.0833682E-005	-4.3757764E-001	0
4.7548662E+003	3.191479940018326E+001	-4.4074231E-001	-9.269289570859685E-002	4.0853680E-005	-4.4057959E-001	0
4.8117666E+003	3.221479939260462E+001	-4.4372135E-001	-9.221589429722243E-002	4.0918163E-005	-4.4357985E-001	0
4.8760845E+003	3.251479938502598E+001	-4.4672334E-001	-9.161517870632874E-002	4.0926639E-005	-4.4657958E-001	0
4.9377432E+003	3.281459937745240E+001	-4.4970143E-001	-9.107428203634560E-002	4.0956234E-005	-4.4957766E-001	0
4.9984805E+003	3.311459936987376E+001	-4.5271403E-001	-9.057033077779512E-002	4.1002459E-005	-4.5257765E-001	0
5.0657490E+003	3.341459936229512E+001	-4.5573747E-001	-8.996447809960939E-002	4.1000185E-005	-4.5557761E-001	0
5.1305781E+003	3.371459935471648E+001	-4.5871326E-001	-8.940771542008163E-002	4.1012507E-005	-4.5857763E-001	0
5.1970479E+003	3.401479934713279E+001	-4.6172264E-001	-8.884325371901447E-002	4.1020943E-005	-4.6157962E-001	0
5.2681587E+003	3.431479933955416E+001	-4.6470031E-001	-8.820924994802215E-002	4.0990864E-005	-4.6457982E-001	0
5.3374468E+003	3.461479933197552E+001	-4.6771908E-001	-8.762974201530965E-002	4.0986102E-005	-4.6757966E-001	0
5.4071392E+003	3.491459932440193E+001	-4.7071707E-001	-8.705473427791999E-002	4.0978150E-005	-4.7057760E-001	0
5.4826924E+003	3.521459931682330E+001	-4.7371292E-001	-8.640151301426757E-002	4.0929513E-005	-4.7357765E-001	0
5.5579858E+003	3.551459930924466E+001	-4.7669777E-001	-8.576808207673492E-002	4.0885454E-005	-4.7657758E-001	0
5.6308447E+003	3.581459930166602E+001	-4.7968602E-001	-8.518899753237008E-002	4.0863972E-005	-4.7957763E-001	0
5.7116826E+003	3.611479929408233E+001	-4.8269451E-001	-8.451003348031039E-002	4.0792529E-005	-4.8257962E-001	0
5.7901284E+003	3.641479928650369E+001	-4.8571107E-001	-8.388606426139308E-002	4.0744391E-005	-4.8557982E-001	0
5.8723647E+003	3.671479927892506E+001	-4.8870012E-001	-8.322032970751625E-002	4.0669784E-005	-4.8857963E-001	0
5.9529199E+003	3.701459927135147E+001	-4.9170777E-001	-8.259942846974933E-002	4.0614781E-005	-4.9157760E-001	0
6.0389878E+003	3.731459926377283E+001	-4.9473083E-001	-8.192280422632114E-002	4.0529736E-005	-4.9457759E-001	0
6.1225781E+003	3.761459925619420E+001	-4.9769732E-001	-8.128885091500571E-002	4.0457242E-005	-4.9757767E-001	0
6.2112646E+003	3.791459924861556E+001	-5.0069666E-001	-8.061106205363755E-002	4.0361690E-005	-5.0057763E-001	0
6.3027559E+003	3.821479924103187E+001	-5.0369215E-001	-7.991617771783921E-002	4.0253151E-005	-5.0357985E-001	0
6.3923418E+003	3.851479923345323E+001	-5.0667280E-001	-7.926247105240314E-002	4.0160139E-005	-5.0657988E-001	0
6.4881958E+003	3.881469922587712E+001	-5.0972134E-001	-7.856133913708496E-002	4.0044390E-005	-5.0957894E-001	0
6.5818159E+003	3.911459921830101E+001	-5.1272732E-001	-7.790058896736088E-002	3.9941759E-005	-5.1257765E-001	0
6.6791431E+003	3.941459921072237E+001	-5.1571530E-001	-7.721279630442252E-002	3.9819821E-005	-5.1557785E-001	0
6.7783604E+003	3.971459920314373E+001	-5.1873177E-001	-7.652761651405104E-002	3.9697305E-005	-5.1857769E-001	0
6.8717495E+003	4.001469919556257E+001	-5.2168524E-001	-7.591738099275958E-002	3.9604976E-005	-5.2157909E-001	0
6.9723599E+003	4.031479918798141E+001	-5.2470368E-001	-7.525481771804943E-002	3.9486480E-005	-5.2457964E-001	0
7.0714175E+003	4.061479918040277E+001	-5.2771753E-001	-7.462683802985226E-002	3.9381892E-005	-5.2757990E-001	0
7.1745781E+003	4.091469917282666E+001	-5.3070694E-001	-7.397047369368581E-002	3.9256644E-005	-5.3057879E-001	0
7.2784961E+003	4.121459916525055E+001	-5.3371674E-001	-7.332788912687738E-002	3.9136321E-005	-5.3357816E-001	0
7.3780029E+003	4.151459915767191E+001	-5.3675562E-001	-7.275080274078127E-002	3.9049402E-005	-5.3657764E-001	0
7.4868594E+003	4.181459915009327E+001	-5.3975111E-001	-7.209312653178346E-002	3.8912345E-005	-5.3957790E-001	0
7.5991216E+003	4.211469914251211E+001	-5.4274553E-001	-7.142214158534377E-002	3.8764047E-005	-5.4257876E-001	0
7.6987539E+003	4.241479913493095E+001	-5.4571521E-001	-7.088357814391966E-002	3.8682247E-005	-5.4557991E-001	0
7.8131958E+003	4.271479912735231E+001	-5.4873341E-001	-7.023162291373386E-002	3.8538437E-005	-5.4857975E-001	0
7.9202856E+003	4.301459911977872E+001	-5.5170792E-001	-6.965757915060733E-002	3.8430637E-005	-5.5157804E-001	0
8.0275181E+003	4.331459911220009E+001	-5.5473638E-001	-6.910434600283577E-002	3.8334696E-005	-5.5457771E-001	0
8.1366030E+003	4.361459910462145E+001	-5.5772883E-001	-6.854566162692599E-002	3.8229893E-005	-5.5757791E-001	0
8.2473711E+003	4.391459909704281E+001	-5.6073684E-001	-6.798976787401001E-002	3.8124366E-005	-5.6057763E-001	0
8.3523975E+003	4.421469908946165E+001	-5.6375885E-001	-6.749665067899452E-002	3.8051836E-005	-5.6357896E-001	0
8.4641055E+003	4.451479908188048E+001	-5.6674820E-001	-6.695901812412530E-002	3.7948903E-005	-5.6657982E-001	0
8.5638994E+003	4.481479907430185E+001	-5.6972021E-001	-6.652579452004953E-002	3.7901089E-005	-5.6957972E-001	0
8.6810996E+003	4.511469906672573E+001	-5.7270354E-001	-6.597131534177811E-002	3.7782007E-005	-5.7257885E-001	0
8.7719746E+003	4.541459905914962E+001	-5.7577538E-001	-6.563805953771007E-002	3.7792779E-005	-5.7557809E-001	0
8.8756250E+003	4.571459905157099E+001	-5.7879889E-001	-6.521218088748348E-002	3.7744740E-005	-5.7857764E-001	0
8.9902002E+003	4.601459904399235E+001	-5.8180630E-001	-6.471560830895523E-002	3.7651949E-005	-5.8157784E-001	0
9.0983604E+003	4.631469903641118E+001	-5.8478153E-001	-6.427328452958014E-002	3.7585829E-005	-5.8457875E-001	0
9.2058789E+003	4.661479902883002E+001	-5.8777678E-001	-6.384798255197466E-002	3.7528360E-005	-5.8757985E-001	0
9.3138301E+003	4.691469902125391E+001	-5.9074837E-001	-6.342700656361178E-002	3.7469399E-005	-5.9057885E-001	0
9.4186670E+003	4.721459901367780E+001	-5.9379023E-001	-6.304397898416636E-002	3.7434900E-005	-5.9357792E-001	0
9.5163506E+003	4.751459900609916E+001	-5.9679687E-001	-6.271278565078431E-002	3.7426795E-005	-5.9657764E-001	0
9.6149473E+003	4.781459899852052E+001	-5.9979862E-001	-6.238189392927196E-002	3.7416576E-005	-5.9957790E-001	0
9.7255615E+003	4.811459899094189E+001	-6.0276532E-001	-6.197742992299193E-002	3.7357844E-005	-6.0257769E-001	0
9.8188643E+003	4.841469898336072E+001	-6.0576373E-001	-6.169387173493268E-002	3.7371909E-005	-6.0557902E-001	0
9.9225420E+003	4.871479897577956E+001	-6.0877901E-001	-6.135312811971955E-002	3.7350495E-005	-6.0857993E-001	0
1.0019004E+004	4.901469896820345E+001	-6.1177427E-001	-6.106138528878652E-002	3.7355785E-005	-6.1157870E-001	0
1.0114499E+004	4.931469896062481E+001	-6.1479378E-001	-6.078341146532718E-002	3.7369264E-005	-6.1457878E-001	0
1.0203074E+004	4.961459895304870E+001	-6.1779267E-001	-6.054966086631652E-002	3.7407135E-005	-6.1757791E-001	0
1.0296659E+004	4.991459894547006E+001	-6.2075984E-001	-6.028749955301449E-002	3.7424059E-005	-6.2057793E-001	0
1.0397169E+004	5.021459893789142E+001	-6.2380105E-001	-5.999720442347053E-002	3.7426318E-005	-6.2357783E-001	0
1.0477714E+004	5.051479893030773E+001	-6.2678063E-001	-5.982036367744414E-002	3.7494246E-005	-6.2657964E-001	0
1.0573286E+004	5.081479892272910E+001	-6.2978119E-001	-5.956342901426931E-002	3.7511927E-005	-6.2958008E-001	0
1.0653188E+004	5.111469891515299E+001	-6.3280463E-001	-5.940049770286560E-002	3.7588910E-005	-6.3257879E-001	0
1.0740874E+004	5.141459890757687E+001	-6.3577420E-001	-5.919203441340826E-002	3.7632770E-005	-6.3557792E-001	0
1.0825427E+004	5.171459889999824E+001	-6.3878304E-001	-5.900765252064577E-002	3.7693088E-005	-6.3857776E-001	0
1.0900494E+004	5.201459889241960E+001	-6.4176476E-001	-5.887483078400392E-002	3.7783793E-005	-6.4157790E-001	0
1.0991345E+004	5.231459888484096E+001	-6.4478910E-001	-5.866334765372128E-002	3.7825488E-005	-6.4457792E-001	0
1.1063350E+004	5.261479887725727E+001	-6.4777774E-001	-5.855168111195863E-002	3.7928476E-005	-6.4757973E-001	0
1.1141124E+004	5.291469886968116E+001	-6.5080202E-001	-5.841439644952695E-002	3.8016206E-005	-6.5057904E-001	0
1.1232212E+004	5.321469886210252E+001	-6.5378290E-001	-5.820606784786253E-002	3.8054131E-005	-6.5357888E-001	0
1.1294617E+004	5.351459885452641E+001	-6.5678048E-001	-5.814986776950681E-002	3.8191698E-005	-6.5657765E-001	0
1.1367257E+004	5.381459884694777E+001	-6.5977275E-001	-5.804150980238471E-002	3.8294205E-005	-6.5957791E-001	0
1.1442966E+004	5.411459883936914E+001	-6.6276079E-001	-5.791862175345996E-002	3.8386192E-005	-6.6257769E-001	0
1.1506590E+004	5.441459883179050E+001	-6.6578847E-001	-5.786149571525569E-002	3.8523518E-005	-6.6557795E-001	0
1.1569201E+004	5.471479882420681E+001	-6.6874820E-001	-5.780418312018698E-002	3.8656442E-005	-6.6857988E-001	0
1.1639425E+004	5.501479881662817E+001	-6.7175150E-001	-5.771346062872790E-002	3.8769103E-005	-6.7157990E-001	0
1.1699432E+004	5.531469880905206E+001	-6.7476696E-001	-5.767518966645047E-002	3.8917311E-005	-6.7457879E-001	0
1.1763428E+004	5.561459880147595E+001	-6.7778146E-001	-5.761768315902398E-002	3.9052196E-005	-6.7757785E-001	0
1.1822771E+004	5.591459879389731E+001	-6.8075669E-001	-5.758012944828383E-002	3.9198057E-005	-6.8057770E-001	0
1.1879116E+004	5.621459878631867E+001	-6.8376762E-001	-5.756047991172908E-002	3.9357994E-005	-6.8357784E-001	0
1.1940284E+004	5.651459877874004E+001	-6.8675917E-001	-5.751614779155967E-002	3.9499741E-005	-6.8657792E-001	0
1.1987162E+004	5.681479877115635E+001	-6.8978935E-001	-5.754400914145164E-002	3.9693245E-005	-6.8957973E-001	0
1.2035383E+004	5.711469876358024E+001	-6.9278258E-001	-5.756215392247699E-002	3.9878058E-005	-6.9257903E-001	0
1.2098145E+004	5.741469875600160E+001	-6.9576806E-001	-5.751031140651863E-002	4.0013838E-005	-6.9557881E-001	0
1.2147329E+004	5.771459874842549E+001	-6.9875836E-001	-5.752362080743145E-002	4.0195111E-005	-6.9857800E-001	0
1.2194016E+004	5.801459874084685E+001	-7.0178616E-001	-5.755168403238631E-002	4.0388975E-005	-7.0157772E-001	0
1.2232540E+004	5.831459873326821E+001	-7.0475018E-001	-5.761274456658039E-002	4.0602594E-005	-7.0457768E-001	0
1.2268663E+004	5.861459872568958E+001	-7.0776975E-001	-5.768923163388495E-002	4.0830691E-005	-7.0757794E-001	0
1.2324092E+004	5.891479871810589E+001	-7.1077126E-001	-5.767331646698805E-002	4.0992534E-005	-7.1057993E-001	0
1.2347983E+004	5.921479871052725E+001	-7.1376717E-001	-5.780434951832808E-002	4.1258849E-005	-7.1357989E-001	0
1.2397146E+004	5.951469870295114E+001	-7.1676463E-001	-5.781690734793937E-002	4.1441115E-005	-7.1657878E-001	0
1.2417265E+004	5.981459869537503E+001	-7.1975356E-001	-5.796394027667429E-002	4.1719752E-005	-7.1957797E-001	0
1.2457537E+004	6.011459868779639E+001	-7.2277403E-001	-5.801901280796384E-002	4.1934636E-005	-7.2257793E-001	0
1.2490381E+004	6.041459868021775E+001	-7.2578114E-001	-5.810720516812840E-002	4.2173113E-005	-7.2557777E-001	0
1.2510188E+004	6.071459867263911E+001	-7.2877407E-001	-5.825444657557124E-002	4.2454329E-005	-7.2857785E-001	0
1.2521405E+004	6.101479866505542E+001	-7.3179495E-001	-5.844351737446890E-002	4.2768672E-005	-7.3157966E-001	0
1.2561682E+004	6.131469865747931E+001	-7.3480135E-001	-5.849545950415069E-002	4.2982541E-005	-7.3457909E-001	0
1.2575719E+004	6.161469864990067E+001	-7.3780358E-001	-5.866889860895541E-002	4.3286123E-005	-7.3757875E-001	0
1.2584018E+004	6.191459864232456E+001	-7.4078703E-001	-5.886729261028467E-002	4.3608128E-005	-7.4057800E-001	0
1.2596642E+004	6.221459863474593E+001	-7.4375343E-001	-5.904378597426807E-002	4.3914017E-005	-7.4357766E-001	0
1.2612916E+004	6.251459862716729E+001	-7.4679846E-001	-5.920902408908379E-002	4.4217210E-005	-7.4657792E-001	0
1.2607799E+004	6.281469861958612E+001	-7.4981779E-001	-5.947253804939068E-002	4.4593566E-005	-7.4957871E-001	0
1.2606067E+004	6.311479861200496E+001	-7.5273347E-001	-5.971199586396625E-002	4.4947217E-005	-7.5257993E-001	0
1.2600149E+004	6.341469860442885E+001	-7.5580394E-001	-5.998372735736468E-002	4.5335939E-005	-7.5557876E-001	0
1.2603212E+004	6.371469859685021E+001	-7.5875604E-001	-6.020338562742622E-002	4.5679684E-005	-7.5857878E-001	0
1.2596674E+004	6.401459858927410E+001	-7.6178491E-001	-6.047508321117578E-002	4.6069006E-005	-7.6157790E-001	0
1.2576685E+004	6.431459858169546E+001	-7.6480645E-001	-6.081145389629472E-002	4.6508991E-005	-7.6457798E-001	0
1.2544715E+004	6.461459857411683E+001	-7.6778948E-001	-6.120422195875985E-002	4.6991958E-005	-7.6757777E-001	0
1.2527011E+004	6.491469856653566E+001	-7.7079594E-001	-6.153071709754054E-002	4.7427628E-005	-7.7057904E-001	0
1.2527052E+004	6.521479855895450E+001	-7.7380782E-001	-6.177094407518857E-002	4.7798840E-005	-7.7357966E-001	0
1.2489382E+004	6.551469855137839E+001	-7.7677995E-001	-6.219523014620512E-002	4.8312009E-005	-7.7657902E-001	0
1.2459514E+004	6.581469854379975E+001	-7.7978402E-001	-6.258542924535432E-002	4.8803118E-005	-7.7957880E-001	0
1.2418192E+004	6.611459853622364E+001	-7.8279030E-001	-6.303577045209036E-002	4.9343791E-005	-7.8257799E-001	0
1.2359988E+004	6.641459852864500E+001	-7.8579324E-001	-6.357556555242380E-002	4.9957249E-005	-7.8557789E-001	0
1.2323396E+004	6.671459852106636E+001	-7.8879291E-001	-6.400775592582342E-002	5.0488863E-005	-7.8857785E-001	0
1.2268764E+004	6.701469851348520E+001	-7.9177523E-001	-6.453586268761347E-002	5.1097897E-005	-7.9157871E-001	0
1.2200978E+004	6.731479850590404E+001	-7.9476142E-001	-6.513916028763594E-002	5.1770090E-005	-7.9457992E-001	0
1.2136260E+004	6.761469849832793E+001	-7.9783386E-001	-6.573968337511790E-002	5.2449344E-005	-7.9757881E-001	0
1.2072141E+004	6.791469849074929E+001	-8.0078202E-001	-6.633305706469539E-002	5.3118321E-005	-8.0057913E-001	0
1.2005735E+004	6.821459848317318E+001	-8.0376977E-001	-6.694881519137486E-002	5.3811433E-005	-8.0357772E-001	0
1.1955320E+004	6.851459847559454E+001	-8.0677116E-001	-6.748218826471653E-002	5.4442684E-005	-8.0657792E-001	0
1.1850739E+004	6.881459846801590E+001	-8.0974817E-001	-6.832891489589077E-002	5.5329216E-005	-8.0957770E-001	0
1.1760795E+004	6.911469846043474E+001	-8.1275451E-001	-6.910710770600959E-002	5.6167115E-005	-8.1257892E-001	0
1.1668875E+004	6.941479845285357E+001	-8.1578666E-001	-6.991133930137788E-002	5.7032739E-005	-8.1557965E-001	0
1.1545928E+004	6.971469844527746E+001	-8.1876242E-001	-7.091352252524075E-002	5.8061327E-005	-8.1857902E-001	0
1.1462649E+004	7.001469843769883E+001	-8.2175815E-001	-7.169006918624388E-002	5.8911897E-005	-8.2157880E-001	0
1.1310682E+004	7.031459843012271E+001	-8.2480145E-001	-7.292234454135826E-002	6.0146456E-005	-8.2457793E-001	0
1.1217391E+004	7.061459842254408E+001	-8.2774001E-001	-7.379077891092489E-002	6.1079583E-005	-8.2757771E-001	0
1.1082166E+004	7.091459841496544E+001	-8.3076853E-001	-7.496445657301337E-002	6.2278108E-005	-8.3057821E-001	0
1.0925343E+004	7.121469840738428E+001	-8.3374578E-001	-7.631300724725709E-002	6.3625645E-005	-8.3357871E-001	0
1.0757023E+004	7.151479839980311E+001	-8.3676761E-001	-7.778802788953598E-002	6.5090506E-005	-8.3657974E-001	0
1.0567274E+004	7.181469839222700E+001	-8.3975774E-001	-7.946776746076101E-002	6.6733672E-005	-8.3957875E-001	0
1.0349443E+004	7.211469838464836E+001	-8.4275287E-001	-8.142977979201604E-002	6.8625181E-005	-8.4257913E-001	0
1.0084881E+004	7.241459837707225E+001	-8.4580338E-001	-8.386845334611603E-002	7.0936221E-005	-8.4557772E-001	0
9.8017383E+003	7.271459836949361E+001	-8.4877521E-001	-8.659435953442951E-002	7.3499148E-005	-8.4857792E-001	0
9.4605928E+003	7.301459836191498E+001	-8.5178804E-001	-9.003538080937457E-002	7.6691060E-005	-8.5157770E-001	0
9.0956582E+003	7.331469835433381E+001	-8.5476840E-001	-9.397543215757442E-002	8.0327227E-005	-8.5457921E-001	0
8.7268525E+003	7.361479834675265E+001	-8.5779303E-001	-9.829351933837560E-002	8.4315499E-005	-8.5757977E-001	0
8.3799561E+003	7.391479833917401E+001	-8.6076546E-001	-1.027171830715795E-001	8.8415400E-005	-8.6057997E-001	0
8.0838311E+003	7.421459833160043E+001	-8.6381018E-001	-1.068565376274864E-001	9.2303766E-005	-8.6357790E-001	0
7.8459663E+003	7.451459832402179E+001	-8.6676580E-001	-1.104727884583361E-001	9.5754032E-005	-8.6657792E-001	0
7.6743125E+003	7.481459831644315E+001	-8.6979055E-001	-1.133379094095899E-001	9.8580240E-005	-8.6957771E-001	0
7.5215386E+003	7.511459830886452E+001	-8.7277722E-001	-1.160370614019666E-001	1.0127451E-004	-8.7257797E-001	0
7.3462280E+003	7.541479830128083E+001	-8.7582058E-001	-1.192204471882947E-001	1.0441572E-004	-8.7557977E-001	0
7.1750103E+003	7.571469829370471E+001	-8.7883353E-001	-1.224853359378943E-001	1.0764422E-004	-8.7857932E-001	0
6.9499927E+003	7.601479828612355E+001	-8.8178611E-001	-1.268758351442969E-001	1.1187735E-004	-8.8157976E-001	0
6.7108779E+003	7.631459827854997E+001	-8.8483483E-001	-1.318508328645054E-001	1.1666621E-004	-8.8457793E-001	0
6.4355576E+003	7.661459827097133E+001	-8.8780361E-001	-1.379528627844057E-001	1.2247504E-004	-8.8757783E-001	0
6.1247188E+003	7.691459826339269E+001	-8.9079487E-001	-1.454425706426425E-001	1.2955950E-004	-8.9057791E-001	0
5.7861250E+003	7.721459825581405E+001	-8.9378548E-001	-1.544704708373466E-001	1.3806346E-004	-8.9357769E-001	0
5.3687222E+003	7.751479824823036E+001	-8.9679945E-001	-1.670415076208946E-001	1.4980273E-004	-8.9657992E-001	0
4.9270493E+003	7.781459824065678E+001	-8.9983380E-001	-1.826313714925776E-001	1.6433788E-004	-8.9957798E-001	0
4.5417275E+003	7.811459823307814E+001	-9.0284145E-001	-1.987881131175122E-001	1.7947415E-004	-9.0257770E-001	0
4.1359248E+003	7.841459822549950E+001	-9.0583551E-001	-2.190164323483827E-001	1.9839287E-004	-9.0557790E-001	0
3.7297959E+003	7.871459821792087E+001	-9.0883148E-001	-2.436678833715422E-001	2.2145304E-004	-9.0857792E-001	0
3.3357917E+003	7.901469821033970E+001	-9.1181397E-001	-2.733425968830758E-001	2.4923761E-004	-9.1157871E-001	0
2.9612395E+003	7.931479820275854E+001	-9.1486037E-001	-3.089450842675303E-001	2.8264162E-004	-9.1457993E-001	0
2.6190222E+003	7.961469819518243E+001	-9.1784996E-001	-3.504551910723430E-001	3.2166528E-004	-9.1757876E-001	0
2.2398821E+003	7.991459818760632E+001	-9.2085797E-001	-4.111189629949923E-001	3.7858216E-004	-9.2057776E-001	0
1.9842300E+003	8.021459818002768E+001	-9.2382270E-001	-4.655824686979715E-001	4.3011564E-004	-9.2357808E-001	0
1.7497046E+003	8.051459817244904E+001	-9.2684138E-001	-5.297130533719283E-001	4.9095997E-004	-9.2657781E-001	0
1.5052963E+003	8.081479816486535E+001	-9.2986268E-001	-6.177273336454463E-001	5.7440158E-004	-9.2957979E-001	0
1.3249374E+003	8.111469815728924E+001	-9.3288624E-001	-7.040983468450837E-001	6.5684365E-004	-9.3257898E-001	0
1.1581644E+003	8.141459814971313E+001	-9.3582988E-001	-8.080284690110275E-001	7.5617718E-004	-9.3557799E-001	0
1.0169467E+003	8.171459814213449E+001	-9.3887961E-001	-9.232338122990491E-001	8.6680538E-004	-9.3857795E-001	0
8.8990753E+002	8.202969813417440E+001	-9.4196969E-001	-1.058502884627538E+000	9.9707767E-004	-9.4172883E-001	0
7.8867963E+002	8.232969812659576E+001	-9.4496018E-001	-1.198154665612037E+000	1.1322084E-003	-9.4472915E-001	0
7.0384979E+002	8.261479811939353E+001	-9.4782549E-001	-1.346630348218592E+000	1.2763706E-003	-9.4758004E-001	0
6.2803571E+002	8.289989811219129E+001	-9.5065087E-001	-1.513689166439777E+000	1.4389899E-003	-9.5043081E-001	0
5.7101721E+002	8.317019810536294E+001	-9.5337731E-001	-1.669612243194603E+000	1.5917704E-003	-9.5313376E-001	0
5.1898212E+002	8.345519809816324E+001	-9.5623726E-001	-1.842524515794362E+000	1.7618906E-003	-9.5598376E-001	0
4.7207736E+002	8.374009809096606E+001	-9.5905787E-001	-2.031569278237633E+000	1.9483925E-003	-9.5883310E-001	0
4.3215842E+002	8.402519808376383E+001	-9.6187699E-001	-2.225750939723175E+000	2.1408987E-003	-9.6168393E-001	0
3.9403464E+002	8.432539807618014E+001	-9.6490610E-001	-2.448785019713050E+000	2.3628476E-003	-9.6468580E-001	0
3.6154279E+002	8.462519806860655E+001	-9.6792036E-001	-2.677194456847140E+000	2.5913110E-003	-9.6768391E-001	0
3.3420358E+002	8.491019806140685E+001	-9.7077048E-001	-2.904728035521956E+000	2.8198243E-003	-9.7053379E-001	0
3.1180502E+002	8.518029805458355E+001	-9.7346389E-001	-3.122027477811365E+000	3.0391810E-003	-9.7323537E-001	0
2.9102228E+002	8.545059804775519E+001	-9.7615796E-001	-3.354237857855047E+000	3.2742659E-003	-9.7593802E-001	0
2.7344598E+002	8.572069804093189E+001	-9.7887081E-001	-3.579759323427037E+000	3.5041219E-003	-9.7863895E-001	0
2.5674490E+002	8.599069803411112E+001	-9.8156500E-001	-3.823113718205658E+000	3.7526346E-003	-9.8133904E-001	0
2.4194025E+002	8.626059802729287E+001	-9.8429805E-001	-4.068351808079910E+000	4.0044705E-003	-9.8403794E-001	0
2.2848965E+002	8.654569802009064E+001	-9.8712504E-001	-4.320217603850780E+000	4.2645950E-003	-9.8688871E-001	0
2.1477264E+002	8.683069801289093E+001	-9.8999810E-001	-4.609516843099186E+000	4.5634131E-003	-9.8973912E-001	0
2.0401622E+002	8.710089800606511E+001	-9.9271262E-001	-4.865851251737496E+000	4.8303921E-003	-9.9244142E-001	0
1.9384528E+002	8.738599799886288E+001	-9.9555242E-001	-5.135809714133046E+000	5.1129679E-003	-9.9529243E-001	0
1.8368307E+002	8.768599799128424E+001	-9.9851477E-001	-5.436073855714149E+000	5.4279999E-003	-9.9829245E-001	0
1.7369775E+002	8.798609798370308E+001	-1.0015043E+000	-5.765787180414392E+000	5.7744607E-003	-1.0012934E+000	0
1.6527864E+002	8.828639797611686E+001	-1.0045804E+000	-6.078101731807244E+000	6.1059417E-003	-1.0042965E+000	0
1.5766774E+002	8.858639796853822E+001	-1.0075474E+000	-6.390320313287106E+000	6.4385505E-003	-1.0072967E+000	0
1.4978304E+002	8.888639796095958E+001	-1.0105647E+000	-6.746857002929403E+000	6.8181353E-003	-1.0102966E+000	0
1.4319948E+002	8.918639795338095E+001	-1.0135319E+000	-7.077763027913299E+000	7.1735387E-003	-1.0132965E+000	0
1.3690352E+002	8.948639794580231E+001	-1.0165324E+000	-7.425173778791674E+000	7.5479299E-003	-1.0162966E+000	0
1.3071219E+002	8.978639793822367E+001	-1.0195690E+000	-7.800106611755389E+000	7.9527469E-003	-1.0192966E+000	0
1.2528317E+002	9.008639793064503E+001	-1.0225407E+000	-8.161836062943053E+000	8.3458098E-003	-1.0222967E+000	0
1.1980571E+002	9.038639792306640E+001	-1.0255426E+000	-8.560048139966437E+000	8.7786941E-003	-1.0252966E+000	0
1.1499413E+002	9.068649791548523E+001	-1.0285660E+000	-8.944509296912472E+000	9.2000179E-003	-1.0282973E+000	0
1.1016763E+002	9.098669790790154E+001	-1.0315603E+000	-9.363551281401627E+000	9.6590677E-003	-1.0312994E+000	0
1.0586238E+002	9.128679790032038E+001	-1.0345687E+000	-9.772769751730124E+000	1.0110602E-002	-1.0343007E+000	0
1.0163546E+002	9.158679789274174E+001	-1.0375491E+000	-1.020853460837418E+001	1.0591856E-002	-1.0373006E+000	0
9.7454308E+001	9.188689788516058E+001	-1.0405689E+000	-1.067750567822297E+001	1.1110681E-002	-1.0403014E+000	0
9.3361702E+001	9.220199787720048E+001	-1.0437161E+000	-1.117927399183384E+001	1.1667988E-002	-1.0434526E+000	0
8.9623589E+001	9.251719786923786E+001	-1.0468054E+000	-1.168002126637800E+001	1.2226709E-002	-1.0466042E+000	0
8.5901833E+001	9.281759786164912E+001	-1.0498388E+000	-1.222137802648979E+001	1.2830476E-002	-1.0496082E+000	0
8.2582321E+001	9.311789785406290E+001	-1.0528430E+000	-1.274901115099916E+001	1.3422707E-002	-1.0526116E+000	0
7.9532333E+001	9.341809784647921E+001	-1.0559204E+000	-1.327661684359711E+001	1.4019050E-002	-1.0556136E+000	0
7.6408180E+001	9.371819783889805E+001	-1.0588796E+000	-1.385819656748677E+001	1.4674162E-002	-1.0586146E+000	0
7.3561592E+001	9.401819783131941E+001	-1.0618732E+000	-1.443515816584485E+001	1.5328308E-002	-1.0616145E+000	0
7.0692116E+001	9.431829782373825E+001	-1.0648443E+000	-1.506312662164749E+001	1.6039884E-002	-1.0646154E+000	0
6.8249252E+001	9.461849781615456E+001	-1.0678762E+000	-1.564670928053835E+001	1.6708748E-002	-1.0676174E+000	0
6.5745712E+001	9.491879780856834E+001	-1.0708656E+000	-1.628799143786875E+001	1.7442251E-002	-1.0706203E+000	0
6.3303669E+001	9.521909780098213E+001	-1.0738691E+000	-1.696377386636746E+001	1.8216873E-002	-1.0736235E+000	0
6.0960712E+001	9.551919779340096E+001	-1.0768611E+000	-1.766483905723496E+001	1.9022578E-002	-1.0766245E+000	0
5.8782818E+001	9.581939778581727E+001	-1.0798769E+000	-1.837062125618388E+001	1.9838009E-002	-1.0796264E+000	0
5.6675976E+001	9.611939777823864E+001	-1.0828853E+000	-1.910660054137162E+001	2.0690257E-002	-1.0826267E+000	0
5.4669239E+001	9.641959777065495E+001	-1.0858860E+000	-1.986283384177369E+001	2.1568773E-002	-1.0856283E+000	0
5.2660515E+001	9.671989776306873E+001	-1.0888692E+000	-2.067714690557154E+001	2.2514708E-002	-1.0886315E+000	0
5.0778927E+001	9.702009775548504E+001	-1.0918975E+000	-2.150296573533836E+001	2.3479035E-002	-1.0916334E+000	0
4.8814255E+001	9.732029774790135E+001	-1.0948894E+000	-2.242970641506706E+001	2.4558049E-002	-1.0946352E+000	0
4.7064930E+001	9.762039774032019E+001	-1.0978805E+000	-2.332693421804873E+001	2.5610186E-002	-1.0976366E+000	0
4.5460957E+001	9.792059773273650E+001	-1.1008838E+000	-2.421602834380812E+001	2.6659034E-002	-1.1006383E+000	0
4.3853310E+001	9.822079772515281E+001	-1.1038878E+000	-2.517228023473683E+001	2.7787372E-002	-1.1036406E+000	0
4.2283329E+001	9.852089771757164E+001	-1.1068496E+000	-2.617697192233402E+001	2.8973969E-002	-1.1066415E+000	0
4.0868488E+001	9.882099770999048E+001	-1.1098886E+000	-2.715756270429625E+001	3.0141868E-002	-1.1096426E+000	0
3.9421036E+001	9.912099770241184E+001	-1.1129017E+000	-2.823116224210656E+001	3.1418510E-002	-1.1126425E+000	0
3.8073963E+001	9.942109769483068E+001	-1.1159405E+000	-2.930980601645462E+001	3.2707997E-002	-1.1156435E+000	0
3.6733559E+001	9.972129768724699E+001	-1.1188977E+000	-3.045982266672701E+001	3.4081426E-002	-1.1186455E+000	0
3.5491844E+001	1.000214976796633E+002	-1.1219205E+000	-3.161065571641711E+001	3.5464641E-002	-1.1216476E+000	0
3.4332752E+001	1.003215976720821E+002	-1.1249461E+000	-3.276597702968593E+001	3.6859959E-002	-1.1246487E+000	0
3.3172737E+001	1.006216976645010E+002	-1.1279229E+000	-3.400150171581913E+001	3.8351074E-002	-1.1276493E+000	0
3.2073669E+001	1.009218976569173E+002	-1.1309395E+000	-3.526068326835275E+001	3.9877698E-002	-1.1306514E+000	0
3.1019588E+001	1.012219976493361E+002	-1.1338981E+000	-3.655426133979677E+001	4.1448809E-002	-1.1336527E+000	0
2.9995119E+001	1.015220976417550E+002	-1.1369565E+000	-3.790471575759443E+001	4.3096010E-002	-1.1366534E+000	0
2.8996841E+001	1.018221976341738E+002	-1.1399586E+000	-3.931320050242402E+001	4.4815421E-002	-1.1396548E+000	0
2.8004333E+001	1.021221976265952E+002	-1.1429765E+000	-4.081427264762465E+001	4.6649754E-002	-1.1426547E+000	0
2.7060127E+001	1.024221976190165E+002	-1.1459806E+000	-4.234941613566775E+001	4.8531611E-002	-1.1456546E+000	0
2.6182337E+001	1.027222976114354E+002	-1.1489967E+000	-4.388442125666313E+001	5.0423056E-002	-1.1486555E+000	0
2.5336674E+001	1.030223976038542E+002	-1.1519810E+000	-4.546693860398653E+001	5.2377049E-002	-1.1516566E+000	0
2.4532410E+001	1.033225975962705E+002	-1.1549382E+000	-4.707805795927345E+001	5.4372247E-002	-1.1546582E+000	0
2.3696751E+001	1.036227975886868E+002	-1.1579579E+000	-4.886568331360456E+001	5.6584403E-002	-1.1576605E+000	0
2.2952526E+001	1.039229975811031E+002	-1.1609820E+000	-5.058188412316053E+001	5.8724657E-002	-1.1606622E+000	0
2.2168232E+001	1.042231975735194E+002	-1.1639844E+000	-5.250686808033390E+001	6.1117176E-002	-1.1636646E+000	0
2.1442427E+001	1.045231975659408E+002	-1.1669773E+000	-5.442375284248385E+001	6.3511282E-002	-1.1666647E+000	0
2.0746349E+001	1.048231975583622E+002	-1.1699789E+000	-5.639444723501572E+001	6.5980308E-002	-1.1696646E+000	0
2.0100248E+001	1.051231975507835E+002	-1.1730199E+000	-5.835847581494932E+001	6.8455651E-002	-1.1726646E+000	0
1.9440693E+001	1.054231975432049E+002	-1.1760069E+000	-6.049202882682721E+001	7.1139045E-002	-1.1756645E+000	0
1.8808435E+001	1.057232975356237E+002	-1.1789886E+000	-6.268403173129707E+001	7.3903754E-002	-1.1786655E+000	0
1.8187840E+001	1.060234975280400E+002	-1.1820362E+000	-6.499046531644422E+001	7.6821081E-002	-1.1816676E+000	0
1.7612686E+001	1.063237975204538E+002	-1.1849889E+000	-6.728041699857192E+001	7.9726547E-002	-1.1846706E+000	0
1.7059158E+001	1.066238975128726E+002	-1.1879724E+000	-6.963839634471782E+001	8.2728498E-002	-1.1876714E+000	0
1.6531292E+001	1.069242975052839E+002	-1.1910009E+000	-7.204524311220871E+001	8.5805953E-002	-1.1906754E+000	0
1.6021919E+001	1.072244974977002E+002	-1.1940109E+000	-7.452358752210375E+001	8.8981971E-002	-1.1936773E+000	0
1.5544461E+001	1.075246974901165E+002	-1.1970204E+000	-7.700623285596379E+001	9.2178032E-002	-1.1966795E+000	0
1.5039132E+001	1.078249974825303E+002	-1.1999856E+000	-7.979088309718145E+001	9.5747910E-002	-1.1996822E+000	0
1.4592690E+001	1.081253974749416E+002	-1.2030282E+000	-8.244046897249268E+001	9.9178210E-002	-1.2026863E+000	0
1.4141911E+001	1.084256974673553E+002	-1.2060349E+000	-8.528090114338056E+001	1.0285174E-001	-1.2056895E+000	0
1.3731121E+001	1.087259974597691E+002	-1.2090216E+000	-8.804973446644590E+001	1.0645403E-001	-1.2086924E+000	0
1.3321853E+001	1.090260974521880E+002	-1.2119542E+000	-9.097489979029149E+001	1.1025742E-001	-1.2116934E+000	0
1.2907339E+001	1.093261974446068E+002	-1.2150103E+000	-9.413328751381687E+001	1.1437291E-001	-1.2146947E+000	0
1.2535320E+001	1.096263974370231E+002	-1.2180035E+000	-9.716572900424831E+001	1.1834820E-001	-1.2176963E+000	0
1.2208337E+001	1.099266974294369E+002	-1.2210224E+000	-1.000154543619647E+002	1.2212111E-001	-1.2206997E+000	0
1.1873102E+001	1.102271974218456E+002	-1.2239939E+000	-1.030896471881839E+002	1.2618110E-001	-1.2237042E+000	0
1.1523893E+001	1.105276974142544E+002	-1.2270063E+000	-1.064749760537942E+002	1.3064547E-001	-1.2267090E+000	0
1.1197913E+001	1.108429974062892E+002	-1.2301921E+000	-1.098590485179503E+002	1.3514774E-001	-1.2298625E+000	0
1.0877018E+001	1.111580973983291E+002	-1.2333041E+000	-1.133862389890051E+002	1.3983972E-001	-1.2330134E+000	0
1.0563164E+001	1.114582973907454E+002	-1.2363342E+000	-1.170420344392094E+002	1.4470308E-001	-1.2360156E+000	0
1.0258455E+001	1.117583973831643E+002	-1.2393023E+000	-1.208078860052835E+002	1.4971749E-001	-1.2390167E+000	0
1.0019651E+001	1.120584973755831E+002	-1.2423457E+000	-1.239909107933859E+002	1.5403958E-001	-1.2420176E+000	0
9.7761869E+000	1.123585973680019E+002	-1.2452724E+000	-1.273781317986764E+002	1.5862048E-001	-1.2450186E+000	0
9.5491886E+000	1.126585973604233E+002	-1.2483165E+000	-1.307248803702914E+002	1.6318603E-001	-1.2480187E+000	0
9.3180742E+000	1.129586973528421E+002	-1.2512910E+000	-1.342864377416839E+002	1.6803141E-001	-1.2510196E+000	0
9.1085148E+000	1.132587973452610E+002	-1.2543283E+000	-1.377094166901734E+002	1.7273282E-001	-1.2540208E+000	0
8.8521614E+000	1.135589973376773E+002	-1.2573404E+000	-1.420376797455278E+002	1.7858972E-001	-1.2570223E+000	0
8.6859770E+000	1.138592973300911E+002	-1.2603760E+000	-1.451046842783940E+002	1.8288645E-001	-1.2600254E+000	0
8.4738274E+000	1.141594973225074E+002	-1.2633739E+000	-1.490912863568979E+002	1.8835804E-001	-1.2630273E+000	0
8.3347845E+000	1.144597973149212E+002	-1.2663686E+000	-1.519377728385274E+002	1.9240923E-001	-1.2660304E+000	0
8.1793404E+000	1.147599973073375E+002	-1.2693176E+000	-1.551858217630780E+002	1.9698010E-001	-1.2690321E+000	0
7.9622321E+000	1.150604972997462E+002	-1.2723566E+000	-1.597989900274133E+002	2.0332131E-001	-1.2720374E+000	0
7.8272943E+000	1.153158972932943E+002	-1.2749584E+000	-1.628862163334019E+002	2.0767315E-001	-1.2745904E+000	0
7.6823034E+000	1.154967972887243E+002	-1.2767352E+000	-1.661917156576387E+002	2.1218280E-001	-1.2763989E+000	0
7.5692067E+000	1.156776972841544E+002	-1.2785401E+000	-1.689133588693560E+002	2.1596251E-001	-1.2782081E+000	0
7.4638023E+000	1.158732972792131E+002	-1.2805301E+000	-1.715653851505192E+002	2.1969464E-001	-1.2801652E+000	0
7.3854218E+000	1.160390972750247E+002	-1.2822186E+000	-1.736148104502395E+002	2.2261213E-001	-1.2818221E+000	0
7.2826095E+000	1.162346972700834E+002	-1.2841873E+000	-1.763361540961441E+002	2.2644866E-001	-1.2837783E+000	0
7.2122765E+000	1.164300972651472E+002	-1.2860935E+000	-1.783200505252787E+002	2.2933625E-001	-1.2857324E+000	0
7.0928073E+000	1.166404972598320E+002	-1.2882324E+000	-1.816251855041237E+002	2.3397546E-001	-1.2878366E+000	0
7.0126195E+000	1.168510972545118E+002	-1.2903064E+000	-1.839977838526006E+002	2.3741353E-001	-1.2899425E+000	0
6.9068818E+000	1.170466972495706E+002	-1.2922649E+000	-1.870981689860050E+002	2.4178040E-001	-1.2918987E+000	0
6.8294401E+000	1.171975972457585E+002	-1.2937862E+000	-1.894424896509102E+002	2.4509807E-001	-1.2934074E+000	0
6.7335968E+000	1.173634972415675E+002	-1.2954606E+000	-1.923876071713373E+002	2.4923056E-001	-1.2950664E+000	0
6.6186690E+000	1.175441972370027E+002	-1.2972375E+000	-1.959967276398802E+002	2.5425431E-001	-1.2968733E+000	0
6.5738597E+000	1.177547972316825E+002	-1.2993199E+000	-1.976494660601020E+002	2.5680989E-001	-1.2989796E+000	0
6.5093799E+000	1.179653972263623E+002	-1.3014387E+000	-1.999328214138291E+002	2.6020032E-001	-1.3010859E+000	0
6.4127812E+000	1.181609972214210E+002	-1.3033911E+000	-2.032489621386247E+002	2.6491287E-001	-1.3030411E+000	0
6.3380470E+000	1.183565972164797E+002	-1.3053844E+000	-2.059600309415000E+002	2.6885700E-001	-1.3049977E+000	0
6.2655220E+000	1.185671972111595E+002	-1.3074715E+000	-2.086771912549621E+002	2.7283949E-001	-1.3071030E+000	0
6.2024150E+000	1.187479972065921E+002	-1.3092874E+000	-2.110931727961006E+002	2.7638164E-001	-1.3089112E+000	0
6.1173501E+000	1.189287972020247E+002	-1.3111396E+000	-2.143312911767134E+002	2.8101823E-001	-1.3107196E+000	0
6.0776548E+000	1.190945971978363E+002	-1.3127280E+000	-2.159925386613900E+002	2.8353947E-001	-1.3123775E+000	0
5.9921069E+000	1.193198971921447E+002	-1.3150299E+000	-2.194603524434774E+002	2.8859693E-001	-1.3146307E+000	0
5.9140491E+000	1.195004971875824E+002	-1.3168629E+000	-2.226668953646986E+002	2.9322177E-001	-1.3164365E+000	0
5.8949003E+000	1.196515971837653E+002	-1.3183261E+000	-2.236383979847287E+002	2.9482836E-001	-1.3179470E+000	0
5.8628778E+000	1.197728971807010E+002	-1.3195374E+000	-2.250665029212787E+002	2.9698366E-001	-1.3191605E+000	0
5.7822990E+000	1.199831971753883E+002	-1.3216335E+000	-2.285654029249301E+002	3.0207968E-001	-1.3212637E+000	0
5.7361689E+000	1.201787971704471E+002	-1.3236109E+000	-2.307482540358569E+002	3.0542091E-001	-1.3232195E+000	0
5.6897922E+000	1.203594971658822E+002	-1.3254781E+000	-2.329571956440568E+002	3.0877966E-001	-1.3250266E+000	0
5.6079230E+000	1.205696971605721E+002	-1.3275346E+000	-2.367248104239936E+002	3.1426036E-001	-1.3271288E+000	0
5.5715890E+000	1.207652971556308E+002	-1.3294649E+000	-2.386150391696310E+002	3.1723031E-001	-1.3290844E+000	0
5.4847183E+000	1.209458971510685E+002	-1.3313395E+000	-2.427361664377872E+002	3.2316425E-001	-1.3308910E+000	0
5.3529625E+000	1.211265971465036E+002	-1.3331240E+000	-2.490441495384048E+002	3.3200675E-001	-1.3326977E+000	0
5.3137074E+000	1.213519971408095E+002	-1.3353866E+000	-2.513097815543736E+002	3.3559573E-001	-1.3349514E+000	0
5.3170400E+000	1.215924971347340E+002	-1.3377827E+000	-2.516029096883804E+002	3.3659002E-001	-1.3373561E+000	0
5.3022575E+000	1.217137971316697E+002	-1.3389816E+000	-2.525304725842651E+002	3.3813366E-001	-1.3385688E+000	0
5.2722864E+000	1.218199971289869E+002	-1.3400905E+000	-2.541763528835700E+002	3.4061933E-001	-1.3396316E+000	0
5.1783690E+000	1.220007971244195E+002	-1.3419098E+000	-2.591375219865013E+002	3.4773916E-001	-1.3414390E+000	0
5.1032748E+000	1.221815971198521E+002	-1.3436646E+000	-2.632945834346758E+002	3.5377961E-001	-1.3432472E+000	0
5.0733490E+000	1.223917971145420E+002	-1.3457851E+000	-2.652656454554171E+002	3.5699058E-001	-1.3453498E+000	0
5.0341163E+000	1.226021971092268E+002	-1.3478776E+000	-2.677486197634430E+002	3.6089239E-001	-1.3474537E+000	0
5.0030966E+000	1.228126971039092E+002	-1.3499851E+000	-2.698299257100711E+002	3.6426640E-001	-1.3495587E+000	0
4.9289494E+000	1.229936970993367E+002	-1.3517901E+000	-2.742552238560638E+002	3.7073550E-001	-1.3513684E+000	0
4.8092504E+000	1.231892970943954E+002	-1.3537215E+000	-2.814828544645839E+002	3.8104939E-001	-1.3533239E+000	0
4.7351780E+000	1.233849970894516E+002	-1.3557128E+000	-2.863066116596053E+002	3.8814953E-001	-1.3552816E+000	0
4.6349216E+000	1.235954970841340E+002	-1.3578308E+000	-2.929565779216150E+002	3.9778545E-001	-1.3573864E+000	0
4.6183147E+000	1.238059970788163E+002	-1.3599199E+000	-2.944623781363775E+002	4.0044525E-001	-1.3594915E+000	0
4.5712609E+000	1.239867970742489E+002	-1.3617249E+000	-2.978882440859620E+002	4.0564182E-001	-1.3612998E+000	0
4.5311317E+000	1.241825970693026E+002	-1.3637092E+000	-3.009643587351620E+002	4.1042787E-001	-1.3632574E+000	0
4.5429921E+000	1.243930970639849E+002	-1.3658205E+000	-3.006433777737716E+002	4.1062489E-001	-1.3653622E+000	0
4.5244737E+000	1.245884970590487E+002	-1.3677549E+000	-3.023014534896660E+002	4.1347429E-001	-1.3673170E+000	0
4.4926333E+000	1.247838970541125E+002	-1.3696970E+000	-3.048762105736068E+002	4.1758803E-001	-1.3692712E+000	0
4.4885287E+000	1.248751970518060E+002	-1.3706341E+000	-3.053637605730619E+002	4.1854197E-001	-1.3701824E+000	0
4.4604201E+000	1.250110970483729E+002	-1.3720616E+000	-3.076081619448723E+002	4.2205736E-001	-1.3715433E+000	0
4.4252348E+000	1.251918970438055E+002	-1.3738275E+000	-3.104530131536812E+002	4.2650887E-001	-1.3733507E+000	0
4.3803377E+000	1.253876970388592E+002	-1.3758036E+000	-3.140861807808000E+002	4.3212089E-001	-1.3753083E+000	0
4.3610725E+000	1.255682970342968E+002	-1.3776324E+000	-3.158930046215533E+002	4.3518442E-001	-1.3771149E+000	0
4.3178406E+000	1.257638970293556E+002	-1.3795840E+000	-3.195078375445055E+002	4.4078788E-001	-1.3790700E+000	0
4.2891145E+000	1.259595970244118E+002	-1.3815309E+000	-3.221016743586642E+002	4.4499341E-001	-1.3810271E+000	0
4.2539411E+000	1.261552970194680E+002	-1.3834876E+000	-3.252249057672807E+002	4.4994462E-001	-1.3829845E+000	0
4.2423930E+000	1.263211970152770E+002	-1.3851404E+000	-3.264997898184288E+002	4.5224807E-001	-1.3846426E+000	0
4.2018862E+000	1.264870970110860E+002	-1.3868206E+000	-3.300471552159156E+002	4.5771617E-001	-1.3863024E+000	0
4.1967731E+000	1.266679970065161E+002	-1.3886254E+000	-3.308793070926108E+002	4.5946741E-001	-1.3881112E+000	0
4.1465826E+000	1.268635970015748E+002	-1.3905578E+000	-3.353503029142448E+002	4.6632397E-001	-1.3900677E+000	0
4.1131616E+000	1.270589969966386E+002	-1.3925036E+000	-3.385482517404300E+002	4.7142968E-001	-1.3920215E+000	0
4.0593758E+000	1.272542969917049E+002	-1.3944366E+000	-3.435101116680116E+002	4.7900307E-001	-1.3939742E+000	0
4.0269227E+000	1.274645969863923E+002	-1.3965786E+000	-3.468103503959119E+002	4.8434791E-001	-1.3960776E+000	0
3.9769111E+000	1.276752969810696E+002	-1.3987111E+000	-3.517079124018974E+002	4.9193776E-001	-1.3981841E+000	0
3.9184148E+000	1.279006969753755E+002	-1.4009490E+000	-3.575295222173072E+002	5.0088060E-001	-1.4004393E+000	0
3.9241107E+000	1.280518969715558E+002	-1.4024805E+000	-3.574008601483583E+002	5.0124770E-001	-1.4019498E+000	0
3.9090219E+000	1.281729969684966E+002	-1.4036645E+000	-3.590832946657301E+002	5.0403243E-001	-1.4031616E+000	0
3.8537557E+000	1.283537969639292E+002	-1.4054478E+000	-3.646956308869285E+002	5.1256067E-001	-1.4049692E+000	0
3.8112679E+000	1.285642969586115E+002	-1.4075599E+000	-3.693153872262119E+002	5.1983351E-001	-1.4070741E+000	0
3.8061011E+000	1.287301969544205E+002	-1.4092627E+000	-3.702641187419331E+002	5.2179939E-001	-1.4087329E+000	0
3.8383336E+000	1.289107969498582E+002	-1.4110165E+000	-3.676117327586007E+002	5.1870620E-001	-1.4105392E+000	0
3.8238256E+000	1.290913969452959E+002	-1.4128292E+000	-3.694805479129509E+002	5.2201289E-001	-1.4123452E+000	0
3.7851589E+000	1.292871969403495E+002	-1.4147909E+000	-3.737731793659586E+002	5.2881086E-001	-1.4143032E+000	0
3.6956117E+000	1.295126969346529E+002	-1.4171600E+000	-3.834710240506865E+002	5.4343981E-001	-1.4165590E+000	0
3.6433029E+000	1.297083969297091E+002	-1.4190137E+000	-3.894855323107918E+002	5.5268532E-001	-1.4185157E+000	0
3.6374071E+000	1.298295969266474E+002	-1.4202206E+000	-3.904486415596855E+002	5.5452323E-001	-1.4197278E+000	0
3.6513405E+000	1.299802969228404E+002	-1.4217237E+000	-3.893703379532253E+002	5.5357707E-001	-1.4212350E+000	0
3.6660640E+000	1.301903969175328E+002	-1.4238404E+000	-3.883839321591058E+002	5.5299675E-001	-1.4233361E+000	0
3.6155970E+000	1.303409969137283E+002	-1.4253343E+000	-3.942182573961318E+002	5.6189281E-001	-1.4248413E+000	0
3.5630288E+000	1.304620969106691E+002	-1.4266026E+000	-4.003904075933240E+002	5.7119799E-001	-1.4260522E+000	0
3.5287852E+000	1.306576969057278E+002	-1.4285665E+000	-4.048323719041273E+002	5.7832992E-001	-1.4280090E+000	0
3.5281491E+000	1.309575968981517E+002	-1.4315597E+000	-4.057537218996928E+002	5.8086067E-001	-1.4310083E+000	0
3.5126736E+000	1.312575968905730E+002	-1.4345400E+000	-4.083898008917429E+002	5.8585149E-001	-1.4340084E+000	0
3.4670806E+000	1.315578968829868E+002	-1.4375827E+000	-4.146378154952633E+002	5.9607619E-001	-1.4370111E+000	0
3.4103260E+000	1.318579968754057E+002	-1.4405665E+000	-4.224131527500713E+002	6.0851425E-001	-1.4400125E+000	0
3.4022155E+000	1.321580968678245E+002	-1.4435228E+000	-4.242890755020344E+002	6.1247098E-001	-1.4430133E+000	0
3.4168603E+000	1.324581968602433E+002	-1.4465419E+000	-4.233541253350529E+002	6.1239946E-001	-1.4460144E+000	0
3.4008291E+000	1.327581968526647E+002	-1.4495215E+000	-4.262259413267630E+002	6.1782366E-001	-1.4490145E+000	0
3.3939736E+000	1.330581968450861E+002	-1.4525034E+000	-4.279654529521886E+002	6.2162131E-001	-1.4520147E+000	0
3.3778741E+000	1.333581968375074E+002	-1.4555283E+000	-4.309006937846050E+002	6.2718815E-001	-1.4550145E+000	0
3.2618387E+000	1.336581968299288E+002	-1.4585265E+000	-4.471485705332725E+002	6.5217805E-001	-1.4580142E+000	0
3.2620475E+000	1.339581968223501E+002	-1.4615325E+000	-4.480414302356239E+002	6.5482712E-001	-1.4610143E+000	0
3.1198733E+000	1.342581968147715E+002	-1.4645804E+000	-4.694358595732579E+002	6.8752658E-001	-1.4640144E+000	0
3.0766463E+000	1.345582968071903E+002	-1.4675789E+000	-4.770060487653445E+002	7.0004404E-001	-1.4670154E+000	0
3.0401390E+000	1.348583967996092E+002	-1.4706000E+000	-4.837279005728446E+002	7.1137023E-001	-1.4700166E+000	0
3.0345094E+000	1.351583967920305E+002	-1.4735590E+000	-4.856004150741919E+002	7.1556085E-001	-1.4730164E+000	0
3.0430782E+000	1.354585967844469E+002	-1.4765713E+000	-4.852229394774113E+002	7.1646625E-001	-1.4760183E+000	0
2.9703531E+000	1.357586967768657E+002	-1.4795868E+000	-4.981181726321756E+002	7.3700911E-001	-1.4790194E+000	0
2.9351499E+000	1.360587967692845E+002	-1.4827219E+000	-5.051605378953764E+002	7.4901259E-001	-1.4820206E+000	0
2.9119143E+000	1.363587967617059E+002	-1.4860551E+000	-5.103361467775776E+002	7.5838763E-001	-1.4850205E+000	0
2.9217658E+000	1.366590967541197E+002	-1.4890553E+000	-5.096422340052541E+002	7.5888544E-001	-1.4880232E+000	0
2.9191840E+000	1.369592967465360E+002	-1.4920673E+000	-5.111247950461548E+002	7.6263261E-001	-1.4910251E+000	0
2.9024942E+000	1.372593967389548E+002	-1.4950405E+000	-5.150882191586443E+002	7.7007776E-001	-1.4940263E+000	0
2.8879833E+000	1.375593967313762E+002	-1.4980533E+000	-5.187195259376804E+002	7.7706951E-001	-1.4970264E+000	0
2.8460286E+000	1.378593967237975E+002	-1.5010976E+000	-5.274358891896645E+002	7.9173273E-001	-1.5000265E+000	0
2.8457608E+000	1.381594967162164E+002	-1.5040851E+000	-5.285352921544127E+002	7.9496205E-001	-1.5030272E+000	0
2.8094642E+000	1.384595967086352E+002	-1.5071043E+000	-5.364383097850059E+002	8.0846846E-001	-1.5060285E+000	0
2.8046415E+000	1.387596967010541E+002	-1.5101212E+000	-5.384364443928025E+002	8.1310433E-001	-1.5090293E+000	0
2.7319517E+000	1.390597966934729E+002	-1.5131084E+000	-5.538561835685177E+002	8.3804440E-001	-1.5120306E+000	0
2.7226202E+000	1.393597966858943E+002	-1.5161059E+000	-5.568554308397761E+002	8.4425181E-001	-1.5150306E+000	0
2.7200189E+000	1.396597966783156E+002	-1.5191133E+000	-5.584936678010999E+002	8.4841514E-001	-1.5180304E+000	0
2.6844201E+000	1.398547966733895E+002	-1.5210769E+000	-5.666314503094072E+002	8.6189002E-001	-1.5199802E+000	0
2.6699426E+000	1.398951966723689E+002	-1.5218186E+000	-5.699817669208242E+002	8.6740887E-001	-1.5205801E+000	1