EC-Lab ASCII FILE
Nb header lines : 63                          

Linear Sweep Voltammetry

Run on channel : 1 (SN 1340)
User : 
Electrode connection : standard
Potential control : Ewe
Ewe ctrl range : min = -5.00 V, max = 5.00 V
Ewe,I filtering : <None>
Safety Limits :
	Do not start on E overload
Channel : Floating
Acquisition started on : 02/11/2026 18:12:13.111
Technique started on : 02/11/2026 18:12:15.792
Loaded Setting File :  C:\Users\volt\Documents\Platalytix\PtPdCo_2-10_02_LSV_C01.mpr
Saved on :
	File : PtPdCoNi_2_11_02_LSV_C01.mpr
	Directory : C:\Users\volt\Documents\Platalytix\
	Host : 127.0.0.1
Device : SP-200 (SN 0262)
Address : USB
EC-LAB for windows v11.60 (software)
Internet server v11.60 (firmware)
Command interpretor v11.60 (firmware)
Electrode material : PtPdCoNi
Initial state : 
Electrolyte : KOH (1M)
Comments : 
Cable : standard
Reference electrode : Hg/HgO (0.140 V)
Electrode surface area : 1.000 cm˛
Characteristic mass : 0.001 g
Equivalent Weight : 0.000 g/eq.
Density : 0.000 g/cm3
Volume (V) : 0.001 cmł
Cycle Definition : Charge/Discharge alternance
tR (h:m:s)          0:00:5.0000         
dER/dt (mV/h)       0.0                 
dER (mV)            0                   
dtR (s)             0.0000              
dE/dt               10.000              
dE/dt unit          mV/s                
Ei (V)              -0.200              
vs.                 Ref                 
EL (V)              -2.500              
vs.                 Ref                 
record              <I>                 
dI                  0.000               
unit dI             µA                  
tI (s)              0.0000              
step percent        50                  
N                   10                  
E range min (V)     -5.000              
E range max (V)     5.000               
I Range             Auto                
I Range min         Unset               
I Range max         Unset               
I Range init        Unset               
Bandwidth           8                   

Rwe/Ohm	time/s	Ewe/V	<I>/mA	Pwe/W	control/V	error	
0.0000000E+000	2.681400127330562E+000	-1.6542009E-001	0.000000000000000E+000	0.0000000E+000	0.0000000E+000	0
0.0000000E+000	7.681200001024990E+000	-2.5885301E-002	0.000000000000000E+000	0.0000000E+000	-1.9992825E-001	0
1.8690554E+003	7.881199995972565E+000	-2.0170377E-001	-1.079174879193306E-001	2.1767364E-005	-2.0182803E-001	0
1.1407163E+003	8.001199992941110E+000	-2.0282629E-001	-1.778060717707763E-001	3.6063746E-005	-2.0302808E-001	0
1.2779680E+003	8.211199987636064E+000	-2.0495676E-001	-1.603770564561567E-001	3.2870361E-005	-2.0512807E-001	0
1.4148037E+003	8.411199982583639E+000	-2.0695451E-001	-1.462778912650212E-001	3.0272869E-005	-2.0712811E-001	0
1.5307458E+003	8.611199977531214E+000	-2.0900634E-001	-1.365388884259775E-001	2.8537494E-005	-2.0912808E-001	0
1.6309443E+003	8.811199972478789E+000	-2.1097852E-001	-1.293597339194204E-001	2.7292126E-005	-2.1112801E-001	0
1.7200531E+003	9.011199967426364E+000	-2.1300524E-001	-1.238364312077647E-001	2.6377809E-005	-2.1312793E-001	0
1.8000597E+003	9.211199962373939E+000	-2.1503155E-001	-1.194580075206435E-001	2.5687241E-005	-2.1512786E-001	0
1.8749818E+003	9.411199957321514E+000	-2.1696258E-001	-1.157144979730060E-001	2.5105715E-005	-2.1712777E-001	0
1.9447382E+003	9.611199952269089E+000	-2.1900393E-001	-1.126135850183734E-001	2.4662817E-005	-2.1912768E-001	0
2.0108776E+003	9.811199947216664E+000	-2.2098291E-001	-1.098937635107258E-001	2.4284644E-005	-2.2112761E-001	0
2.0730698E+003	1.001119994216424E+001	-2.2300328E-001	-1.075715242733004E-001	2.3988803E-005	-2.2312753E-001	0
2.1340991E+003	1.021119993711181E+001	-2.2498035E-001	-1.054217040648604E-001	2.3717812E-005	-2.2512744E-001	0
2.1921829E+003	1.041119993205939E+001	-2.2698523E-001	-1.035430173098180E-001	2.3502736E-005	-2.2712737E-001	0
2.2470991E+003	1.061119992700696E+001	-2.2900410E-001	-1.019109888382410E-001	2.3338034E-005	-2.2912729E-001	0
2.3013904E+003	1.081119992195454E+001	-2.3100811E-001	-1.003776290844665E-001	2.3188046E-005	-2.3112722E-001	0
2.3548979E+003	1.101119991690211E+001	-2.3299582E-001	-9.894094080717042E-002	2.3052826E-005	-2.3312713E-001	0
2.4068354E+003	1.121119991184969E+001	-2.3500489E-001	-9.764061374230804E-002	2.2946022E-005	-2.3512706E-001	0
2.4581521E+003	1.141119990679726E+001	-2.3700722E-001	-9.641681894208087E-002	2.2851482E-005	-2.3712698E-001	0
2.5084700E+003	1.161119990174484E+001	-2.3900105E-001	-9.527762269320372E-002	2.2771452E-005	-2.3912691E-001	0
2.5565942E+003	1.181119989669241E+001	-2.4099043E-001	-9.426229451719628E-002	2.2716311E-005	-2.4112682E-001	0
2.6054304E+003	1.201119989163999E+001	-2.4298343E-001	-9.326037758160932E-002	2.2660726E-005	-2.4312675E-001	0
2.6542627E+003	1.221119988658756E+001	-2.4498191E-001	-9.229753936467744E-002	2.2611228E-005	-2.4512666E-001	0
2.6996130E+003	1.241119988153514E+001	-2.4695539E-001	-9.147807273299968E-002	2.2591004E-005	-2.4712659E-001	0
2.7487205E+003	1.261119987648271E+001	-2.4901539E-001	-9.059320145039518E-002	2.2559101E-005	-2.4912649E-001	0
2.7949590E+003	1.281119987143029E+001	-2.5103921E-001	-8.981856291473833E-002	2.2547982E-005	-2.5112644E-001	0
2.8428694E+003	1.301119986637787E+001	-2.5303093E-001	-8.900546698457301E-002	2.2521135E-005	-2.5312635E-001	0
2.8886294E+003	1.321109986132797E+001	-2.5496560E-001	-8.826525075417457E-002	2.2504602E-005	-2.5512674E-001	0
2.9331960E+003	1.341099985627807E+001	-2.5701857E-001	-8.762406976576753E-002	2.2521013E-005	-2.5712618E-001	0
2.9779119E+003	1.361099985122564E+001	-2.5899646E-001	-8.697250383101440E-002	2.2525570E-005	-2.5912613E-001	0
3.0233359E+003	1.381099984617322E+001	-2.6096231E-001	-8.631601386234755E-002	2.2525226E-005	-2.6112604E-001	0
3.0707688E+003	1.401099984112079E+001	-2.6296505E-001	-8.563492380667576E-002	2.2518992E-005	-2.6312599E-001	0
3.1126519E+003	1.421099983606837E+001	-2.6496249E-001	-8.512435627725323E-002	2.2554761E-005	-2.6512590E-001	0
3.1588000E+003	1.441099983101594E+001	-2.6698968E-001	-8.452250237646397E-002	2.2566635E-005	-2.6712582E-001	0
3.2021650E+003	1.461099982596352E+001	-2.6901424E-001	-8.401011067491171E-002	2.2599916E-005	-2.6912573E-001	0
3.2482751E+003	1.481099982091109E+001	-2.7097198E-001	-8.342026971025035E-002	2.2604556E-005	-2.7112567E-001	0
3.2903433E+003	1.501099981585867E+001	-2.7298430E-001	-8.296529387066864E-002	2.2648223E-005	-2.7312559E-001	0
3.3355913E+003	1.521099981080624E+001	-2.7499491E-001	-8.244262865687557E-002	2.2671304E-005	-2.7512550E-001	0
3.3795054E+003	1.541099980575382E+001	-2.7694461E-001	-8.194826665817989E-002	2.2695131E-005	-2.7712542E-001	0
3.4243665E+003	1.561099980070139E+001	-2.7892804E-001	-8.145391300759885E-002	2.2719780E-005	-2.7912530E-001	0
3.4684819E+003	1.581099979564897E+001	-2.8101525E-001	-8.101966854051834E-002	2.2767763E-005	-2.8112528E-001	0
3.5131023E+003	1.601099979059654E+001	-2.8299421E-001	-8.055393328539656E-002	2.2796297E-005	-2.8312519E-001	0
3.5543367E+003	1.621099978554412E+001	-2.8503495E-001	-8.019357399176608E-002	2.2857972E-005	-2.8512508E-001	0
3.5988337E+003	1.641099978049169E+001	-2.8694773E-001	-7.973352999715744E-002	2.2879356E-005	-2.8712499E-001	0
3.6395012E+003	1.661099977543927E+001	-2.8895769E-001	-7.939486128706769E-002	2.2941755E-005	-2.8912491E-001	0
3.6842756E+003	1.681099977038684E+001	-2.9095894E-001	-7.897317230695100E-002	2.2977951E-005	-2.9112488E-001	0
3.7271516E+003	1.701099976533442E+001	-2.9298395E-001	-7.860800577802773E-002	2.3030883E-005	-2.9312477E-001	0
3.7704805E+003	1.721099976028199E+001	-2.9498842E-001	-7.823629728455062E-002	2.3078803E-005	-2.9512468E-001	0
3.8132947E+003	1.741099975522957E+001	-2.9697740E-001	-7.787947876002965E-002	2.3128445E-005	-2.9712462E-001	0
3.8550310E+003	1.761099975017714E+001	-2.9902467E-001	-7.756738265017538E-002	2.3194561E-005	-2.9912454E-001	0
3.9006099E+003	1.781099974512472E+001	-3.0097565E-001	-7.716117635191877E-002	2.3223634E-005	-3.0112445E-001	0
3.9405815E+003	1.801099974007229E+001	-3.0303502E-001	-7.690109181124960E-002	2.3303724E-005	-3.0312437E-001	0
3.9817676E+003	1.821089973502239E+001	-3.0498737E-001	-7.659597591291256E-002	2.3360806E-005	-3.0512431E-001	0
4.0242493E+003	1.841079972997250E+001	-3.0695140E-001	-7.627544418038579E-002	2.3412855E-005	-3.0712423E-001	0
4.0676289E+003	1.861079972492007E+001	-3.0900574E-001	-7.596704455160130E-002	2.3474253E-005	-3.0912411E-001	0
4.1087388E+003	1.881079971986765E+001	-3.1100762E-001	-7.569418337656497E-002	2.3541468E-005	-3.1112406E-001	0
4.1513857E+003	1.901079971481522E+001	-3.1299341E-001	-7.539491862894954E-002	2.3598113E-005	-3.1312400E-001	0
4.1913887E+003	1.921079970976280E+001	-3.1494609E-001	-7.514122781362775E-002	2.3665436E-005	-3.1512392E-001	0
4.2342725E+003	1.941079970471037E+001	-3.1700289E-001	-7.486596477298213E-002	2.3732728E-005	-3.1712380E-001	0
4.2726611E+003	1.961079969965795E+001	-3.1899440E-001	-7.465942308376383E-002	2.3815937E-005	-3.1912374E-001	0
4.3174727E+003	1.981079969460552E+001	-3.2099101E-001	-7.434697239501342E-002	2.3864710E-005	-3.2112369E-001	0
4.3535137E+003	2.001079968955310E+001	-3.2298338E-001	-7.418912712034781E-002	2.3961855E-005	-3.2312357E-001	0
4.3959165E+003	2.021079968450067E+001	-3.2498905E-001	-7.392976209077795E-002	2.4026363E-005	-3.2512349E-001	0
4.4346543E+003	2.041079967944825E+001	-3.2699054E-001	-7.373529441428706E-002	2.4110745E-005	-3.2712343E-001	0
4.4811196E+003	2.061079967439582E+001	-3.2898161E-001	-7.341504952333910E-002	2.4152201E-005	-3.2912335E-001	0
4.5196958E+003	2.081079966934340E+001	-3.3100706E-001	-7.323657737436672E-002	2.4241825E-005	-3.3112326E-001	0
4.5597998E+003	2.101079966429097E+001	-3.3294171E-001	-7.301674061824409E-002	2.4310319E-005	-3.3312318E-001	0
4.5987705E+003	2.121079965923855E+001	-3.3498773E-001	-7.284288645865566E-002	2.4401474E-005	-3.3512309E-001	0
4.6348037E+003	2.141079965418612E+001	-3.3699238E-001	-7.270909287669025E-002	2.4502411E-005	-3.3712304E-001	0
4.6723345E+003	2.161079964913370E+001	-3.3902270E-001	-7.255959709052440E-002	2.4599351E-005	-3.3912295E-001	0
4.7133911E+003	2.181079964408127E+001	-3.4096581E-001	-7.233981147847723E-002	2.4665402E-005	-3.4112287E-001	0
4.7509712E+003	2.201079963902885E+001	-3.4300318E-001	-7.219643352126659E-002	2.4763607E-005	-3.4312278E-001	0
4.7868926E+003	2.221079963397642E+001	-3.4492847E-001	-7.205686832106606E-002	2.4854466E-005	-3.4512267E-001	0
4.8232612E+003	2.241079962892400E+001	-3.4698257E-001	-7.193940838581339E-002	2.4961721E-005	-3.4712264E-001	0
4.8593369E+003	2.261079962387157E+001	-3.4895986E-001	-7.181224129806851E-002	2.5059589E-005	-3.4912255E-001	0
4.8966499E+003	2.281079961881915E+001	-3.5101944E-001	-7.168562841800186E-002	2.5163050E-005	-3.5112247E-001	0
4.9361216E+003	2.301079961376672E+001	-3.5300991E-001	-7.151564202681086E-002	2.5245730E-005	-3.5312238E-001	0
4.9669287E+003	2.321069960871682E+001	-3.5494521E-001	-7.146170667046475E-002	2.5364991E-005	-3.5512185E-001	0
5.0008745E+003	2.341059960366692E+001	-3.5697851E-001	-7.138321654767632E-002	2.5482273E-005	-3.5712224E-001	0
5.0340996E+003	2.361059959861450E+001	-3.5901856E-001	-7.131733193459278E-002	2.5604246E-005	-3.5912216E-001	0
5.0669121E+003	2.381059959356207E+001	-3.6095256E-001	-7.123718474666407E-002	2.5713243E-005	-3.6112207E-001	0
5.1005400E+003	2.401059958850965E+001	-3.6298436E-001	-7.116586492236410E-002	2.5832096E-005	-3.6312199E-001	0
5.1321450E+003	2.421059958345722E+001	-3.6493725E-001	-7.110813137010796E-002	2.5950005E-005	-3.6512190E-001	0
5.1669507E+003	2.441059957840480E+001	-3.6694637E-001	-7.101797569984503E-002	2.6059788E-005	-3.6712185E-001	0
5.1992422E+003	2.461059957335237E+001	-3.6895993E-001	-7.096417482452422E-002	2.6182937E-005	-3.6912176E-001	0
5.2306836E+003	2.481059956829995E+001	-3.7097669E-001	-7.092317793404268E-002	2.6310845E-005	-3.7112167E-001	0
5.2628267E+003	2.501059956324752E+001	-3.7297055E-001	-7.086886439362608E-002	2.6431999E-005	-3.7312159E-001	0
5.2905200E+003	2.521059955819510E+001	-3.7495285E-001	-7.087259174613914E-002	2.6573880E-005	-3.7512153E-001	0
5.3228477E+003	2.541059955314267E+001	-3.7697408E-001	-7.082187906678450E-002	2.6698013E-005	-3.7712145E-001	0
5.3511841E+003	2.561059954809025E+001	-3.7901017E-001	-7.082734994332600E-002	2.6844285E-005	-3.7912136E-001	0
5.3789678E+003	2.581059954303782E+001	-3.8097471E-001	-7.082673107683557E-002	2.6983193E-005	-3.8112128E-001	0
5.4091553E+003	2.601059953798540E+001	-3.8298190E-001	-7.080253388240609E-002	2.7116088E-005	-3.8312122E-001	0
5.4412090E+003	2.621059953293297E+001	-3.8501310E-001	-7.075874524691493E-002	2.7243044E-005	-3.8512114E-001	0
5.4667764E+003	2.641059952788055E+001	-3.8694280E-001	-7.078079721476405E-002	2.7388120E-005	-3.8712108E-001	0
5.4948047E+003	2.661059952282812E+001	-3.8899291E-001	-7.079285613573738E-002	2.7537919E-005	-3.8912097E-001	0
5.5220435E+003	2.681059951777570E+001	-3.9099929E-001	-7.080699450097749E-002	2.7685484E-005	-3.9112091E-001	0
5.5510537E+003	2.701059951272327E+001	-3.9298165E-001	-7.079406280034650E-002	2.7820768E-005	-3.9312083E-001	0
5.5776460E+003	2.721059950767085E+001	-3.9498502E-001	-7.081571926707042E-002	2.7971148E-005	-3.9512077E-001	0
5.6058276E+003	2.741059950261842E+001	-3.9698565E-001	-7.081659646047966E-002	2.8113172E-005	-3.9712065E-001	0
5.6271792E+003	2.761059949756600E+001	-3.9901280E-001	-7.090813782891858E-002	2.8293254E-005	-3.9912060E-001	0
5.6585405E+003	2.781059949251357E+001	-4.0097395E-001	-7.086172836986870E-002	2.8413708E-005	-4.0112051E-001	0
5.6826890E+003	2.801059948746115E+001	-4.0299860E-001	-7.091688339032501E-002	2.8579405E-005	-4.0312046E-001	0
5.7048975E+003	2.821049948241125E+001	-4.0497670E-001	-7.098755302854493E-002	2.8748305E-005	-4.0511948E-001	0
5.7289023E+003	2.841039947736135E+001	-4.0701526E-001	-7.104594218692467E-002	2.8916784E-005	-4.0712029E-001	0
5.7588579E+003	2.861039947230893E+001	-4.0896630E-001	-7.101517746197528E-002	2.9042814E-005	-4.0912020E-001	0
5.7813374E+003	2.881039946725650E+001	-4.1099849E-001	-7.109055807602827E-002	2.9218112E-005	-4.1112009E-001	0
5.7996821E+003	2.901039946220408E+001	-4.1299850E-001	-7.121054184582953E-002	2.9409846E-005	-4.1312003E-001	0
5.8283760E+003	2.921039945715165E+001	-4.1500506E-001	-7.120423784158500E-002	2.9550120E-005	-4.1511998E-001	0
5.8525654E+003	2.941039945209923E+001	-4.1701123E-001	-7.125272561295468E-002	2.9713186E-005	-4.1711983E-001	0
5.8692998E+003	2.961039944704680E+001	-4.1901609E-001	-7.139115630123194E-002	2.9914043E-005	-4.1911978E-001	0
5.8989102E+003	2.981039944199438E+001	-4.2097485E-001	-7.136485474543153E-002	3.0042809E-005	-4.2111969E-001	0
5.9268291E+003	3.001039943694195E+001	-4.2304301E-001	-7.137762717511939E-002	3.0195806E-005	-4.2311966E-001	0
5.9516982E+003	3.021039943188953E+001	-4.2506254E-001	-7.141869557892597E-002	3.0357412E-005	-4.2511952E-001	0
5.9740107E+003	3.041039942683710E+001	-4.2701876E-001	-7.147941065217273E-002	3.0523050E-005	-4.2711946E-001	0
6.0010049E+003	3.061039942178468E+001	-4.2900857E-001	-7.148945365732540E-002	3.0669587E-005	-4.2911938E-001	0
6.0220483E+003	3.081039941673225E+001	-4.3095595E-001	-7.156301418196875E-002	3.0840507E-005	-4.3111932E-001	0
6.0449482E+003	3.101039941167983E+001	-4.3299797E-001	-7.162972581424973E-002	3.1015526E-005	-4.3311921E-001	0
6.0696221E+003	3.121039940662740E+001	-4.3500045E-001	-7.166845909248010E-002	3.1175812E-005	-4.3511915E-001	0
6.1027910E+003	3.141039940157498E+001	-4.3703657E-001	-7.161257287609879E-002	3.1297313E-005	-4.3711907E-001	0
6.1206992E+003	3.161039939652255E+001	-4.3902335E-001	-7.172764666524212E-002	3.1490112E-005	-4.3911901E-001	0
6.1482539E+003	3.181039939147013E+001	-4.4099325E-001	-7.172658398341958E-002	3.1630938E-005	-4.4111890E-001	0
6.1698315E+003	3.201039938641770E+001	-4.4300491E-001	-7.180178408456084E-002	3.1808544E-005	-4.4311884E-001	0
6.2082617E+003	3.221039938136528E+001	-4.4501019E-001	-7.168032065331664E-002	3.1898471E-005	-4.4511876E-001	0
6.2262046E+003	3.241039937631285E+001	-4.4703284E-001	-7.179860991284337E-002	3.2096337E-005	-4.4711873E-001	0
6.2568413E+003	3.261039937126043E+001	-4.4899002E-001	-7.175985484831693E-002	3.2219457E-005	-4.4911858E-001	0
6.2850542E+003	3.281039936620800E+001	-4.5099929E-001	-7.175742159122411E-002	3.2362546E-005	-4.5111859E-001	0
6.3127402E+003	3.301039936115558E+001	-4.5303196E-001	-7.176470692225118E-002	3.2511707E-005	-4.5311844E-001	0
6.3423721E+003	3.321039935610315E+001	-4.5504072E-001	-7.174614015354219E-002	3.2647415E-005	-4.5511842E-001	0
6.3712119E+003	3.341029935105325E+001	-4.5704028E-001	-7.173522054273707E-002	3.2785887E-005	-4.5711851E-001	0
6.4039395E+003	3.361019934600336E+001	-4.5896277E-001	-7.166881800434854E-002	3.2893320E-005	-4.5911828E-001	0
6.4350674E+003	3.381019934095093E+001	-4.6101770E-001	-7.164147342745297E-002	3.3027987E-005	-4.6111813E-001	0
6.4667974E+003	3.401019933589851E+001	-4.6301410E-001	-7.159866896709244E-002	3.3151195E-005	-4.6311811E-001	0
6.5029927E+003	3.421019933084608E+001	-4.6502179E-001	-7.150889055797072E-002	3.3253193E-005	-4.6511796E-001	0
6.5283291E+003	3.441019932579366E+001	-4.6698710E-001	-7.153240614095496E-002	3.3404711E-005	-4.6711791E-001	0
6.5675771E+003	3.461019932074123E+001	-4.6901086E-001	-7.141307240316164E-002	3.3493507E-005	-4.6911782E-001	0
6.5985420E+003	3.481019931568881E+001	-4.7103888E-001	-7.138529463455751E-002	3.3625249E-005	-4.7111776E-001	0
6.6358076E+003	3.501019931063638E+001	-4.7296795E-001	-7.127511563928390E-002	3.3710847E-005	-4.7311765E-001	0
6.6748560E+003	3.521019930558396E+001	-4.7500637E-001	-7.116354123294300E-002	3.3803135E-005	-4.7511759E-001	0
6.7073677E+003	3.541019930053153E+001	-4.7698575E-001	-7.111370048798249E-002	3.3920223E-005	-4.7711745E-001	0
6.7527798E+003	3.561019929547911E+001	-4.7900146E-001	-7.093396886777703E-002	3.3977474E-005	-4.7911745E-001	0
6.7930918E+003	3.581019929042668E+001	-4.8099470E-001	-7.080644557237736E-002	3.4057524E-005	-4.8111734E-001	0
6.8298467E+003	3.601019928537426E+001	-4.8301733E-001	-7.072154983937251E-002	3.4159733E-005	-4.8311728E-001	0
6.8689658E+003	3.621019928032183E+001	-4.8499185E-001	-7.060623953442052E-002	3.4243451E-005	-4.8511714E-001	0
6.9191465E+003	3.641019927526941E+001	-4.8699781E-001	-7.038408605690127E-002	3.4276894E-005	-4.8711714E-001	0
6.9612266E+003	3.661019927021698E+001	-4.8899063E-001	-7.024489392636257E-002	3.4349094E-005	-4.8911703E-001	0
7.0037339E+003	3.681019926516456E+001	-4.9100775E-001	-7.010656767767653E-002	3.4422868E-005	-4.9111697E-001	0
7.0530522E+003	3.701019926011213E+001	-4.9298164E-001	-6.989621242525179E-002	3.4457549E-005	-4.9311683E-001	0
7.0989990E+003	3.721019925505971E+001	-4.9500179E-001	-6.972839130466690E-002	3.4515680E-005	-4.9511683E-001	0
7.1467856E+003	3.741019925000728E+001	-4.9699375E-001	-6.954087816123877E-002	3.4561381E-005	-4.9711668E-001	0
7.2006123E+003	3.761019924495486E+001	-4.9900180E-001	-6.929991333724295E-002	3.4580782E-005	-4.9911663E-001	0
7.2444219E+003	3.781019923990243E+001	-5.0097167E-001	-6.915274850523601E-002	3.4643570E-005	-5.0111651E-001	0
7.2996177E+003	3.801019923485001E+001	-5.0299388E-001	-6.890688137132295E-002	3.4659741E-005	-5.0311649E-001	0
7.3548940E+003	3.821019922979758E+001	-5.0501603E-001	-6.866394476954496E-002	3.4676392E-005	-5.0511640E-001	0
7.4139067E+003	3.840999922475021E+001	-5.0702375E-001	-6.838820141274275E-002	3.4674442E-005	-5.0711590E-001	0
7.4672734E+003	3.860999921969778E+001	-5.0897241E-001	-6.816040826729097E-002	3.4691766E-005	-5.0911623E-001	0
7.5222119E+003	3.880999921464536E+001	-5.1097959E-001	-6.792943124963446E-002	3.4710552E-005	-5.1111615E-001	0
7.5867681E+003	3.900999920959293E+001	-5.1299214E-001	-6.761669191846520E-002	3.4686833E-005	-5.1311606E-001	0
7.6335073E+003	3.920999920454051E+001	-5.1498026E-001	-6.746312295131041E-002	3.4742177E-005	-5.1511604E-001	0
7.6996333E+003	3.940999919948808E+001	-5.1701099E-001	-6.714748379789137E-002	3.4715988E-005	-5.1711589E-001	0
7.7552144E+003	3.960999919443566E+001	-5.1901698E-001	-6.692490482738744E-002	3.4735163E-005	-5.1911587E-001	0
7.8171567E+003	3.980999918938323E+001	-5.2100039E-001	-6.664832087303341E-002	3.4723802E-005	-5.2111578E-001	0
7.8875103E+003	4.000999918433081E+001	-5.2299863E-001	-6.630718954437542E-002	3.4678571E-005	-5.2311569E-001	0
7.9545020E+003	4.020999917927838E+001	-5.2492547E-001	-6.599099023316202E-002	3.4640350E-005	-5.2511561E-001	0
8.0114688E+003	4.040999917422596E+001	-5.2698946E-001	-6.577938001036920E-002	3.4665041E-005	-5.2711552E-001	0
8.0828467E+003	4.060999916917353E+001	-5.2896619E-001	-6.544305598880729E-002	3.4617166E-005	-5.2911544E-001	0
8.1441006E+003	4.080999916412111E+001	-5.3101963E-001	-6.520298166071689E-002	3.4624063E-005	-5.3111541E-001	0
8.2134746E+003	4.100999915906868E+001	-5.3299665E-001	-6.489295742311874E-002	3.4587731E-005	-5.3311533E-001	0
8.2854209E+003	4.120999915401626E+001	-5.3498930E-001	-6.456996352663091E-002	3.4544239E-005	-5.3511524E-001	0
8.3594248E+003	4.140999914896383E+001	-5.3696251E-001	-6.423438502720602E-002	3.4491455E-005	-5.3711516E-001	0
8.4240752E+003	4.160999914391141E+001	-5.3897864E-001	-6.398074565689771E-002	3.4484256E-005	-5.3911507E-001	0
8.4994717E+003	4.180999913885898E+001	-5.4105645E-001	-6.365765702156756E-002	3.4442386E-005	-5.4111493E-001	0
8.5609551E+003	4.200999913380656E+001	-5.4301000E-001	-6.342866796157542E-002	3.4442401E-005	-5.4311490E-001	0
8.6419951E+003	4.220999912875413E+001	-5.4503334E-001	-6.306800140963331E-002	3.4374163E-005	-5.4511482E-001	0
8.7084990E+003	4.240999912370171E+001	-5.4701757E-001	-6.281422054059291E-002	3.4360484E-005	-5.4711467E-001	0
8.7842178E+003	4.260999911864928E+001	-5.4901886E-001	-6.250059454175971E-002	3.4314005E-005	-5.4911470E-001	0
8.8525664E+003	4.280999911359686E+001	-5.5100805E-001	-6.224274886465819E-002	3.4296256E-005	-5.5111462E-001	0
8.9289033E+003	4.300999910854443E+001	-5.5297834E-001	-6.193127380388375E-002	3.4246652E-005	-5.5311453E-001	0
9.0069248E+003	4.320999910349201E+001	-5.5499023E-001	-6.161817281333759E-002	3.4197485E-005	-5.5511445E-001	0
9.0688965E+003	4.340989909844211E+001	-5.5702865E-001	-6.142187944905941E-002	3.4213746E-005	-5.5711484E-001	0
9.1523242E+003	4.360979909339221E+001	-5.5902904E-001	-6.108055219831385E-002	3.4145804E-005	-5.5911428E-001	0
9.2310088E+003	4.380979908833979E+001	-5.6103492E-001	-6.077720674257420E-002	3.4098135E-005	-5.6111419E-001	0
9.3048252E+003	4.400979908328736E+001	-5.6303275E-001	-6.050975845763418E-002	3.4068977E-005	-5.6311405E-001	0
9.3764111E+003	4.420979907823494E+001	-5.6499350E-001	-6.025690339345169E-002	3.4044759E-005	-5.6511402E-001	0
9.4630459E+003	4.440979907318251E+001	-5.6699538E-001	-5.991679472350395E-002	3.3972545E-005	-5.6711394E-001	0
9.5306523E+003	4.460979906813009E+001	-5.6899220E-001	-5.970128497970417E-002	3.3969565E-005	-5.6911391E-001	0
9.6062930E+003	4.480979906307766E+001	-5.7098544E-001	-5.943868580367184E-002	3.3938624E-005	-5.7111382E-001	0
9.6870879E+003	4.500979905802524E+001	-5.7300979E-001	-5.915191671979991E-002	3.3894627E-005	-5.7311368E-001	0
9.7665615E+003	4.520979905297281E+001	-5.7501018E-001	-5.887539428447619E-002	3.3853950E-005	-5.7511365E-001	0
9.8256494E+003	4.540979904792039E+001	-5.7697606E-001	-5.872141696246613E-002	3.3880853E-005	-5.7711357E-001	0
9.9241777E+003	4.560979904286796E+001	-5.7900995E-001	-5.834336697320364E-002	3.3781391E-005	-5.7911342E-001	0
9.9967324E+003	4.580979903781554E+001	-5.8096838E-001	-5.811582570008578E-002	3.3763456E-005	-5.8111340E-001	0
1.0069479E+004	4.600979903276311E+001	-5.8300108E-001	-5.789783755063938E-002	3.3754503E-005	-5.8311331E-001	0
1.0154119E+004	4.620979902771069E+001	-5.8496600E-001	-5.760874144221889E-002	3.3699154E-005	-5.8511323E-001	0
1.0212354E+004	4.640979902265826E+001	-5.8694059E-001	-5.747357922048668E-002	3.3733577E-005	-5.8711314E-001	0
1.0298760E+004	4.660979901760584E+001	-5.8898228E-001	-5.718963069771577E-002	3.3683678E-005	-5.8911306E-001	0
1.0365036E+004	4.680979901255341E+001	-5.9103388E-001	-5.702188390395824E-002	3.3701865E-005	-5.9111303E-001	0
1.0454082E+004	4.700979900750099E+001	-5.9299737E-001	-5.672400131401362E-002	3.3637185E-005	-5.9311295E-001	0
1.0518634E+004	4.720979900244856E+001	-5.9498608E-001	-5.656495929617544E-002	3.3655364E-005	-5.9511280E-001	0
1.0589425E+004	4.740979899739614E+001	-5.9701562E-001	-5.637847725143608E-002	3.3658831E-005	-5.9711277E-001	0
1.0676959E+004	4.760979899234371E+001	-5.9902221E-001	-5.610419570863279E-002	3.3607659E-005	-5.9911269E-001	0
1.0741774E+004	4.780979898729129E+001	-6.0100514E-001	-5.595026397021696E-002	3.3626395E-005	-6.0111260E-001	0
1.0810265E+004	4.800979898223886E+001	-6.0301346E-001	-5.578156482468444E-002	3.3637036E-005	-6.0311252E-001	0
1.0892885E+004	4.820979897718644E+001	-6.0501832E-001	-5.554252655705749E-002	3.3604247E-005	-6.0511243E-001	0
1.0956048E+004	4.840969897213654E+001	-6.0700023E-001	-5.540321018223238E-002	3.3629760E-005	-6.0711187E-001	0
1.1030048E+004	4.860959896708664E+001	-6.0903013E-001	-5.521554487140727E-002	3.3627930E-005	-6.0911232E-001	0
1.1092862E+004	4.880959896203422E+001	-6.1102766E-001	-5.508295473665867E-002	3.3657208E-005	-6.1111218E-001	0
1.1156898E+004	4.900959895698179E+001	-6.1300719E-001	-5.494422987874281E-002	3.3681208E-005	-6.1311209E-001	0
1.1232874E+004	4.920959895192937E+001	-6.1500639E-001	-5.475058388007191E-002	3.3671960E-005	-6.1511201E-001	0
1.1280886E+004	4.940959894687694E+001	-6.1703420E-001	-5.469731822062929E-002	3.3750115E-005	-6.1711198E-001	0
1.1349972E+004	4.960959894182452E+001	-6.1903858E-001	-5.454098110619410E-002	3.3762972E-005	-6.1911190E-001	0
1.1424651E+004	4.980959893677209E+001	-6.2102199E-001	-5.435806661717546E-002	3.3757555E-005	-6.2111181E-001	0
1.1480020E+004	5.000959893171967E+001	-6.2301439E-001	-5.426945440131159E-002	3.3810651E-005	-6.2311167E-001	0
1.1540373E+004	5.020959892666724E+001	-6.2502813E-001	-5.416013307176736E-002	3.3851607E-005	-6.2511164E-001	0
1.1607280E+004	5.040959892161482E+001	-6.2704706E-001	-5.402187784804258E-002	3.3874261E-005	-6.2711155E-001	0
1.1662053E+004	5.060959891656239E+001	-6.2897784E-001	-5.393371555601534E-002	3.3923112E-005	-6.2911147E-001	0
1.1722969E+004	5.080959891150997E+001	-6.3103449E-001	-5.382889737596819E-002	3.3967892E-005	-6.3111138E-001	0
1.1785398E+004	5.100959890645754E+001	-6.3300991E-001	-5.371137170169649E-002	3.3999830E-005	-6.3311130E-001	0
1.1823771E+004	5.120959890140512E+001	-6.3498884E-001	-5.370442748973658E-002	3.4101711E-005	-6.3511127E-001	0
1.1891590E+004	5.140959889635269E+001	-6.3705033E-001	-5.357150198910787E-002	3.4127745E-005	-6.3711119E-001	0
1.1945295E+004	5.160959889130027E+001	-6.3904655E-001	-5.349776342135282E-002	3.4187560E-005	-6.3911110E-001	0
1.2000376E+004	5.180959888624784E+001	-6.4099264E-001	-5.341438016782440E-002	3.4238226E-005	-6.4111102E-001	0
1.2050543E+004	5.200959888119542E+001	-6.4304590E-001	-5.336240026096700E-002	3.4314471E-005	-6.4311093E-001	0
1.2101051E+004	5.220959887614299E+001	-6.4502507E-001	-5.330322632067708E-002	3.4381919E-005	-6.4511085E-001	0
1.2142231E+004	5.240959887109057E+001	-6.4702672E-001	-5.328729799885279E-002	3.4478304E-005	-6.4711076E-001	0
1.2173890E+004	5.260959886603814E+001	-6.4898676E-001	-5.330972896061037E-002	3.4597309E-005	-6.4911067E-001	0
1.2239130E+004	5.280959886098572E+001	-6.5103692E-001	-5.319307251915739E-002	3.4630655E-005	-6.5111059E-001	0
1.2299951E+004	5.300959885593329E+001	-6.5302306E-001	-5.309151736290818E-002	3.4669985E-005	-6.5311056E-001	0
1.2328952E+004	5.320959885088087E+001	-6.5502816E-001	-5.312926293395101E-002	3.4801164E-005	-6.5511042E-001	0
1.2380035E+004	5.340959884582844E+001	-6.5699315E-001	-5.306876193777199E-002	3.4865814E-005	-6.5711087E-001	0
1.2420137E+004	5.360939884078107E+001	-6.5898132E-001	-5.305749331947651E-002	3.4963898E-005	-6.5911031E-001	0
1.2458153E+004	5.380939883572864E+001	-6.6106576E-001	-5.306290270593828E-002	3.5078068E-005	-6.6111022E-001	0
1.2506877E+004	5.400939883067622E+001	-6.6300792E-001	-5.301146714973470E-002	3.5147023E-005	-6.6311014E-001	0
1.2547179E+004	5.420939882562379E+001	-6.6499370E-001	-5.299946093296160E-002	3.5244309E-005	-6.6511005E-001	0
1.2580142E+004	5.440939882057137E+001	-6.6701090E-001	-5.302093833919347E-002	3.5365545E-005	-6.6710997E-001	0
1.2598282E+004	5.460939881551894E+001	-6.6901368E-001	-5.310356437256047E-002	3.5527009E-005	-6.6910994E-001	0
1.2637985E+004	5.480939881046652E+001	-6.7102045E-001	-5.309552527265105E-002	3.5628182E-005	-6.7110986E-001	0
1.2693581E+004	5.500939880541409E+001	-6.7300135E-001	-5.301902964109328E-002	3.5681878E-005	-6.7310977E-001	0
1.2700445E+004	5.520939880036167E+001	-6.7504561E-001	-5.315133383869253E-002	3.5879573E-005	-6.7510968E-001	0
1.2755297E+004	5.540939879530924E+001	-6.7701608E-001	-5.307724930677549E-002	3.5934150E-005	-6.7710960E-001	0
1.2771504E+004	5.560939879025682E+001	-6.7902625E-001	-5.316728881249810E-002	3.6101985E-005	-6.7910945E-001	0
1.2794623E+004	5.580939878520439E+001	-6.8109655E-001	-5.323302956422582E-002	3.6256832E-005	-6.8110943E-001	0
1.2821622E+004	5.600939878015197E+001	-6.8306297E-001	-5.327430380932793E-002	3.6389705E-005	-6.8310934E-001	0
1.2839710E+004	5.620939877509954E+001	-6.8503004E-001	-5.335245431979485E-002	3.6548034E-005	-6.8510932E-001	0
1.2878413E+004	5.640939877004712E+001	-6.8702251E-001	-5.334682772337301E-002	3.6650472E-005	-6.8710923E-001	0
1.2905016E+004	5.660939876499469E+001	-6.8903983E-001	-5.339318022180484E-002	3.6790028E-005	-6.8910915E-001	0
1.2895712E+004	5.680939875994227E+001	-6.9100118E-001	-5.358379427132415E-002	3.7026464E-005	-6.9110900E-001	0
1.2935202E+004	5.700939875488984E+001	-6.9300264E-001	-5.357493633930233E-002	3.7127571E-005	-6.9310898E-001	0
1.2970656E+004	5.720939874983742E+001	-6.9503385E-001	-5.358509492348729E-002	3.7243455E-005	-6.9510883E-001	0
1.2987033E+004	5.740939874478499E+001	-6.9699252E-001	-5.366833853089775E-002	3.7406429E-005	-6.9710886E-001	0
1.2992884E+004	5.760939873973257E+001	-6.9900906E-001	-5.379937748084729E-002	3.7606253E-005	-6.9910866E-001	0
1.3008791E+004	5.780939873468014E+001	-7.0102793E-001	-5.388878275747996E-002	3.7777543E-005	-7.0110863E-001	0
1.3032937E+004	5.800939872962772E+001	-7.0299399E-001	-5.393980100989557E-002	3.7919355E-005	-7.0310861E-001	0
1.3053390E+004	5.820939872457529E+001	-7.0500648E-001	-5.400945738859697E-002	3.8077018E-005	-7.0510852E-001	0
1.3050710E+004	5.840929871952540E+001	-7.0697886E-001	-5.417167736391204E-002	3.8298229E-005	-7.0710748E-001	0
1.3095435E+004	5.860929871447297E+001	-7.0900762E-001	-5.414158677744074E-002	3.8386799E-005	-7.0910907E-001	0
1.3089580E+004	5.880919870942307E+001	-7.1101189E-001	-5.431892155920925E-002	3.8621398E-005	-7.1110821E-001	0
1.3088238E+004	5.900919870437065E+001	-7.1300912E-001	-5.447708944739360E-002	3.8842663E-005	-7.1310824E-001	0
1.3098690E+004	5.920919869931822E+001	-7.1501487E-001	-5.458674613278702E-002	3.9030336E-005	-7.1510804E-001	0
1.3119610E+004	5.940919869426580E+001	-7.1700692E-001	-5.465154101081682E-002	3.9185532E-005	-7.1710801E-001	0
1.3121216E+004	5.960919868921337E+001	-7.1903878E-001	-5.479970876689211E-002	3.9403116E-005	-7.1910793E-001	0
1.3126610E+004	5.980919868416095E+001	-7.2100312E-001	-5.492683265848131E-002	3.9602419E-005	-7.2110790E-001	0
1.3134067E+004	6.000919867910852E+001	-7.2297317E-001	-5.504564311019577E-002	3.9796523E-005	-7.2310781E-001	0
1.3143458E+004	6.020919867405610E+001	-7.2499734E-001	-5.516032010787797E-002	3.9991086E-005	-7.2510779E-001	0
1.3133833E+004	6.040919866900367E+001	-7.2699666E-001	-5.535297092819011E-002	4.0241426E-005	-7.2710758E-001	0
1.3158047E+004	6.060919866395125E+001	-7.2901022E-001	-5.540413741822739E-002	4.0390183E-005	-7.2910762E-001	0
1.3149297E+004	6.080919865889882E+001	-7.3105276E-001	-5.559633997461155E-002	4.0643859E-005	-7.3110741E-001	0
1.3148345E+004	6.100919865384640E+001	-7.3300606E-001	-5.574892156824990E-002	4.0864299E-005	-7.3310739E-001	0
1.3125357E+004	6.120919864879397E+001	-7.3503190E-001	-5.600090469592711E-002	4.1162453E-005	-7.3510730E-001	0
1.3138488E+004	6.140919864374155E+001	-7.3701322E-001	-5.609574146534990E-002	4.1343304E-005	-7.3710728E-001	0
1.3148271E+004	6.160919863868912E+001	-7.3905265E-001	-5.620911602372258E-002	4.1541498E-005	-7.3910707E-001	0
1.3121713E+004	6.180919863363670E+001	-7.4102247E-001	-5.647299714838394E-002	4.1847761E-005	-7.4110711E-001	0
1.3105811E+004	6.200919862858427E+001	-7.4299431E-001	-5.669197819011933E-002	4.2121817E-005	-7.4310696E-001	0
1.3085487E+004	6.220919862353185E+001	-7.4498737E-001	-5.693233585304014E-002	4.2413871E-005	-7.4510700E-001	0
1.3089792E+004	6.240919861847942E+001	-7.4699277E-001	-5.706681905561428E-002	4.2628501E-005	-7.4710679E-001	0
1.3071784E+004	6.260919861342700E+001	-7.4901122E-001	-5.729984772410607E-002	4.2918229E-005	-7.4910676E-001	0
1.3083620E+004	6.280919860837457E+001	-7.5100321E-001	-5.740025926691761E-002	4.3107779E-005	-7.5110668E-001	0
1.3056115E+004	6.300919860332215E+001	-7.5301814E-001	-5.767551305980478E-002	4.3430708E-005	-7.5310665E-001	0
1.3022877E+004	6.320919859826972E+001	-7.5503713E-001	-5.797775266977112E-002	4.3775355E-005	-7.5510645E-001	0
1.3012646E+004	6.340919859321730E+001	-7.5701499E-001	-5.817533446879231E-002	4.4039600E-005	-7.5710648E-001	0
1.3027311E+004	6.360909858816740E+001	-7.5899130E-001	-5.826155186969822E-002	4.4220011E-005	-7.5910699E-001	0
1.2979727E+004	6.380899858311750E+001	-7.6101249E-001	-5.863085932831125E-002	4.4618817E-005	-7.6110625E-001	0
1.2991596E+004	6.400899857806508E+001	-7.6298255E-001	-5.872893437812898E-002	4.4809152E-005	-7.6310617E-001	0
1.2945475E+004	6.420899857301265E+001	-7.6505375E-001	-5.909816243330990E-002	4.5213270E-005	-7.6510614E-001	0
1.2917885E+004	6.440899856796023E+001	-7.6702470E-001	-5.937695699319456E-002	4.5543591E-005	-7.6710606E-001	0
1.2891249E+004	6.460899856290780E+001	-7.6905286E-001	-5.965696946800142E-002	4.5879362E-005	-7.6910597E-001	0
1.2874059E+004	6.480899855785538E+001	-7.7100003E-001	-5.988787443592475E-002	4.6173554E-005	-7.7110583E-001	0
1.2837165E+004	6.500899855280295E+001	-7.7301061E-001	-6.021661596011607E-002	4.6548084E-005	-7.7310586E-001	0
1.2813672E+004	6.520899854775053E+001	-7.7499652E-001	-6.048200261734768E-002	4.6873341E-005	-7.7510566E-001	0
1.2745784E+004	6.540899854269810E+001	-7.7698535E-001	-6.096018421571364E-002	4.7365171E-005	-7.7710563E-001	0
1.2716604E+004	6.560899853764568E+001	-7.7903676E-001	-6.126138790248725E-002	4.7724872E-005	-7.7910554E-001	0
1.2696692E+004	6.580899853259325E+001	-7.8099126E-001	-6.151139372041066E-002	4.8039859E-005	-7.8110546E-001	0
1.2646799E+004	6.600899852754083E+001	-7.8299856E-001	-6.191278514167187E-002	4.8477621E-005	-7.8310543E-001	0
1.2586495E+004	6.620899852248840E+001	-7.8499854E-001	-6.236832031173467E-002	4.8959038E-005	-7.8510535E-001	0
1.2568387E+004	6.640899851743598E+001	-7.8701252E-001	-6.261841782005473E-002	4.9281480E-005	-7.8710532E-001	0
1.2499222E+004	6.660899851238355E+001	-7.8902817E-001	-6.312618592580854E-002	4.9808339E-005	-7.8910524E-001	0
1.2467440E+004	6.680899850733113E+001	-7.9094559E-001	-6.344089521382379E-002	5.0178296E-005	-7.9110503E-001	0
1.2397630E+004	6.700899850227870E+001	-7.9300904E-001	-6.396456793966425E-002	5.0724480E-005	-7.9310513E-001	0
1.2327563E+004	6.720899849722628E+001	-7.9504001E-001	-6.449287971682294E-002	5.1274419E-005	-7.9510498E-001	0
1.2301221E+004	6.740899849217385E+001	-7.9698521E-001	-6.478911410550459E-002	5.1635965E-005	-7.9710490E-001	0
1.2203563E+004	6.760899848712143E+001	-7.9899418E-001	-6.547220036136123E-002	5.2311909E-005	-7.9910481E-001	0
1.2152041E+004	6.780899848206900E+001	-8.0101246E-001	-6.591587635432949E-002	5.2799438E-005	-8.0110472E-001	0
1.2102333E+004	6.800899847701658E+001	-8.0297714E-001	-6.634895370738847E-002	5.3276694E-005	-8.0310470E-001	0
1.2045258E+004	6.820899847196415E+001	-8.0499715E-001	-6.683104280266239E-002	5.3798798E-005	-8.0510461E-001	0
1.1956158E+004	6.840899846691173E+001	-8.0700856E-001	-6.749731470944798E-002	5.4470911E-005	-8.0710441E-001	0
1.1879832E+004	6.860889846186183E+001	-8.0900490E-001	-6.809901970000221E-002	5.5092441E-005	-8.0910438E-001	0
1.1802762E+004	6.880879845681193E+001	-8.1099957E-001	-6.871269417075565E-002	5.5725966E-005	-8.1110430E-001	0
1.1754790E+004	6.900879845175950E+001	-8.1298298E-001	-6.916184482785526E-002	5.6227404E-005	-8.1310427E-001	0
1.1652144E+004	6.920879844670708E+001	-8.1503803E-001	-6.994747557643533E-002	5.7009853E-005	-8.1510419E-001	0
1.1564844E+004	6.940879844165465E+001	-8.1704926E-001	-7.064939905253698E-002	5.7724039E-005	-8.1710410E-001	0
1.1490342E+004	6.960879843660223E+001	-8.1901747E-001	-7.127877223820700E-002	5.8378559E-005	-8.1910408E-001	0
1.1387660E+004	6.980879843154980E+001	-8.2099926E-001	-7.209552011754611E-002	5.9190370E-005	-8.2110399E-001	0
1.1283532E+004	7.000879842649738E+001	-8.2297456E-001	-7.293590031777508E-002	6.0024391E-005	-8.2310379E-001	0
1.1193136E+004	7.020879842144495E+001	-8.2502645E-001	-7.370825028500982E-002	6.0811257E-005	-8.2510376E-001	0
1.1083090E+004	7.040879841639253E+001	-8.2696533E-001	-7.461505523109846E-002	6.1704064E-005	-8.2710367E-001	0
1.0958071E+004	7.060879841134010E+001	-8.2901311E-001	-7.565319660339376E-002	6.2717489E-005	-8.2910365E-001	0
1.0867079E+004	7.080879840628768E+001	-8.3100373E-001	-7.646983188298245E-002	6.3546715E-005	-8.3110350E-001	0
1.0740875E+004	7.100879840123525E+001	-8.3297002E-001	-7.755141457924997E-002	6.4598004E-005	-8.3310336E-001	0
1.0604489E+004	7.120879839618283E+001	-8.3501494E-001	-7.874164582270249E-002	6.5750450E-005	-8.3510345E-001	0
1.0457317E+004	7.140879839113040E+001	-8.3698958E-001	-8.003865277749445E-002	6.6991517E-005	-8.3710337E-001	0
1.0297196E+004	7.160879838607798E+001	-8.3898628E-001	-8.147716028731988E-002	6.8358218E-005	-8.3910316E-001	0
1.0127403E+004	7.180879838102555E+001	-8.4101856E-001	-8.304385307599782E-002	6.9841422E-005	-8.4110314E-001	0
9.9568535E+003	7.200879837597313E+001	-8.4302533E-001	-8.466784150736673E-002	7.1377137E-005	-8.4310305E-001	0
9.7677949E+003	7.220879837092070E+001	-8.4500575E-001	-8.650937077986331E-002	7.3100913E-005	-8.4510303E-001	0
9.5333887E+003	7.240879836586828E+001	-8.4696394E-001	-8.884185886584972E-002	7.5245851E-005	-8.4710288E-001	0
9.3018262E+003	7.260879836081585E+001	-8.4906566E-001	-9.127945610260857E-002	7.7502249E-005	-8.4910274E-001	0
9.0604131E+003	7.280879835576343E+001	-8.5100746E-001	-9.392589970508747E-002	7.9931640E-005	-8.5110277E-001	0
8.7718252E+003	7.300879835071100E+001	-8.5301787E-001	-9.724519138653154E-002	8.2951883E-005	-8.5310262E-001	0
8.4957930E+003	7.320879834565858E+001	-8.5500079E-001	-1.006381411312356E-001	8.6045693E-005	-8.5510254E-001	0
8.2314922E+003	7.340879834060615E+001	-8.5701776E-001	-1.041145059744704E-001	8.9227979E-005	-8.5710251E-001	0
7.9533613E+003	7.360879833555373E+001	-8.5901982E-001	-1.080071428587954E-001	9.2780276E-005	-8.5910243E-001	0
7.6828125E+003	7.380869833050383E+001	-8.6100781E-001	-1.120693528894809E-001	9.6492586E-005	-8.6110282E-001	0
7.4523516E+003	7.400859832545393E+001	-8.6303544E-001	-1.158071269403693E-001	9.9945653E-005	-8.6310226E-001	0
7.2376948E+003	7.420859832040151E+001	-8.6496001E-001	-1.195076676180631E-001	1.0336936E-004	-8.6510211E-001	0
7.0505361E+003	7.440859831534908E+001	-8.6698604E-001	-1.229673902960304E-001	1.0661101E-004	-8.6710215E-001	0
6.8666753E+003	7.460859831029666E+001	-8.6896551E-001	-1.265482141397671E-001	1.0996603E-004	-8.6910200E-001	0
6.6994463E+003	7.480859830524423E+001	-8.7095290E-001	-1.300037166171300E-001	1.1322711E-004	-8.7110192E-001	0
6.5476641E+003	7.500859830019181E+001	-8.7293220E-001	-1.333196345059930E-001	1.1637900E-004	-8.7310183E-001	0
6.3909819E+003	7.520859829513938E+001	-8.7500471E-001	-1.369124043832136E-001	1.1979900E-004	-8.7510180E-001	0
6.2481768E+003	7.540859829008696E+001	-8.7700784E-001	-1.403622050081161E-001	1.2309875E-004	-8.7710220E-001	0
6.0833022E+003	7.560859828503453E+001	-8.7899363E-001	-1.444928377482386E-001	1.2700829E-004	-8.7910217E-001	0
5.9292363E+003	7.580859827998211E+001	-8.8096565E-001	-1.485799535276902E-001	1.3089384E-004	-8.8110209E-001	0
5.7754312E+003	7.600859827492968E+001	-8.8296252E-001	-1.528825352914507E-001	1.3498955E-004	-8.8310224E-001	0
5.6123096E+003	7.620859826987726E+001	-8.8494182E-001	-1.576787242887627E-001	1.3953650E-004	-8.8510221E-001	0
5.4462793E+003	7.640859826482483E+001	-8.8692296E-001	-1.628493408180454E-001	1.4443482E-004	-8.8710219E-001	0
5.2904937E+003	7.660859825977241E+001	-8.8900155E-001	-1.680375466655408E-001	1.4938564E-004	-8.8910222E-001	0
5.1353628E+003	7.680859825471998E+001	-8.9098310E-001	-1.734995390119585E-001	1.5458516E-004	-8.9110219E-001	0
4.9690322E+003	7.700859824966756E+001	-8.9300317E-001	-1.797137011619721E-001	1.6048491E-004	-8.9310223E-001	0
4.7987319E+003	7.720859824461513E+001	-8.9497888E-001	-1.865032067756820E-001	1.6691643E-004	-8.9510214E-001	0
4.6267090E+003	7.740859823956271E+001	-8.9696985E-001	-1.938677996253408E-001	1.7389357E-004	-8.9710224E-001	0
4.4497461E+003	7.760859823451028E+001	-8.9896053E-001	-2.020251359579373E-001	1.8161262E-004	-8.9910221E-001	0
4.2701621E+003	7.780859822945786E+001	-9.0097404E-001	-2.109929387945511E-001	1.9009916E-004	-9.0110219E-001	0
4.0824624E+003	7.800859822440543E+001	-9.0297610E-001	-2.211841762957076E-001	1.9972402E-004	-9.0310228E-001	0
3.8861619E+003	7.820859821935301E+001	-9.0499187E-001	-2.328754909560415E-001	2.1075043E-004	-9.0510213E-001	0
3.6813779E+003	7.840859821430058E+001	-9.0702575E-001	-2.463821275033009E-001	2.2347494E-004	-9.0710223E-001	0
3.4754395E+003	7.860859820924816E+001	-9.0895855E-001	-2.615377284130267E-001	2.3772696E-004	-9.0910220E-001	0
3.2094207E+003	7.880859820419573E+001	-9.1096509E-001	-2.838409833774782E-001	2.5856923E-004	-9.1110229E-001	0
2.9989556E+003	7.900859819914331E+001	-9.1301036E-001	-3.044427848440030E-001	2.7795942E-004	-9.1310227E-001	0
2.8015190E+003	7.920859819409088E+001	-9.1497004E-001	-3.265978300420240E-001	2.9882722E-004	-9.1510218E-001	0
2.5991533E+003	7.940859818903846E+001	-9.1704726E-001	-3.528253893724873E-001	3.2355756E-004	-9.1710222E-001	0
2.4052566E+003	7.960859818398603E+001	-9.1899979E-001	-3.820797288959294E-001	3.5113120E-004	-9.1910219E-001	0
2.1925747E+003	7.980859817893361E+001	-9.2100823E-001	-4.200578599517775E-001	3.8687675E-004	-9.2110217E-001	0
2.0093932E+003	8.000859817388118E+001	-9.2299300E-001	-4.593391817257402E-001	4.2396685E-004	-9.2310220E-001	0
1.8578354E+003	8.020859816882876E+001	-9.2499620E-001	-4.978892063751577E-001	4.6054562E-004	-9.2510223E-001	0
1.7020640E+003	8.040859816377633E+001	-9.2698693E-001	-5.446252133105931E-001	5.0486048E-004	-9.2710221E-001	0
1.5458406E+003	8.060859815872391E+001	-9.2902064E-001	-6.009808741129761E-001	5.5832363E-004	-9.2910212E-001	0
1.4299437E+003	8.080859815367148E+001	-9.3104708E-001	-6.511074905146509E-001	6.0621172E-004	-9.3110222E-001	0
1.2995271E+003	8.100859814861906E+001	-9.3300945E-001	-7.179607521286435E-001	6.6986418E-004	-9.3310219E-001	0
1.1999255E+003	8.120859814356663E+001	-9.3502784E-001	-7.792382378916756E-001	7.2860945E-004	-9.3510216E-001	0
1.0947074E+003	8.140859813851421E+001	-9.3702596E-001	-8.559602157818933E-001	8.0205692E-004	-9.3710226E-001	0
1.0132535E+003	8.160859813346178E+001	-9.3901962E-001	-9.267370847651470E-001	8.7022432E-004	-9.3910223E-001	0
9.2515332E+002	8.180859812840936E+001	-9.4101089E-001	-1.017140469845394E+000	9.5714023E-004	-9.4110221E-001	0
8.4942926E+002	8.201859812310431E+001	-9.4312668E-001	-1.110306360041045E+000	1.0471595E-003	-9.4320226E-001	0
7.8888367E+002	8.222859811779927E+001	-9.4521153E-001	-1.198163382844183E+000	1.1325178E-003	-9.4530225E-001	0
7.2662128E+002	8.242859811274684E+001	-9.4718641E-001	-1.303548948522533E+000	1.2347038E-003	-9.4730216E-001	0
6.7544250E+002	8.262859810769442E+001	-9.4922841E-001	-1.405343035839982E+000	1.3339915E-003	-9.4930214E-001	0
6.2919678E+002	8.282859810264199E+001	-9.5117068E-001	-1.511722082284839E+000	1.4379057E-003	-9.5130223E-001	0
5.8692474E+002	8.302859809758957E+001	-9.5322382E-001	-1.624098871418539E+000	1.5481297E-003	-9.5330220E-001	0
5.4744873E+002	8.322859809253714E+001	-9.5517218E-001	-1.744770117982576E+000	1.6665559E-003	-9.5530218E-001	0
5.1200006E+002	8.342859808748472E+001	-9.5717722E-001	-1.869486445202035E+000	1.7894298E-003	-9.5730227E-001	0
4.8018713E+002	8.362859808243229E+001	-9.5920515E-001	-1.997565234971155E+000	1.9160749E-003	-9.5930213E-001	0
4.5123416E+002	8.382859807737987E+001	-9.6117008E-001	-2.130091602890793E+000	2.0473802E-003	-9.6130222E-001	0
4.2549442E+002	8.402859807232744E+001	-9.6321505E-001	-2.263754885517020E+000	2.1804827E-003	-9.6330220E-001	0
4.0163028E+002	8.422859806727502E+001	-9.6520448E-001	-2.403216374738142E+000	2.3195953E-003	-9.6530229E-001	0
3.7956476E+002	8.442859806222259E+001	-9.6721417E-001	-2.548219039242149E+000	2.4646735E-003	-9.6730226E-001	0
3.5974637E+002	8.462859805717017E+001	-9.6922946E-001	-2.694202198040855E+000	2.6113002E-003	-9.6930218E-001	0
3.4152875E+002	8.482859805211774E+001	-9.7117507E-001	-2.843611448766691E+000	2.7616445E-003	-9.7130221E-001	0
3.2486011E+002	8.502859804706532E+001	-9.7319525E-001	-2.995736285756912E+000	2.9154364E-003	-9.7330230E-001	0
3.0943762E+002	8.522859804201289E+001	-9.7519881E-001	-3.151519827477117E+000	3.0733584E-003	-9.7530216E-001	0
2.9498627E+002	8.542859803696047E+001	-9.7719204E-001	-3.312669466885300E+000	3.2371143E-003	-9.7730219E-001	0
2.8179868E+002	8.562859803190804E+001	-9.7917300E-001	-3.474725377634016E+000	3.4023572E-003	-9.7930223E-001	0
2.6935834E+002	8.582859802685562E+001	-9.8118150E-001	-3.642662440162667E+000	3.5741129E-003	-9.8130220E-001	0
2.5766205E+002	8.602859802180319E+001	-9.8322266E-001	-3.815939099170990E+000	3.7519177E-003	-9.8330224E-001	0
2.4708348E+002	8.622859801675077E+001	-9.8513734E-001	-3.987062849526779E+000	3.9278045E-003	-9.8530221E-001	0
2.3724806E+002	8.642859801169834E+001	-9.8723167E-001	-4.161179170113840E+000	4.1080480E-003	-9.8730218E-001	0
2.2780045E+002	8.662859800664592E+001	-9.8916084E-001	-4.342225202492287E+000	4.2951591E-003	-9.8930216E-001	0
2.1898933E+002	8.682859800159349E+001	-9.9119186E-001	-4.526210810085283E+000	4.4863434E-003	-9.9130225E-001	0
2.1106065E+002	8.702859799654107E+001	-9.9320394E-001	-4.705774784561159E+000	4.6737939E-003	-9.9330223E-001	0
2.0300723E+002	8.722859799148864E+001	-9.9518830E-001	-4.902230782844033E+000	4.8786425E-003	-9.9530214E-001	0
1.9593373E+002	8.742859798643622E+001	-9.9721146E-001	-5.089534293564542E+000	5.0753420E-003	-9.9730211E-001	0
1.8907823E+002	8.762859798138379E+001	-9.9918294E-001	-5.284494870610513E+000	5.2801771E-003	-9.9930215E-001	0
1.8242035E+002	8.782879797632631E+001	-1.0011759E+000	-5.488290692936957E+000	5.4947441E-003	-1.0013037E+000	0
1.7643130E+002	8.802949797125621E+001	-1.0032247E+000	-5.686206144545537E+000	5.7045426E-003	-1.0033104E+000	0
1.7055298E+002	8.822989796619368E+001	-1.0052104E+000	-5.893830589230191E+000	5.9245396E-003	-1.0053151E+000	0
1.6512769E+002	8.843019796113367E+001	-1.0071930E+000	-6.099479588578852E+000	6.1433529E-003	-1.0073178E+000	0
1.5980009E+002	8.863079795606609E+001	-1.0092125E+000	-6.315468906652789E+000	6.3736499E-003	-1.0093235E+000	0
1.5488951E+002	8.883119795100356E+001	-1.0112286E+000	-6.528709308225260E+000	6.6020172E-003	-1.0113282E+000	0
1.5022331E+002	8.903149794594356E+001	-1.0132105E+000	-6.744695420382683E+000	6.8337964E-003	-1.0133306E+000	0
1.4549870E+002	8.923199794087850E+001	-1.0152292E+000	-6.977582770821783E+000	7.0838458E-003	-1.0153357E+000	0
1.4116748E+002	8.943219793582102E+001	-1.0172756E+000	-7.206161170995131E+000	7.3306519E-003	-1.0173383E+000	0
1.3706290E+002	8.963229793076607E+001	-1.0192356E+000	-7.436261993624029E+000	7.5793029E-003	-1.0193390E+000	0
1.3302274E+002	8.983259792570607E+001	-1.0212753E+000	-7.677449380285566E+000	7.8407889E-003	-1.0213417E+000	0
1.2924464E+002	9.003329792063596E+001	-1.0232378E+000	-7.917061341278019E+000	8.1010368E-003	-1.0233483E+000	0
1.2560458E+002	9.023379791557090E+001	-1.0253001E+000	-8.162920012163230E+000	8.3694430E-003	-1.0253538E+000	0
1.2201936E+002	9.043429791050585E+001	-1.0272772E+000	-8.418968982657304E+000	8.6486153E-003	-1.0273589E+000	0
1.1866272E+002	9.063489790543827E+001	-1.0293224E+000	-8.674353739494762E+000	8.9287069E-003	-1.0293643E+000	0
1.1543774E+002	9.083539790037321E+001	-1.0313019E+000	-8.933835922350717E+000	9.2134820E-003	-1.0313697E+000	0
1.1224680E+002	9.103589789530815E+001	-1.0333115E+000	-9.205710569996057E+000	9.5123667E-003	-1.0333745E+000	0
1.0919102E+002	9.123629789024562E+001	-1.0353040E+000	-9.481584590112035E+000	9.8163215E-003	-1.0353791E+000	0
1.0620116E+002	9.143659788518562E+001	-1.0372906E+000	-9.767224090228140E+000	1.0131449E-002	-1.0373818E+000	0
1.0342398E+002	9.163689788012562E+001	-1.0393113E+000	-1.004903608204177E+001	1.0444077E-002	-1.0393850E+000	0
1.0064897E+002	9.183739787506056E+001	-1.0413141E+000	-1.034599904820018E+001	1.0773435E-002	-1.0413895E+000	0
9.8004303E+001	9.203799786999298E+001	-1.0433264E+000	-1.064571975598915E+001	1.1106960E-002	-1.0433958E+000	0
9.5104195E+001	9.224859786467277E+001	-1.0453818E+000	-1.099196251913963E+001	1.1490798E-002	-1.0455015E+000	0
9.2442924E+001	9.245929785935004E+001	-1.0475194E+000	-1.133152617523552E+001	1.1869994E-002	-1.0476085E+000	0
9.0070847E+001	9.265979785428499E+001	-1.0495059E+000	-1.165200470506682E+001	1.2228848E-002	-1.0496137E+000	0
8.7811699E+001	9.286029784921993E+001	-1.0515305E+000	-1.197483319956223E+001	1.2591902E-002	-1.0516185E+000	0
8.5578598E+001	9.306079784415488E+001	-1.0535479E+000	-1.231088002283178E+001	1.2970101E-002	-1.0536237E+000	0
8.3419571E+001	9.326109783909487E+001	-1.0554992E+000	-1.265289651974740E+001	1.3355122E-002	-1.0556270E+000	0
8.1296661E+001	9.346119783403992E+001	-1.0575227E+000	-1.300819260233385E+001	1.3756459E-002	-1.0576282E+000	0
7.9295776E+001	9.366139782898244E+001	-1.0595578E+000	-1.336209623072710E+001	1.4157914E-002	-1.0596297E+000	0
7.7288994E+001	9.386169782392244E+001	-1.0614923E+000	-1.373406828784553E+001	1.4578608E-002	-1.0616330E+000	0
7.5391190E+001	9.406179781886749E+001	-1.0634862E+000	-1.410624067326518E+001	1.5001792E-002	-1.0636343E+000	0
7.3580521E+001	9.426179781381506E+001	-1.0654854E+000	-1.448053591429783E+001	1.5428799E-002	-1.0656343E+000	0
7.1757881E+001	9.446179780876264E+001	-1.0675216E+000	-1.487671604962031E+001	1.5881216E-002	-1.0676342E+000	0
6.9930252E+001	9.466199780370516E+001	-1.0694830E+000	-1.529356724005856E+001	1.6356211E-002	-1.0696356E+000	0
6.8205269E+001	9.486219779864769E+001	-1.0714960E+000	-1.570987090434613E+001	1.6833063E-002	-1.0716381E+000	0
6.6508781E+001	9.506239779359021E+001	-1.0734946E+000	-1.614064406561372E+001	1.7326893E-002	-1.0736399E+000	0
6.4841743E+001	9.526279778852768E+001	-1.0755327E+000	-1.658704037716856E+001	1.7839903E-002	-1.0756438E+000	0
6.3284031E+001	9.546309778346767E+001	-1.0775199E+000	-1.702672703424486E+001	1.8346637E-002	-1.0776471E+000	0
6.1708668E+001	9.566339777840767E+001	-1.0795212E+000	-1.749383404316558E+001	1.8884964E-002	-1.0796497E+000	0
6.0204792E+001	9.586389777334261E+001	-1.0815215E+000	-1.796404322131656E+001	1.9428499E-002	-1.0816549E+000	0
5.8711067E+001	9.606419776828261E+001	-1.0835454E+000	-1.845555661175175E+001	1.9997435E-002	-1.0836579E+000	0
5.7249840E+001	9.626449776322261E+001	-1.0855433E+000	-1.896150824004044E+001	2.0583538E-002	-1.0856611E+000	0
5.5849934E+001	9.646479775816260E+001	-1.0875442E+000	-1.947261406035896E+001	2.1177329E-002	-1.0876637E+000	0
5.4517410E+001	9.666509775310260E+001	-1.0895556E+000	-1.998546228008669E+001	2.1775274E-002	-1.0896670E+000	0
5.3178909E+001	9.686529774804512E+001	-1.0915731E+000	-2.052642881083665E+001	2.2406098E-002	-1.0916690E+000	0
5.1880539E+001	9.706549774298765E+001	-1.0935491E+000	-2.107821513532872E+001	2.3050064E-002	-1.0936710E+000	0
5.0620472E+001	9.726599773792259E+001	-1.0955586E+000	-2.164260098875884E+001	2.3710739E-002	-1.0956755E+000	0
4.9393524E+001	9.746649773285753E+001	-1.0975655E+000	-2.222083893252531E+001	2.4388827E-002	-1.0976810E+000	0
4.8183380E+001	9.766669772780006E+001	-1.0995941E+000	-2.282102518723082E+001	2.5093865E-002	-1.0996830E+000	0
4.6984169E+001	9.786689772274258E+001	-1.1015764E+000	-2.344569360010709E+001	2.5827223E-002	-1.1016852E+000	0
4.5908779E+001	9.806709771768510E+001	-1.1035682E+000	-2.403828289066524E+001	2.6527885E-002	-1.1036873E+000	0
4.4848957E+001	9.825729771288024E+001	-1.1054887E+000	-2.464914912962354E+001	2.7249355E-002	-1.1055889E+000	0
4.3866386E+001	9.844739770807792E+001	-1.1073818E+000	-2.524442780720688E+001	2.7955221E-002	-1.1074903E+000	0
4.2846245E+001	9.863769770327053E+001	-1.1092888E+000	-2.588998998475411E+001	2.8719475E-002	-1.1093926E+000	0
4.1867954E+001	9.882799769846315E+001	-1.1112175E+000	-2.654100225743807E+001	2.9492825E-002	-1.1112961E+000	0
4.0874836E+001	9.902829769340315E+001	-1.1132120E+000	-2.723465417410955E+001	3.0317944E-002	-1.1132989E+000	0
3.9900948E+001	9.922879768833809E+001	-1.1152058E+000	-2.794935467824592E+001	3.1169282E-002	-1.1153036E+000	0
3.8926022E+001	9.942919768327556E+001	-1.1172830E+000	-2.870272709785132E+001	3.2069068E-002	-1.1173078E+000	0
3.7978447E+001	9.962949767821556E+001	-1.1192316E+000	-2.947017801441598E+001	3.2983955E-002	-1.1193110E+000	0
3.7064320E+001	9.982969767315808E+001	-1.1212249E+000	-3.025078874819542E+001	3.3917937E-002	-1.1213130E+000	0
3.6131901E+001	1.000298976681006E+002	-1.1232082E+000	-3.108632940243058E+001	3.4916420E-002	-1.1233150E+000	0
3.5287941E+001	1.002300976630431E+002	-1.1252474E+000	-3.188758827925086E+001	3.5881426E-002	-1.1253170E+000	0
3.4413254E+001	1.004302976579856E+002	-1.1272259E+000	-3.275557457003504E+001	3.6922932E-002	-1.1273190E+000	0
3.3590206E+001	1.006306976529231E+002	-1.1292248E+000	-3.361767891793863E+001	3.7961915E-002	-1.1293225E+000	0
3.2779560E+001	1.008312976478555E+002	-1.1312435E+000	-3.451063563193034E+001	3.9039932E-002	-1.1313286E+000	0
3.2014374E+001	1.010317976427905E+002	-1.1331823E+000	-3.539604639109302E+001	4.0110175E-002	-1.1333337E+000	0
3.1237206E+001	1.012322976377254E+002	-1.1352726E+000	-3.634360453812894E+001	4.1259900E-002	-1.1353385E+000	0
3.0474293E+001	1.014327976326604E+002	-1.1372721E+000	-3.731906458335419E+001	4.2441931E-002	-1.1373436E+000	0
2.9751923E+001	1.016331976275978E+002	-1.1392552E+000	-3.829181621914637E+001	4.3624148E-002	-1.1393477E+000	0
2.9048296E+001	1.018237976227829E+002	-1.1411592E+000	-3.928489227958437E+001	4.4830315E-002	-1.1412536E+000	0
2.8392948E+001	1.020143976179679E+002	-1.1430260E+000	-4.025738989606208E+001	4.6015244E-002	-1.1431595E+000	0
2.7698967E+001	1.022147976129054E+002	-1.1450472E+000	-4.133898569819317E+001	4.7335088E-002	-1.1451637E+000	0
2.6989008E+001	1.024153976078378E+002	-1.1470870E+000	-4.250200585550652E+001	4.8753496E-002	-1.1471695E+000	0
2.6368164E+001	1.026158976027727E+002	-1.1490655E+000	-4.357775941850065E+001	5.0073698E-002	-1.1491750E+000	0
2.5746555E+001	1.028161975977127E+002	-1.1510636E+000	-4.470747975177960E+001	5.1461149E-002	-1.1511776E+000	0
2.5116743E+001	1.030165975926502E+002	-1.1530659E+000	-4.590825635636956E+001	5.2935246E-002	-1.1531818E+000	0
2.4558664E+001	1.032070975878378E+002	-1.1550140E+000	-4.703081778105434E+001	5.4321256E-002	-1.1550866E+000	0
2.4004627E+001	1.033975975830253E+002	-1.1568862E+000	-4.819430233539413E+001	5.5755325E-002	-1.1569915E+000	0
2.3450890E+001	1.035981975779578E+002	-1.1588868E+000	-4.941760339438252E+001	5.7269409E-002	-1.1589978E+000	0
2.2857183E+001	1.037984975728978E+002	-1.1609796E+000	-5.079276686989678E+001	5.8969367E-002	-1.1610010E+000	0
2.2342623E+001	1.039888975680879E+002	-1.1628736E+000	-5.204732133870624E+001	6.0524456E-002	-1.1629044E+000	0
2.1873745E+001	1.041793975632754E+002	-1.1647743E+000	-5.324988044116731E+001	6.2024090E-002	-1.1648096E+000	0
2.1401312E+001	1.043798975582104E+002	-1.1667957E+000	-5.451982255074631E+001	6.3613497E-002	-1.1668148E+000	0
2.0934547E+001	1.045702975534005E+002	-1.1686813E+000	-5.582548571551087E+001	6.5242201E-002	-1.1687188E+000	0
2.0427250E+001	1.047606975485905E+002	-1.1705952E+000	-5.730557115973670E+001	6.7081623E-002	-1.1706226E+000	0
1.9953312E+001	1.049610975435280E+002	-1.1725997E+000	-5.876717258327551E+001	6.8910368E-002	-1.1726271E+000	0
1.9483229E+001	1.051611975384731E+002	-1.1745732E+000	-6.028637064827808E+001	7.0810758E-002	-1.1746281E+000	0
1.9045012E+001	1.053612975334181E+002	-1.1766105E+000	-6.178050486148550E+001	7.2691590E-002	-1.1766292E+000	0
1.8621817E+001	1.055615975283581E+002	-1.1785754E+000	-6.329003572344968E+001	7.4592076E-002	-1.1786317E+000	0
1.8221132E+001	1.057520975235457E+002	-1.1805058E+000	-6.478772958955710E+001	7.6482289E-002	-1.1805364E+000	0
1.7819151E+001	1.059326975189833E+002	-1.1822861E+000	-6.634918703152994E+001	7.8443721E-002	-1.1823428E+000	0
1.7459929E+001	1.061229975141760E+002	-1.1842411E+000	-6.782622407429722E+001	8.0322601E-002	-1.1842457E+000	0
1.7091429E+001	1.063234975091109E+002	-1.1862124E+000	-6.940393858422317E+001	8.2327813E-002	-1.1862506E+000	0
1.6776325E+001	1.065139975042985E+002	-1.1881320E+000	-7.082194534291499E+001	8.4145822E-002	-1.1881557E+000	0
1.6453672E+001	1.066943974997412E+002	-1.1899383E+000	-7.232053207383342E+001	8.6056970E-002	-1.1899596E+000	0
1.6120588E+001	1.068848974949287E+002	-1.1918157E+000	-7.393128263145923E+001	8.8112466E-002	-1.1918645E+000	0
1.5803879E+001	1.070756974901087E+002	-1.1937301E+000	-7.553399491858750E+001	9.0167202E-002	-1.1937723E+000	0
1.5489854E+001	1.072661974852963E+002	-1.1956266E+000	-7.718772927468194E+001	9.2287704E-002	-1.1956778E+000	0
1.5160235E+001	1.074565974804864E+002	-1.1975819E+000	-7.899494006166196E+001	9.4602913E-002	-1.1975816E+000	0
1.4847502E+001	1.076470974756739E+002	-1.1994871E+000	-8.078713095717808E+001	9.6903123E-002	-1.1994864E+000	0
1.4514755E+001	1.078476974706064E+002	-1.2014630E+000	-8.277528614563585E+001	9.9451445E-002	-1.2014929E+000	0
1.4230739E+001	1.080379974657990E+002	-1.2033254E+000	-8.455817938319933E+001	1.0175101E-001	-1.2033956E+000	0
1.3942498E+001	1.082284974609865E+002	-1.2052972E+000	-8.644772203474918E+001	1.0419520E-001	-1.2053005E+000	0
1.3634359E+001	1.084188974561766E+002	-1.2071438E+000	-8.853689034635840E+001	1.0687675E-001	-1.2072049E+000	0
1.3388023E+001	1.086091974513693E+002	-1.2090678E+000	-9.030965966521012E+001	1.0919050E-001	-1.2091079E+000	0
1.3142364E+001	1.088095974463067E+002	-1.2110965E+000	-9.215210688553151E+001	1.1160509E-001	-1.2111117E+000	0
1.2912532E+001	1.090000974414943E+002	-1.2129441E+000	-9.393542417184824E+001	1.1393842E-001	-1.2130164E+000	0
1.2664579E+001	1.091806974369320E+002	-1.2147750E+000	-9.591909247926947E+001	1.1652011E-001	-1.2148229E+000	0
1.2431108E+001	1.093712974321170E+002	-1.2166868E+000	-9.787437295245411E+001	1.1908246E-001	-1.2167284E+000	0
1.2191356E+001	1.095617974273046E+002	-1.2186183E+000	-9.995757024140767E+001	1.2181012E-001	-1.2186340E+000	0
1.1978479E+001	1.097518974225022E+002	-1.2205499E+000	-1.018952358287943E+002	1.2436822E-001	-1.2205350E+000	0
1.1765672E+001	1.099321974179475E+002	-1.2223309E+000	-1.038895988028603E+002	1.2698747E-001	-1.2223378E+000	0
1.1486619E+001	1.101226974131350E+002	-1.2242329E+000	-1.065790453835066E+002	1.3047758E-001	-1.2242423E+000	0
1.1306910E+001	1.102932974088253E+002	-1.2258996E+000	-1.084203923088510E+002	1.3291252E-001	-1.2259485E+000	0
1.1088070E+001	1.104738974042630E+002	-1.2277457E+000	-1.107267268434475E+002	1.3594426E-001	-1.2277544E+000	0
1.0861073E+001	1.106543973997032E+002	-1.2294637E+000	-1.131991057741669E+002	1.3917419E-001	-1.2295599E+000	0
1.0646165E+001	1.108247973953985E+002	-1.2311951E+000	-1.156468129523132E+002	1.4238378E-001	-1.2312635E+000	0
1.0478779E+001	1.110052973908387E+002	-1.2330040E+000	-1.176667608172420E+002	1.4508358E-001	-1.2330685E+000	0
1.0339294E+001	1.111956973860288E+002	-1.2349427E+000	-1.194416776737025E+002	1.4750363E-001	-1.2349730E+000	0
1.0182919E+001	1.113960973809662E+002	-1.2369014E+000	-1.214682549676486E+002	1.5024425E-001	-1.2369764E+000	0
1.0038396E+001	1.115965973759012E+002	-1.2389526E+000	-1.234213808535826E+002	1.5291324E-001	-1.2389817E+000	0
9.8794937E+000	1.117970973708361E+002	-1.2409362E+000	-1.256072654910618E+002	1.5587060E-001	-1.2409865E+000	0
9.6644220E+000	1.119975973657711E+002	-1.2429525E+000	-1.286111485461090E+002	1.5985754E-001	-1.2429917E+000	0
9.4891787E+000	1.121881973609561E+002	-1.2448431E+000	-1.311855525528185E+002	1.6330543E-001	-1.2448975E+000	0
9.3338585E+000	1.123786973561437E+002	-1.2467480E+000	-1.335726215336877E+002	1.6653140E-001	-1.2468026E+000	0
9.2488918E+000	1.125491973518365E+002	-1.2484941E+000	-1.349885153857463E+002	1.6853237E-001	-1.2485079E+000	0
9.1009274E+000	1.127197973475268E+002	-1.2501969E+000	-1.373702724325651E+002	1.7173989E-001	-1.2502137E+000	0
8.9701490E+000	1.129103973427118E+002	-1.2520806E+000	-1.395830259479940E+002	1.7476919E-001	-1.2521195E+000	0
8.8709297E+000	1.131012973378893E+002	-1.2539927E+000	-1.413597874477956E+002	1.7726414E-001	-1.2540284E+000	0
8.7427607E+000	1.132918973330743E+002	-1.2558755E+000	-1.436474741381201E+002	1.8040334E-001	-1.2559344E+000	0
8.6233110E+000	1.134723973285145E+002	-1.2577119E+000	-1.458502359195239E+002	1.8343757E-001	-1.2577398E+000	0
8.4403505E+000	1.136528973239547E+002	-1.2595153E+000	-1.492254635996154E+002	1.8795176E-001	-1.2595445E+000	0
8.3398848E+000	1.138134973198976E+002	-1.2611125E+000	-1.512146060663626E+002	1.9069862E-001	-1.2611501E+000	0
8.2770958E+000	1.139638973160982E+002	-1.2626457E+000	-1.525469449663783E+002	1.9261275E-001	-1.2626549E+000	0
8.2039652E+000	1.141441973115434E+002	-1.2644529E+000	-1.541270465645836E+002	1.9488640E-001	-1.2644579E+000	0
8.0672874E+000	1.143245973069861E+002	-1.2662045E+000	-1.569554159253967E+002	1.9873765E-001	-1.2662615E+000	0
7.9326944E+000	1.145150973021737E+002	-1.2681266E+000	-1.598607625561236E+002	2.0272368E-001	-1.2681668E+000	0
7.8026948E+000	1.147055972973612E+002	-1.2700303E+000	-1.627681627368720E+002	2.0672049E-001	-1.2700717E+000	0
7.7005773E+000	1.149060972922962E+002	-1.2720640E+000	-1.651907335124159E+002	2.1013318E-001	-1.2720765E+000	0
7.5620670E+000	1.150967972874787E+002	-1.2739303E+000	-1.684632449892476E+002	2.1461043E-001	-1.2739836E+000	0
7.4650636E+000	1.152873972826637E+002	-1.2758707E+000	-1.709122280142199E+002	2.1806189E-001	-1.2758896E+000	0
7.3685942E+000	1.154877972776012E+002	-1.2778498E+000	-1.734183924898400E+002	2.2160266E-001	-1.2778938E+000	0
7.2768235E+000	1.156485972735391E+002	-1.2795134E+000	-1.758340516006247E+002	2.2498202E-001	-1.2795012E+000	0
7.1763601E+000	1.158193972692243E+002	-1.2812269E+000	-1.785343609989576E+002	2.2874302E-001	-1.2812097E+000	0
7.1110983E+000	1.160094972644220E+002	-1.2830960E+000	-1.804356897371645E+002	2.3151630E-001	-1.2831106E+000	0
7.0093575E+000	1.161998972596120E+002	-1.2849938E+000	-1.833254703466916E+002	2.3557208E-001	-1.2850144E+000	0
6.9140334E+000	1.163703972553049E+002	-1.2867056E+000	-1.861005819434599E+002	2.3945667E-001	-1.2867199E+000	0
6.8339105E+000	1.165206972515080E+002	-1.2881953E+000	-1.885004599332301E+002	2.4282540E-001	-1.2882226E+000	0
6.7728453E+000	1.167111972466955E+002	-1.2901094E+000	-1.904826299588040E+002	2.4574342E-001	-1.2901276E+000	0
6.7103324E+000	1.169016972418831E+002	-1.2920372E+000	-1.925444449521315E+002	2.4877459E-001	-1.2920324E+000	0
6.6430669E+000	1.170722972375734E+002	-1.2937540E+000	-1.947525124889421E+002	2.5196183E-001	-1.2937384E+000	0
6.5146399E+000	1.172528972330110E+002	-1.2955772E+000	-1.988716441244464E+002	2.5765356E-001	-1.2955445E+000	0
6.4061155E+000	1.174436972281910E+002	-1.2974362E+000	-2.025308886734106E+002	2.6277092E-001	-1.2974524E+000	0
6.3287125E+000	1.176043972241314E+002	-1.2990305E+000	-2.052598396493624E+002	2.6663882E-001	-1.2990594E+000	0
6.2643814E+000	1.177948972193190E+002	-1.3009447E+000	-2.076732805283946E+002	2.7017146E-001	-1.3009644E+000	0
6.1348224E+000	1.179753972147591E+002	-1.3026961E+000	-2.123445571792712E+002	2.7662042E-001	-1.3027697E+000	0
6.0740585E+000	1.181558972101993E+002	-1.3045613E+000	-2.147758760073116E+002	2.8018829E-001	-1.3045745E+000	0
6.0053401E+000	1.183466972053793E+002	-1.3064834E+000	-2.175536027532045E+002	2.8423017E-001	-1.3064824E+000	0
5.9759560E+000	1.185272972008170E+002	-1.3082525E+000	-2.189193575024547E+002	2.8640178E-001	-1.3082885E+000	0
5.9174595E+000	1.186978971965073E+002	-1.3100179E+000	-2.213818234123639E+002	2.9001415E-001	-1.3099948E+000	0
5.8612237E+000	1.188783971919474E+002	-1.3118204E+000	-2.238133925486641E+002	2.9360297E-001	-1.3117995E+000	0
5.8349571E+000	1.190389971878903E+002	-1.3134078E+000	-2.250929537232798E+002	2.9563883E-001	-1.3134043E+000	0
5.8431306E+000	1.190904971865893E+002	-1.3139340E+000	-2.248681509726575E+002	2.9546189E-001	-1.3139192E+000	0
5.8486013E+000	1.191517971850408E+002	-1.3145462E+000	-2.247625019992688E+002	2.9546070E-001	-1.3145328E+000	0
5.7998013E+000	1.192623971822468E+002	-1.3156517E+000	-2.268442677923259E+002	2.9844803E-001	-1.3156385E+000	0
5.7401729E+000	1.193629971797054E+002	-1.3166468E+000	-2.293740685974785E+002	3.0200464E-001	-1.3166447E+000	0
5.6916246E+000	1.194439971776592E+002	-1.3174281E+000	-2.314678438068013E+002	3.0494225E-001	-1.3174542E+000	0
5.6530499E+000	1.194855971766083E+002	-1.3179166E+000	-2.331337353707331E+002	3.0725083E-001	-1.3178712E+000	0
5.6091065E+000	1.195370971753073E+002	-1.3183321E+000	-2.350342308205427E+002	3.0985317E-001	-1.3183851E+000	0
5.5930939E+000	1.196280971730084E+002	-1.3192922E+000	-2.358787790818483E+002	3.1119302E-001	-1.3192953E+000	0
5.5316410E+000	1.196794971717100E+002	-1.3197943E+000	-2.385900191267333E+002	3.1488976E-001	-1.3198093E+000	0
5.5059686E+000	1.196912971714119E+002	-1.3199099E+000	-2.397234763186484E+002	3.1641340E-001	-1.3199283E+000	0
5.4632773E+000	1.197228971706136E+002	-1.3202225E+000	-2.416539417303720E+002	3.1903696E-001	-1.3202431E+000	0
5.4647622E+000	1.197446971700629E+002	-1.3205113E+000	-2.416411290135650E+002	3.1908986E-001	-1.3204613E+000	0
5.4590836E+000	1.197960971687644E+002	-1.3209985E+000	-2.419817417863851E+002	3.1965753E-001	-1.3209758E+000	0
5.4244080E+000	1.198771971667156E+002	-1.3218242E+000	-2.436808128993582E+002	3.2210320E-001	-1.3217864E+000	0
5.3786325E+000	1.199384971651671E+002	-1.3224452E+000	-2.458701324553202E+002	3.2514977E-001	-1.3224000E+000	0
5.3429260E+000	1.199700971643688E+002	-1.3227315E+000	-2.475668764544857E+002	3.2746449E-001	-1.3227153E+000	0
5.3474088E+000	1.200114971633229E+002	-1.3231472E+000	-2.474370771477634E+002	3.2739568E-001	-1.3231298E+000	0
5.3638892E+000	1.201120971607816E+002	-1.3241681E+000	-2.468671516192339E+002	3.2689360E-001	-1.3241357E+000	0
5.3370109E+000	1.202128971582351E+002	-1.3251983E+000	-2.483034705204345E+002	3.2905135E-001	-1.3251431E+000	0
5.3226233E+000	1.202937971561914E+002	-1.3259530E+000	-2.491164593991025E+002	3.3031672E-001	-1.3259528E+000	0
5.3047910E+000	1.203746971541477E+002	-1.3268055E+000	-2.501145524007934E+002	3.3185336E-001	-1.3267617E+000	0
5.2766294E+000	1.204655971518514E+002	-1.3276720E+000	-2.516136482455267E+002	3.3406040E-001	-1.3276703E+000	0
5.2642112E+000	1.205566971495500E+002	-1.3285936E+000	-2.523822827477707E+002	3.3531350E-001	-1.3285811E+000	0
5.2257094E+000	1.206374971475088E+002	-1.3293732E+000	-2.543909590003303E+002	3.3818054E-001	-1.3293897E+000	0
5.1663318E+000	1.207381971449649E+002	-1.3304011E+000	-2.575136663387680E+002	3.4259644E-001	-1.3303964E+000	0
5.1024384E+000	1.208290971426686E+002	-1.3313115E+000	-2.609167240705769E+002	3.4736142E-001	-1.3313057E+000	0
5.0831127E+000	1.208903971411200E+002	-1.3319438E+000	-2.620331017362778E+002	3.4901336E-001	-1.3319193E+000	0
5.0596514E+000	1.209714971390713E+002	-1.3327497E+000	-2.634074175832247E+002	3.5105616E-001	-1.3327299E+000	0
5.0487642E+000	1.210228971377728E+002	-1.3332834E+000	-2.640811481343370E+002	3.5209501E-001	-1.3332433E+000	0
5.0297275E+000	1.210641971367295E+002	-1.3336693E+000	-2.651573794533756E+002	3.5363227E-001	-1.3336569E+000	0
5.0039091E+000	1.211449971346883E+002	-1.3344918E+000	-2.666898686998584E+002	3.5589546E-001	-1.3344646E+000	0
4.9991584E+000	1.212160971328922E+002	-1.3351704E+000	-2.670790275043782E+002	3.5659602E-001	-1.3351758E+000	0
5.0224648E+000	1.212773971313436E+002	-1.3358951E+000	-2.659839583932453E+002	3.5532665E-001	-1.3357884E+000	0
5.0505996E+000	1.212892971310430E+002	-1.3359348E+000	-2.645101341042246E+002	3.5336828E-001	-1.3359072E+000	0
5.0534744E+000	1.212912971309925E+002	-1.3359987E+000	-2.643723088171746E+002	3.5320106E-001	-1.3359272E+000	0
5.0277371E+000	1.213229971301917E+002	-1.3362746E+000	-2.657805153259362E+002	3.5515577E-001	-1.3362442E+000	0
4.9841242E+000	1.213744971288907E+002	-1.3368298E+000	-2.682175886944287E+002	3.5856125E-001	-1.3367590E+000	0
4.9734468E+000	1.213962971283399E+002	-1.3370200E+000	-2.688316718207461E+002	3.5943332E-001	-1.3369772E+000	0
4.9691677E+000	1.214180971277892E+002	-1.3372456E+000	-2.691085744974171E+002	3.5986426E-001	-1.3371950E+000	0
4.9699340E+000	1.214893971259880E+002	-1.3379365E+000	-2.692060863696014E+002	3.6018065E-001	-1.3379083E+000	0
4.9597697E+000	1.216000971231915E+002	-1.3390790E+000	-2.699881478214738E+002	3.6153546E-001	-1.3390156E+000	0
4.8839779E+000	1.217006971206501E+002	-1.3400415E+000	-2.743750196979217E+002	3.6767390E-001	-1.3400213E+000	0
4.8329654E+000	1.218016971180987E+002	-1.3410830E+000	-2.774865777183759E+002	3.7213254E-001	-1.3410312E+000	0
4.7995753E+000	1.218924971158049E+002	-1.3419768E+000	-2.796032208546749E+002	3.7522101E-001	-1.3419397E+000	0
4.7619529E+000	1.219240971150066E+002	-1.3422885E+000	-2.818777258627933E+002	3.7836123E-001	-1.3422552E+000	0
4.7474017E+000	1.219358971147085E+002	-1.3424666E+000	-2.827792272096121E+002	3.7962165E-001	-1.3423741E+000	0
4.7156758E+000	1.219870971134151E+002	-1.3429055E+000	-2.847747735609264E+002	3.8242561E-001	-1.3428853E+000	0
4.7177868E+000	1.220088971128644E+002	-1.3431630E+000	-2.847019378311097E+002	3.8240111E-001	-1.3431033E+000	0
4.7175565E+000	1.220108971128138E+002	-1.3431284E+000	-2.847085115280406E+002	3.8240010E-001	-1.3431233E+000	0
4.7162862E+000	1.220326971122631E+002	-1.3434094E+000	-2.848447632825623E+002	3.8266313E-001	-1.3433411E+000	0
4.7044201E+000	1.221038971104645E+002	-1.3441021E+000	-2.857104846314792E+002	3.8402408E-001	-1.3440546E+000	0
4.6840887E+000	1.221750971086658E+002	-1.3447630E+000	-2.870917073982907E+002	3.8607031E-001	-1.3447653E+000	0
4.6915703E+000	1.222462971068671E+002	-1.3455071E+000	-2.867924818046552E+002	3.8588133E-001	-1.3454782E+000	0
4.6936021E+000	1.223668971038205E+002	-1.3467370E+000	-2.869303817154159E+002	3.8641977E-001	-1.3466834E+000	0
4.6985383E+000	1.224678971012690E+002	-1.3477335E+000	-2.868410152438328E+002	3.8658524E-001	-1.3476939E+000	0
4.6571889E+000	1.225093971002207E+002	-1.3481287E+000	-2.894726350336987E+002	3.9024636E-001	-1.3481081E+000	0
4.6263890E+000	1.225707970986696E+002	-1.3487388E+000	-2.915316444784489E+002	3.9320004E-001	-1.3487222E+000	0
4.6014042E+000	1.226716970961206E+002	-1.3497543E+000	-2.933352978957188E+002	3.9593059E-001	-1.3497314E+000	0
4.5879903E+000	1.227724970935742E+002	-1.3507813E+000	-2.944167799174727E+002	3.9769268E-001	-1.3507398E+000	0
4.5770531E+000	1.228831970907777E+002	-1.3519564E+000	-2.953770331925953E+002	3.9933687E-001	-1.3518476E+000	0
4.5821009E+000	1.229838970882338E+002	-1.3529183E+000	-2.952615766997587E+002	3.9946479E-001	-1.3528538E+000	0
4.5798354E+000	1.230747970859375E+002	-1.3538407E+000	-2.956090322837517E+002	4.0020755E-001	-1.3537626E+000	0
4.5663409E+000	1.231459970841388E+002	-1.3544948E+000	-2.966258526001021E+002	4.0177819E-001	-1.3544747E+000	0
4.5413346E+000	1.231972970828429E+002	-1.3550068E+000	-2.983719483057143E+002	4.0429601E-001	-1.3549875E+000	0
4.5206141E+000	1.232387970817945E+002	-1.3554223E+000	-2.998314459700478E+002	4.0639821E-001	-1.3554020E+000	0
4.5010123E+000	1.233097970800009E+002	-1.3561687E+000	-3.013030468183747E+002	4.0861776E-001	-1.3561125E+000	0
4.4396806E+000	1.233808970782047E+002	-1.3569193E+000	-3.056344447625033E+002	4.1472128E-001	-1.3568236E+000	0
4.4177389E+000	1.234716970759109E+002	-1.3577813E+000	-3.073475673251553E+002	4.1731077E-001	-1.3577316E+000	0
4.4372616E+000	1.235229970746150E+002	-1.3583158E+000	-3.061157908443920E+002	4.1580191E-001	-1.3582439E+000	0
4.4118714E+000	1.235939970728214E+002	-1.3589520E+000	-3.080216880835951E+002	4.1858670E-001	-1.3589548E+000	0
4.3754544E+000	1.236846970705301E+002	-1.3598765E+000	-3.107966255183110E+002	4.2264503E-001	-1.3598614E+000	0
4.3500271E+000	1.237755970682338E+002	-1.3608488E+000	-3.128368420566630E+002	4.2572364E-001	-1.3607705E+000	0
4.3438063E+000	1.238368970666852E+002	-1.3615055E+000	-3.134360554998384E+002	4.2674491E-001	-1.3613830E+000	0
4.3558340E+000	1.239179970646364E+002	-1.3622069E+000	-3.127315952505646E+002	4.2600515E-001	-1.3621943E+000	0
4.3413739E+000	1.240189970620850E+002	-1.3632405E+000	-3.140113170926229E+002	4.2807293E-001	-1.3632044E+000	0
4.3079710E+000	1.241097970597912E+002	-1.3641715E+000	-3.166621863580413E+002	4.3198153E-001	-1.3641123E+000	0
4.2776160E+000	1.241810970579900E+002	-1.3649249E+000	-3.190854226964552E+002	4.3552765E-001	-1.3648252E+000	0
4.2981977E+000	1.242918970551909E+002	-1.3659691E+000	-3.178004394756153E+002	4.3410558E-001	-1.3659337E+000	0
4.2891936E+000	1.243926970526445E+002	-1.3670170E+000	-3.187119099287638E+002	4.3568462E-001	-1.3669418E+000	0
4.2866220E+000	1.244638970508458E+002	-1.3677138E+000	-3.190656336173961E+002	4.3639046E-001	-1.3676529E+000	0
4.2694349E+000	1.245349970490497E+002	-1.3684683E+000	-3.205267855014354E+002	4.3863073E-001	-1.3683645E+000	0
4.2374611E+000	1.246158970470060E+002	-1.3692987E+000	-3.231413104814201E+002	4.4247699E-001	-1.3691739E+000	0
4.2128906E+000	1.246672970457075E+002	-1.3697653E+000	-3.251366996780771E+002	4.4536096E-001	-1.3696870E+000	0
4.2150249E+000	1.246890970451568E+002	-1.3699921E+000	-3.250258766611414E+002	4.4528291E-001	-1.3699054E+000	0
4.2139416E+000	1.247008970448587E+002	-1.3700113E+000	-3.251139748469686E+002	4.4540983E-001	-1.3700240E+000	0
4.1975493E+000	1.247716970430702E+002	-1.3708677E+000	-3.265876364355499E+002	4.4770846E-001	-1.3707316E+000	0
4.1537008E+000	1.248328970415241E+002	-1.3714375E+000	-3.301724496478400E+002	4.5281088E-001	-1.3713433E+000	0
4.1396351E+000	1.248447970412235E+002	-1.3715068E+000	-3.313110360976245E+002	4.5439535E-001	-1.3714623E+000	0
4.1189356E+000	1.249061970396724E+002	-1.3721274E+000	-3.331266938754716E+002	4.5709226E-001	-1.3720763E+000	0
4.0929513E+000	1.249673970381264E+002	-1.3727880E+000	-3.354029544368647E+002	4.6043715E-001	-1.3726883E+000	0
4.0548515E+000	1.249792970378257E+002	-1.3728755E+000	-3.385759989420567E+002	4.6482268E-001	-1.3728073E+000	0
4.0487123E+000	1.249812970377752E+002	-1.3729252E+000	-3.391016781859935E+002	4.6556124E-001	-1.3728273E+000	0
4.0498319E+000	1.250030970372245E+002	-1.3731595E+000	-3.390658250747013E+002	4.6559146E-001	-1.3730460E+000	0
4.0366330E+000	1.250545970359235E+002	-1.3735857E+000	-3.402800361865284E+002	4.6740380E-001	-1.3735604E+000	0
4.0361333E+000	1.251059970346250E+002	-1.3742069E+000	-3.404761085774749E+002	4.6788463E-001	-1.3740746E+000	0
4.0456872E+000	1.252166970318285E+002	-1.3752829E+000	-3.399380009638280E+002	4.6751091E-001	-1.3751814E+000	0
4.0372219E+000	1.253076970295297E+002	-1.3761457E+000	-3.408645080698752E+002	4.6907923E-001	-1.3760914E+000	0
3.9858479E+000	1.253788970277310E+002	-1.3769377E+000	-3.454566711220550E+002	4.7567233E-001	-1.3768036E+000	0
3.9693618E+000	1.254301970264351E+002	-1.3774351E+000	-3.470167610163917E+002	4.7799307E-001	-1.3773167E+000	0
3.9779725E+000	1.254914970248865E+002	-1.3780417E+000	-3.464181215224016E+002	4.7737864E-001	-1.3779291E+000	0
3.9693084E+000	1.255823970225902E+002	-1.3789898E+000	-3.474131246913075E+002	4.7907916E-001	-1.3788387E+000	0
3.9640725E+000	1.256534970207940E+002	-1.3797175E+000	-3.480555694855545E+002	4.8021835E-001	-1.3795491E+000	0
3.9625020E+000	1.257346970187427E+002	-1.3805202E+000	-3.483960936663093E+002	4.8096785E-001	-1.3803612E+000	0
3.9651976E+000	1.258354970161963E+002	-1.3814915E+000	-3.484042131158976E+002	4.8131746E-001	-1.3813692E+000	0
3.9461479E+000	1.259067970143951E+002	-1.3822140E+000	-3.502691672960261E+002	4.8414692E-001	-1.3820823E+000	0
3.9477932E+000	1.259384970135943E+002	-1.3824753E+000	-3.501893724931597E+002	4.8412815E-001	-1.3823992E+000	0
3.9437678E+000	1.259601970130461E+002	-1.3826855E+000	-3.506001357357504E+002	4.8476973E-001	-1.3826165E+000	0
3.9144957E+000	1.260411970109999E+002	-1.3835407E+000	-3.534403588121058E+002	4.8899913E-001	-1.3834264E+000	0
3.8978617E+000	1.261418970084560E+002	-1.3845053E+000	-3.551960951573319E+002	4.9177086E-001	-1.3844332E+000	0
3.9041426E+000	1.262032970069049E+002	-1.3851964E+000	-3.548017013445819E+002	4.9147007E-001	-1.3850471E+000	0
3.8638384E+000	1.262448970058540E+002	-1.3854702E+000	-3.585735144789476E+002	4.9679291E-001	-1.3854630E+000	0
3.8883610E+000	1.262863970048056E+002	-1.3859972E+000	-3.564476694994974E+002	4.9403545E-001	-1.3858794E+000	0
3.8777411E+000	1.263476970032571E+002	-1.3865789E+000	-3.575738714230692E+002	4.9580440E-001	-1.3864913E+000	0
3.8768294E+000	1.263991970019561E+002	-1.3870877E+000	-3.577892143316495E+002	4.9628502E-001	-1.3870060E+000	0
3.8717723E+000	1.264209970014053E+002	-1.3873135E+000	-3.583148470797703E+002	4.9709502E-001	-1.3872246E+000	0
3.8681664E+000	1.264722970001094E+002	-1.3878106E+000	-3.587773775729399E+002	4.9791503E-001	-1.3877376E+000	0
3.8498833E+000	1.265531969980657E+002	-1.3886046E+000	-3.606874666545941E+002	5.0085229E-001	-1.3885463E+000	0
3.8403952E+000	1.266242969962696E+002	-1.3892626E+000	-3.617498955775773E+002	5.0256556E-001	-1.3892577E+000	0
3.8645499E+000	1.267052969942233E+002	-1.3901750E+000	-3.597249454965879E+002	5.0008065E-001	-1.3900677E+000	0
3.8773160E+000	1.267566969929248E+002	-1.3906064E+000	-3.586518213397944E+002	4.9874353E-001	-1.3905810E+000	0
3.8471503E+000	1.268179969913763E+002	-1.3912480E+000	-3.616307880619088E+002	5.0311810E-001	-1.3911946E+000	0
3.8314407E+000	1.268495969905780E+002	-1.3915284E+000	-3.631867125763733E+002	5.0538462E-001	-1.3915104E+000	0
3.8195577E+000	1.269009969892795E+002	-1.3921090E+000	-3.644686512017779E+002	5.0738013E-001	-1.3920243E+000	0
3.8027153E+000	1.269621969877335E+002	-1.3927087E+000	-3.662405901065622E+002	5.1006645E-001	-1.3926368E+000	0
3.7817609E+000	1.270232969861900E+002	-1.3933575E+000	-3.684414669709508E+002	5.1337069E-001	-1.3932471E+000	0
3.7689538E+000	1.270747969848890E+002	-1.3938018E+000	-3.698113376804399E+002	5.1544368E-001	-1.3937622E+000	0
3.7576530E+000	1.271361969833379E+002	-1.3944308E+000	-3.710908845338649E+002	5.1746053E-001	-1.3943763E+000	0
3.7334657E+000	1.271777969822870E+002	-1.3948958E+000	-3.736195568876183E+002	5.2116036E-001	-1.3947921E+000	0
3.7404642E+000	1.272391969807359E+002	-1.3955083E+000	-3.730842509879412E+002	5.2064216E-001	-1.3954064E+000	0
3.7562077E+000	1.273203969786846E+002	-1.3963555E+000	-3.717460762651008E+002	5.1908970E-001	-1.3962184E+000	0
3.7474515E+000	1.274013969766384E+002	-1.3970836E+000	-3.728089891352261E+002	5.2084535E-001	-1.3970282E+000	0
3.7161069E+000	1.274924969743370E+002	-1.3980110E+000	-3.762031172942025E+002	5.2593607E-001	-1.3979392E+000	0
3.6905229E+000	1.275933969717880E+002	-1.3990428E+000	-3.790906864696162E+002	5.3036410E-001	-1.3989484E+000	0
3.6667049E+000	1.276546969702395E+002	-1.3995785E+000	-3.816992281199118E+002	5.3421801E-001	-1.3995612E+000	0
3.6445508E+000	1.277259969684383E+002	-1.4003189E+000	-3.842226269900646E+002	5.3803420E-001	-1.4002742E+000	0
3.6412249E+000	1.278169969661394E+002	-1.4012905E+000	-3.848404299132335E+002	5.3927326E-001	-1.4011849E+000	0
3.5508177E+000	1.278980969640907E+002	-1.4020483E+000	-3.948522333380116E+002	5.5360192E-001	-1.4019951E+000	0
3.5516474E+000	1.279693969622895E+002	-1.4027852E+000	-3.949674686414597E+002	5.5405450E-001	-1.4027083E+000	0
3.5348525E+000	1.280404969604933E+002	-1.4035361E+000	-3.970564656164879E+002	5.5728310E-001	-1.4034197E+000	0
3.5006790E+000	1.281212969584521E+002	-1.4043187E+000	-4.011560822616902E+002	5.6335098E-001	-1.4042281E+000	0
3.4959500E+000	1.282119969561609E+002	-1.4052503E+000	-4.019652197280529E+002	5.6486177E-001	-1.4051347E+000	0
3.4997361E+000	1.283030969538595E+002	-1.4061877E+000	-4.017982030316034E+002	5.6500369E-001	-1.4060451E+000	0
3.4965756E+000	1.283940969515606E+002	-1.4070699E+000	-4.024136971658633E+002	5.6622422E-001	-1.4069555E+000	0
3.5057843E+000	1.284652969497620E+002	-1.4077779E+000	-4.015586175307203E+002	5.6530535E-001	-1.4076673E+000	0
3.5024588E+000	1.285266969482109E+002	-1.4084008E+000	-4.021177154179459E+002	5.6634289E-001	-1.4082812E+000	0
3.4624429E+000	1.286474969451592E+002	-1.4095755E+000	-4.071043100646505E+002	5.7384425E-001	-1.4094905E+000	0
3.4384301E+000	1.288275969406095E+002	-1.4113597E+000	-4.104663046123005E+002	5.7931560E-001	-1.4112917E+000	0
3.4134629E+000	1.290175969358097E+002	-1.4132867E+000	-4.140331063086760E+002	5.8514750E-001	-1.4131920E+000	0
3.3582079E+000	1.292175969307573E+002	-1.4152749E+000	-4.214375155485686E+002	5.9644991E-001	-1.4151920E+000	0
3.3351183E+000	1.294175969257049E+002	-1.4173220E+000	-4.249690358168409E+002	6.0231799E-001	-1.4171920E+000	0
3.3181736E+000	1.296075969209051E+002	-1.4192275E+000	-4.277134309879257E+002	6.0702264E-001	-1.4190917E+000	0
3.3026114E+000	1.297875969163579E+002	-1.4210075E+000	-4.302678619144081E+002	6.1141384E-001	-1.4208918E+000	0
3.2879863E+000	1.299775969115581E+002	-1.4228916E+000	-4.327547459505040E+002	6.1576313E-001	-1.4227920E+000	0
3.2697849E+000	1.301576969070084E+002	-1.4247375E+000	-4.357281829816284E+002	6.2079829E-001	-1.4245929E+000	0
3.2784698E+000	1.303377969024586E+002	-1.4265513E+000	-4.351272011797987E+002	6.2073129E-001	-1.4263941E+000	0
3.2904501E+000	1.305377968974062E+002	-1.4285283E+000	-4.341437500847705E+002	6.2018663E-001	-1.4283940E+000	0
3.2761874E+000	1.307277968926064E+002	-1.4303972E+000	-4.366042015097664E+002	6.2451738E-001	-1.4302939E+000	0
3.1930428E+000	1.309177968878066E+002	-1.4323423E+000	-4.485822590419248E+002	6.4252335E-001	-1.4321940E+000	0
3.1390638E+000	1.311177968827542E+002	-1.4343868E+000	-4.569473244111296E+002	6.5543926E-001	-1.4341940E+000	0
3.1240661E+000	1.313177968777018E+002	-1.4363800E+000	-4.597790023734487E+002	6.6041738E-001	-1.4361941E+000	0
3.0819860E+000	1.315177968726493E+002	-1.4383723E+000	-4.667030435332908E+002	6.7129272E-001	-1.4381942E+000	0
3.0636561E+000	1.317077968678495E+002	-1.4402546E+000	-4.701097230357709E+002	6.7707765E-001	-1.4400939E+000	0
3.0536377E+000	1.318977968630497E+002	-1.4421498E+000	-4.722727035903082E+002	6.8108797E-001	-1.4419940E+000	0
3.0659690E+000	1.320977968579973E+002	-1.4441737E+000	-4.710333833586344E+002	6.8025404E-001	-1.4439940E+000	0
3.0467184E+000	1.322977968529449E+002	-1.4461572E+000	-4.746606254188373E+002	6.8643391E-001	-1.4459940E+000	0
3.0175712E+000	1.324977968478925E+002	-1.4481677E+000	-4.799116745470874E+002	6.9499260E-001	-1.4479940E+000	0
2.9880981E+000	1.326977968428400E+002	-1.4501334E+000	-4.853031535159425E+002	7.0375431E-001	-1.4499941E+000	0
3.0001235E+000	1.328977968377876E+002	-1.4521433E+000	-4.840278574928411E+002	7.0287782E-001	-1.4519939E+000	0
2.9905360E+000	1.330977968327352E+002	-1.4542171E+000	-4.862730629417074E+002	7.0714658E-001	-1.4539940E+000	0
2.9339612E+000	1.332977968276828E+002	-1.4561374E+000	-4.963042752488682E+002	7.2268724E-001	-1.4559941E+000	0
2.9108789E+000	1.334977968226303E+002	-1.4581231E+000	-5.009219511425672E+002	7.3040587E-001	-1.4579940E+000	0
2.9139247E+000	1.336977968175779E+002	-1.4601535E+000	-5.010951157740715E+002	7.3167574E-001	-1.4599941E+000	0
2.9017906E+000	1.338878968127756E+002	-1.4620941E+000	-5.038592647150927E+002	7.3668963E-001	-1.4618948E+000	0
2.8691709E+000	1.340677968082309E+002	-1.4643724E+000	-5.103817194014659E+002	7.4738890E-001	-1.4636937E+000	0
2.8395247E+000	1.342577968034311E+002	-1.4662871E+000	-5.163847117564574E+002	7.5716823E-001	-1.4655941E+000	0
2.8109818E+000	1.344577967983787E+002	-1.4683009E+000	-5.223445468867990E+002	7.6695901E-001	-1.4675940E+000	0
2.7936549E+000	1.346377967938315E+002	-1.4700819E+000	-5.262217340349894E+002	7.7358907E-001	-1.4693937E+000	0
2.7872288E+000	1.348177967892843E+002	-1.4718810E+000	-5.280804455512781E+002	7.7727157E-001	-1.4711939E+000	0
2.7853873E+000	1.350177967842319E+002	-1.4739023E+000	-5.291552571579996E+002	7.7992320E-001	-1.4731940E+000	0
2.7818229E+000	1.352077967794321E+002	-1.4757781E+000	-5.305075699839706E+002	7.8291148E-001	-1.4750937E+000	0
2.7856445E+000	1.353679967753851E+002	-1.4773585E+000	-5.303470986759803E+002	7.8351277E-001	-1.4766957E+000	0
2.7365305E+000	1.355479967708379E+002	-1.4792517E+000	-5.405573692979365E+002	7.9962045E-001	-1.4784958E+000	0
2.7120764E+000	1.357379967660381E+002	-1.4811224E+000	-5.461211982649202E+002	8.0887234E-001	-1.4803959E+000	0
2.7226071E+000	1.359180967614884E+002	-1.4829009E+000	-5.446620981937713E+002	8.0767989E-001	-1.4821969E+000	0
2.7236581E+000	1.361179967564385E+002	-1.4849482E+000	-5.452036053837019E+002	8.0959910E-001	-1.4841961E+000	0
2.7310336E+000	1.363179967513861E+002	-1.4869130E+000	-5.444506334707057E+002	8.0955070E-001	-1.4861960E+000	0
2.7261751E+000	1.365179967463337E+002	-1.4889067E+000	-5.461522713183267E+002	8.1316978E-001	-1.4881960E+000	0
2.6928549E+000	1.367179967412812E+002	-1.4908935E+000	-5.536479093763555E+002	8.2543004E-001	-1.4901961E+000	0
2.6540577E+000	1.369179967362288E+002	-1.4929274E+000	-5.625074991585188E+002	8.3978289E-001	-1.4921960E+000	0
2.5759964E+000	1.370979967316816E+002	-1.4947050E+000	-5.802433942341768E+002	8.6729270E-001	-1.4939955E+000	0
2.5297933E+000	1.372779967271345E+002	-1.4965521E+000	-5.915709355326217E+002	8.8531673E-001	-1.4957961E+000	0
2.5374670E+000	1.374779967220820E+002	-1.4985385E+000	-5.905647491965419E+002	8.8498402E-001	-1.4977959E+000	0
2.5374589E+000	1.376279967182927E+002	-1.5000722E+000	-5.911710346961518E+002	8.8679928E-001	-1.4992957E+000	0
2.5416570E+000	1.376733967171458E+002	-1.5006288E+000	-5.904135719581886E+002	8.8599163E-001	-1.4998957E+000	1