EC-Lab ASCII FILE
Nb header lines : 61                          

Linear Sweep Voltammetry

Run on channel : 1 (SN 1340)
User : 
Electrode connection : standard
Potential control : Ewe
Ewe ctrl range : min = -5.00 V, max = 5.00 V
Ewe,I filtering : 50 kHz
Channel : Grounded
Acquisition started on : 02/26/2026 17:34:38.780
Technique started on : 02/26/2026 17:34:41.618
Loaded Setting File :  NONE
Saved on :
	File : PtPdCoNi_2_26_02_LSV_C01.mpr
	Directory : C:\Users\volt\Documents\Platalytix\
	Host : 127.0.0.1
Device : SP-200 (SN 0262)
Address : USB
EC-LAB for windows v11.60 (software)
Internet server v11.60 (firmware)
Command interpretor v11.60 (firmware)
Electrode material : PtPdCoNi
Initial state : 
Electrolyte : KOH (1M)
Comments : 
Cable : standard
Reference electrode : Hg/HgO (0.140 V)
Electrode surface area : 1.000 cm˛
Characteristic mass : 0.001 g
Equivalent Weight : 0.000 g/eq.
Density : 0.000 g/cm3
Volume (V) : 0.001 cmł
Cycle Definition : Charge/Discharge alternance
tR (h:m:s)          0:00:5.0000         
dER/dt (mV/h)       0.0                 
dER (mV)            0                   
dtR (s)             0.0000              
dE/dt               10.000              
dE/dt unit          mV/s                
Ei (V)              -0.200              
vs.                 Ref                 
EL (V)              -2.500              
vs.                 Ref                 
record              <I>                 
dI                  0.000               
unit dI             µA                  
tI (s)              0.0000              
step percent        50                  
N                   10                  
E range min (V)     -5.000              
E range max (V)     5.000               
I Range             Auto                
I Range min         Unset               
I Range max         Unset               
I Range init        Unset               
Bandwidth           8                   

Rwe/Ohm	time/s	Ewe/V	<I>/mA	Pwe/W	control/V	error	
0.0000000E+000	2.838400134787662E+000	-1.5509288E-001	0.000000000000000E+000	0.0000000E+000	0.0000000E+000	0
0.0000000E+000	7.838200008482090E+000	-3.1237839E-002	0.000000000000000E+000	0.0000000E+000	-1.9983675E-001	0
2.2270481E+003	7.978200004945393E+000	-2.0092513E-001	-9.022037916489567E-002	1.8127541E-005	-2.0113653E-001	0
1.0821544E+003	8.098200001913938E+000	-2.0212305E-001	-1.867783697283587E-001	3.7752212E-005	-2.0233658E-001	0
1.1709110E+003	8.308199996608892E+000	-2.0423064E-001	-1.744202971215571E-001	3.5621968E-005	-2.0443653E-001	0
1.2701573E+003	8.508199991556467E+000	-2.0623021E-001	-1.623658721531633E-001	3.3484746E-005	-2.0643643E-001	0
1.3524274E+003	8.708199986504042E+000	-2.0824058E-001	-1.539754298391021E-001	3.2063934E-005	-2.0843633E-001	0
1.4207997E+003	8.908199981451617E+000	-2.1023718E-001	-1.479710216249619E-001	3.1109008E-005	-2.1043621E-001	0
1.4809426E+003	9.108199976399192E+000	-2.1224692E-001	-1.433187992366920E-001	3.0418974E-005	-2.1243608E-001	0
1.5348210E+003	9.308199971346767E+000	-2.1423186E-001	-1.395810093401234E-001	2.9902700E-005	-2.1443595E-001	0
1.5833068E+003	9.508199966294342E+000	-2.1623203E-001	-1.365698913403723E-001	2.9530785E-005	-2.1643585E-001	0
1.6277791E+003	9.708199961241917E+000	-2.1823289E-001	-1.340678817203986E-001	2.9258021E-005	-2.1843575E-001	0
1.6686989E+003	9.908199956189492E+000	-2.2024199E-001	-1.319842622298624E-001	2.9068477E-005	-2.2043563E-001	0
1.7084553E+003	1.010819995113707E+001	-2.2222926E-001	-1.300761272936486E-001	2.8906721E-005	-2.2243550E-001	0
1.7450022E+003	1.030819994608464E+001	-2.2423071E-001	-1.284988126580240E-001	2.8813380E-005	-2.2443537E-001	0
1.7795660E+003	1.050819994103222E+001	-2.2623983E-001	-1.271320242400948E-001	2.8762328E-005	-2.2643527E-001	0
1.8136543E+003	1.070819993597979E+001	-2.2823791E-001	-1.258442243497800E-001	2.8722423E-005	-2.2843517E-001	0
1.8471395E+003	1.090819993092737E+001	-2.3022878E-001	-1.246407092738970E-001	2.8695878E-005	-2.3043507E-001	0
1.8777743E+003	1.110819992587494E+001	-2.3224829E-001	-1.236827481229728E-001	2.8725108E-005	-2.3243493E-001	0
1.9094862E+003	1.130809992082504E+001	-2.3424524E-001	-1.226744879626649E-001	2.8735914E-005	-2.3443395E-001	0
1.9407278E+003	1.150799991577514E+001	-2.3622832E-001	-1.217215086487613E-001	2.8754068E-005	-2.3643470E-001	0
1.9709576E+003	1.170799991072272E+001	-2.3822002E-001	-1.208651165452586E-001	2.8792490E-005	-2.3843460E-001	0
1.9992932E+003	1.190799990567029E+001	-2.4025181E-001	-1.201683682771801E-001	2.8870669E-005	-2.4043450E-001	0
2.0262710E+003	1.210799990061787E+001	-2.4223356E-001	-1.195464792340366E-001	2.8958169E-005	-2.4243435E-001	0
2.0559033E+003	1.230799989556544E+001	-2.4423058E-001	-1.187947807852558E-001	2.9013319E-005	-2.4443425E-001	0
2.0833833E+003	1.250799989051302E+001	-2.4623014E-001	-1.181876320009652E-001	2.9101357E-005	-2.4643412E-001	0
2.1100239E+003	1.270799988546059E+001	-2.4822186E-001	-1.176393554205934E-001	2.9200659E-005	-2.4843402E-001	0
2.1389292E+003	1.290799988040817E+001	-2.5023714E-001	-1.169917870158759E-001	2.9275690E-005	-2.5043392E-001	0
2.1664746E+003	1.310799987535574E+001	-2.5223628E-001	-1.164270602134971E-001	2.9367127E-005	-2.5243378E-001	0
2.1915144E+003	1.330799987030332E+001	-2.5424030E-001	-1.160112398680797E-001	2.9494733E-005	-2.5443366E-001	0
2.2196304E+003	1.350799986525089E+001	-2.5622693E-001	-1.154367519054738E-001	2.9578005E-005	-2.5643355E-001	0
2.2451953E+003	1.370799986019847E+001	-2.5822541E-001	-1.150124520570245E-001	2.9699138E-005	-2.5843346E-001	0
2.2718789E+003	1.390799985514604E+001	-2.6022729E-001	-1.145427646822892E-001	2.9807154E-005	-2.6043335E-001	0
2.2991333E+003	1.410799985009362E+001	-2.6223391E-001	-1.140577244781418E-001	2.9909803E-005	-2.6243320E-001	0
2.3261067E+003	1.430799984504119E+001	-2.6421690E-001	-1.135876159470890E-001	3.0011768E-005	-2.6443309E-001	0
2.3530347E+003	1.450799983998877E+001	-2.6621073E-001	-1.131350719253799E-001	3.0117772E-005	-2.6643300E-001	0
2.3789468E+003	1.470799983493635E+001	-2.6821709E-001	-1.127461542157859E-001	3.0240444E-005	-2.6843289E-001	0
2.4051172E+003	1.490789982988645E+001	-2.7023384E-001	-1.123578666447096E-001	3.0362899E-005	-2.7043301E-001	0
2.4329927E+003	1.510779982483655E+001	-2.7222916E-001	-1.118906603000484E-001	3.0459902E-005	-2.7243266E-001	0
2.4597004E+003	1.530779981978412E+001	-2.7422532E-001	-1.114872879488078E-001	3.0572639E-005	-2.7443254E-001	0
2.4859451E+003	1.550779981473170E+001	-2.7622044E-001	-1.111128501480025E-001	3.0691641E-005	-2.7643242E-001	0
2.5131885E+003	1.570779980967927E+001	-2.7821916E-001	-1.107036552134303E-001	3.0799878E-005	-2.7843231E-001	0
2.5413191E+003	1.590779980462685E+001	-2.8021446E-001	-1.102633953417591E-001	3.0897398E-005	-2.8043219E-001	0
2.5674189E+003	1.610779979957442E+001	-2.8222612E-001	-1.099260057103046E-001	3.1023988E-005	-2.8243208E-001	0
2.5939849E+003	1.630779979452200E+001	-2.8424436E-001	-1.095782634590974E-001	3.1147003E-005	-2.8443196E-001	0
2.6214299E+003	1.650779978946957E+001	-2.8624117E-001	-1.091927604722345E-001	3.1255466E-005	-2.8643185E-001	0
2.6481309E+003	1.670779978441715E+001	-2.8822735E-001	-1.088418110301235E-001	3.1371186E-005	-2.8843173E-001	0
2.6750122E+003	1.690779977936472E+001	-2.9024768E-001	-1.085033117616103E-001	3.1492833E-005	-2.9043162E-001	0
2.7036472E+003	1.710779977431230E+001	-2.9223052E-001	-1.080875205680680E-001	3.1586471E-005	-2.9243150E-001	0
2.7294932E+003	1.730779976925987E+001	-2.9424176E-001	-1.078008805124975E-001	3.1719519E-005	-2.9443139E-001	0
2.7583875E+003	1.750779976420745E+001	-2.9622859E-001	-1.073919474369003E-001	3.1812564E-005	-2.9643127E-001	0
2.7874771E+003	1.770779975915502E+001	-2.9823282E-001	-1.069902346528595E-001	3.1907999E-005	-2.9843116E-001	0
2.8146489E+003	1.790779975410260E+001	-3.0022410E-001	-1.066648502688424E-001	3.2023359E-005	-3.0043104E-001	0
2.8430981E+003	1.810779974905017E+001	-3.0222452E-001	-1.063011160929206E-001	3.2126802E-005	-3.0243093E-001	0
2.8707739E+003	1.830769974400027E+001	-3.0422512E-001	-1.059732089427379E-001	3.2239714E-005	-3.0442992E-001	0
2.8985532E+003	1.850759973895038E+001	-3.0623594E-001	-1.056513067391913E-001	3.2354226E-005	-3.0643070E-001	0
2.9274585E+003	1.870759973389795E+001	-3.0823192E-001	-1.052899367425192E-001	3.2453718E-005	-3.0843058E-001	0
2.9604790E+003	1.890759972884553E+001	-3.1022871E-001	-1.047900351146642E-001	3.2508877E-005	-3.1043047E-001	0
2.9910549E+003	1.910759972379310E+001	-3.1222844E-001	-1.043873968758031E-001	3.2592714E-005	-3.1243038E-001	0
3.0196360E+003	1.930759971874068E+001	-3.1421530E-001	-1.040573479035388E-001	3.2696411E-005	-3.1443027E-001	0
3.0502756E+003	1.950759971368825E+001	-3.1621170E-001	-1.036666002855240E-001	3.2780594E-005	-3.1643015E-001	0
3.0829739E+003	1.970759970863583E+001	-3.1822079E-001	-1.032187809455978E-001	3.2846361E-005	-3.1843004E-001	0
3.1118674E+003	1.990759970358340E+001	-3.2021588E-001	-1.029015209762343E-001	3.2950702E-005	-3.2042992E-001	0
3.1418970E+003	2.010759969853098E+001	-3.2220548E-001	-1.025512587889405E-001	3.3042579E-005	-3.2242981E-001	0
3.1741108E+003	2.030759969347855E+001	-3.2421926E-001	-1.021449097544123E-001	3.3117347E-005	-3.2442969E-001	0
3.2032046E+003	2.050759968842613E+001	-3.2621291E-001	-1.018395466020421E-001	3.3221375E-005	-3.2642958E-001	0
3.2347202E+003	2.070759968337370E+001	-3.2822371E-001	-1.014689656477126E-001	3.3304521E-005	-3.2842946E-001	0
3.2656306E+003	2.090759967832128E+001	-3.3021921E-001	-1.011195810408227E-001	3.3391629E-005	-3.3042935E-001	0
3.2958862E+003	2.110759967326885E+001	-3.3222175E-001	-1.007989143325509E-001	3.3487591E-005	-3.3242923E-001	0
3.3270244E+003	2.130759966821643E+001	-3.3424065E-001	-1.004623333741898E-001	3.3578595E-005	-3.3442912E-001	0
3.3563369E+003	2.150759966316400E+001	-3.3623555E-001	-1.001793185297539E-001	3.3683849E-005	-3.3642900E-001	0
3.3882275E+003	2.170759965811158E+001	-3.3823740E-001	-9.982724038909430E-002	3.3765307E-005	-3.3842888E-001	0
3.4210103E+003	2.190749965306168E+001	-3.4022745E-001	-9.945233100516837E-002	3.3836415E-005	-3.4042901E-001	0
3.4536169E+003	2.210739964801178E+001	-3.4223294E-001	-9.909406754181926E-002	3.3913253E-005	-3.4242865E-001	0
3.4826509E+003	2.230739964295935E+001	-3.4423018E-001	-9.884142135681742E-002	3.4024200E-005	-3.4442854E-001	0
3.5094727E+003	2.250739963790693E+001	-3.4622741E-001	-9.865511214580175E-002	3.4157103E-005	-3.4642842E-001	0
3.5362695E+003	2.270739963285450E+001	-3.4823865E-001	-9.847627360428679E-002	3.4293244E-005	-3.4842834E-001	0
3.5638599E+003	2.290739962780208E+001	-3.5022905E-001	-9.827239735394089E-002	3.4417848E-005	-3.5042819E-001	0
3.5909482E+003	2.310739962274965E+001	-3.5223120E-001	-9.808863537985824E-002	3.4549877E-005	-3.5242811E-001	0
3.6207778E+003	2.330739961769723E+001	-3.5421970E-001	-9.782972424597292E-002	3.4653214E-005	-3.5442796E-001	0
3.6510710E+003	2.350739961264480E+001	-3.5622630E-001	-9.756761735153141E-002	3.4756151E-005	-3.5642785E-001	0
3.6818616E+003	2.370739960759238E+001	-3.5823834E-001	-9.729815319987201E-002	3.4855930E-005	-3.5842776E-001	0
3.7094402E+003	2.390739960253995E+001	-3.6022243E-001	-9.710964948559830E-002	3.4981073E-005	-3.6042762E-001	0
3.7374316E+003	2.410739959748753E+001	-3.6220720E-001	-9.691339858032588E-002	3.5102730E-005	-3.6242753E-001	0
3.7678896E+003	2.430739959243510E+001	-3.6419994E-001	-9.665886237066385E-002	3.5203153E-005	-3.6442739E-001	0
3.7934797E+003	2.450739958738268E+001	-3.6621541E-001	-9.653812406379791E-002	3.5353747E-005	-3.6642727E-001	0
3.8263315E+003	2.470739958233025E+001	-3.6821219E-001	-9.623112914293985E-002	3.5433473E-005	-3.6842719E-001	0
3.8570969E+003	2.490739957727783E+001	-3.7023425E-001	-9.598779815297731E-002	3.5537971E-005	-3.7042704E-001	0
3.8903032E+003	2.510739957222540E+001	-3.7220541E-001	-9.567516630825867E-002	3.5610814E-005	-3.7242696E-001	0
3.9239714E+003	2.530729956717551E+001	-3.7423149E-001	-9.537059577502927E-002	3.5690678E-005	-3.7442595E-001	0
3.9595383E+003	2.550719956212561E+001	-3.7621769E-001	-9.501554546434265E-002	3.5746529E-005	-3.7642670E-001	0
3.9932874E+003	2.570719955707318E+001	-3.7822339E-001	-9.471479579838005E-002	3.5823352E-005	-3.7842661E-001	0
4.0190569E+003	2.590719955202076E+001	-3.8022614E-001	-9.460581036584442E-002	3.5971603E-005	-3.8042647E-001	0
4.0538230E+003	2.610719954696833E+001	-3.8221616E-001	-9.428535893774903E-002	3.6037389E-005	-3.8242638E-001	0
4.0865403E+003	2.630719954191591E+001	-3.8422590E-001	-9.402229840700405E-002	3.6125803E-005	-3.8442624E-001	0
4.1210117E+003	2.650719953686348E+001	-3.8622546E-001	-9.372102722099007E-002	3.6197445E-005	-3.8642612E-001	0
4.1543770E+003	2.670719953181106E+001	-3.8823307E-001	-9.345156984992942E-002	3.6280988E-005	-3.8842604E-001	0
4.1878472E+003	2.690719952675863E+001	-3.9023095E-001	-9.318175288962627E-002	3.6362406E-005	-3.9042589E-001	0
4.2178994E+003	2.710719952170621E+001	-3.9222264E-001	-9.299004088153789E-002	3.6472800E-005	-3.9242584E-001	0
4.2546665E+003	2.730719951665378E+001	-3.9422628E-001	-9.265738810241525E-002	3.6527977E-005	-3.9442569E-001	0
4.2842007E+003	2.750719951160136E+001	-3.9621413E-001	-9.248262579138916E-002	3.6642923E-005	-3.9642555E-001	0
4.3179644E+003	2.770719950654893E+001	-3.9821842E-001	-9.222364815769346E-002	3.6725156E-005	-3.9842546E-001	0
4.3494028E+003	2.790719950149651E+001	-4.0020713E-001	-9.201427191483202E-002	3.6824767E-005	-4.0042537E-001	0
4.3811318E+003	2.810719949644408E+001	-4.0221262E-001	-9.180564168880778E-002	3.6925387E-005	-4.0242526E-001	0
4.4100620E+003	2.830719949139166E+001	-4.0421432E-001	-9.165729239874443E-002	3.7049191E-005	-4.0442511E-001	0
4.4451484E+003	2.850719948633923E+001	-4.0622237E-001	-9.138555776237023E-002	3.7122860E-005	-4.0642497E-001	0
4.4792798E+003	2.870719948128681E+001	-4.0821788E-001	-9.113471063757794E-002	3.7202819E-005	-4.0842488E-001	0
4.5107412E+003	2.890709947623691E+001	-4.1021347E-001	-9.094147687669718E-002	3.7305417E-005	-4.1042522E-001	0
4.5410234E+003	2.910699947118701E+001	-4.1223338E-001	-9.077984500410352E-002	3.7422484E-005	-4.1242468E-001	0
4.5754805E+003	2.930699946613458E+001	-4.1425392E-001	-9.053779611218293E-002	3.7505637E-005	-4.1442454E-001	0
4.6120815E+003	2.950699946108216E+001	-4.1625732E-001	-9.025367965093911E-002	3.7568756E-005	-4.1642439E-001	0
4.6408960E+003	2.970699945602973E+001	-4.1826579E-001	-9.012608874542771E-002	3.7696660E-005	-4.1842431E-001	0
4.6741724E+003	2.990699945097731E+001	-4.2024308E-001	-8.990748942874013E-002	3.7783000E-005	-4.2042416E-001	0
4.7043506E+003	3.010699944592488E+001	-4.2226174E-001	-8.975983389955261E-002	3.7902144E-005	-4.2242411E-001	0
4.7326357E+003	3.030699944087246E+001	-4.2425728E-001	-8.964503156770953E-002	3.8032558E-005	-4.2442396E-001	0
4.7678521E+003	3.050699943582003E+001	-4.2624894E-001	-8.940062174560870E-002	3.8106919E-005	-4.2642385E-001	0
4.8002290E+003	3.070699943076761E+001	-4.2826450E-001	-8.921751580644588E-002	3.8208695E-005	-4.2842373E-001	0
4.8287417E+003	3.090699942571518E+001	-4.3025443E-001	-8.910280631753742E-002	3.8336879E-005	-4.3042359E-001	0
4.8624946E+003	3.110699942066276E+001	-4.3223536E-001	-8.889169166922611E-002	3.8422131E-005	-4.3242353E-001	0
4.8910190E+003	3.130699941561033E+001	-4.3424851E-001	-8.878487048833272E-002	3.8554699E-005	-4.3442339E-001	0
4.9220850E+003	3.150699941055791E+001	-4.3624696E-001	-8.863052143504147E-002	3.8664795E-005	-4.3642330E-001	0
4.9550825E+003	3.170699940550548E+001	-4.3826970E-001	-8.844851754455851E-002	3.8764305E-005	-4.3842319E-001	0
4.9821001E+003	3.190699940045306E+001	-4.4026822E-001	-8.837001008782008E-002	3.8906506E-005	-4.4042307E-001	0
5.0157500E+003	3.210699939540064E+001	-4.4225925E-001	-8.817409915488450E-002	3.8995811E-005	-4.4242296E-001	0
5.0465371E+003	3.230699939034821E+001	-4.4426695E-001	-8.803401949188250E-002	3.9110604E-005	-4.4442281E-001	0
5.0752139E+003	3.250679938530084E+001	-4.4627258E-001	-8.793178134873647E-002	3.9241542E-005	-4.4642252E-001	0
5.1074897E+003	3.270679938024841E+001	-4.4827047E-001	-8.776727999516193E-002	3.9343478E-005	-4.4842261E-001	0
5.1438755E+003	3.290679937519599E+001	-4.5026961E-001	-8.753508861470194E-002	3.9414390E-005	-4.5042250E-001	0
5.1740791E+003	3.310679937014356E+001	-4.5227280E-001	-8.741126296610952E-002	3.9533737E-005	-4.5242244E-001	0
5.2117051E+003	3.330679936509114E+001	-4.5428172E-001	-8.716565956701594E-002	3.9597766E-005	-4.5442224E-001	0
5.2405273E+003	3.350679936003871E+001	-4.5627406E-001	-8.706643878452747E-002	3.9726157E-005	-4.5642215E-001	0
5.2696938E+003	3.370679935498629E+001	-4.5827276E-001	-8.696382646998002E-002	3.9853152E-005	-4.5842206E-001	0
5.3098999E+003	3.390679934993386E+001	-4.6026763E-001	-8.668104057145354E-002	3.9896477E-005	-4.6042192E-001	0
5.3363179E+003	3.410679934488144E+001	-4.6227509E-001	-8.662810309445856E-002	4.0046016E-005	-4.6242186E-001	0
5.3720337E+003	3.430679933982901E+001	-4.6425846E-001	-8.642136211804807E-002	4.0121849E-005	-4.6442166E-001	0
5.4055566E+003	3.450679933477659E+001	-4.6624914E-001	-8.625368072435916E-002	4.0215706E-005	-4.6642157E-001	0
5.4403228E+003	3.470679932972416E+001	-4.6824279E-001	-8.606893561628400E-002	4.0301158E-005	-4.6842149E-001	0
5.4715659E+003	3.490679932467174E+001	-4.7024658E-001	-8.594369700193272E-002	4.0414729E-005	-4.7042134E-001	0
5.5132100E+003	3.510679931961931E+001	-4.7225866E-001	-8.565947562698950E-002	4.0453429E-005	-4.7242129E-001	0
5.5439502E+003	3.530679931456689E+001	-4.7424874E-001	-8.554346783323169E-002	4.0568881E-005	-4.7442108E-001	0
5.5807622E+003	3.550679930951446E+001	-4.7625443E-001	-8.533859890494933E-002	4.0642884E-005	-4.7642103E-001	0
5.6182583E+003	3.570679930446204E+001	-4.7822466E-001	-8.511973376219051E-002	4.0706356E-005	-4.7842091E-001	0
5.6507881E+003	3.590669929941214E+001	-4.8022974E-001	-8.498456188550141E-002	4.0812112E-005	-4.8042056E-001	0
5.6874653E+003	3.610659929436224E+001	-4.8224458E-001	-8.479077239624344E-002	4.0889892E-005	-4.8242071E-001	0
5.7254644E+003	3.630659928930982E+001	-4.8424903E-001	-8.457812139882681E-002	4.0956871E-005	-4.8442051E-001	0
5.7686670E+003	3.650659928425739E+001	-4.8622146E-001	-8.428662498228157E-002	4.0981966E-005	-4.8642045E-001	0
5.8028901E+003	3.670659927920497E+001	-4.8823631E-001	-8.413674804496052E-002	4.1078616E-005	-4.8842034E-001	0
5.8420962E+003	3.690659927415254E+001	-4.9024585E-001	-8.391608807359674E-002	4.1139512E-005	-4.9042019E-001	0
5.8838232E+003	3.710659926910012E+001	-4.9223921E-001	-8.365975305978676E-002	4.1180610E-005	-4.9242014E-001	0
5.9293843E+003	3.730659926404769E+001	-4.9423769E-001	-8.335396752306301E-002	4.1196672E-005	-4.9441993E-001	0
5.9628311E+003	3.750659925899527E+001	-4.9622944E-001	-8.322044568508036E-002	4.1296436E-005	-4.9641988E-001	0
6.0049482E+003	3.770659925394284E+001	-4.9823111E-001	-8.297009171512559E-002	4.1338280E-005	-4.9841976E-001	0
6.0478877E+003	3.790659924889042E+001	-5.0022542E-001	-8.271076755023743E-002	4.1374027E-005	-5.0041968E-001	0
6.0893203E+003	3.810659924383799E+001	-5.0223988E-001	-8.247880773754002E-002	4.1424148E-005	-5.0241959E-001	0
6.1348335E+003	3.830659923878557E+001	-5.0423282E-001	-8.219177108426945E-002	4.1443789E-005	-5.0441945E-001	0
6.1787471E+003	3.850659923373314E+001	-5.0624323E-001	-8.193299299065882E-002	4.1478022E-005	-5.0641936E-001	0
6.2212256E+003	3.870659922868072E+001	-5.0822955E-001	-8.169283615551948E-002	4.1518713E-005	-5.0841922E-001	0
6.2690376E+003	3.890659922362829E+001	-5.1023495E-001	-8.138967938974606E-002	4.1527859E-005	-5.1041913E-001	0
6.3106187E+003	3.910659921857587E+001	-5.1223052E-001	-8.116962267202110E-002	4.1577558E-005	-5.1241904E-001	0
6.3571006E+003	3.930649921352597E+001	-5.1423317E-001	-8.089114623486626E-002	4.1596912E-005	-5.1441866E-001	0
6.4062847E+003	3.950639920847607E+001	-5.1623887E-001	-8.058319010353632E-002	4.1600175E-005	-5.1641881E-001	0
6.4528018E+003	3.970639920342364E+001	-5.1823068E-001	-8.031095540607142E-002	4.1619602E-005	-5.1841867E-001	0
6.4987275E+003	3.990639919837122E+001	-5.2022743E-001	-8.005066175444600E-002	4.1644551E-005	-5.2041852E-001	0
6.5537271E+003	4.010639919331879E+001	-5.2222782E-001	-7.968409572434454E-002	4.1613253E-005	-5.2241844E-001	0
6.5992217E+003	4.030639918826637E+001	-5.2422827E-001	-7.943789621228001E-002	4.1643591E-005	-5.2441829E-001	0
6.6488706E+003	4.050639918321394E+001	-5.2621788E-001	-7.914394865027899E-002	4.1646959E-005	-5.2641821E-001	0
6.6973135E+003	4.070639917816152E+001	-5.2823502E-001	-7.887267097281692E-002	4.1663308E-005	-5.2841806E-001	0
6.7472461E+003	4.090639917310909E+001	-5.3022230E-001	-7.858351377935024E-002	4.1666732E-005	-5.3041798E-001	0
6.7972437E+003	4.110639916805667E+001	-5.3223747E-001	-7.830195668123907E-002	4.1675234E-005	-5.3241789E-001	0
6.8411372E+003	4.130639916300424E+001	-5.3423983E-001	-7.809225461010724E-002	4.1719992E-005	-5.3441769E-001	0
6.8961548E+003	4.150639915795182E+001	-5.3623158E-001	-7.775805298135519E-002	4.1696323E-005	-5.3641766E-001	0
6.9522861E+003	4.170639915289939E+001	-5.3821653E-001	-7.741576402771227E-002	4.1666444E-005	-5.3841752E-001	0
6.9995269E+003	4.190639914784697E+001	-5.4024345E-001	-7.718285117319468E-002	4.1697531E-005	-5.4041743E-001	0
7.0485532E+003	4.210639914279454E+001	-5.4224700E-001	-7.693025313873170E-002	4.1715200E-005	-5.4241729E-001	0
7.1044761E+003	4.230639913774212E+001	-5.4423684E-001	-7.660478366540963E-002	4.1691146E-005	-5.4441714E-001	0
7.1539214E+003	4.250639913268969E+001	-5.4624003E-001	-7.635532916299692E-002	4.1708336E-005	-5.4641706E-001	0
7.2089170E+003	4.270639912763727E+001	-5.4825449E-001	-7.605226926585795E-002	4.1695999E-005	-5.4841691E-001	0
7.2572920E+003	4.290629912258737E+001	-5.5023068E-001	-7.581763225110572E-002	4.1717187E-005	-5.5041772E-001	0
7.3109019E+003	4.310619911753747E+001	-5.5225247E-001	-7.553821184372544E-002	4.1716165E-005	-5.5241674E-001	0
7.3683154E+003	4.330619911248505E+001	-5.5425459E-001	-7.522134560576355E-002	4.1691776E-005	-5.5441654E-001	0
7.4166519E+003	4.350619910743262E+001	-5.5623376E-001	-7.499796250579549E-002	4.1716397E-005	-5.5641651E-001	0
7.4702231E+003	4.370619910238020E+001	-5.5823481E-001	-7.472799627042759E-002	4.1715768E-005	-5.5841637E-001	0
7.5231650E+003	4.390619909732777E+001	-5.6022674E-001	-7.446689333644207E-002	4.1718344E-005	-5.6041628E-001	0
7.5801016E+003	4.410619909227535E+001	-5.6222421E-001	-7.417106510418725E-002	4.1700769E-005	-5.6241614E-001	0
7.6273286E+003	4.430619908722292E+001	-5.6422436E-001	-7.397404517513806E-002	4.1737960E-005	-5.6441599E-001	0
7.6850366E+003	4.450619908217050E+001	-5.6621569E-001	-7.367768296718491E-002	4.1717460E-005	-5.6641591E-001	0
7.7461597E+003	4.470619907711807E+001	-5.6821120E-001	-7.335392192540402E-002	4.1680520E-005	-5.6841576E-001	0
7.7979219E+003	4.490619907206565E+001	-5.7020885E-001	-7.312318028844139E-002	4.1695483E-005	-5.7041568E-001	0
7.8539951E+003	4.510619906701322E+001	-5.7222909E-001	-7.285834618056386E-002	4.1691666E-005	-5.7241559E-001	0
7.9128232E+003	4.530619906196080E+001	-5.7420802E-001	-7.256677164854564E-002	4.1668423E-005	-5.7441539E-001	0
7.9581143E+003	4.550619905690837E+001	-5.7619625E-001	-7.240361580466792E-002	4.1718693E-005	-5.7641536E-001	0
8.0150010E+003	4.570619905185595E+001	-5.7820904E-001	-7.214085602564757E-002	4.1712494E-005	-5.7841522E-001	0
8.0717578E+003	4.590619904680352E+001	-5.8020878E-001	-7.188133986734380E-002	4.1706186E-005	-5.8041513E-001	0
8.1151050E+003	4.610619904175110E+001	-5.8220714E-001	-7.174363579334953E-002	4.1769657E-005	-5.8241498E-001	0
8.1698916E+003	4.630609903670120E+001	-5.8420056E-001	-7.150652465625895E-002	4.1774150E-005	-5.8441460E-001	0
8.2306777E+003	4.650599903165130E+001	-5.8621860E-001	-7.122361490211548E-002	4.1752606E-005	-5.8641475E-001	0
8.2709795E+003	4.670599902659887E+001	-5.8819860E-001	-7.111595743578691E-002	4.1830306E-005	-5.8841461E-001	0
8.3190625E+003	4.690599902154645E+001	-5.9020728E-001	-7.094636749657801E-002	4.1873063E-005	-5.9041452E-001	0
8.3786006E+003	4.710599901649402E+001	-5.9221828E-001	-7.068224162467301E-002	4.1859315E-005	-5.9241444E-001	0
8.4365361E+003	4.730599901144160E+001	-5.9420210E-001	-7.043200077081441E-002	4.1850843E-005	-5.9441423E-001	0
8.4847158E+003	4.750599900638917E+001	-5.9619725E-001	-7.026719927044411E-002	4.1893112E-005	-5.9641421E-001	0
8.5419844E+003	4.770599900133675E+001	-5.9820318E-001	-7.003094001922339E-002	4.1892730E-005	-5.9841406E-001	0
8.5953896E+003	4.790599899628432E+001	-6.0020375E-001	-6.982856994344833E-002	4.1911371E-005	-6.0041398E-001	0
8.6420186E+003	4.810599899123190E+001	-6.0220170E-001	-6.968299451267213E-002	4.1963216E-005	-6.0241383E-001	0
8.6891318E+003	4.830599898617947E+001	-6.0420781E-001	-6.953604002229796E-002	4.2014221E-005	-6.0441369E-001	0
8.7456201E+003	4.850599898112705E+001	-6.0621440E-001	-6.931634480186455E-002	4.2020565E-005	-6.0641366E-001	0
8.7915771E+003	4.870599897607462E+001	-6.0820562E-001	-6.918048656908793E-002	4.2075961E-005	-6.0841346E-001	0
8.8397012E+003	4.890599897102220E+001	-6.1020845E-001	-6.903043919128860E-002	4.2122956E-005	-6.1041337E-001	0
8.8871875E+003	4.910599896596977E+001	-6.1221856E-001	-6.888777572480009E-002	4.2174375E-005	-6.1241329E-001	0
8.9362813E+003	4.930599896091735E+001	-6.1422175E-001	-6.873348295316944E-002	4.2217602E-005	-6.1441314E-001	0
8.9747461E+003	4.950599895586492E+001	-6.1622787E-001	-6.866242877385087E-002	4.2311702E-005	-6.1641306E-001	0
9.0280107E+003	4.970599895081250E+001	-6.1822808E-001	-6.847888463685736E-002	4.2335570E-005	-6.1841291E-001	0
9.0643906E+003	4.990589894576260E+001	-6.2023962E-001	-6.842595563750953E-002	4.2440490E-005	-6.2041372E-001	0
9.1140723E+003	5.010579894071270E+001	-6.2222320E-001	-6.827060286591335E-002	4.2479554E-005	-6.2241268E-001	0
9.1513184E+003	5.030579893566028E+001	-6.2423122E-001	-6.821216145887266E-002	4.2580159E-005	-6.2441254E-001	0
9.2043467E+003	5.050579893060785E+001	-6.2622321E-001	-6.803559721605934E-002	4.2605468E-005	-6.2641251E-001	0
9.2437607E+003	5.070579892555543E+001	-6.2821889E-001	-6.796139441515039E-002	4.2694632E-005	-6.2841231E-001	0
9.2880830E+003	5.090579892050300E+001	-6.3023138E-001	-6.785376184005409E-002	4.2763571E-005	-6.3041228E-001	0
9.3315654E+003	5.110579891545058E+001	-6.3222295E-001	-6.775100417107827E-002	4.2833741E-005	-6.3241214E-001	0
9.3626855E+003	5.130579891039815E+001	-6.3422620E-001	-6.773977507435869E-002	4.2962340E-005	-6.3441199E-001	0
9.3985625E+003	5.150579890534573E+001	-6.3622689E-001	-6.769406274034995E-002	4.3068783E-005	-6.3641191E-001	0
9.4367549E+003	5.170579890029330E+001	-6.3822961E-001	-6.763231623738308E-002	4.3164946E-005	-6.3841176E-001	0
9.4700869E+003	5.190579889524088E+001	-6.4022434E-001	-6.760490890338922E-002	4.3282307E-005	-6.4041167E-001	0
9.5009385E+003	5.210579889018845E+001	-6.4224494E-001	-6.759805097762051E-002	4.3414508E-005	-6.4241153E-001	0
9.5317471E+003	5.230579888513603E+001	-6.4424574E-001	-6.758946920808433E-002	4.3544227E-005	-6.4441144E-001	0
9.5596309E+003	5.250579888008360E+001	-6.4623702E-001	-6.760062328001260E-002	4.3686025E-005	-6.4641136E-001	0
9.5860049E+003	5.270579887503118E+001	-6.4825547E-001	-6.762519596797134E-002	4.3838401E-005	-6.4841121E-001	0
9.6171016E+003	5.290579886997875E+001	-6.5023059E-001	-6.761190948834683E-002	4.3963333E-005	-6.5041119E-001	0
9.6368828E+003	5.310579886492633E+001	-6.5223658E-001	-6.768128381938543E-002	4.4144210E-005	-6.5241104E-001	0
9.6667373E+003	5.330569885987643E+001	-6.5423292E-001	-6.767877183699167E-002	4.4277680E-005	-6.5441066E-001	0
9.6797197E+003	5.350559885482653E+001	-6.5624350E-001	-6.779571450653288E-002	4.4490498E-005	-6.5641075E-001	0
9.7004854E+003	5.370559884977411E+001	-6.5824628E-001	-6.785704873717641E-002	4.4666649E-005	-6.5841061E-001	0
9.7185439E+003	5.390559884472168E+001	-6.6023439E-001	-6.793552585201701E-002	4.4853372E-005	-6.6041052E-001	0
9.7345615E+003	5.410559883966926E+001	-6.6223580E-001	-6.802933914122300E-002	4.5051464E-005	-6.6241038E-001	0
9.7325811E+003	5.430559883461683E+001	-6.6421396E-001	-6.824643369880268E-002	4.5330235E-005	-6.6441029E-001	0
9.7470039E+003	5.450559882956441E+001	-6.6623193E-001	-6.835248509776726E-002	4.5538607E-005	-6.6641021E-001	0
9.7548252E+003	5.470559882451198E+001	-6.6821456E-001	-6.850092720647905E-002	4.5773319E-005	-6.6841006E-001	0
9.7561768E+003	5.490559881945956E+001	-6.7021352E-001	-6.869632974340911E-002	4.6041208E-005	-6.7041004E-001	0
9.7613076E+003	5.510559881440713E+001	-6.7222708E-001	-6.886650018379192E-002	4.6293928E-005	-6.7240989E-001	0
9.7619258E+003	5.530559880935471E+001	-6.7420167E-001	-6.906441519619733E-002	4.6563346E-005	-6.7440975E-001	0
9.7543867E+003	5.550559880430228E+001	-6.7621136E-001	-6.932382220919758E-002	4.6877554E-005	-6.7640960E-001	0
9.7458145E+003	5.570559879924986E+001	-6.7820710E-001	-6.958957779265584E-002	4.7196147E-005	-6.7840946E-001	0
9.7462959E+003	5.590559879419743E+001	-6.8021303E-001	-6.979195168030672E-002	4.7473397E-005	-6.8040943E-001	0
9.7295273E+003	5.610559878914501E+001	-6.8221557E-001	-7.011806098543660E-002	4.7835634E-005	-6.8240929E-001	0
9.7228867E+003	5.630559878409258E+001	-6.8421108E-001	-7.037118794090319E-002	4.8148748E-005	-6.8440914E-001	0
9.7067813E+003	5.650559877904016E+001	-6.8621081E-001	-7.069396301195913E-002	4.8510963E-005	-6.8640906E-001	0
9.6981328E+003	5.670559877398773E+001	-6.8820816E-001	-7.096295207506587E-002	4.8837283E-005	-6.8840897E-001	0
9.6771074E+003	5.690549876893783E+001	-6.9020087E-001	-7.132305302400221E-002	4.9227234E-005	-6.9040972E-001	0
9.6498721E+003	5.710539876388793E+001	-6.9220322E-001	-7.173185548671168E-002	4.9653023E-005	-6.9240874E-001	0
9.6195801E+003	5.730539875883551E+001	-6.9421035E-001	-7.216639119852974E-002	5.0098657E-005	-6.9440860E-001	0
9.5931074E+003	5.750539875378308E+001	-6.9621384E-001	-7.257438505220487E-002	5.0527291E-005	-6.9640857E-001	0
9.5680068E+003	5.770539874873066E+001	-6.9820017E-001	-7.297237339174012E-002	5.0949322E-005	-6.9840837E-001	0
9.5433818E+003	5.790539874367823E+001	-7.0020354E-001	-7.337059163015391E-002	5.1374347E-005	-7.0040828E-001	0
9.5048662E+003	5.810539873862581E+001	-7.0221072E-001	-7.387907570914254E-002	5.1878680E-005	-7.0240819E-001	0
9.4706172E+003	5.830539873357338E+001	-7.0418787E-001	-7.435501320393162E-002	5.2359897E-005	-7.0440799E-001	0
9.4410000E+003	5.850539872852096E+001	-7.0620376E-001	-7.480179277975152E-002	5.2825308E-005	-7.0640790E-001	0
9.4105029E+003	5.870539872346853E+001	-7.0819646E-001	-7.525596117216449E-002	5.3296004E-005	-7.0840782E-001	0
9.3718809E+003	5.890539871841611E+001	-7.1019274E-001	-7.577910283928836E-002	5.3817770E-005	-7.1040773E-001	0
9.3275625E+003	5.910539871336368E+001	-7.1218735E-001	-7.635299925631095E-002	5.4377640E-005	-7.1240759E-001	0
9.2922500E+003	5.930539870831126E+001	-7.1420574E-001	-7.686036853425943E-002	5.4894117E-005	-7.1440750E-001	0
9.2662822E+003	5.950539870325883E+001	-7.1621066E-001	-7.729212870470814E-002	5.5357446E-005	-7.1640742E-001	0
9.2192461E+003	5.970539869820641E+001	-7.1820301E-001	-7.790257735283443E-002	5.5949866E-005	-7.1840721E-001	0
9.2053379E+003	5.990539869315398E+001	-7.2021848E-001	-7.823922289398122E-002	5.6349334E-005	-7.2040713E-001	0
9.1577432E+003	6.010539868810156E+001	-7.2219670E-001	-7.886186422613317E-002	5.6953777E-005	-7.2240704E-001	0
9.1205840E+003	6.030529868305166E+001	-7.2419769E-001	-7.940255732794599E-002	5.7503148E-005	-7.2440696E-001	0
9.0673389E+003	6.050519867800176E+001	-7.2619939E-001	-8.008958235680785E-002	5.8161007E-005	-7.2640681E-001	0
9.0326807E+003	6.070519867294934E+001	-7.2819424E-001	-8.061773151152929E-002	5.8705369E-005	-7.2840667E-001	0
9.0004102E+003	6.090519866789691E+001	-7.3019499E-001	-8.112907602004049E-002	5.9240043E-005	-7.3040658E-001	0
8.9625684E+003	6.110519866284449E+001	-7.3219997E-001	-8.169532503432214E-002	5.9817314E-005	-7.3240644E-001	0
8.9147832E+003	6.130519865779206E+001	-7.3420089E-001	-8.235767970913321E-002	6.0467082E-005	-7.3440635E-001	0
8.8850137E+003	6.150519865273964E+001	-7.3618937E-001	-8.285742792271278E-002	6.0998758E-005	-7.3640627E-001	0
8.8476494E+003	6.170519864768721E+001	-7.3821163E-001	-8.343590663370093E-002	6.1593353E-005	-7.3840606E-001	0
8.8091270E+003	6.190519864263479E+001	-7.4021453E-001	-8.402813869199022E-002	6.2198851E-005	-7.4040598E-001	0
8.7682998E+003	6.210519863758236E+001	-7.4220800E-001	-8.464673945528209E-002	6.2825486E-005	-7.4240589E-001	0
8.7219443E+003	6.230519863252994E+001	-7.4421537E-001	-8.532677691106760E-002	6.3501502E-005	-7.4440581E-001	0
8.6863018E+003	6.250519862747751E+001	-7.4622256E-001	-8.590796702201409E-002	6.4106462E-005	-7.4640560E-001	0
8.6522539E+003	6.270519862242509E+001	-7.4821264E-001	-8.647603752057753E-002	6.4702464E-005	-7.4840552E-001	0
8.6177363E+003	6.290519861737266E+001	-7.5021005E-001	-8.705418467756099E-002	6.5308923E-005	-7.5040543E-001	0
8.5935410E+003	6.310519861232024E+001	-7.5220048E-001	-8.753091560110748E-002	6.5840795E-005	-7.5240529E-001	0
8.5420928E+003	6.330519860726781E+001	-7.5421703E-001	-8.829417029478082E-002	6.6592969E-005	-7.5440520E-001	0
8.5125459E+003	6.350519860221539E+001	-7.5620252E-001	-8.883388833377248E-002	6.7176414E-005	-7.5640512E-001	0
8.4837568E+003	6.370509859716549E+001	-7.5820762E-001	-8.937167859455575E-002	6.7762288E-005	-7.5840402E-001	0
8.4523906E+003	6.390509859211306E+001	-7.6022005E-001	-8.994142858376841E-002	6.8375281E-005	-7.6040578E-001	0
8.4172275E+003	6.410499858706316E+001	-7.6220638E-001	-9.055314241177778E-002	6.9020185E-005	-7.6240474E-001	0
8.3924336E+003	6.430499858201074E+001	-7.6421440E-001	-9.105993291023085E-002	6.9589310E-005	-7.6440465E-001	0
8.3562568E+003	6.450499857695831E+001	-7.6621193E-001	-9.169319485970995E-002	7.0256421E-005	-7.6640451E-001	0
8.3151865E+003	6.470499857190589E+001	-7.6821381E-001	-9.238683674516168E-002	7.0972841E-005	-7.6840436E-001	0
8.2856514E+003	6.490499856685346E+001	-7.7022749E-001	-9.295919681360754E-002	7.1599730E-005	-7.7040434E-001	0
8.2650684E+003	6.510499856180104E+001	-7.7220398E-001	-9.342983191307030E-002	7.2146890E-005	-7.7240413E-001	0
8.2329004E+003	6.530499855674861E+001	-7.7419734E-001	-9.403701272345377E-002	7.2803203E-005	-7.7440405E-001	0
8.1933564E+003	6.550499855169619E+001	-7.7620858E-001	-9.473633318991670E-002	7.3535157E-005	-7.7640390E-001	0
8.1489707E+003	6.570499854664376E+001	-7.7821046E-001	-9.549800689171706E-002	7.4317548E-005	-7.7840376E-001	0
8.1189106E+003	6.590499854159134E+001	-7.8018332E-001	-9.609458262846271E-002	7.4971387E-005	-7.8040367E-001	0
8.0934683E+003	6.610499853653891E+001	-7.8221518E-001	-9.664770794288990E-002	7.5599302E-005	-7.8240359E-001	0
8.0489072E+003	6.630499853148649E+001	-7.8421211E-001	-9.743087701108735E-002	7.6406475E-005	-7.8440350E-001	0
8.0235679E+003	6.650499852643406E+001	-7.8619474E-001	-9.798567855409668E-002	7.7035824E-005	-7.8640336E-001	0
8.0143843E+003	6.670499852138164E+001	-7.8820139E-001	-9.834833735866155E-002	7.7518300E-005	-7.8840327E-001	0
7.9947231E+003	6.690499851632921E+001	-7.9019201E-001	-9.883919507877537E-002	7.8101941E-005	-7.9040319E-001	0
7.9300239E+003	6.710499851127679E+001	-7.9220110E-001	-9.989895423042205E-002	7.9140060E-005	-7.9240298E-001	0
7.8916250E+003	6.730489850622689E+001	-7.9419881E-001	-1.006381844089750E-001	7.9926729E-005	-7.9440296E-001	0
7.8532783E+003	6.750479850117699E+001	-7.9619956E-001	-1.013843568882431E-001	8.0722180E-005	-7.9640281E-001	0
7.8158848E+003	6.770479849612457E+001	-7.9819834E-001	-1.021251425531411E-001	8.1516118E-005	-7.9840273E-001	0
7.7742432E+003	6.790479849107214E+001	-8.0019510E-001	-1.029290024374867E-001	8.2363280E-005	-8.0040264E-001	0
7.7302080E+003	6.810479848601972E+001	-8.0219215E-001	-1.037736841627396E-001	8.3246436E-005	-8.0240244E-001	0
7.6988354E+003	6.830479848096729E+001	-8.0419427E-001	-1.044566101318565E-001	8.4003404E-005	-8.0440235E-001	0
7.6704478E+003	6.850479847591487E+001	-8.0618429E-001	-1.051026378228184E-001	8.4732099E-005	-8.0640233E-001	0
7.6724282E+003	6.870479847086244E+001	-8.0820227E-001	-1.053385239383813E-001	8.5134830E-005	-8.0840212E-001	0
7.5960122E+003	6.890479846581002E+001	-8.1019419E-001	-1.066604642167924E-001	8.6415690E-005	-8.1040204E-001	0
7.5416382E+003	6.910479846075759E+001	-8.1219715E-001	-1.076950546820767E-001	8.7469620E-005	-8.1240183E-001	0
7.4941284E+003	6.930479845570517E+001	-8.1418931E-001	-1.086436299250255E-001	8.8456480E-005	-8.1440187E-001	0
7.4566611E+003	6.950479845065274E+001	-8.1619817E-001	-1.094589358240010E-001	8.9340181E-005	-8.1640166E-001	0
7.4088838E+003	6.970479844560032E+001	-8.1819856E-001	-1.104347912780517E-001	9.0357586E-005	-8.1840158E-001	0
7.3663608E+003	6.990479844054789E+001	-8.2018322E-001	-1.113417106733365E-001	9.1320602E-005	-8.2040149E-001	0
7.3434902E+003	7.010479843549547E+001	-8.2221347E-001	-1.119649448704454E-001	9.2059083E-005	-8.2240129E-001	0
7.2862759E+003	7.030479843044304E+001	-8.2420814E-001	-1.131178867430878E-001	9.3232680E-005	-8.2440120E-001	0
7.2295747E+003	7.050479842539062E+001	-8.2620895E-001	-1.142818223792732E-001	9.4420662E-005	-8.2640117E-001	0
7.1503975E+003	7.070479842033819E+001	-8.2819766E-001	-1.158254046844167E-001	9.5926327E-005	-8.2840097E-001	0
7.0922554E+003	7.090469841528829E+001	-8.3021963E-001	-1.170600306554292E-001	9.7185533E-005	-8.3040136E-001	0
7.0611343E+003	7.110459841023840E+001	-8.3222032E-001	-1.178592935166494E-001	9.8084900E-005	-8.3240068E-001	0
7.0241919E+003	7.130459840518597E+001	-8.3421451E-001	-1.187630568307885E-001	9.9073863E-005	-8.3440071E-001	0
6.9294004E+003	7.150459840013355E+001	-8.3622694E-001	-1.206781125538765E-001	1.0091429E-004	-8.3640051E-001	0
6.8607686E+003	7.170459839508112E+001	-8.3821732E-001	-1.221754260935617E-001	1.0240955E-004	-8.3840042E-001	0
6.7901670E+003	7.190459839002870E+001	-8.4021032E-001	-1.237392699020727E-001	1.0396701E-004	-8.4040034E-001	0
6.7263433E+003	7.210459838497627E+001	-8.4221923E-001	-1.252120463895590E-001	1.0545599E-004	-8.4240013E-001	0
6.6216030E+003	7.230459837992385E+001	-8.4421748E-001	-1.274944272604002E-001	1.0763302E-004	-8.4440005E-001	0
6.4915298E+003	7.250459837487142E+001	-8.4621555E-001	-1.303568744658152E-001	1.1031001E-004	-8.4639996E-001	0
6.3853413E+003	7.270459836981900E+001	-8.4824550E-001	-1.328426250583927E-001	1.1268316E-004	-8.4839982E-001	0
6.2592280E+003	7.290459836476657E+001	-8.5021919E-001	-1.358345103959073E-001	1.1548911E-004	-8.5039973E-001	0
6.1268911E+003	7.310459835971415E+001	-8.5220069E-001	-1.390918664266769E-001	1.1853418E-004	-8.5239953E-001	0
5.9622578E+003	7.330459835466172E+001	-8.5419971E-001	-1.432678273862100E-001	1.2237934E-004	-8.5439956E-001	0
5.7991328E+003	7.350459834960930E+001	-8.5622305E-001	-1.476467388508896E-001	1.2641854E-004	-8.5639936E-001	0
5.6496802E+003	7.370459834455687E+001	-8.5821152E-001	-1.519044482660242E-001	1.3036614E-004	-8.5839933E-001	0
5.4804712E+003	7.390459833950445E+001	-8.6022115E-001	-1.569611617066222E-001	1.3502131E-004	-8.6039919E-001	0
5.3432671E+003	7.410459833445202E+001	-8.6221999E-001	-1.613656876106109E-001	1.3913272E-004	-8.6239898E-001	0
5.2117646E+003	7.430449832940212E+001	-8.6421937E-001	-1.658208719907961E-001	1.4330560E-004	-8.6439830E-001	0
5.0974893E+003	7.450439832435222E+001	-8.6621183E-001	-1.699291185545579E-001	1.4719462E-004	-8.6639881E-001	0
5.0007520E+003	7.470439831929980E+001	-8.6819768E-001	-1.736134344547171E-001	1.5073078E-004	-8.6839867E-001	0
4.9202520E+003	7.490439831424737E+001	-8.7020719E-001	-1.768623227042374E-001	1.5390686E-004	-8.7039858E-001	0
4.8424014E+003	7.510439830919495E+001	-8.7222779E-001	-1.801229797878108E-001	1.5710827E-004	-8.7239838E-001	0
4.7779468E+003	7.530439830414252E+001	-8.7420332E-001	-1.829663166446860E-001	1.5994976E-004	-8.7439841E-001	0
4.6982388E+003	7.550439829909010E+001	-8.7620920E-001	-1.864973685911142E-001	1.6341070E-004	-8.7639868E-001	0
4.6278481E+003	7.570439829403767E+001	-8.7820131E-001	-1.897645083545392E-001	1.6665144E-004	-8.7839872E-001	0
4.5606626E+003	7.590439828898525E+001	-8.8020033E-001	-1.929983534457378E-001	1.6987721E-004	-8.8039869E-001	0
4.4892251E+003	7.610439828393282E+001	-8.8219583E-001	-1.965140462356727E-001	1.7336388E-004	-8.8239866E-001	0
4.4243159E+003	7.630439827888040E+001	-8.8420421E-001	-1.998510662964681E-001	1.7670916E-004	-8.8439864E-001	0
4.3619995E+003	7.650439827382797E+001	-8.8618606E-001	-2.031605065232149E-001	1.8003801E-004	-8.8639873E-001	0
4.2932021E+003	7.670439826877555E+001	-8.8819444E-001	-2.068839069316478E-001	1.8375313E-004	-8.8839871E-001	0
4.2174795E+003	7.690439826372312E+001	-8.9019036E-001	-2.110716486391926E-001	1.8789395E-004	-8.9039868E-001	0
4.1266489E+003	7.710439825867070E+001	-8.9218128E-001	-2.161999398234236E-001	1.9288954E-004	-8.9239866E-001	0
4.0283040E+003	7.730439825361827E+001	-8.9419788E-001	-2.219787446503232E-001	1.9849293E-004	-8.9439863E-001	0
3.9107659E+003	7.750439824856585E+001	-8.9619845E-001	-2.291618741039280E-001	2.0537451E-004	-8.9639872E-001	0
3.7671196E+003	7.770439824351342E+001	-8.9821374E-001	-2.384351496468555E-001	2.1416573E-004	-8.9839870E-001	0
3.6150742E+003	7.790439823846100E+001	-9.0019214E-001	-2.490106917444681E-001	2.2415747E-004	-9.0039879E-001	0
3.4528696E+003	7.810439823340857E+001	-9.0219849E-001	-2.612894718026286E-001	2.3573497E-004	-9.0239877E-001	0
3.2769209E+003	7.830439822835615E+001	-9.0420586E-001	-2.759315388450347E-001	2.4949890E-004	-9.0439868E-001	0
3.0980886E+003	7.850439822330372E+001	-9.0620196E-001	-2.925035601921051E-001	2.6506730E-004	-9.0639871E-001	0
2.9176418E+003	7.870439821825130E+001	-9.0819848E-001	-3.112782630076865E-001	2.8270244E-004	-9.0839869E-001	0
2.7370034E+003	7.890439821319887E+001	-9.1021061E-001	-3.325573583080725E-001	3.0269724E-004	-9.1039866E-001	0
2.5586262E+003	7.910439820814645E+001	-9.1219378E-001	-3.565170285767127E-001	3.2521260E-004	-9.1239870E-001	0
2.3370007E+003	7.930439820309402E+001	-9.1419888E-001	-3.911846859545314E-001	3.5762059E-004	-9.1439873E-001	0
2.1879299E+003	7.950439819804160E+001	-9.1622126E-001	-4.187616876658069E-001	3.8367836E-004	-9.1639870E-001	0
2.0321204E+003	7.970439819298917E+001	-9.1820312E-001	-4.518448605483005E-001	4.1488535E-004	-9.1839862E-001	0
1.8799606E+003	7.990439818793675E+001	-9.2022556E-001	-4.894919342692949E-001	4.5044298E-004	-9.2039871E-001	0
1.7346237E+003	8.010439818288432E+001	-9.2222559E-001	-5.316574393883506E-001	4.9030810E-004	-9.2239869E-001	0
1.5639279E+003	8.030439817783190E+001	-9.2421305E-001	-5.909563420665647E-001	5.4616958E-004	-9.2439866E-001	0
1.4511042E+003	8.050439817277947E+001	-9.2621911E-001	-6.382856953956725E-001	5.9119239E-004	-9.2639875E-001	0
1.3380009E+003	8.070439816772705E+001	-9.2820394E-001	-6.937244979288728E-001	6.4391783E-004	-9.2839873E-001	0
1.2070162E+003	8.090439816267462E+001	-9.3020606E-001	-7.706657040256033E-001	7.1687793E-004	-9.3039870E-001	0
1.1143928E+003	8.110439815762220E+001	-9.3219447E-001	-8.365043630472897E-001	7.7978475E-004	-9.3239868E-001	0
1.0203505E+003	8.130439815256977E+001	-9.3418086E-001	-9.155490342907746E-001	8.5528835E-004	-9.3439877E-001	0
9.3167297E+002	8.150439814751735E+001	-9.3618506E-001	-1.004842969396757E+000	9.4071898E-004	-9.3639874E-001	0
8.4734552E+002	8.171439814221230E+001	-9.3825787E-001	-1.107290780400497E+000	1.0389243E-003	-9.3849874E-001	0
7.8213287E+002	8.192439813690726E+001	-9.4035739E-001	-1.202298730240116E+000	1.1305904E-003	-9.4059873E-001	0
7.1704150E+002	8.212439813185483E+001	-9.4235271E-001	-1.314223432503729E+000	1.2384620E-003	-9.4259870E-001	0
6.6418213E+002	8.232439812680241E+001	-9.4436091E-001	-1.421840351488854E+000	1.3427305E-003	-9.4459862E-001	0
6.0946051E+002	8.252439812174998E+001	-9.4634676E-001	-1.552761401761479E+000	1.4694508E-003	-9.4659877E-001	0
5.6447968E+002	8.272439811669756E+001	-9.4835871E-001	-1.680058223421335E+000	1.5932978E-003	-9.4859862E-001	0
5.2548828E+002	8.292439811164513E+001	-9.5038581E-001	-1.808576508748295E+000	1.7188455E-003	-9.5059872E-001	0
4.8850827E+002	8.312439810659271E+001	-9.5236772E-001	-1.949542698068136E+000	1.8566815E-003	-9.5259869E-001	0
4.5445682E+002	8.332439810154028E+001	-9.5438963E-001	-2.100066684422981E+000	2.0042819E-003	-9.5459878E-001	0
4.2479367E+002	8.352439809648786E+001	-9.5637590E-001	-2.251389265449002E+000	2.1531745E-003	-9.5659876E-001	0
3.9781989E+002	8.372439809143543E+001	-9.5837861E-001	-2.409076619513172E+000	2.3088076E-003	-9.5859867E-001	0
3.7373532E+002	8.392439808638301E+001	-9.6037662E-001	-2.569670388606006E+000	2.4678514E-003	-9.6059871E-001	0
3.5105261E+002	8.412439808133058E+001	-9.6237552E-001	-2.741399777060600E+000	2.6382559E-003	-9.6259868E-001	0
3.3098141E+002	8.432439807627816E+001	-9.6437186E-001	-2.913673747592782E+000	2.8098649E-003	-9.6459866E-001	0
3.1223093E+002	8.452439807122573E+001	-9.6637374E-001	-3.095060988094943E+000	2.9909858E-003	-9.6659869E-001	0
2.9538589E+002	8.472439806617331E+001	-9.6838266E-001	-3.278364649705605E+000	3.1747115E-003	-9.6859872E-001	0
2.7983875E+002	8.492439806112088E+001	-9.7039521E-001	-3.467694417284207E+000	3.3650340E-003	-9.7059870E-001	0
2.6600012E+002	8.512439805606846E+001	-9.7238314E-001	-3.655574027068749E+000	3.5546185E-003	-9.7259861E-001	0
2.5316330E+002	8.532439805101603E+001	-9.7437871E-001	-3.848815067183395E+000	3.7502034E-003	-9.7459871E-001	0
2.4119020E+002	8.552439804596361E+001	-9.7637683E-001	-4.048161390890066E+000	3.9525311E-003	-9.7659868E-001	0
2.3014058E+002	8.572439804091118E+001	-9.7837400E-001	-4.251201760302592E+000	4.1592652E-003	-9.7859865E-001	0
2.1998138E+002	8.592439803585876E+001	-9.8037040E-001	-4.456606279357480E+000	4.3691248E-003	-9.8059875E-001	0
2.1040047E+002	8.612439803080633E+001	-9.8237181E-001	-4.669057050935280E+000	4.5867502E-003	-9.8259872E-001	0
2.0160214E+002	8.632439802575391E+001	-9.8437983E-001	-4.882784455575383E+000	4.8065144E-003	-9.8459870E-001	0
1.9335408E+002	8.652439802070148E+001	-9.8636925E-001	-5.101362392340121E+000	5.0318269E-003	-9.8659867E-001	0
1.8560907E+002	8.672439801564906E+001	-9.8837423E-001	-5.325032098358179E+000	5.2631246E-003	-9.8859876E-001	0
1.7843475E+002	8.692439801059663E+001	-9.9036509E-001	-5.550292642951845E+000	5.4968162E-003	-9.9059874E-001	0
1.7161790E+002	8.712439800554421E+001	-9.9236727E-001	-5.782422649211625E+000	5.7382868E-003	-9.9259871E-001	0
1.6523901E+002	8.732439800049178E+001	-9.9440140E-001	-6.017957455649679E+000	5.9842654E-003	-9.9459869E-001	0
1.5917778E+002	8.752439799543936E+001	-9.9640089E-001	-6.259673440436117E+000	6.2371441E-003	-9.9659860E-001	0
1.5360466E+002	8.772439799038693E+001	-9.9839610E-001	-6.499777602906093E+000	6.4893528E-003	-9.9859858E-001	0
1.4830101E+002	8.792439798533451E+001	-1.0003951E+000	-6.745706441924142E+000	6.7483713E-003	-1.0005987E+000	0
1.4338416E+002	8.812439798028208E+001	-1.0023869E+000	-6.990918322552915E+000	7.0076049E-003	-1.0025988E+000	0
1.3871349E+002	8.832449797522713E+001	-1.0044017E+000	-7.240836387320570E+000	7.2727082E-003	-1.0045996E+000	0
1.3422716E+002	8.852479797016713E+001	-1.0064135E+000	-7.497837491785180E+000	7.5459247E-003	-1.0066023E+000	0
1.3010025E+002	8.872509796510712E+001	-1.0084014E+000	-7.750956193098844E+000	7.8160753E-003	-1.0086054E+000	0
1.2603979E+002	8.892519796005217E+001	-1.0103933E+000	-8.016462287732555E+000	8.0997795E-003	-1.0106068E+000	0
1.2230686E+002	8.912529795499722E+001	-1.0124193E+000	-8.277698792990407E+000	8.3805025E-003	-1.0126076E+000	0
1.1860957E+002	8.932539794994227E+001	-1.0144236E+000	-8.552628568105394E+000	8.6759888E-003	-1.0146087E+000	0
1.1515376E+002	8.952539794488985E+001	-1.0164322E+000	-8.826739250059312E+000	8.9717815E-003	-1.0166086E+000	0
1.1180566E+002	8.972549793983490E+001	-1.0184568E+000	-9.109169846811454E+000	9.2772963E-003	-1.0186094E+000	0
1.0872581E+002	8.992559793477994E+001	-1.0204247E+000	-9.385303719581657E+000	9.5769959E-003	-1.0206106E+000	0
1.0562755E+002	9.012559792972752E+001	-1.0224415E+000	-9.679686252424744E+000	9.8969126E-003	-1.0226107E+000	0
1.0271543E+002	9.032559792467509E+001	-1.0244356E+000	-9.973531669297159E+000	1.0217241E-002	-1.0246108E+000	0
9.9932831E+001	9.052559791962267E+001	-1.0264210E+000	-1.027110861373594E+001	1.0542481E-002	-1.0266106E+000	0
9.7220779E+001	9.072559791457024E+001	-1.0284163E+000	-1.057815282273188E+001	1.0878745E-002	-1.0286106E+000	0
9.4419312E+001	9.093559790926520E+001	-1.0305085E+000	-1.091417137287102E+001	1.1247147E-002	-1.0307107E+000	0
9.1543716E+001	9.114559790396015E+001	-1.0325607E+000	-1.127942756311696E+001	1.1646694E-002	-1.0328107E+000	0
8.9108566E+001	9.134559789890773E+001	-1.0345923E+000	-1.161046894445441E+001	1.2012102E-002	-1.0348107E+000	0
8.6805580E+001	9.154569789385278E+001	-1.0365970E+000	-1.194159391128224E+001	1.2378621E-002	-1.0368115E+000	0
8.4432846E+001	9.174599788879277E+001	-1.0385965E+000	-1.230085891896499E+001	1.2775629E-002	-1.0388142E+000	0
8.2196663E+001	9.194619788373529E+001	-1.0406133E+000	-1.266004343205836E+001	1.3174210E-002	-1.0408165E+000	0
8.0036797E+001	9.214649787867529E+001	-1.0426147E+000	-1.302669175823564E+001	1.3581821E-002	-1.0428194E+000	0
7.7892189E+001	9.234669787361781E+001	-1.0446216E+000	-1.341112115145373E+001	1.4009546E-002	-1.0448215E+000	0
7.5787491E+001	9.254699786855781E+001	-1.0466186E+000	-1.380991207268227E+001	1.4453711E-002	-1.0468246E+000	0
7.3756538E+001	9.274709786350286E+001	-1.0486271E+000	-1.421741305647843E+001	1.4908765E-002	-1.0488255E+000	0
7.1850136E+001	9.294749785844033E+001	-1.0506251E+000	-1.462245131472076E+001	1.5362714E-002	-1.0508293E+000	0
6.9992355E+001	9.314759785338538E+001	-1.0526384E+000	-1.503933482253905E+001	1.5830981E-002	-1.0528307E+000	0
6.8209213E+001	9.334779784832790E+001	-1.0546474E+000	-1.546195063188716E+001	1.6306907E-002	-1.0548322E+000	0
6.6521645E+001	9.354819784326537E+001	-1.0566330E+000	-1.588404722595405E+001	1.6783608E-002	-1.0568364E+000	0
6.4853302E+001	9.374849783820537E+001	-1.0586354E+000	-1.632353833220736E+001	1.7280675E-002	-1.0588394E+000	0
6.3228016E+001	9.394859783315042E+001	-1.0606382E+000	-1.677481409265340E+001	1.7792009E-002	-1.0608407E+000	0
6.1626820E+001	9.414869782809546E+001	-1.0626360E+000	-1.724307788224274E+001	1.8323116E-002	-1.0628415E+000	0
6.0200840E+001	9.434879782304051E+001	-1.0646389E+000	-1.768478452861990E+001	1.8827910E-002	-1.0648427E+000	0
5.8656063E+001	9.454889781798556E+001	-1.0666406E+000	-1.818466048485402E+001	1.9396497E-002	-1.0668435E+000	0
5.7159939E+001	9.474899781293061E+001	-1.0686340E+000	-1.869550723986278E+001	1.9978656E-002	-1.0688448E+000	0
5.5716572E+001	9.494919780787313E+001	-1.0706381E+000	-1.921579166105274E+001	2.0573158E-002	-1.0708467E+000	0
5.4285812E+001	9.514929780281818E+001	-1.0726300E+000	-1.975893910611893E+001	2.1194031E-002	-1.0728475E+000	0
5.2916832E+001	9.534949779776071E+001	-1.0746528E+000	-2.030833637148672E+001	2.1824410E-002	-1.0748495E+000	0
5.1595448E+001	9.554959779270575E+001	-1.0766354E+000	-2.086686768445304E+001	2.2466008E-002	-1.0768507E+000	0
5.0381577E+001	9.574969778765080E+001	-1.0786451E+000	-2.140951559955491E+001	2.3093270E-002	-1.0788515E+000	0
4.9175831E+001	9.594999778259080E+001	-1.0806472E+000	-2.197516994654372E+001	2.3747407E-002	-1.0808542E+000	0
4.7949459E+001	9.615019777753332E+001	-1.0826452E+000	-2.257888119615393E+001	2.4444917E-002	-1.0828568E+000	0
4.6780857E+001	9.635019777248090E+001	-1.0846561E+000	-2.318589577923558E+001	2.5148723E-002	-1.0848567E+000	0
4.5680271E+001	9.655019776742847E+001	-1.0866615E+000	-2.378841870888027E+001	2.5849957E-002	-1.0868567E+000	0
4.4550690E+001	9.675029776237352E+001	-1.0886381E+000	-2.443594244535063E+001	2.6601898E-002	-1.0888577E+000	0
4.3489567E+001	9.695039775731857E+001	-1.0906498E+000	-2.507842523886768E+001	2.7351780E-002	-1.0908587E+000	0
4.2450535E+001	9.715059775226109E+001	-1.0926577E+000	-2.573954978129842E+001	2.8124517E-002	-1.0928603E+000	0
4.1430252E+001	9.735079774720361E+001	-1.0946794E+000	-2.642222362040394E+001	2.8923864E-002	-1.0948627E+000	0
4.0441509E+001	9.755079774215119E+001	-1.0966767E+000	-2.711760192258015E+001	2.9739242E-002	-1.0968628E+000	0
3.9491871E+001	9.775099773709371E+001	-1.0986874E+000	-2.782059745899960E+001	3.0566141E-002	-1.0988647E+000	0
3.8579597E+001	9.795109773203876E+001	-1.1006777E+000	-2.853004751724728E+001	3.1402387E-002	-1.1008655E+000	0
3.7688866E+001	9.815129772698128E+001	-1.1026824E+000	-2.925751090039304E+001	3.2261740E-002	-1.1028675E+000	0
3.6913029E+001	9.835149772192381E+001	-1.1046876E+000	-2.992676621490091E+001	3.3059727E-002	-1.1048695E+000	0
3.6030125E+001	9.855169771686633E+001	-1.1066806E+000	-3.071542768713979E+001	3.3992168E-002	-1.1068715E+000	0
3.5194275E+001	9.875199771180633E+001	-1.1086782E+000	-3.150166245170732E+001	3.4925207E-002	-1.1088746E+000	0
3.4351822E+001	9.895199770675390E+001	-1.1106889E+000	-3.233275109407850E+001	3.5911627E-002	-1.1108747E+000	0
3.3577190E+001	9.915209770169895E+001	-1.1126924E+000	-3.313834087126179E+001	3.6872778E-002	-1.1128755E+000	0
3.2827568E+001	9.935229769664147E+001	-1.1147121E+000	-3.395658606963957E+001	3.7851818E-002	-1.1148775E+000	0
3.2081600E+001	9.955249769158399E+001	-1.1167040E+000	-3.480824025296647E+001	3.8870502E-002	-1.1168795E+000	0
3.1382381E+001	9.975259768652904E+001	-1.1187001E+000	-3.564739527156286E+001	3.9878745E-002	-1.1188807E+000	0
3.0646942E+001	9.995269768147409E+001	-1.1207045E+000	-3.656823361409917E+001	4.0982187E-002	-1.1208816E+000	0
3.0003323E+001	1.001527976764191E+002	-1.1227114E+000	-3.741957017650941E+001	4.2011380E-002	-1.1228826E+000	0
2.9279503E+001	1.003527976713667E+002	-1.1247028E+000	-3.841263300788648E+001	4.3202795E-002	-1.1248827E+000	0
2.8687580E+001	1.005527976663143E+002	-1.1267325E+000	-3.927596715707620E+001	4.4253506E-002	-1.1268827E+000	0
2.8036478E+001	1.007527976612619E+002	-1.1287144E+000	-4.025878046375260E+001	4.5440666E-002	-1.1288826E+000	0
2.7419847E+001	1.009527976562094E+002	-1.1307305E+000	-4.123766666177721E+001	4.6628688E-002	-1.1308827E+000	0
2.6851130E+001	1.011528976511545E+002	-1.1327171E+000	-4.218508236095329E+001	4.7783766E-002	-1.1328835E+000	0
2.6252750E+001	1.013529976460995E+002	-1.1347073E+000	-4.322241705588476E+001	4.9044795E-002	-1.1348846E+000	0
2.5680456E+001	1.015530976410446E+002	-1.1367182E+000	-4.426394020216742E+001	5.0315626E-002	-1.1368854E+000	0
2.5142626E+001	1.017531976359896E+002	-1.1387233E+000	-4.529054444663382E+001	5.1573396E-002	-1.1388868E+000	0
2.4601173E+001	1.019531976309372E+002	-1.1407229E+000	-4.636863566850593E+001	5.2893762E-002	-1.1408868E+000	0
2.4033989E+001	1.021533976258797E+002	-1.1427099E+000	-4.754557523979372E+001	5.4330796E-002	-1.1428887E+000	0
2.3468342E+001	1.023534976208248E+002	-1.1447191E+000	-4.877716145324212E+001	5.5836149E-002	-1.1448895E+000	0
2.2976000E+001	1.025535976157698E+002	-1.1467104E+000	-4.990905130179817E+001	5.7231229E-002	-1.1468908E+000	0
2.2462996E+001	1.027537976107124E+002	-1.1487314E+000	-5.113883397382835E+001	5.8744781E-002	-1.1488922E+000	0
2.1963348E+001	1.029539976056549E+002	-1.1507514E+000	-5.239416607329110E+001	6.0292657E-002	-1.1508948E+000	0
2.1469038E+001	1.031539976006025E+002	-1.1527209E+000	-5.369224774323902E+001	6.1892178E-002	-1.1528947E+000	0
2.0969967E+001	1.033539975955500E+002	-1.1547316E+000	-5.506597352676670E+001	6.3586421E-002	-1.1548947E+000	0
2.0502562E+001	1.035539975904976E+002	-1.1567397E+000	-5.641927894551191E+001	6.5262422E-002	-1.1568947E+000	0
2.0066429E+001	1.037541975854401E+002	-1.1587398E+000	-5.774519443026219E+001	6.6911653E-002	-1.1588962E+000	0
1.9656031E+001	1.039543975803826E+002	-1.1607358E+000	-5.905240174323779E+001	6.8544239E-002	-1.1608988E+000	0
1.9227465E+001	1.041543975753302E+002	-1.1627617E+000	-6.047400064317003E+001	7.0316851E-002	-1.1628988E+000	0
1.8827148E+001	1.043544975702753E+002	-1.1647923E+000	-6.186769372371975E+001	7.2063014E-002	-1.1648996E+000	0
1.8422825E+001	1.045547975652153E+002	-1.1667830E+000	-6.333355101733378E+001	7.3896512E-002	-1.1669023E+000	0
1.8027714E+001	1.047550975601553E+002	-1.1688040E+000	-6.483373929825785E+001	7.5777940E-002	-1.1689054E+000	0
1.7630079E+001	1.049554975550927E+002	-1.1708105E+000	-6.640982750930124E+001	7.7753320E-002	-1.1709094E+000	0
1.7255495E+001	1.051555975500378E+002	-1.1727937E+000	-6.796639179913086E+001	7.9710558E-002	-1.1729107E+000	0
1.6942179E+001	1.053555975449854E+002	-1.1748060E+000	-6.934208509927373E+001	8.1463501E-002	-1.1749107E+000	0
1.6566866E+001	1.055555975399329E+002	-1.1768069E+000	-7.103376924964562E+001	8.3593033E-002	-1.1769108E+000	0
1.6212797E+001	1.057555975348805E+002	-1.1788093E+000	-7.270856620016548E+001	8.5709535E-002	-1.1789107E+000	0
1.5870006E+001	1.059555975298281E+002	-1.1808152E+000	-7.440547155955457E+001	8.7859116E-002	-1.1809107E+000	0
1.5516297E+001	1.061555975247757E+002	-1.1828021E+000	-7.622965934974013E+001	9.0164602E-002	-1.1829108E+000	0
1.5169875E+001	1.063556975197207E+002	-1.1848116E+000	-7.810292136597513E+001	9.2537247E-002	-1.1849115E+000	0
1.4886738E+001	1.065558975146632E+002	-1.1868228E+000	-7.972349412185235E+001	9.4617657E-002	-1.1869135E+000	0
1.4571900E+001	1.067560975096058E+002	-1.1888133E+000	-8.158258730786321E+001	9.6986465E-002	-1.1889155E+000	0
1.4247002E+001	1.069561975045508E+002	-1.1908170E+000	-8.358369254525269E+001	9.9532880E-002	-1.1909167E+000	0
1.3993916E+001	1.071563974994933E+002	-1.1927997E+000	-8.523702196542044E+001	1.0167069E-001	-1.1929182E+000	0
1.3710303E+001	1.073566974944333E+002	-1.1948144E+000	-8.714719168727220E+001	1.0412472E-001	-1.1949215E+000	0
1.3453077E+001	1.075568974893758E+002	-1.1968015E+000	-8.896117057089009E+001	1.0646886E-001	-1.1969235E+000	0
1.3176426E+001	1.077569974843209E+002	-1.1987987E+000	-9.098056337027856E+001	1.0906738E-001	-1.1989247E+000	0
1.2905057E+001	1.079569974792685E+002	-1.2008011E+000	-9.304888475779217E+001	1.1173321E-001	-1.2009246E+000	0
1.2644668E+001	1.081569974742160E+002	-1.2028247E+000	-9.512505907428499E+001	1.1441877E-001	-1.2029247E+000	0
1.2365259E+001	1.083570974691611E+002	-1.2048086E+000	-9.743496641235333E+001	1.1739048E-001	-1.2049255E+000	0
1.2102479E+001	1.085572974641036E+002	-1.2068068E+000	-9.971566654628850E+001	1.2033755E-001	-1.2069277E+000	0
1.1850368E+001	1.087573974590487E+002	-1.2088275E+000	-1.020075886936140E+002	1.2330958E-001	-1.2089287E+000	0
1.1619118E+001	1.089573974539962E+002	-1.2108099E+000	-1.042084261911525E+002	1.2617660E-001	-1.2109287E+000	0
1.1432096E+001	1.091574974489413E+002	-1.2128154E+000	-1.060886216903257E+002	1.2866591E-001	-1.2129294E+000	0
1.1173735E+001	1.093575974438863E+002	-1.2148224E+000	-1.087212526663090E+002	1.3207701E-001	-1.2149307E+000	0
1.0955436E+001	1.095676974385788E+002	-1.2168933E+000	-1.110766651288734E+002	1.3516845E-001	-1.2170315E+000	0
1.0642407E+001	1.097777974332712E+002	-1.2189881E+000	-1.145406265172289E+002	1.3962366E-001	-1.2191328E+000	0
1.0373652E+001	1.099778974282162E+002	-1.2209960E+000	-1.177016656500969E+002	1.4371327E-001	-1.2211335E+000	0
1.0172606E+001	1.101780974231588E+002	-1.2229972E+000	-1.202245740837257E+002	1.4703432E-001	-1.2231355E+000	0
1.0047049E+001	1.103781974181038E+002	-1.2250109E+000	-1.219274368707824E+002	1.4936243E-001	-1.2251368E+000	0
9.8106136E+000	1.105782974130489E+002	-1.2270197E+000	-1.250706380312195E+002	1.5346414E-001	-1.2271376E+000	0
9.6035995E+000	1.107783974079939E+002	-1.2290188E+000	-1.279748116891128E+002	1.5728346E-001	-1.2291387E+000	0
9.4404001E+000	1.109783974029415E+002	-1.2310208E+000	-1.303992152830367E+002	1.6052414E-001	-1.2311387E+000	0
9.2497034E+000	1.111783973978891E+002	-1.2329949E+000	-1.333010267573419E+002	1.6435950E-001	-1.2331387E+000	0
9.0963125E+000	1.113785973928316E+002	-1.2350057E+000	-1.357699306895895E+002	1.6767664E-001	-1.2351407E+000	0
8.8758621E+000	1.115785973877792E+002	-1.2370170E+000	-1.393686623194858E+002	1.7240141E-001	-1.2371408E+000	0
8.7531681E+000	1.117786973827242E+002	-1.2390083E+000	-1.415497028753116E+002	1.7538126E-001	-1.2391415E+000	0
8.5544386E+000	1.119788973776667E+002	-1.2410232E+000	-1.450735935552373E+002	1.8003969E-001	-1.2411435E+000	0
8.4106455E+000	1.121789973726118E+002	-1.2430118E+000	-1.477903018819497E+002	1.8370509E-001	-1.2431446E+000	0
8.2479115E+000	1.123790973675568E+002	-1.2450265E+000	-1.509505110171240E+002	1.8793738E-001	-1.2451453E+000	0
8.1182022E+000	1.125793973624968E+002	-1.2470207E+000	-1.536079873068786E+002	1.9155234E-001	-1.2471483E+000	0
7.9962392E+000	1.127795973574393E+002	-1.2490237E+000	-1.562013897138918E+002	1.9509923E-001	-1.2491508E+000	0
7.8652673E+000	1.129796973523844E+002	-1.2510159E+000	-1.590557398526667E+002	1.9898126E-001	-1.2511516E+000	0
7.7810726E+000	1.131797973473294E+002	-1.2529948E+000	-1.610311108868134E+002	2.0177114E-001	-1.2531527E+000	0
7.6579399E+000	1.133797973422770E+002	-1.2550149E+000	-1.638841383538277E+002	2.0567703E-001	-1.2551527E+000	0
7.5988216E+000	1.135798973372221E+002	-1.2570374E+000	-1.654253063312212E+002	2.0794579E-001	-1.2571534E+000	0
7.4502606E+000	1.137799973321671E+002	-1.2590315E+000	-1.689916054072564E+002	2.1276575E-001	-1.2591547E+000	0
7.3000417E+000	1.139801973271096E+002	-1.2610316E+000	-1.727430755345781E+002	2.1783449E-001	-1.2611567E+000	0
7.1373091E+000	1.141803973220522E+002	-1.2630587E+000	-1.769656727348815E+002	2.2351803E-001	-1.2631587E+000	0
7.0517254E+000	1.143803973169997E+002	-1.2650645E+000	-1.793978677379841E+002	2.2694987E-001	-1.2651588E+000	0
6.9151683E+000	1.145804973119448E+002	-1.2670553E+000	-1.832284057036049E+002	2.3216052E-001	-1.2671596E+000	0
6.8184633E+000	1.147806973068873E+002	-1.2690673E+000	-1.861221853067605E+002	2.3620157E-001	-1.2691615E+000	0
6.7272673E+000	1.149808973018298E+002	-1.2710538E+000	-1.889405875174293E+002	2.4015366E-001	-1.2711636E+000	0
6.5868001E+000	1.151810972967724E+002	-1.2730750E+000	-1.932766955747002E+002	2.4605572E-001	-1.2731655E+000	0
6.5079017E+000	1.153812972917149E+002	-1.2750660E+000	-1.959258205231026E+002	2.4981835E-001	-1.2751675E+000	0
6.3398571E+000	1.155815972866549E+002	-1.2770616E+000	-2.014338176513820E+002	2.5724339E-001	-1.2771702E+000	0
6.2417369E+000	1.157817972815974E+002	-1.2790614E+000	-2.049207554079776E+002	2.6210624E-001	-1.2791727E+000	0
6.2150688E+000	1.159818972765424E+002	-1.2810799E+000	-2.061248160076001E+002	2.6406235E-001	-1.2811735E+000	0
6.1013546E+000	1.161819972714875E+002	-1.2830904E+000	-2.102959886386551E+002	2.6982877E-001	-1.2831748E+000	0
5.9507399E+000	1.163820972664325E+002	-1.2850879E+000	-2.159543216722032E+002	2.7752030E-001	-1.2851754E+000	0
5.9162688E+000	1.165821972613776E+002	-1.2870858E+000	-2.175502507432516E+002	2.8000584E-001	-1.2871767E+000	0
5.9088540E+000	1.167822972563226E+002	-1.2890928E+000	-2.181629124949586E+002	2.8123224E-001	-1.2891774E+000	0
5.8625197E+000	1.169825972512626E+002	-1.2910997E+000	-2.202294867507967E+002	2.8433821E-001	-1.2911801E+000	0
5.7246790E+000	1.171828972462026E+002	-1.2931089E+000	-2.258832156229605E+002	2.9209161E-001	-1.2931834E+000	0
5.5744333E+000	1.173829972411477E+002	-1.2951194E+000	-2.323320252554768E+002	3.0089772E-001	-1.2951847E+000	0
5.5316458E+000	1.175830972360927E+002	-1.2971011E+000	-2.344873761081749E+002	3.0415383E-001	-1.2971855E+000	0
5.4960232E+000	1.177831972310378E+002	-1.2991076E+000	-2.363722771452140E+002	3.0707300E-001	-1.2991867E+000	0
5.4370360E+000	1.179831972259854E+002	-1.3011127E+000	-2.393055121839184E+002	3.1136343E-001	-1.3011867E+000	0
5.3965206E+000	1.181833972209279E+002	-1.3031111E+000	-2.414724526472846E+002	3.1466544E-001	-1.3031882E+000	0
5.3421750E+000	1.183835972158704E+002	-1.3051196E+000	-2.443049224109600E+002	3.1884715E-001	-1.3051907E+000	0
5.2798939E+000	1.185836972108154E+002	-1.3071223E+000	-2.475660341635594E+002	3.2359910E-001	-1.3071916E+000	0
5.1540151E+000	1.187837972057605E+002	-1.3091360E+000	-2.540031554682719E+002	3.3252469E-001	-1.3091927E+000	0
5.0940394E+000	1.189838972007055E+002	-1.3111160E+000	-2.573823881814176E+002	3.3745816E-001	-1.3111935E+000	0
5.0249481E+000	1.191840971956481E+002	-1.3131286E+000	-2.613218169377869E+002	3.4314916E-001	-1.3131955E+000	0
5.0113273E+000	1.193842971905906E+002	-1.3151268E+000	-2.624308398541871E+002	3.4512982E-001	-1.3151975E+000	0
4.9090133E+000	1.195845971855306E+002	-1.3171332E+000	-2.683091432635426E+002	3.5339889E-001	-1.3172002E+000	0
4.8539143E+000	1.197850971804655E+002	-1.3191541E+000	-2.717712158054060E+002	3.5850814E-001	-1.3192055E+000	0
4.8247643E+000	1.199851971754106E+002	-1.3211430E+000	-2.738254016305314E+002	3.6176252E-001	-1.3212068E+000	0
4.6961255E+000	1.201854971703506E+002	-1.3231703E+000	-2.817578768706369E+002	3.7281364E-001	-1.3232094E+000	0
4.6228194E+000	1.203756971655457E+002	-1.3250611E+000	-2.866348374279551E+002	3.7980866E-001	-1.3251114E+000	0
4.5672245E+000	1.205361971614911E+002	-1.3266850E+000	-2.904794692212313E+002	3.8537475E-001	-1.3267155E+000	0
4.5288343E+000	1.206966971574366E+002	-1.3282903E+000	-2.932963020537532E+002	3.8958263E-001	-1.3283207E+000	0
4.4745402E+000	1.208573971533770E+002	-1.3298898E+000	-2.972126205641043E+002	3.9526004E-001	-1.3299276E+000	0
4.4421282E+000	1.210078971495750E+002	-1.3313857E+000	-2.997179834172573E+002	3.9904025E-001	-1.3314322E+000	0
4.4312754E+000	1.211681971455255E+002	-1.3330041E+000	-3.008172675731494E+002	4.0099066E-001	-1.3330356E+000	0
4.4031696E+000	1.213586971407130E+002	-1.3349310E+000	-3.031750263890381E+002	4.0471774E-001	-1.3349411E+000	0
4.3791618E+000	1.215191971366585E+002	-1.3365244E+000	-3.052009539484293E+002	4.0790850E-001	-1.3365459E+000	0
4.1899300E+000	1.216896971323513E+002	-1.3382154E+000	-3.193884623371264E+002	4.2741054E-001	-1.3382511E+000	0
4.2005796E+000	1.218599971280491E+002	-1.3399421E+000	-3.189898014492287E+002	4.2742786E-001	-1.3399543E+000	0
4.2139368E+000	1.220206971239895E+002	-1.3415418E+000	-3.183583149400738E+002	4.2709097E-001	-1.3415607E+000	0
4.1372995E+000	1.221909971196874E+002	-1.3432307E+000	-3.246636401678384E+002	4.3609819E-001	-1.3432641E+000	0
4.0708437E+000	1.223414971158854E+002	-1.3447386E+000	-3.303341307874825E+002	4.4421306E-001	-1.3447688E+000	0
4.0872431E+000	1.225019971118309E+002	-1.3463514E+000	-3.294033171066151E+002	4.4349262E-001	-1.3463736E+000	0
4.0925636E+000	1.226424971082815E+002	-1.3477653E+000	-3.293205531732622E+002	4.4384682E-001	-1.3477787E+000	0
4.0619564E+000	1.227928971044821E+002	-1.3492675E+000	-3.321718326644277E+002	4.4818866E-001	-1.3492830E+000	0
4.0130830E+000	1.229632971001774E+002	-1.3509854E+000	-3.366452554029784E+002	4.5480284E-001	-1.3509870E+000	0
3.9635339E+000	1.231338970958677E+002	-1.3526913E+000	-3.412841597696524E+002	4.6165210E-001	-1.3526928E+000	0
3.9502411E+000	1.232743970923184E+002	-1.3540750E+000	-3.427828587303266E+002	4.6415368E-001	-1.3540975E+000	0
3.9289570E+000	1.234248970885164E+002	-1.3555886E+000	-3.450250479886186E+002	4.6771201E-001	-1.3556029E+000	0
3.8703492E+000	1.235955970842042E+002	-1.3573173E+000	-3.506963549729116E+002	4.7600624E-001	-1.3573096E+000	0
3.8175223E+000	1.237464970803921E+002	-1.3588061E+000	-3.559392724329571E+002	4.8365247E-001	-1.3588188E+000	0
3.8077664E+000	1.239169970760850E+002	-1.3605078E+000	-3.572981444016878E+002	4.8610693E-001	-1.3605238E+000	0
3.7688556E+000	1.240775970720279E+002	-1.3621151E+000	-3.614134691741219E+002	4.9228677E-001	-1.3621299E+000	0
3.7124550E+000	1.242681970672129E+002	-1.3640304E+000	-3.674200418583839E+002	5.0117207E-001	-1.3640360E+000	0
3.6954658E+000	1.244287970631558E+002	-1.3656294E+000	-3.695419034175477E+002	5.0465733E-001	-1.3656418E+000	0
3.6701074E+000	1.245791970593564E+002	-1.3671292E+000	-3.725038623609289E+002	5.0926089E-001	-1.3671459E+000	0
3.6359434E+000	1.247196970558070E+002	-1.3685606E+000	-3.763976571900912E+002	5.1512301E-001	-1.3685508E+000	0
3.6118295E+000	1.248500970525129E+002	-1.3698461E+000	-3.792665457074590E+002	5.1953679E-001	-1.3698552E+000	0
3.6114271E+000	1.250005970487109E+002	-1.3713500E+000	-3.797252463177592E+002	5.2073622E-001	-1.3713599E+000	0
3.6049974E+000	1.251411970451591E+002	-1.3727694E+000	-3.807962092652683E+002	5.2274537E-001	-1.3727660E+000	0
3.5679893E+000	1.253015970411070E+002	-1.3743553E+000	-3.851904256094736E+002	5.2938849E-001	-1.3743699E+000	0
3.5085013E+000	1.254522970373000E+002	-1.3758644E+000	-3.921515987860766E+002	5.3954744E-001	-1.3758768E+000	0
3.4881823E+000	1.255930970337431E+002	-1.3772769E+000	-3.948408513906306E+002	5.4380518E-001	-1.3772846E+000	0
3.5108900E+000	1.257336970301913E+002	-1.3786844E+000	-3.926880120968008E+002	5.4139286E-001	-1.3786907E+000	0
3.4969404E+000	1.258639970268996E+002	-1.3799509E+000	-3.946166514634542E+002	5.4455161E-001	-1.3799939E+000	0
3.4712877E+000	1.259843970238580E+002	-1.3811820E+000	-3.978874930442744E+002	5.4955500E-001	-1.3811979E+000	0
3.4512677E+000	1.261247970203112E+002	-1.3825952E+000	-4.006050085723509E+002	5.5387455E-001	-1.3826016E+000	0
3.4506154E+000	1.262552970170145E+002	-1.3839058E+000	-4.010605763638117E+002	5.5503005E-001	-1.3839066E+000	0
3.4193070E+000	1.263758970139679E+002	-1.3851024E+000	-4.050827850548776E+002	5.6108111E-001	-1.3851130E+000	0
3.3966060E+000	1.265062970106737E+002	-1.3864043E+000	-4.081734180173817E+002	5.6589335E-001	-1.3864170E+000	0
3.3849883E+000	1.266666970066217E+002	-1.3880398E+000	-4.100574858861009E+002	5.6917614E-001	-1.3880208E+000	0
3.3501444E+000	1.268571970018093E+002	-1.3899561E+000	-4.148943890709588E+002	5.7668501E-001	-1.3899258E+000	0
3.3375607E+000	1.270177969977522E+002	-1.3915559E+000	-4.169380192141063E+002	5.8019257E-001	-1.3915321E+000	0
3.3256962E+000	1.271579969942104E+002	-1.3929520E+000	-4.188452239077451E+002	5.8343130E-001	-1.3929337E+000	0
3.2742305E+000	1.272982969906661E+002	-1.3943391E+000	-4.258524577761991E+002	5.9378272E-001	-1.3943368E+000	0
3.2476504E+000	1.274586969866141E+002	-1.3959737E+000	-4.298411166959449E+002	6.0004687E-001	-1.3959411E+000	0
3.2495322E+000	1.276090969828147E+002	-1.3974712E+000	-4.300530373065653E+002	6.0098672E-001	-1.3974445E+000	0
3.2370131E+000	1.277695969787601E+002	-1.3990891E+000	-4.322160887731170E+002	6.0470879E-001	-1.3990502E+000	0
3.0941114E+000	1.279300969747055E+002	-1.4006590E+000	-4.526853651384563E+002	6.3405782E-001	-1.4006550E+000	0
3.0538783E+000	1.280902969706585E+002	-1.4022821E+000	-4.591807295060571E+002	6.4390093E-001	-1.4022571E+000	0
3.0541947E+000	1.282406969668591E+002	-1.4037993E+000	-4.596299211520382E+002	6.4522815E-001	-1.4037606E+000	0
3.0257485E+000	1.283713969635573E+002	-1.4051074E+000	-4.643834112532986E+002	6.5250856E-001	-1.4050679E+000	0
3.0052037E+000	1.285219969597529E+002	-1.4066049E+000	-4.680563986472289E+002	6.5837044E-001	-1.4065738E+000	0
2.9939835E+000	1.287023969551956E+002	-1.4084306E+000	-4.704202939151064E+002	6.6255432E-001	-1.4083780E+000	0
2.9891524E+000	1.288429969516437E+002	-1.4098134E+000	-4.716432095360506E+002	6.6492891E-001	-1.4097838E+000	0
2.9992087E+000	1.289833969480969E+002	-1.4112152E+000	-4.705291879140723E+002	6.6401792E-001	-1.4111878E+000	0
2.9723637E+000	1.291140969447952E+002	-1.4125209E+000	-4.752180462473335E+002	6.7125541E-001	-1.4124948E+000	0
2.9665227E+000	1.292643969409983E+002	-1.4140362E+000	-4.766645451964882E+002	6.7402089E-001	-1.4139981E+000	0
2.9562674E+000	1.294247969369462E+002	-1.4156454E+000	-4.788624197590816E+002	6.7789936E-001	-1.4156021E+000	0
2.9548204E+000	1.296052969323864E+002	-1.4174429E+000	-4.797052690825976E+002	6.7995483E-001	-1.4174072E+000	0
2.9467025E+000	1.297758969280767E+002	-1.4191501E+000	-4.816061795485803E+002	6.8347144E-001	-1.4191129E+000	0
2.9392152E+000	1.299265969242697E+002	-1.4206698E+000	-4.833500502682045E+002	6.8668079E-001	-1.4206197E+000	0
2.9164257E+000	1.300869969202176E+002	-1.4222802E+000	-4.876791955504134E+002	6.9361645E-001	-1.4222239E+000	0
2.8728902E+000	1.302574969159105E+002	-1.4239709E+000	-4.956579738848131E+002	7.0580256E-001	-1.4239287E+000	0
2.8390343E+000	1.303980969123586E+002	-1.4253898E+000	-5.020685336049719E+002	7.1564335E-001	-1.4253350E+000	0
2.8142726E+000	1.305485969085566E+002	-1.4268770E+000	-5.070144872466817E+002	7.2344732E-001	-1.4268398E+000	0
2.8070447E+000	1.306890969050073E+002	-1.4282928E+000	-5.088243742658008E+002	7.2675020E-001	-1.4282448E+000	0
2.7870955E+000	1.308497969009477E+002	-1.4299049E+000	-5.130448014188582E+002	7.3360527E-001	-1.4298519E+000	0
2.7503955E+000	1.310399968961428E+002	-1.4318217E+000	-5.205875430420692E+002	7.4538857E-001	-1.4317545E+000	0
2.7357688E+000	1.312399968910904E+002	-1.4337955E+000	-5.240923469223407E+002	7.5144124E-001	-1.4337546E+000	0
2.7360003E+000	1.314199968865432E+002	-1.4356009E+000	-5.247078788628919E+002	7.5327110E-001	-1.4355540E+000	0
2.7425754E+000	1.315700968827514E+002	-1.4370910E+000	-5.239932634451579E+002	7.5302601E-001	-1.4370551E+000	0
2.7285488E+000	1.317599968779541E+002	-1.4390044E+000	-5.273881970187167E+002	7.5891393E-001	-1.4389545E+000	0
2.7436378E+000	1.319499968731543E+002	-1.4409032E+000	-5.251798104434508E+002	7.5673324E-001	-1.4408542E+000	0
2.7653952E+000	1.321399968683545E+002	-1.4427979E+000	-5.217330140094346E+002	7.5275528E-001	-1.4427545E+000	0
2.7239611E+000	1.323399968633021E+002	-1.4447798E+000	-5.303966062982589E+002	7.6630628E-001	-1.4447545E+000	0
2.6424713E+000	1.325199968587549E+002	-1.4465942E+000	-5.474399009590015E+002	7.9192340E-001	-1.4465542E+000	0
2.6479928E+000	1.326899968544603E+002	-1.4483031E+000	-5.469437339145670E+002	7.9214031E-001	-1.4482542E+000	0
2.6541014E+000	1.328799968496605E+002	-1.4502003E+000	-5.463997237060612E+002	7.9238904E-001	-1.4501544E+000	0
2.6609991E+000	1.330699968448607E+002	-1.4521266E+000	-5.457072833592765E+002	7.9243606E-001	-1.4520543E+000	0
2.6667926E+000	1.332399968405662E+002	-1.4538535E+000	-5.451693162050356E+002	7.9259634E-001	-1.4537542E+000	0
2.6736290E+000	1.333900968367743E+002	-1.4553535E+000	-5.443363419603556E+002	7.9220182E-001	-1.4552553E+000	0
2.6401849E+000	1.335499968327349E+002	-1.4569123E+000	-5.518220686040240E+002	8.0395633E-001	-1.4568540E+000	0
2.5826194E+000	1.337099968286930E+002	-1.4585158E+000	-5.647427973498426E+002	8.2368630E-001	-1.4584541E+000	0
2.5442672E+000	1.338600968249011E+002	-1.4600255E+000	-5.738491392363867E+002	8.3783442E-001	-1.4599551E+000	0
2.5187616E+000	1.340299968206091E+002	-1.4617243E+000	-5.803344909833868E+002	8.4828901E-001	-1.4616543E+000	0
2.4684603E+000	1.341899968165671E+002	-1.4633075E+000	-5.928016930887770E+002	8.6745119E-001	-1.4632541E+000	0
2.4716315E+000	1.343499968125252E+002	-1.4649259E+000	-5.926959123780125E+002	8.6825556E-001	-1.4648544E+000	0
2.4361999E+000	1.344800968092386E+002	-1.4662358E+000	-6.018536159456726E+002	8.8245928E-001	-1.4661553E+000	0
2.4341040E+000	1.345111968084530E+002	-1.4667100E+000	-6.025666748046879E+002	8.8379055E-001	-1.4666542E+000	1