EC-Lab ASCII FILE
Nb header lines : 61                          

Linear Sweep Voltammetry

Run on channel : 1 (SN 1340)
User : 
Electrode connection : standard
Potential control : Ewe
Ewe ctrl range : min = -5.00 V, max = 5.00 V
Ewe,I filtering : <None>
Channel : Grounded
Acquisition started on : 02/16/2026 18:04:44.348
Technique started on : 02/16/2026 18:04:47.188
Loaded Setting File :  C:\Users\volt\Documents\Platalytix\PtPd_40_CoNi_2_12.mps
Saved on :
	File : PtPdNiCoCrX22_02_LSV_C01.mpr
	Directory : C:\Users\volt\Documents\Platalytix\
	Host : 127.0.0.1
Device : SP-200 (SN 0262)
Address : USB
EC-LAB for windows v11.60 (software)
Internet server v11.60 (firmware)
Command interpretor v11.60 (firmware)
Electrode material : Pt_40
Initial state : 
Electrolyte : KOH (1M)
Comments : 
Cable : standard
Reference electrode : Hg/HgO (0.140 V)
Electrode surface area : 1.000 cm˛
Characteristic mass : 0.001 g
Equivalent Weight : 0.000 g/eq.
Density : 0.000 g/cm3
Volume (V) : 0.001 cmł
Cycle Definition : Charge/Discharge alternance
tR (h:m:s)          0:00:5.0000         
dER/dt (mV/h)       0.0                 
dER (mV)            0                   
dtR (s)             0.0000              
dE/dt               10.000              
dE/dt unit          mV/s                
Ei (V)              -0.200              
vs.                 Ref                 
EL (V)              -2.500              
vs.                 Ref                 
record              <I>                 
dI                  0.000               
unit dI             µA                  
tI (s)              0.0000              
step percent        50                  
N                   10                  
E range min (V)     -5.000              
E range max (V)     5.000               
I Range             Auto                
I Range min         Unset               
I Range max         Unset               
I Range init        Unset               
Bandwidth           8                   

Rwe/Ohm	time/s	Ewe/V	<I>/mA	Pwe/W	control/V	error	
0.0000000E+000	2.840400134882657E+000	-1.5598895E-001	0.000000000000000E+000	0.0000000E+000	0.0000000E+000	0
0.0000000E+000	7.840200008577085E+000	-4.8411198E-002	0.000000000000000E+000	0.0000000E+000	-1.9998236E-001	0
3.7138123E+003	8.040200003524660E+000	-2.0168175E-001	5.430585511843674E-002	-1.0952500E-005	-2.0188214E-001	0
2.2909382E+003	8.160200000493205E+000	-2.0292053E-001	-8.857529169323897E-002	1.7973745E-005	-2.0308220E-001	0
2.1113630E+003	8.370199995188159E+000	-2.0502919E-001	-9.710749873971747E-002	1.9909872E-005	-2.0518219E-001	0
2.2541719E+003	8.570199990135734E+000	-2.0699807E-001	-9.182887821661057E-002	1.9008399E-005	-2.0718220E-001	0
2.4024250E+003	8.770199985083309E+000	-2.0903951E-001	-8.701187987176207E-002	1.8188921E-005	-2.0918219E-001	0
2.5370972E+003	8.970199980030884E+000	-2.1105781E-001	-8.318869700199183E-002	1.7557624E-005	-2.1118219E-001	0
2.6609370E+003	9.170199974978459E+000	-2.1304196E-001	-8.006275966689569E-002	1.7056727E-005	-2.1318220E-001	0
2.7773865E+003	9.370199969926034E+000	-2.1505031E-001	-7.742902126887619E-002	1.6651135E-005	-2.1518219E-001	0
2.8853335E+003	9.570199964873609E+000	-2.1702892E-001	-7.521796809739578E-002	1.6324475E-005	-2.1718219E-001	0
2.9882642E+003	9.770199959821184E+000	-2.1901201E-001	-7.329071186801794E-002	1.6051546E-005	-2.1918221E-001	0
3.0851772E+003	9.970199954768759E+000	-2.2105831E-001	-7.165173461920467E-002	1.5839210E-005	-2.2118220E-001	0
3.1793442E+003	1.017019994971633E+001	-2.2306556E-001	-7.016087148091466E-002	1.5650474E-005	-2.2318219E-001	0
3.2681260E+003	1.037019994466391E+001	-2.2505720E-001	-6.886429940255301E-002	1.5498406E-005	-2.2518221E-001	0
3.3536953E+003	1.057019993961148E+001	-2.2702371E-001	-6.769359675595055E-002	1.5368050E-005	-2.2718216E-001	0
3.4374158E+003	1.077019993455906E+001	-2.2903986E-001	-6.663141282942653E-002	1.5261250E-005	-2.2918220E-001	0
3.5200908E+003	1.097019992950663E+001	-2.3106837E-001	-6.564273166389989E-002	1.5167959E-005	-2.3118220E-001	0
3.5984136E+003	1.117019992445421E+001	-2.3310409E-001	-6.477968472577733E-002	1.5100410E-005	-2.3318219E-001	0
3.6718936E+003	1.137019991940178E+001	-2.3501863E-001	-6.400474725457972E-002	1.5042307E-005	-2.3518220E-001	0
3.7523418E+003	1.157019991434936E+001	-2.3712671E-001	-6.319432589806195E-002	1.4985062E-005	-2.3718220E-001	0
3.8242046E+003	1.177019990929693E+001	-2.3902489E-001	-6.250316408766943E-002	1.4939812E-005	-2.3918220E-001	0
3.8964058E+003	1.197019990424451E+001	-2.4102752E-001	-6.185893833694234E-002	1.4909707E-005	-2.4118218E-001	0
3.9680940E+003	1.217019989919208E+001	-2.4301314E-001	-6.124177987818222E-002	1.4882557E-005	-2.4318221E-001	0
4.0396262E+003	1.237019989413966E+001	-2.4504524E-001	-6.066037719127406E-002	1.4864537E-005	-2.4518217E-001	0
4.1156714E+003	1.257019988908723E+001	-2.4709921E-001	-6.003861739500793E-002	1.4835495E-005	-2.4718218E-001	0
4.1802681E+003	1.277019988403481E+001	-2.4903560E-001	-5.957407241290147E-002	1.4836065E-005	-2.4918221E-001	0
4.2496011E+003	1.297019987898238E+001	-2.5105414E-001	-5.907710869068028E-002	1.4831553E-005	-2.5118217E-001	0
4.3185620E+003	1.317019987392996E+001	-2.5307646E-001	-5.860202325256697E-002	1.4830793E-005	-2.5318220E-001	0
4.3878765E+003	1.337019986887753E+001	-2.5503641E-001	-5.812296752929869E-002	1.4823473E-005	-2.5518218E-001	0
4.4555693E+003	1.357019986382511E+001	-2.5707212E-001	-5.769680785500964E-002	1.4832241E-005	-2.5718218E-001	0
4.5173701E+003	1.377019985877268E+001	-2.5906456E-001	-5.734853496798253E-002	1.4856972E-005	-2.5918218E-001	0
4.5896689E+003	1.397019985372026E+001	-2.6111555E-001	-5.689202433466800E-002	1.4855393E-005	-2.6118219E-001	0
4.6504614E+003	1.417019984866783E+001	-2.6302710E-001	-5.655935610108120E-002	1.4876644E-005	-2.6318219E-001	0
4.7181284E+003	1.437019984361541E+001	-2.6504755E-001	-5.617641976426291E-002	1.4889422E-005	-2.6518220E-001	0
4.7871445E+003	1.457019983856299E+001	-2.6704377E-001	-5.578351954511362E-002	1.4896641E-005	-2.6718220E-001	0
4.8443477E+003	1.477019983351056E+001	-2.6905614E-001	-5.554021918954000E-002	1.4943437E-005	-2.6918218E-001	0
4.9089922E+003	1.497019982845814E+001	-2.7104303E-001	-5.521358202407925E-002	1.4965257E-005	-2.7118221E-001	0
4.9748984E+003	1.517019982340571E+001	-2.7306071E-001	-5.488769780705055E-002	1.4987673E-005	-2.7318218E-001	0
5.0420586E+003	1.537019981835329E+001	-2.7507329E-001	-5.455574885173342E-002	1.5006829E-005	-2.7518219E-001	0
5.0983501E+003	1.557019981330086E+001	-2.7704322E-001	-5.433977908948995E-002	1.5054467E-005	-2.7718219E-001	0
5.1651313E+003	1.577019980824844E+001	-2.7903882E-001	-5.402356840706019E-002	1.5074673E-005	-2.7918220E-001	0
5.2222847E+003	1.597019980319601E+001	-2.8104356E-001	-5.381620992524178E-002	1.5124700E-005	-2.8118220E-001	0
5.2896045E+003	1.617019979814359E+001	-2.8301412E-001	-5.350383234478540E-002	1.5142340E-005	-2.8318220E-001	0
5.3459829E+003	1.637019979309116E+001	-2.8502819E-001	-5.331632811227655E-002	1.5196656E-005	-2.8518218E-001	0
5.4079941E+003	1.657019978803874E+001	-2.8706452E-001	-5.308151337246309E-002	1.5237819E-005	-2.8718221E-001	0
5.4721367E+003	1.677019978298631E+001	-2.8903785E-001	-5.281992409222003E-002	1.5266958E-005	-2.8918219E-001	0
5.5322705E+003	1.697019977793389E+001	-2.9106146E-001	-5.261157232267011E-002	1.5313200E-005	-2.9118219E-001	0
5.5973511E+003	1.717019977288146E+001	-2.9302096E-001	-5.234993636489861E-002	1.5339629E-005	-2.9318216E-001	0
5.6544180E+003	1.737019976782904E+001	-2.9505438E-001	-5.218120909226287E-002	1.5396294E-005	-2.9518220E-001	0
5.7147666E+003	1.757019976277661E+001	-2.9703215E-001	-5.197624972537840E-002	1.5438616E-005	-2.9718220E-001	0
5.7708115E+003	1.777019975772419E+001	-2.9905173E-001	-5.182143493213365E-002	1.5497289E-005	-2.9918218E-001	0
5.8352686E+003	1.797019975267176E+001	-3.0101401E-001	-5.158528869141699E-002	1.5527894E-005	-3.0118221E-001	0
5.8909355E+003	1.817019974761934E+001	-3.0304232E-001	-5.144213682595988E-002	1.5589145E-005	-3.0318218E-001	0
5.9537339E+003	1.837019974256691E+001	-3.0501923E-001	-5.123158659027860E-002	1.5626620E-005	-3.0518219E-001	0
6.0156060E+003	1.857019973751449E+001	-3.0702949E-001	-5.103882924440284E-002	1.5670426E-005	-3.0718219E-001	0
6.0717520E+003	1.877019973246206E+001	-3.0905226E-001	-5.090001592087379E-002	1.5730764E-005	-3.0918220E-001	0
6.1294644E+003	1.897019972740964E+001	-3.1105527E-001	-5.074754526971681E-002	1.5785292E-005	-3.1118217E-001	0
6.1918462E+003	1.917019972235721E+001	-3.1304345E-001	-5.055736925066467E-002	1.5826654E-005	-3.1318220E-001	0
6.2416138E+003	1.937019971730479E+001	-3.1503057E-001	-5.047261651949614E-002	1.5900418E-005	-3.1518218E-001	0
6.2974136E+003	1.957019971225236E+001	-3.1701300E-001	-5.034018836888055E-002	1.5958494E-005	-3.1718218E-001	0
6.3613833E+003	1.977019970719994E+001	-3.1904212E-001	-5.015294470712328E-002	1.6000902E-005	-3.1918219E-001	0
6.4151670E+003	1.997019970214751E+001	-3.2098854E-001	-5.003588102111700E-002	1.6060943E-005	-3.2118219E-001	0
6.4757988E+003	2.017019969709509E+001	-3.2305095E-001	-4.988588230281055E-002	1.6115682E-005	-3.2318220E-001	0
6.5321011E+003	2.037019969204266E+001	-3.2509154E-001	-4.976829486875853E-002	1.6179252E-005	-3.2518217E-001	0
6.5868516E+003	2.057019968699024E+001	-3.2703260E-001	-4.964930366232667E-002	1.6236942E-005	-3.2718223E-001	0
6.6469395E+003	2.077019968193781E+001	-3.2905260E-001	-4.950437720130085E-002	1.6289543E-005	-3.2918218E-001	0
6.7027378E+003	2.097019967688539E+001	-3.3103341E-001	-4.938778884512440E-002	1.6349008E-005	-3.3118221E-001	0
6.7581289E+003	2.117019967183296E+001	-3.3304447E-001	-4.928057279243504E-002	1.6412621E-005	-3.3318219E-001	0
6.8077720E+003	2.137019966678054E+001	-3.3505639E-001	-4.921674873107551E-002	1.6490387E-005	-3.3518219E-001	0
6.8666743E+003	2.157019966172811E+001	-3.3704206E-001	-4.908373971763236E-002	1.6543285E-005	-3.3718219E-001	0
6.9237544E+003	2.177019965667569E+001	-3.3903679E-001	-4.896718798503019E-002	1.6601678E-005	-3.3918220E-001	0
6.9845732E+003	2.197019965162326E+001	-3.4106380E-001	-4.883101450457816E-002	1.6654491E-005	-3.4118220E-001	0
7.0375220E+003	2.217019964657084E+001	-3.4306172E-001	-4.874751640113095E-002	1.6723407E-005	-3.4318221E-001	0
7.0900801E+003	2.237019964151841E+001	-3.4502336E-001	-4.866283104433983E-002	1.6789814E-005	-3.4518218E-001	0
7.1440220E+003	2.257019963646599E+001	-3.4704912E-001	-4.857895423102765E-002	1.6859283E-005	-3.4718218E-001	0
7.1947905E+003	2.277019963141356E+001	-3.4905529E-001	-4.851500513512519E-002	1.6934418E-005	-3.4918222E-001	0
7.2554634E+003	2.297019962636114E+001	-3.5104394E-001	-4.838339302951772E-002	1.6984697E-005	-3.5118219E-001	0
7.3066680E+003	2.317019962130871E+001	-3.5304359E-001	-4.831800136483932E-002	1.7058361E-005	-3.5318217E-001	0
7.3621934E+003	2.337019961625629E+001	-3.5504532E-001	-4.822548176901087E-002	1.7122231E-005	-3.5518220E-001	0
7.4181250E+003	2.357019961120386E+001	-3.5704708E-001	-4.813171532469662E-002	1.7185288E-005	-3.5718220E-001	0
7.4638701E+003	2.377019960615144E+001	-3.5906413E-001	-4.810696471743307E-002	1.7273485E-005	-3.5918218E-001	0
7.5165342E+003	2.397019960109901E+001	-3.6104080E-001	-4.803288349794120E-002	1.7341830E-005	-3.6118221E-001	0
7.5628496E+003	2.417019959604659E+001	-3.6300990E-001	-4.799909086537896E-002	1.7424145E-005	-3.6318222E-001	0
7.6311963E+003	2.437019959099416E+001	-3.6504817E-001	-4.783629655839070E-002	1.7462553E-005	-3.6518222E-001	0
7.6785894E+003	2.457019958594174E+001	-3.6699328E-001	-4.779436037920048E-002	1.7540209E-005	-3.6718220E-001	0
7.7318765E+003	2.477019958088931E+001	-3.6903280E-001	-4.772874939043181E-002	1.7613474E-005	-3.6918223E-001	0
7.7672549E+003	2.497019957583689E+001	-3.7096751E-001	-4.776043959343146E-002	1.7717572E-005	-3.7118220E-001	0
7.8291816E+003	2.517019957078446E+001	-3.7307346E-001	-4.765165411516636E-002	1.7777567E-005	-3.7318218E-001	0
7.8807334E+003	2.537019956573204E+001	-3.7504125E-001	-4.758963660788973E-002	1.7848077E-005	-3.7518218E-001	0
7.9346885E+003	2.557019956067961E+001	-3.7700674E-001	-4.751374082092841E-002	1.7913000E-005	-3.7718219E-001	0
7.9805908E+003	2.577019955562719E+001	-3.7903139E-001	-4.749415288499792E-002	1.8001774E-005	-3.7918222E-001	0
8.0293213E+003	2.597019955057476E+001	-3.8103592E-001	-4.745555880807895E-002	1.8082274E-005	-3.8118219E-001	0
8.0877402E+003	2.617019954552234E+001	-3.8306126E-001	-4.736320055807952E-002	1.8143008E-005	-3.8318220E-001	0
8.1340522E+003	2.637019954046991E+001	-3.8504770E-001	-4.733774652720413E-002	1.8227291E-005	-3.8518223E-001	0
8.1800288E+003	2.657019953541749E+001	-3.8704926E-001	-4.731636753626800E-002	1.8313765E-005	-3.8718221E-001	0
8.2282959E+003	2.677019953036506E+001	-3.8904804E-001	-4.728172881034554E-002	1.8394863E-005	-3.8918218E-001	0
8.2749355E+003	2.697019952531264E+001	-3.9103180E-001	-4.725496666986362E-002	1.8478195E-005	-3.9118221E-001	0
8.3283770E+003	2.717019952026021E+001	-3.9296630E-001	-4.718402088667290E-002	1.8541730E-005	-3.9318219E-001	0
8.3784502E+003	2.737019951520779E+001	-3.9505291E-001	-4.715106967000335E-002	1.8627168E-005	-3.9518222E-001	0
8.4273027E+003	2.757019951015536E+001	-3.9703473E-001	-4.711290964299220E-002	1.8705461E-005	-3.9718226E-001	0
8.4692988E+003	2.777019950510294E+001	-3.9901119E-001	-4.711265845040524E-002	1.8798479E-005	-3.9918223E-001	0
8.5212402E+003	2.797019950005051E+001	-4.0105692E-001	-4.706555815775759E-002	1.8875968E-005	-4.0118220E-001	0
8.5636816E+003	2.817019949499809E+001	-4.0302598E-001	-4.706223248588565E-002	1.8967303E-005	-4.0318224E-001	0
8.6138164E+003	2.837019948994566E+001	-4.0499571E-001	-4.701698679253119E-002	1.9041678E-005	-4.0518218E-001	0
8.6603701E+003	2.857019948489324E+001	-4.0702143E-001	-4.699815651549732E-002	1.9129257E-005	-4.0718222E-001	0
8.6968008E+003	2.877019947984081E+001	-4.0902764E-001	-4.703196429894585E-002	1.9237374E-005	-4.0918225E-001	0
8.7558818E+003	2.897019947478839E+001	-4.1105953E-001	-4.694667586617496E-002	1.9297879E-005	-4.1118225E-001	0
8.7871113E+003	2.917019946973596E+001	-4.1302437E-001	-4.700342704522953E-002	1.9413561E-005	-4.1318220E-001	0
8.8349707E+003	2.937019946468354E+001	-4.1507134E-001	-4.698050153402689E-002	1.9500259E-005	-4.1518223E-001	0
8.8875508E+003	2.957019945963111E+001	-4.1703933E-001	-4.692398753178746E-002	1.9569148E-005	-4.1718221E-001	0
8.9289971E+003	2.977019945457869E+001	-4.1906828E-001	-4.693341062693557E-002	1.9668303E-005	-4.1918221E-001	0
8.9721689E+003	2.997019944952626E+001	-4.2101654E-001	-4.692472125294812E-002	1.9756084E-005	-4.2118222E-001	0
9.0243057E+003	3.017019944447384E+001	-4.2304838E-001	-4.687877339569649E-002	1.9831989E-005	-4.2318225E-001	0
9.0622314E+003	3.037019943942141E+001	-4.2508096E-001	-4.690687367064315E-002	1.9939218E-005	-4.2518219E-001	0
9.1120449E+003	3.057019943436899E+001	-4.2703918E-001	-4.686535187456289E-002	2.0013342E-005	-4.2718223E-001	0
9.1521631E+003	3.077019942931656E+001	-4.2902443E-001	-4.687683408063048E-002	2.0111307E-005	-4.2918220E-001	0
9.1994619E+003	3.097019942426414E+001	-4.3108660E-001	-4.685997815017073E-002	2.0200709E-005	-4.3118224E-001	0
9.2360732E+003	3.117019941921171E+001	-4.3307608E-001	-4.688963513317679E-002	2.0306779E-005	-4.3318221E-001	0
9.2789258E+003	3.137019941415929E+001	-4.3503430E-001	-4.688412618961679E-002	2.0396203E-005	-4.3518218E-001	0
9.3308330E+003	3.157019940910686E+001	-4.3708980E-001	-4.684360116554420E-002	2.0474859E-005	-4.3718222E-001	0
9.3688652E+003	3.177019940405444E+001	-4.3907690E-001	-4.686553764913046E-002	2.0577574E-005	-4.3918222E-001	0
9.4075469E+003	3.197019939900201E+001	-4.4106233E-001	-4.688388171400920E-002	2.0678714E-005	-4.4118223E-001	0
9.4521807E+003	3.217019939394959E+001	-4.4308090E-001	-4.687605152311036E-002	2.0769883E-005	-4.4318223E-001	0
9.4903105E+003	3.237019938889716E+001	-4.4506371E-001	-4.689664416471317E-002	2.0871994E-005	-4.4518223E-001	0
9.5355439E+003	3.257019938384474E+001	-4.4704574E-001	-4.688203847431727E-002	2.0958416E-005	-4.4718218E-001	0
9.5743945E+003	3.277019937879231E+001	-4.4910675E-001	-4.690706354588083E-002	2.1066278E-005	-4.4918221E-001	0
9.6335986E+003	3.297019937373989E+001	-4.5113224E-001	-4.682904683093625E-002	2.1126092E-005	-4.5118225E-001	0
9.6517422E+003	3.317019936868746E+001	-4.5310217E-001	-4.694511555663206E-002	2.1270935E-005	-4.5318222E-001	0
9.7001914E+003	3.337019936363504E+001	-4.5510820E-001	-4.691744262385336E-002	2.1352513E-005	-4.5518219E-001	0
9.7480664E+003	3.357019935858261E+001	-4.5706579E-001	-4.688784090908733E-002	2.1430827E-005	-4.5718223E-001	0
9.7878213E+003	3.377019935353019E+001	-4.5912397E-001	-4.690767664545747E-002	2.1536438E-005	-4.5918220E-001	0
9.8182324E+003	3.397019934847776E+001	-4.6109623E-001	-4.696326303879736E-002	2.1654583E-005	-4.6118221E-001	0
9.8663359E+003	3.417019934342534E+001	-4.6312714E-001	-4.694013418144016E-002	2.1739250E-005	-4.6318224E-001	0
9.8902148E+003	3.437019933837291E+001	-4.6509677E-001	-4.702595291715189E-002	2.1871620E-005	-4.6518224E-001	0
9.9427949E+003	3.457019933332049E+001	-4.6706668E-001	-4.697539227568004E-002	2.1940641E-005	-4.6718219E-001	0
9.9843330E+003	3.477019932826806E+001	-4.6904492E-001	-4.697809498487859E-002	2.2034837E-005	-4.6918222E-001	0
1.0030347E+004	3.497019932321564E+001	-4.7108850E-001	-4.696632465484912E-002	2.2125296E-005	-4.7118226E-001	0
1.0066475E+004	3.517019931816321E+001	-4.7308934E-001	-4.699652818482503E-002	2.2233557E-005	-4.7318220E-001	0
1.0101294E+004	3.537019931311079E+001	-4.7507167E-001	-4.703077367694863E-002	2.2342989E-005	-4.7518221E-001	0
1.0139563E+004	3.557019930805836E+001	-4.7707251E-001	-4.705059662109667E-002	2.2446546E-005	-4.7718224E-001	0
1.0173497E+004	3.577019930300594E+001	-4.7906172E-001	-4.708919002460166E-002	2.2558628E-005	-4.7918227E-001	0
1.0218592E+004	3.597019929795351E+001	-4.8107946E-001	-4.707883946257574E-002	2.2648663E-005	-4.8118222E-001	0
1.0248185E+004	3.617019929290109E+001	-4.8306382E-001	-4.713652588457690E-002	2.2769949E-005	-4.8318222E-001	0
1.0292041E+004	3.637019928784866E+001	-4.8509401E-001	-4.713292520249346E-002	2.2863900E-005	-4.8518223E-001	0
1.0328533E+004	3.657019928279624E+001	-4.8707110E-001	-4.715781653819440E-002	2.2969209E-005	-4.8718220E-001	0
1.0374218E+004	3.677019927774381E+001	-4.8908007E-001	-4.714380336482971E-002	2.3057095E-005	-4.8918223E-001	0
1.0411665E+004	3.697019927269139E+001	-4.9106172E-001	-4.716457325311540E-002	2.3160716E-005	-4.9118227E-001	0
1.0435826E+004	3.717019926763896E+001	-4.9308488E-001	-4.724924219455429E-002	2.3297887E-005	-4.9318224E-001	0
1.0488233E+004	3.737019926258654E+001	-4.9508470E-001	-4.720382418830901E-002	2.3369892E-005	-4.9518222E-001	0
1.0515716E+004	3.757019925753411E+001	-4.9707967E-001	-4.727016838638076E-002	2.3497039E-005	-4.9718222E-001	0
1.0557198E+004	3.777019925248169E+001	-4.9907446E-001	-4.727338043003515E-002	2.3592936E-005	-4.9918222E-001	0
1.0604779E+004	3.797019924742926E+001	-5.0108105E-001	-4.725049259991099E-002	2.3676326E-005	-5.0118220E-001	0
1.0632959E+004	3.817019924237684E+001	-5.0308239E-001	-4.731348912361501E-002	2.3802584E-005	-5.0318223E-001	0
1.0655221E+004	3.837019923732441E+001	-5.0509244E-001	-4.740328512200964E-002	2.3943041E-005	-5.0518227E-001	0
1.0714966E+004	3.857019923227199E+001	-5.0710356E-001	-4.732666284272502E-002	2.3999519E-005	-5.0718224E-001	0
1.0739556E+004	3.877019922721956E+001	-5.0907499E-001	-4.740186564966442E-002	2.4131105E-005	-5.0918221E-001	0
1.0791800E+004	3.897019922216714E+001	-5.1113087E-001	-4.736289239721914E-002	2.4208637E-005	-5.1118225E-001	0
1.0821646E+004	3.917019921711471E+001	-5.1303774E-001	-4.740847160093609E-002	2.4322335E-005	-5.1318228E-001	0
1.0846412E+004	3.937019921206229E+001	-5.1506078E-001	-4.748674408799830E-002	2.4458559E-005	-5.1518220E-001	0
1.0881713E+004	3.957019920700986E+001	-5.1706630E-001	-4.751699617345850E-002	2.4569437E-005	-5.1718217E-001	0
1.0930235E+004	3.977019920195744E+001	-5.1909220E-001	-4.749140213850833E-002	2.4652416E-005	-5.1918226E-001	0
1.0972548E+004	3.997019919690501E+001	-5.2110761E-001	-4.749194418197389E-002	2.4748413E-005	-5.2118218E-001	0
1.1003293E+004	4.017019919185259E+001	-5.2306378E-001	-4.753702262320392E-002	2.4864894E-005	-5.2318221E-001	0
1.1036813E+004	4.037019918680016E+001	-5.2508950E-001	-4.757618840520905E-002	2.4981757E-005	-5.2518219E-001	0
1.1073743E+004	4.057019918174774E+001	-5.2706385E-001	-4.759581521171397E-002	2.5086034E-005	-5.2718228E-001	0
1.1125840E+004	4.077019917669531E+001	-5.2907860E-001	-4.755403887524839E-002	2.5159825E-005	-5.2918220E-001	0
1.1141268E+004	4.097019917164289E+001	-5.3104293E-001	-4.766449666937886E-002	2.5311894E-005	-5.3118223E-001	0
1.1186588E+004	4.117019916659046E+001	-5.3307694E-001	-4.765322051130347E-002	2.5402833E-005	-5.3318226E-001	0
1.1230541E+004	4.137019916153804E+001	-5.3509253E-001	-4.764619307849127E-002	2.5495123E-005	-5.3518224E-001	0
1.1263524E+004	4.157019915648561E+001	-5.3706861E-001	-4.768211031126712E-002	2.5608564E-005	-5.3718221E-001	0
1.1294721E+004	4.177019915143319E+001	-5.3908581E-001	-4.772900784485331E-002	2.5730031E-005	-5.3918225E-001	0
1.1329464E+004	4.197019914638076E+001	-5.4106677E-001	-4.775748894335563E-002	2.5839990E-005	-5.4118222E-001	0
1.1374521E+004	4.217019914132834E+001	-5.4310888E-001	-4.774784851664071E-002	2.5932281E-005	-5.4318225E-001	0
1.1415422E+004	4.237019913627591E+001	-5.4509217E-001	-4.775050428644234E-002	2.6028425E-005	-5.4518223E-001	0
1.1461516E+004	4.257019913122349E+001	-5.4711765E-001	-4.773519351543110E-002	2.6116766E-005	-5.4718226E-001	0
1.1484786E+004	4.277019912617106E+001	-5.4911989E-001	-4.781280935170729E-002	2.6254964E-005	-5.4918224E-001	0
1.1521163E+004	4.297019912111864E+001	-5.5112672E-001	-4.783602983372970E-002	2.6363714E-005	-5.5118221E-001	0
1.1558054E+004	4.317019911606621E+001	-5.5306333E-001	-4.785090631197148E-002	2.6464582E-005	-5.5318224E-001	0
1.1599653E+004	4.337019911101379E+001	-5.5513215E-001	-4.785765071933823E-002	2.6567321E-005	-5.5518222E-001	0
1.1642524E+004	4.357019910596136E+001	-5.5713630E-001	-4.785356646912622E-002	2.6660959E-005	-5.5718219E-001	0
1.1675843E+004	4.377019910090894E+001	-5.5903888E-001	-4.787995977551074E-002	2.6766758E-005	-5.5918223E-001	0
1.1719297E+004	4.397019909585651E+001	-5.6110579E-001	-4.787879375779969E-002	2.6865067E-005	-5.6118226E-001	0
1.1761306E+004	4.417019909080409E+001	-5.6307954E-001	-4.787559568398392E-002	2.6957769E-005	-5.6318223E-001	0
1.1788785E+004	4.437019908575166E+001	-5.6510550E-001	-4.793585683963575E-002	2.7088816E-005	-5.6518221E-001	0
1.1819467E+004	4.457019908069924E+001	-5.6707776E-001	-4.797828638537588E-002	2.7207419E-005	-5.6718224E-001	0
1.1869991E+004	4.477019907564681E+001	-5.6909633E-001	-4.794412450321106E-002	2.7284825E-005	-5.6918222E-001	0
1.1907309E+004	4.497019907059439E+001	-5.7110697E-001	-4.796272640954924E-002	2.7391847E-005	-5.7118219E-001	0
1.1944231E+004	4.517019906554197E+001	-5.7312340E-001	-4.798327983080353E-002	2.7500340E-005	-5.7318223E-001	0
1.1982536E+004	4.537019906048954E+001	-5.7502711E-001	-4.798876614993031E-002	2.7594842E-005	-5.7518226E-001	0
1.2026563E+004	4.557019905543712E+001	-5.7710463E-001	-4.798582921020020E-002	2.7692844E-005	-5.7718223E-001	0
1.2062230E+004	4.577019905038469E+001	-5.7908410E-001	-4.800804459084407E-002	2.7800696E-005	-5.7918227E-001	0
1.2107154E+004	4.597019904533227E+001	-5.8107942E-001	-4.799471393886473E-002	2.7888740E-005	-5.8118224E-001	0
1.2145845E+004	4.617019904027984E+001	-5.8301693E-001	-4.800135030198960E-002	2.7985599E-005	-5.8318228E-001	0
1.2180521E+004	4.637019903522742E+001	-5.8507985E-001	-4.803405472134425E-002	2.8103757E-005	-5.8518219E-001	0
1.2225308E+004	4.657019903017499E+001	-5.8708388E-001	-4.802201079445423E-002	2.8192948E-005	-5.8718222E-001	0
1.2256060E+004	4.677019902512257E+001	-5.8908522E-001	-4.806481524874273E-002	2.8314273E-005	-5.8918226E-001	0
1.2303417E+004	4.697019902007014E+001	-5.9111392E-001	-4.804469617094220E-002	2.8399889E-005	-5.9118217E-001	0
1.2341094E+004	4.717019901501772E+001	-5.9310102E-001	-4.805903214921159E-002	2.8503860E-005	-5.9318227E-001	0
1.2377688E+004	4.737019900996529E+001	-5.9507966E-001	-4.807680106115713E-002	2.8609526E-005	-5.9518224E-001	0
1.2420880E+004	4.757019900491287E+001	-5.9707272E-001	-4.807008407316266E-002	2.8701335E-005	-5.9718221E-001	0
1.2454396E+004	4.777019899986044E+001	-5.9910142E-001	-4.810360930897017E-002	2.8818940E-005	-5.9918219E-001	0
1.2510212E+004	4.797019899480802E+001	-6.0110104E-001	-4.804882800651088E-002	2.8882201E-005	-6.0118222E-001	0
1.2533017E+004	4.817019898975559E+001	-6.0313892E-001	-4.812400207998402E-002	2.9025459E-005	-6.0318232E-001	0
1.2586013E+004	4.837019898470317E+001	-6.0511649E-001	-4.807848938690101E-002	2.9093086E-005	-6.0518223E-001	0
1.2619465E+004	4.857019897965074E+001	-6.0707575E-001	-4.810629896909369E-002	2.9204168E-005	-6.0718220E-001	0
1.2672524E+004	4.877019897459832E+001	-6.0908794E-001	-4.806366444368959E-002	2.9274999E-005	-6.0918230E-001	0
1.2689088E+004	4.897019896954589E+001	-6.1108017E-001	-4.815792853578671E-002	2.9428355E-005	-6.1118221E-001	0
1.2744200E+004	4.917019896449347E+001	-6.1311710E-001	-4.810950043532036E-002	2.9496758E-005	-6.1318225E-001	0
1.2786505E+004	4.937019895944104E+001	-6.1513245E-001	-4.810794420691331E-002	2.9592758E-005	-6.1518222E-001	0
1.2821776E+004	4.957019895438862E+001	-6.1711043E-001	-4.812987164151797E-002	2.9701447E-005	-6.1718225E-001	0
1.2863089E+004	4.977019894933619E+001	-6.1911076E-001	-4.813080140449677E-002	2.9798297E-005	-6.1918223E-001	0
1.2899711E+004	4.997019894428377E+001	-6.2111992E-001	-4.814990993394871E-002	2.9906869E-005	-6.2118220E-001	0
1.2947502E+004	5.017019893923134E+001	-6.2311083E-001	-4.812594889446688E-002	2.9987799E-005	-6.2318230E-001	0
1.2984499E+004	5.037019893417892E+001	-6.2508500E-001	-4.814086190600148E-002	3.0092131E-005	-6.2518215E-001	0
1.3020380E+004	5.057019892912649E+001	-6.2710315E-001	-4.816319941925284E-002	3.0203295E-005	-6.2718225E-001	0
1.3066058E+004	5.077019892407407E+001	-6.2911314E-001	-4.814865872873186E-002	3.0290954E-005	-6.2918228E-001	0
1.3102217E+004	5.097019891902164E+001	-6.3112742E-001	-4.816951278740722E-002	3.0401101E-005	-6.3118225E-001	0
1.3158799E+004	5.117019891396922E+001	-6.3309377E-001	-4.811182171644851E-002	3.0459294E-005	-6.3318223E-001	0
1.3191615E+004	5.137019890891679E+001	-6.3509572E-001	-4.814389423449267E-002	3.0575982E-005	-6.3518220E-001	0
1.3229188E+004	5.157019890386437E+001	-6.3712525E-001	-4.816056912830380E-002	3.0684314E-005	-6.3718230E-001	0
1.3280919E+004	5.177019889881194E+001	-6.3907951E-001	-4.812012817219635E-002	3.0752588E-005	-6.3918221E-001	0
1.3310199E+004	5.197019889375952E+001	-6.4111346E-001	-4.816708143836390E-002	3.0880565E-005	-6.4118218E-001	0
1.3352029E+004	5.217019888870709E+001	-6.4308304E-001	-4.816369289324290E-002	3.0973253E-005	-6.4318228E-001	0
1.3391249E+004	5.237019888365467E+001	-6.4514267E-001	-4.817643944493999E-002	3.1080675E-005	-6.4518219E-001	0
1.3426983E+004	5.257019887860224E+001	-6.4705592E-001	-4.819071606697006E-002	3.1182088E-005	-6.4718223E-001	0
1.3473927E+004	5.277019887354982E+001	-6.4911574E-001	-4.817569214674328E-002	3.1271600E-005	-6.4918220E-001	0
1.3506486E+004	5.297019886849739E+001	-6.5111631E-001	-4.820767637445689E-002	3.1388805E-005	-6.5118223E-001	0
1.3538805E+004	5.317019886344497E+001	-6.5307289E-001	-4.823711756384530E-002	3.1502354E-005	-6.5318221E-001	0
1.3602384E+004	5.337019885839254E+001	-6.5511709E-001	-4.816193358424636E-002	3.1551706E-005	-6.5518224E-001	0
1.3626718E+004	5.357019885334012E+001	-6.5708745E-001	-4.822052303356353E-002	3.1685100E-005	-6.5718228E-001	0
1.3686280E+004	5.377019884828769E+001	-6.5908605E-001	-4.815669524533028E-002	3.1739404E-005	-6.5918225E-001	0
1.3712903E+004	5.397019884323527E+001	-6.6102052E-001	-4.820427157553941E-002	3.1864012E-005	-6.6118217E-001	0
1.3772518E+004	5.417019883818284E+001	-6.6307485E-001	-4.814478163602143E-002	3.1923595E-005	-6.6318226E-001	0
1.3809277E+004	5.437019883313042E+001	-6.6509503E-001	-4.816291314526522E-002	3.2032913E-005	-6.6518223E-001	0
1.3846573E+004	5.457019882807799E+001	-6.6713011E-001	-4.818016068762798E-002	3.2142438E-005	-6.6718221E-001	0
1.3884580E+004	5.477019882302557E+001	-6.6908371E-001	-4.818897622678620E-002	3.2242460E-005	-6.6918224E-001	0
1.3925109E+004	5.497019881797314E+001	-6.7110807E-001	-4.819409775097860E-002	3.2343447E-005	-6.7118227E-001	0
1.3980301E+004	5.517019881292072E+001	-6.7315453E-001	-4.815021701380962E-002	3.2412536E-005	-6.7318225E-001	0
1.4002419E+004	5.537019880786829E+001	-6.7511618E-001	-4.821425419281811E-002	3.2550222E-005	-6.7518216E-001	0
1.4056757E+004	5.557019880281587E+001	-6.7710400E-001	-4.816929083301646E-002	3.2615619E-005	-6.7718226E-001	0
1.4093776E+004	5.577019879776344E+001	-6.7910784E-001	-4.818494542097446E-002	3.2722775E-005	-6.7918223E-001	0
1.4140316E+004	5.597019879271102E+001	-6.8110728E-001	-4.816775341505553E-002	3.2807409E-005	-6.8118221E-001	0
1.4188822E+004	5.617019878765859E+001	-6.8304765E-001	-4.813984279809069E-002	3.2881806E-005	-6.8318224E-001	0
1.4225193E+004	5.637019878260617E+001	-6.8509674E-001	-4.816080400743461E-002	3.2994809E-005	-6.8518227E-001	0
1.4272729E+004	5.657019877755374E+001	-6.8716538E-001	-4.814533941060217E-002	3.3083812E-005	-6.8718225E-001	0
1.4298715E+004	5.677019877250132E+001	-6.8905145E-001	-4.818974675604315E-002	3.3205215E-005	-6.8918222E-001	0
1.4342633E+004	5.697019876744889E+001	-6.9113213E-001	-4.818725712516070E-002	3.3303761E-005	-6.9118226E-001	0
1.4381275E+004	5.717019876239647E+001	-6.9311589E-001	-4.819571807512779E-002	3.3405217E-005	-6.9318223E-001	0
1.4439784E+004	5.737019875734404E+001	-6.9515520E-001	-4.814166103356632E-002	3.3465927E-005	-6.9518220E-001	0
1.4456271E+004	5.757019875229162E+001	-6.9705683E-001	-4.821830402131555E-002	3.3610897E-005	-6.9718224E-001	0
1.4515957E+004	5.777019874723919E+001	-6.9913459E-001	-4.816317725388064E-002	3.3672542E-005	-6.9918227E-001	0
1.4556790E+004	5.797019874218677E+001	-7.0110941E-001	-4.816373570979504E-002	3.3768047E-005	-7.0118225E-001	0
1.4588970E+004	5.817019873713434E+001	-7.0309794E-001	-4.819380405703200E-002	3.3884964E-005	-7.0318222E-001	0
1.4643527E+004	5.837019873208192E+001	-7.0507741E-001	-4.814942293090840E-002	3.3949069E-005	-7.0518231E-001	0
1.4688183E+004	5.857019872702949E+001	-7.0710909E-001	-4.814136110334888E-002	3.4041193E-005	-7.0718229E-001	0
1.4728339E+004	5.877019872197707E+001	-7.0911026E-001	-4.814597619396524E-002	3.4140805E-005	-7.0918226E-001	0
1.4738705E+004	5.897019871692464E+001	-7.1108395E-001	-4.824602567773453E-002	3.4306973E-005	-7.1118224E-001	0
1.4814539E+004	5.917019871187222E+001	-7.1309370E-001	-4.813471899522037E-002	3.4324567E-005	-7.1318233E-001	0
1.4844276E+004	5.937019870681979E+001	-7.1510297E-001	-4.817364863653251E-002	3.4449120E-005	-7.1518219E-001	0
1.4890602E+004	5.957019870176737E+001	-7.1707714E-001	-4.815635640018945E-002	3.4531822E-005	-7.1718228E-001	0
1.4938777E+004	5.977019869671494E+001	-7.1911877E-001	-4.813772501912861E-002	3.4616744E-005	-7.1918231E-001	0
1.4954674E+004	5.997019869166252E+001	-7.2110277E-001	-4.821922470073170E-002	3.4771016E-005	-7.2118223E-001	0
1.5014564E+004	6.017019868661009E+001	-7.2315389E-001	-4.816349384812058E-002	3.4829616E-005	-7.2318220E-001	0
1.5046979E+004	6.037019868155767E+001	-7.2506505E-001	-4.818675157407126E-002	3.4938530E-005	-7.2518229E-001	0
1.5074737E+004	6.057019867650524E+001	-7.2707152E-001	-4.823112279486108E-002	3.5067475E-005	-7.2718227E-001	0
1.5129461E+004	6.077019867145282E+001	-7.2907662E-001	-4.818919921043618E-002	3.5133620E-005	-7.2918218E-001	0
1.5175186E+004	6.097019866640039E+001	-7.3108339E-001	-4.817624114001862E-002	3.5220848E-005	-7.3118222E-001	0
1.5207160E+004	6.117019866134797E+001	-7.3308659E-001	-4.820667134356083E-002	3.5339664E-005	-7.3318231E-001	0
1.5225524E+004	6.137019865629554E+001	-7.3510015E-001	-4.828077697489719E-002	3.5491208E-005	-7.3518223E-001	0
1.5281129E+004	6.157019865124312E+001	-7.3707646E-001	-4.823442569869425E-002	3.5552461E-005	-7.3718226E-001	0
1.5304121E+004	6.177019864619069E+001	-7.3906589E-001	-4.829195377447548E-002	3.5690937E-005	-7.3918229E-001	0
1.5336562E+004	6.197019864113827E+001	-7.4110180E-001	-4.832255400800684E-002	3.5811932E-005	-7.4118227E-001	0
1.5387989E+004	6.217019863608584E+001	-7.4308854E-001	-4.829016491763349E-002	3.5883870E-005	-7.4318224E-001	0
1.5387265E+004	6.237019863103342E+001	-7.4508286E-001	-4.842204625069951E-002	3.6078436E-005	-7.4518222E-001	0
1.5448089E+004	6.257019862598099E+001	-7.4710876E-001	-4.836253603828489E-002	3.6132074E-005	-7.4718237E-001	0
1.5492065E+004	6.277019862092857E+001	-7.4909782E-001	-4.835364421488508E-002	3.6221609E-005	-7.4918216E-001	0
1.5524743E+004	6.297019861587614E+001	-7.5108761E-001	-4.838003407553493E-002	3.6337646E-005	-7.5118226E-001	0
1.5572246E+004	6.317019861082372E+001	-7.5309068E-001	-4.836108236781661E-002	3.6420279E-005	-7.5318229E-001	0
1.5613720E+004	6.337019860577129E+001	-7.5510597E-001	-4.836169728806550E-002	3.6518206E-005	-7.5518221E-001	0
1.5649963E+004	6.357019860071887E+001	-7.5709295E-001	-4.837666245076000E-002	3.6625632E-005	-7.5718218E-001	0
1.5652428E+004	6.377019859566644E+001	-7.5912607E-001	-4.849893595049747E-002	3.6816808E-005	-7.5918227E-001	0
1.5699711E+004	6.397019859061402E+001	-7.6109374E-001	-4.847819955418697E-002	3.6896454E-005	-7.6118237E-001	0
1.5710871E+004	6.417019858556159E+001	-7.6310295E-001	-4.857165252266116E-002	3.7065172E-005	-7.6318222E-001	0
1.5758405E+004	6.437019858050917E+001	-7.6509732E-001	-4.855169575580098E-002	3.7146772E-005	-7.6518226E-001	0
1.5777174E+004	6.457019857545674E+001	-7.6710558E-001	-4.862122806164004E-002	3.7297614E-005	-7.6718229E-001	0
1.5816139E+004	6.477019857040432E+001	-7.6905912E-001	-4.862496101423075E-002	3.7395468E-005	-7.6918226E-001	0
1.5838018E+004	6.497019856535189E+001	-7.7111953E-001	-4.868788228163293E-002	3.7544178E-005	-7.7118224E-001	0
1.5863478E+004	6.517019856029947E+001	-7.7309573E-001	-4.873431649147753E-002	3.7676291E-005	-7.7318227E-001	0
1.5905279E+004	6.537019855524704E+001	-7.7510583E-001	-4.873261384823302E-002	3.7772934E-005	-7.7518225E-001	0
1.5889789E+004	6.557019855019462E+001	-7.7705640E-001	-4.890287637524737E-002	3.8000293E-005	-7.7718222E-001	0
1.5935925E+004	6.577019854514219E+001	-7.7914578E-001	-4.889241123731392E-002	3.8094317E-005	-7.7918220E-001	0
1.5948348E+004	6.597019854008977E+001	-7.8102160E-001	-4.897194548643069E-002	3.8248148E-005	-7.8118229E-001	0
1.5948639E+004	6.617019853503734E+001	-7.8309160E-001	-4.910084371330425E-002	3.8450460E-005	-7.8318232E-001	0
1.5993729E+004	6.637019852998492E+001	-7.8507113E-001	-4.908618627827771E-002	3.8536149E-005	-7.8518224E-001	0
1.5975452E+004	6.657019852493249E+001	-7.8708261E-001	-4.926825294486517E-002	3.8778184E-005	-7.8718233E-001	0
1.5998704E+004	6.677019851988007E+001	-7.8908974E-001	-4.932210384181734E-002	3.8919567E-005	-7.8918231E-001	0
1.5983562E+004	6.697019851482764E+001	-7.9105115E-001	-4.949154553073276E-002	3.9150345E-005	-7.9118228E-001	0
1.6044407E+004	6.717019850977522E+001	-7.9311734E-001	-4.943263556495678E-002	3.9205879E-005	-7.9318225E-001	0
1.6022424E+004	6.737019850472279E+001	-7.9504383E-001	-4.962069510330186E-002	3.9450628E-005	-7.9518223E-001	0
1.6028392E+004	6.757019849967037E+001	-7.9710162E-001	-4.973060469873802E-002	3.9640345E-005	-7.9718238E-001	0
1.6030493E+004	6.777019849461794E+001	-7.9905885E-001	-4.984618117927231E-002	3.9830033E-005	-7.9918224E-001	0
1.6024236E+004	6.797019848956552E+001	-8.0105799E-001	-4.999039967833707E-002	4.0045208E-005	-8.0118233E-001	0
1.6027146E+004	6.817019848451309E+001	-8.0310559E-001	-5.010908337673192E-002	4.0242885E-005	-8.0318236E-001	0
1.6014056E+004	6.837019847946067E+001	-8.0506819E-001	-5.027259927656913E-002	4.0472871E-005	-8.0518222E-001	0
1.6017204E+004	6.857019847440824E+001	-8.0712181E-001	-5.039092879309467E-002	4.0671617E-005	-8.0718231E-001	0
1.6027660E+004	6.877019846935582E+001	-8.0901474E-001	-5.047615852561749E-002	4.0835956E-005	-8.0918229E-001	0
1.5998454E+004	6.897019846430339E+001	-8.1108999E-001	-5.069802162267045E-002	4.1120657E-005	-8.1118226E-001	0
1.5969820E+004	6.917019845925097E+001	-8.1307065E-001	-5.091294872547070E-002	4.1395826E-005	-8.1318223E-001	0
1.5929178E+004	6.937019845419854E+001	-8.1507677E-001	-5.116879094345583E-002	4.1706491E-005	-8.1518233E-001	0
1.5948341E+004	6.957019844914612E+001	-8.1708115E-001	-5.123298763679740E-002	4.1861509E-005	-8.1718230E-001	0
1.5933375E+004	6.977019844409369E+001	-8.1908387E-001	-5.140680190948721E-002	4.2106483E-005	-8.1918228E-001	0
1.5896729E+004	6.997019843904127E+001	-8.2109636E-001	-5.165190755890126E-002	4.2411193E-005	-8.2118231E-001	0
1.5856577E+004	7.017019843398884E+001	-8.2307160E-001	-5.190726661423212E-002	4.2723397E-005	-8.2318234E-001	0
1.5843394E+004	7.037019842893642E+001	-8.2507670E-001	-5.207702007657866E-002	4.2967535E-005	-8.2518226E-001	0
1.5805021E+004	7.057019842388399E+001	-8.2710171E-001	-5.233157635455243E-002	4.3283537E-005	-8.2718223E-001	0
1.5751174E+004	7.077019841883157E+001	-8.2912636E-001	-5.263901868932219E-002	4.3644399E-005	-8.2918233E-001	0
1.5731108E+004	7.097019841377914E+001	-8.3106399E-001	-5.282933349127711E-002	4.3904558E-005	-8.3118230E-001	0
1.5627873E+004	7.117019840872672E+001	-8.3308649E-001	-5.330773358034752E-002	4.4409953E-005	-8.3318228E-001	0
1.5579458E+004	7.137019840367429E+001	-8.3509618E-001	-5.360238851616117E-002	4.4763150E-005	-8.3518237E-001	0
1.5550325E+004	7.157019839862187E+001	-8.3707964E-001	-5.383036377345585E-002	4.5060300E-005	-8.3718234E-001	0
1.5448792E+004	7.177019839356944E+001	-8.3908993E-001	-5.431427626950824E-002	4.5574561E-005	-8.3918220E-001	0
1.5392396E+004	7.197019838851702E+001	-8.4107006E-001	-5.464192141531671E-002	4.5957684E-005	-8.4118229E-001	0
1.5279077E+004	7.217019838346459E+001	-8.4309447E-001	-5.517967270218405E-002	4.6521676E-005	-8.4318238E-001	0
1.5202882E+004	7.237019837841217E+001	-8.4506929E-001	-5.558612416741227E-002	4.6974128E-005	-8.4518224E-001	0
1.5075416E+004	7.257019837335974E+001	-8.4708488E-001	-5.618981861450245E-002	4.7597547E-005	-8.4718227E-001	0
1.4913508E+004	7.277019836830732E+001	-8.4909838E-001	-5.693485275388210E-002	4.8343292E-005	-8.4918231E-001	0
1.4766306E+004	7.297019836325489E+001	-8.5105872E-001	-5.763518299417525E-002	4.9050926E-005	-8.5118228E-001	0
1.4570615E+004	7.317019835820247E+001	-8.5311747E-001	-5.855054501760903E-002	4.9950493E-005	-8.5318226E-001	0
1.4265254E+004	7.337019835315004E+001	-8.5513914E-001	-5.994559333991245E-002	5.1261824E-005	-8.5518229E-001	0
1.4025038E+004	7.357019834809762E+001	-8.5710740E-001	-6.111266123196382E-002	5.2380114E-005	-8.5718232E-001	0
1.3674908E+004	7.377019834304519E+001	-8.5910434E-001	-6.282340960530708E-002	5.3971864E-005	-8.5918230E-001	0
1.3256068E+004	7.397019833799277E+001	-8.6109984E-001	-6.495891643800034E-002	5.5936114E-005	-8.6118221E-001	0
1.2767990E+004	7.417019833294034E+001	-8.6308128E-001	-6.759727037513832E-002	5.8341939E-005	-8.6318237E-001	0
1.2264083E+004	7.437019832788792E+001	-8.6507607E-001	-7.053736409662359E-002	6.1020186E-005	-8.6518228E-001	0
1.1696426E+004	7.457019832283549E+001	-8.6707312E-001	-7.413146133395254E-002	6.4277396E-005	-8.6718225E-001	0
1.1107527E+004	7.477019831778307E+001	-8.6910671E-001	-7.824484319447239E-002	6.8003115E-005	-8.6918235E-001	0
1.0504442E+004	7.497019831273064E+001	-8.7107873E-001	-8.292479268085118E-002	7.2234026E-005	-8.7118232E-001	0
9.9422422E+003	7.517019830767822E+001	-8.7308991E-001	-8.781619905705296E-002	7.6671437E-005	-8.7318230E-001	0
9.3739834E+003	7.537019830262579E+001	-8.7511200E-001	-9.335540398182407E-002	8.1696431E-005	-8.7518227E-001	0
8.8722500E+003	7.557019829757337E+001	-8.7707472E-001	-9.885595417465387E-002	8.6704058E-005	-8.7718236E-001	0
8.3828682E+003	7.577019829252095E+001	-8.7908119E-001	-1.048664000896891E-001	9.2186077E-005	-8.7918222E-001	0
7.9337515E+003	7.597019828746852E+001	-8.8109243E-001	-1.110562188624749E-001	9.7850796E-005	-8.8118231E-001	0
7.5300801E+003	7.617019828241610E+001	-8.8308591E-001	-1.172744353278599E-001	1.0356340E-004	-8.8318229E-001	0
7.1682144E+003	7.637019827736367E+001	-8.8511544E-001	-1.234778169534096E-001	1.0929212E-004	-8.8518226E-001	0
6.8323540E+003	7.657019827231125E+001	-8.8704872E-001	-1.298306167174275E-001	1.1516608E-004	-8.8718235E-001	0
6.5379468E+003	7.677019826725882E+001	-8.8907868E-001	-1.359874495419162E-001	1.2090354E-004	-8.8918227E-001	0
6.2659287E+003	7.697019826220640E+001	-8.9109504E-001	-1.422127621204016E-001	1.2672509E-004	-8.9118242E-001	0
6.0265317E+003	7.717019825715397E+001	-8.9306855E-001	-1.481894733576434E-001	1.3234335E-004	-8.9318228E-001	0
5.8182847E+003	7.737019825210155E+001	-8.9508063E-001	-1.538392600451353E-001	1.3769855E-004	-8.9518225E-001	0
5.6526162E+003	7.757019824704912E+001	-8.9709800E-001	-1.587049230392554E-001	1.4237387E-004	-8.9718235E-001	0
5.4168643E+003	7.777019824199670E+001	-8.9910734E-001	-1.659829909501432E-001	1.4923653E-004	-8.9918232E-001	0
5.3478789E+003	7.797019823694427E+001	-9.0109330E-001	-1.684954510769412E-001	1.5183013E-004	-9.0118229E-001	0
5.2819956E+003	7.817019823189185E+001	-9.0306079E-001	-1.709696251155641E-001	1.5439597E-004	-9.0318233E-001	0
5.2200806E+003	7.837019822683942E+001	-9.0510267E-001	-1.733886337038677E-001	1.5693452E-004	-9.0518236E-001	0
5.1087075E+003	7.857019822178700E+001	-9.0708756E-001	-1.775571466381329E-001	1.6105988E-004	-9.0718234E-001	0
4.9391084E+003	7.877019821673457E+001	-9.0906221E-001	-1.840539057179447E-001	1.6731645E-004	-9.0918225E-001	0
4.6775513E+003	7.897019821168215E+001	-9.1107559E-001	-1.947761761201988E-001	1.7745582E-004	-9.1118234E-001	0
4.3513081E+003	7.917019820662972E+001	-9.1309607E-001	-2.098440444899410E-001	1.9160777E-004	-9.1318232E-001	0
4.0026606E+003	7.937019820157730E+001	-9.1505963E-001	-2.286128442683797E-001	2.0919439E-004	-9.1518223E-001	0
3.6464207E+003	7.957019819652487E+001	-9.1710526E-001	-2.515083580655879E-001	2.3065964E-004	-9.1718239E-001	0
3.3009309E+003	7.977019819147245E+001	-9.1908938E-001	-2.784333877717389E-001	2.5590518E-004	-9.1918224E-001	0
2.9750017E+003	7.997019818642002E+001	-9.2109168E-001	-3.096104773044432E-001	2.8517965E-004	-9.2118233E-001	0
2.6495024E+003	8.017019818136760E+001	-9.2301989E-001	-3.483748147074051E-001	3.2155687E-004	-9.2318231E-001	0
2.3389451E+003	8.037019817631517E+001	-9.2511630E-001	-3.955271614761924E-001	3.6590864E-004	-9.2518240E-001	0
2.1093733E+003	8.057019817126275E+001	-9.2708153E-001	-4.395056843901211E-001	4.0745761E-004	-9.2718238E-001	0
1.8888584E+003	8.077019816621032E+001	-9.2910290E-001	-4.918859398410618E-001	4.5701265E-004	-9.2918229E-001	0
1.6550112E+003	8.097019816115790E+001	-9.3106198E-001	-5.625714055239256E-001	5.2378885E-004	-9.3118232E-001	0
1.4801096E+003	8.117019815610547E+001	-9.3313909E-001	-6.304526800572745E-001	5.8830006E-004	-9.3318230E-001	0
1.3186226E+003	8.137019815105305E+001	-9.3513304E-001	-7.091741250097208E-001	6.6317216E-004	-9.3518227E-001	0
1.1634437E+003	8.157019814600062E+001	-9.3711787E-001	-8.054690368836780E-001	7.5481943E-004	-9.3718231E-001	0
1.0393246E+003	8.177019814094820E+001	-9.3908221E-001	-9.035504578006650E-001	8.4850815E-004	-9.3918234E-001	0
9.1690460E+002	8.198019813564315E+001	-9.4120955E-001	-1.026507639236533E+000	9.6615881E-004	-9.4128239E-001	0
8.1231287E+002	8.219019813033810E+001	-9.4328737E-001	-1.161236492067985E+000	1.0953797E-003	-9.4338232E-001	0
7.2797083E+002	8.239019812528568E+001	-9.4526213E-001	-1.298489086676279E+000	1.2274126E-003	-9.4538230E-001	0
6.5359888E+002	8.259019812023325E+001	-9.4727302E-001	-1.449318623427901E+000	1.3729004E-003	-9.4738227E-001	0
5.8428363E+002	8.279019811518083E+001	-9.4928807E-001	-1.624704176150345E+000	1.5423123E-003	-9.4938231E-001	0
5.2547449E+002	8.299019811012840E+001	-9.5135140E-001	-1.810461737925086E+000	1.7223853E-003	-9.5138234E-001	0
4.7294827E+002	8.319019810507598E+001	-9.5328182E-001	-2.015615427963724E+000	1.9214496E-003	-9.5338231E-001	0
4.2710880E+002	8.339019810002355E+001	-9.5529830E-001	-2.236662707935658E+000	2.1366801E-003	-9.5538229E-001	0
3.8755096E+002	8.359019809497113E+001	-9.5732063E-001	-2.470180030886829E+000	2.3647542E-003	-9.5738232E-001	0
3.5175409E+002	8.379019808991870E+001	-9.5926869E-001	-2.727100325397750E+000	2.6160220E-003	-9.5938236E-001	0
3.2096124E+002	8.399019808486628E+001	-9.6127498E-001	-2.994987662856261E+000	2.8790068E-003	-9.6138227E-001	0
2.9311563E+002	8.419019807981385E+001	-9.6327621E-001	-3.286335140872168E+000	3.1656486E-003	-9.6338224E-001	0
2.6884854E+002	8.439019807476143E+001	-9.6529573E-001	-3.590481411741699E+000	3.4658764E-003	-9.6538234E-001	0
2.4680598E+002	8.459019806970900E+001	-9.6729469E-001	-3.919251303452484E+000	3.7910710E-003	-9.6738231E-001	0
2.2738016E+002	8.479019806465658E+001	-9.6929777E-001	-4.262895000629669E+000	4.1320147E-003	-9.6938223E-001	0
2.1020439E+002	8.499019805960415E+001	-9.7128588E-001	-4.620673654841730E+000	4.4879951E-003	-9.7138238E-001	0
1.9489757E+002	8.519019805455173E+001	-9.7328103E-001	-4.993807906872028E+000	4.8603783E-003	-9.7338223E-001	0
1.8128053E+002	8.539019804949930E+001	-9.7523862E-001	-5.379720816300022E+000	5.2465117E-003	-9.7538233E-001	0
1.6883879E+002	8.559019804444688E+001	-9.7732335E-001	-5.788500100881038E+000	5.6572366E-003	-9.7738230E-001	0
1.5771698E+002	8.579019803939445E+001	-9.7927856E-001	-6.209087961790516E+000	6.0804267E-003	-9.7938240E-001	0
1.4749680E+002	8.599019803434203E+001	-9.8126823E-001	-6.652810312182424E+000	6.5281913E-003	-9.8138237E-001	0
1.3843404E+002	8.619019802928960E+001	-9.8326212E-001	-7.102748575935010E+000	6.9838637E-003	-9.8338228E-001	0
1.3007515E+002	8.639019802423718E+001	-9.8524946E-001	-7.574463501133351E+000	7.4627362E-003	-9.8538232E-001	0
1.2259315E+002	8.659019801918475E+001	-9.8731768E-001	-8.053611965338959E+000	7.9514738E-003	-9.8738229E-001	0
1.1576888E+002	8.679019801413233E+001	-9.8930722E-001	-8.545536736850011E+000	8.4541617E-003	-9.8938227E-001	0
1.0946445E+002	8.699019800907990E+001	-9.9129015E-001	-9.055817674955264E+000	8.9769429E-003	-9.9138230E-001	0
1.0366663E+002	8.719019800402748E+001	-9.9332285E-001	-9.581895561985931E+000	9.5179155E-003	-9.9338233E-001	0
9.8401840E+001	8.739019799897505E+001	-9.9528944E-001	-1.011454092976453E+001	1.0066896E-002	-9.9538225E-001	0
9.3564186E+001	8.759019799392263E+001	-9.9730831E-001	-1.065908137842368E+001	1.0630391E-002	-9.9738222E-001	0
8.8781578E+001	8.780019798861758E+001	-9.9939591E-001	-1.125679405714785E+001	1.1249994E-002	-9.9948233E-001	0
8.4429794E+001	8.801019798331254E+001	-1.0015329E+000	-1.186231575889380E+001	1.1880499E-002	-1.0015823E+000	0
8.0686905E+001	8.821029797825759E+001	-1.0034918E+000	-1.243685969386524E+001	1.2480286E-002	-1.0035832E+000	0
7.7202934E+001	8.841039797320263E+001	-1.0054463E+000	-1.302342077420684E+001	1.3094351E-002	-1.0055842E+000	0
7.3904228E+001	8.861039796815021E+001	-1.0074770E+000	-1.363219781986982E+001	1.3734126E-002	-1.0075843E+000	0
7.0854263E+001	8.881039796309778E+001	-1.0095140E+000	-1.424775201001133E+001	1.4383305E-002	-1.0095843E+000	0
6.8000206E+001	8.901039795804536E+001	-1.0115024E+000	-1.487499066234449E+001	1.5046089E-002	-1.0115843E+000	0
6.5356171E+001	8.921059795298788E+001	-1.0134926E+000	-1.550722168312058E+001	1.5716454E-002	-1.0135862E+000	0
6.2852993E+001	8.941059794793546E+001	-1.0155544E+000	-1.615761431017705E+001	1.6408937E-002	-1.0155863E+000	0
6.0574017E+001	8.961059794288303E+001	-1.0175081E+000	-1.679776591346376E+001	1.7091863E-002	-1.0175864E+000	0
5.8365993E+001	8.981059793783061E+001	-1.0195243E+000	-1.746777954474604E+001	1.7808827E-002	-1.0195863E+000	0
5.6261608E+001	9.001069793277566E+001	-1.0215281E+000	-1.815675356295235E+001	1.8547634E-002	-1.0215870E+000	0
5.4331837E+001	9.021079792772071E+001	-1.0235146E+000	-1.883821154546314E+001	1.9281184E-002	-1.0235882E+000	0
5.2484673E+001	9.041079792266828E+001	-1.0255240E+000	-1.953949542461879E+001	2.0038221E-002	-1.0255884E+000	0
5.0760757E+001	9.061079791761586E+001	-1.0275028E+000	-2.024206971176088E+001	2.0798782E-002	-1.0275884E+000	0
4.9126713E+001	9.081079791256343E+001	-1.0295279E+000	-2.095658108544730E+001	2.1575386E-002	-1.0295883E+000	0
4.7573166E+001	9.101089790750848E+001	-1.0315220E+000	-2.168285413907915E+001	2.2366341E-002	-1.0315893E+000	0
4.6105713E+001	9.121099790245353E+001	-1.0335354E+000	-2.241664396283846E+001	2.3168394E-002	-1.0335903E+000	0
4.4703918E+001	9.141099789740110E+001	-1.0355326E+000	-2.316424681161794E+001	2.3987332E-002	-1.0355903E+000	0
4.3366554E+001	9.161099789234868E+001	-1.0375373E+000	-2.392482838987473E+001	2.4822902E-002	-1.0375904E+000	0
4.2089725E+001	9.181099788729625E+001	-1.0395443E+000	-2.469829301931412E+001	2.5674971E-002	-1.0395902E+000	0
4.0891670E+001	9.201109788224130E+001	-1.0415401E+000	-2.547071576614803E+001	2.6528774E-002	-1.0415910E+000	0
3.9727272E+001	9.221119787718635E+001	-1.0435513E+000	-2.626788368598139E+001	2.7411886E-002	-1.0435923E+000	0
3.8637615E+001	9.241119787213393E+001	-1.0455143E+000	-2.705949592779550E+001	2.8291091E-002	-1.0455923E+000	0
3.7577629E+001	9.261119786708150E+001	-1.0475652E+000	-2.787736411889398E+001	2.9203357E-002	-1.0475924E+000	0
3.6543552E+001	9.281139786202402E+001	-1.0495230E+000	-2.871978616097084E+001	3.0142076E-002	-1.0495942E+000	0
3.5562519E+001	9.301139785697160E+001	-1.0515275E+000	-2.956842111649144E+001	3.1092009E-002	-1.0515944E+000	0
3.4616058E+001	9.321149785191665E+001	-1.0535270E+000	-3.043463153458586E+001	3.2063708E-002	-1.0535949E+000	0
3.3696583E+001	9.341169784685917E+001	-1.0555389E+000	-3.132480392365721E+001	3.3064548E-002	-1.0555969E+000	0
3.2845577E+001	9.361179784180422E+001	-1.0575356E+000	-3.219720198237724E+001	3.4049690E-002	-1.0575982E+000	0
3.1995998E+001	9.381179783675179E+001	-1.0595286E+000	-3.311441010006970E+001	3.5085663E-002	-1.0595983E+000	0
3.1172079E+001	9.401179783169937E+001	-1.0615587E+000	-3.405479323161148E+001	3.6151163E-002	-1.0615983E+000	0
3.0358315E+001	9.421189782664442E+001	-1.0635364E+000	-3.503278738138767E+001	3.7258644E-002	-1.0635990E+000	0
2.9598440E+001	9.441209782158694E+001	-1.0655389E+000	-3.599983256821642E+001	3.8359221E-002	-1.0656010E+000	0
2.8880014E+001	9.461219781653199E+001	-1.0675452E+000	-3.696484277632226E+001	3.9461639E-002	-1.0676023E+000	0
2.8181271E+001	9.481229781147704E+001	-1.0695572E+000	-3.795276706097377E+001	4.0592656E-002	-1.0696032E+000	0
2.7480764E+001	9.501249780641956E+001	-1.0715718E+000	-3.899352295675143E+001	4.1784361E-002	-1.0716051E+000	0
2.6754562E+001	9.521259780136461E+001	-1.0735285E+000	-4.012506514395716E+001	4.3075401E-002	-1.0736064E+000	0
2.6095118E+001	9.541259779631218E+001	-1.0755867E+000	-4.121792724802924E+001	4.4333454E-002	-1.0756062E+000	0
2.5464281E+001	9.561269779125723E+001	-1.0775359E+000	-4.231558103001055E+001	4.5596555E-002	-1.0776073E+000	0
2.4872967E+001	9.581279778620228E+001	-1.0795729E+000	-4.340346240645897E+001	4.6857204E-002	-1.0796083E+000	0
2.4263901E+001	9.601279778114986E+001	-1.0815184E+000	-4.457314796782975E+001	4.8206680E-002	-1.0816083E+000	0
2.3689837E+001	9.621279777609743E+001	-1.0835989E+000	-4.574108741613236E+001	4.9564991E-002	-1.0836084E+000	0
2.3101322E+001	9.641299777103995E+001	-1.0855321E+000	-4.699003999035918E+001	5.1009197E-002	-1.0856099E+000	0
2.2554754E+001	9.661329776597995E+001	-1.0875522E+000	-4.821831131832287E+001	5.2439932E-002	-1.0876130E+000	0
2.1950480E+001	9.681339776092500E+001	-1.0896157E+000	-4.963972272191734E+001	5.4088220E-002	-1.0896143E+000	0
2.1425726E+001	9.701349775587005E+001	-1.0915834E+000	-5.094732218724846E+001	5.5613250E-002	-1.0916151E+000	0
2.0972570E+001	9.721359775081510E+001	-1.0935677E+000	-5.214276316538962E+001	5.7021644E-002	-1.0936164E+000	0
2.0476357E+001	9.741359774576267E+001	-1.0955777E+000	-5.350452615830886E+001	5.8618367E-002	-1.0956162E+000	0
2.0003872E+001	9.761359774071025E+001	-1.0976585E+000	-5.487230460335604E+001	6.0231052E-002	-1.0976163E+000	0
1.9578398E+001	9.781359773565782E+001	-1.0995368E+000	-5.616071510044640E+001	6.1750773E-002	-1.0996163E+000	0
1.9137173E+001	9.801359773060540E+001	-1.1015719E+000	-5.756189321660676E+001	6.3408569E-002	-1.1016163E+000	0
1.8769411E+001	9.821359772555297E+001	-1.1035881E+000	-5.879716171699323E+001	6.4887851E-002	-1.1036164E+000	0
1.8346645E+001	9.841359772050055E+001	-1.1055801E+000	-6.026061312790091E+001	6.6622935E-002	-1.1056163E+000	0
1.7970409E+001	9.861359771544812E+001	-1.1075895E+000	-6.163406854854406E+001	6.8265244E-002	-1.1076163E+000	0
1.7644457E+001	9.881359771039570E+001	-1.1095980E+000	-6.288649615895451E+001	6.9778733E-002	-1.1096163E+000	0
1.7326124E+001	9.901359770534327E+001	-1.1116122E+000	-6.415815716211503E+001	7.1318991E-002	-1.1116164E+000	0
1.6993532E+001	9.921379770028580E+001	-1.1135724E+000	-6.552919041011532E+001	7.2971493E-002	-1.1136179E+000	0
1.6711498E+001	9.941419769522327E+001	-1.1155763E+000	-6.675501301912510E+001	7.4470311E-002	-1.1156223E+000	0
1.6374727E+001	9.961419769017084E+001	-1.1175773E+000	-6.825013150866050E+001	7.6274797E-002	-1.1176223E+000	0
1.6003611E+001	9.981419768511842E+001	-1.1195885E+000	-6.995849014463886E+001	7.8324720E-002	-1.1196222E+000	0
1.5583255E+001	1.000141976800660E+002	-1.1215308E+000	-7.197025114230303E+001	8.0716848E-002	-1.1216223E+000	0
1.5293805E+001	1.002141976750136E+002	-1.1235814E+000	-7.346643931525091E+001	8.2545526E-002	-1.1236223E+000	0
1.5046014E+001	1.004142976699586E+002	-1.1256083E+000	-7.481106426402926E+001	8.4207959E-002	-1.1256231E+000	0
1.4776950E+001	1.006143976649037E+002	-1.1276108E+000	-7.630876311531415E+001	8.6046584E-002	-1.1276243E+000	0
1.4424791E+001	1.008143976598512E+002	-1.1295817E+000	-7.830835707441753E+001	8.8455684E-002	-1.1296242E+000	0
1.4140403E+001	1.010145976547938E+002	-1.1315956E+000	-8.002570105183918E+001	9.0556733E-002	-1.1316259E+000	0
1.3896930E+001	1.012148976497338E+002	-1.1336312E+000	-8.157422058689997E+001	9.2475086E-002	-1.1336291E+000	0
1.3661878E+001	1.014149976446788E+002	-1.1355655E+000	-8.311928737893379E+001	9.4387397E-002	-1.1356304E+000	0
1.3420410E+001	1.016150976396239E+002	-1.1376450E+000	-8.476976143015247E+001	9.6437894E-002	-1.1376313E+000	0
1.3187726E+001	1.018151976345689E+002	-1.1396891E+000	-8.642043908869584E+001	9.8492429E-002	-1.1396323E+000	0
1.2878802E+001	1.020151976295165E+002	-1.1416774E+000	-8.864779003082731E+001	1.0120717E-001	-1.1416323E+000	0
1.2531131E+001	1.022152976244615E+002	-1.1436381E+000	-9.126376269353847E+001	1.0437272E-001	-1.1436331E+000	0
1.2299721E+001	1.024153976194066E+002	-1.1456175E+000	-9.314174965557891E+001	1.0670482E-001	-1.1456343E+000	0
1.2085171E+001	1.026153976143542E+002	-1.1476805E+000	-9.496601748790897E+001	1.0899065E-001	-1.1476343E+000	0
1.1920761E+001	1.028154976092992E+002	-1.1496279E+000	-9.643913631770511E+001	1.1086912E-001	-1.1496351E+000	0
1.1716445E+001	1.030156976042417E+002	-1.1516440E+000	-9.829295512499959E+001	1.1319849E-001	-1.1516371E+000	0
1.1461632E+001	1.032157975991868E+002	-1.1536458E+000	-1.006528335807006E+002	1.1611772E-001	-1.1536384E+000	0
1.1242740E+001	1.034158975941318E+002	-1.1556765E+000	-1.027931340275552E+002	1.1879561E-001	-1.1556392E+000	0
1.1071735E+001	1.036159975890769E+002	-1.1576593E+000	-1.045598773329167E+002	1.2104471E-001	-1.1576403E+000	0
1.0860732E+001	1.038159975840244E+002	-1.1596723E+000	-1.067766220250637E+002	1.2382589E-001	-1.1596403E+000	0
1.0615502E+001	1.040260975787169E+002	-1.1617442E+000	-1.094384610293957E+002	1.2713951E-001	-1.1617410E+000	0
1.0390106E+001	1.042361975734093E+002	-1.1638259E+000	-1.120128970708433E+002	1.3036351E-001	-1.1638423E+000	0
1.0254882E+001	1.044361975683569E+002	-1.1658221E+000	-1.136845980339310E+002	1.3253602E-001	-1.1658424E+000	0
1.0092525E+001	1.046361975633044E+002	-1.1678427E+000	-1.157136344196038E+002	1.3513532E-001	-1.1678424E+000	0
9.9088554E+000	1.048361975582520E+002	-1.1698228E+000	-1.180583173250125E+002	1.3810731E-001	-1.1698424E+000	0
9.7146091E+000	1.050361975531996E+002	-1.1718260E+000	-1.206251264515922E+002	1.4135166E-001	-1.1718423E+000	0
9.5493116E+000	1.052361975481472E+002	-1.1738235E+000	-1.229223141010661E+002	1.4428909E-001	-1.1738422E+000	0
9.4698544E+000	1.054361975430948E+002	-1.1758289E+000	-1.241654697740423E+002	1.4599735E-001	-1.1758423E+000	0
9.3738260E+000	1.056365975380322E+002	-1.1778544E+000	-1.256535447800329E+002	1.4800158E-001	-1.1778460E+000	0
9.2012177E+000	1.058367975329747E+002	-1.1798486E+000	-1.282274298181339E+002	1.5128894E-001	-1.1798484E+000	0
9.0698586E+000	1.060368975279198E+002	-1.1818177E+000	-1.303016612161305E+002	1.5399280E-001	-1.1818491E+000	0
8.9570179E+000	1.062371975228598E+002	-1.1838285E+000	-1.321677066673640E+002	1.5646389E-001	-1.1838518E+000	0
8.7837353E+000	1.064373975178023E+002	-1.1858766E+000	-1.350082414090768E+002	1.6010311E-001	-1.1858543E+000	0
8.6069736E+000	1.066373975127499E+002	-1.1878439E+000	-1.380094807120950E+002	1.6393372E-001	-1.1878543E+000	0
8.4860773E+000	1.068375975076924E+002	-1.1898712E+000	-1.402145060466150E+002	1.6683720E-001	-1.1898563E+000	0
8.3021078E+000	1.070376975026375E+002	-1.1918609E+000	-1.435612468495108E+002	1.7110504E-001	-1.1918572E+000	0
8.1463938E+000	1.072379974975775E+002	-1.1938130E+000	-1.465449664769417E+002	1.7494728E-001	-1.1938602E+000	0
8.0323153E+000	1.074379974925250E+002	-1.1958681E+000	-1.488821215424136E+002	1.7804338E-001	-1.1958603E+000	0
7.9177008E+000	1.076381974874676E+002	-1.1978335E+000	-1.512855255393938E+002	1.8121487E-001	-1.1978617E+000	0
7.8331385E+000	1.078383974824101E+002	-1.1998370E+000	-1.531744844778323E+002	1.8378441E-001	-1.1998644E+000	0
7.7162328E+000	1.080383974773576E+002	-1.2018762E+000	-1.557594459246077E+002	1.8720357E-001	-1.2018644E+000	0
7.6315026E+000	1.082383974723052E+002	-1.2038550E+000	-1.577480964693077E+002	1.8990584E-001	-1.2038642E+000	0
7.5484500E+000	1.084383974672528E+002	-1.2058467E+000	-1.597475848014119E+002	1.9263110E-001	-1.2058643E+000	0
7.3817396E+000	1.086383974622004E+002	-1.2078456E+000	-1.636261459337610E+002	1.9763511E-001	-1.2078643E+000	0
7.2708154E+000	1.088383974571479E+002	-1.2098098E+000	-1.663925906654929E+002	2.0130338E-001	-1.2098643E+000	0
7.0952940E+000	1.090383974520955E+002	-1.2118453E+000	-1.707956419812854E+002	2.0697789E-001	-1.2118644E+000	0
6.9814167E+000	1.092383974470431E+002	-1.2138568E+000	-1.738697001615083E+002	2.1105292E-001	-1.2138643E+000	0
6.9105129E+000	1.094384974419881E+002	-1.2158513E+000	-1.759422722666893E+002	2.1391964E-001	-1.2158651E+000	0
6.8541465E+000	1.096386974369307E+002	-1.2178311E+000	-1.776780167092302E+002	2.1638182E-001	-1.2178670E+000	0
6.7764978E+000	1.098387974318757E+002	-1.2198774E+000	-1.800159046352592E+002	2.1959732E-001	-1.2198683E+000	0
6.6135607E+000	1.100387974268233E+002	-1.2218724E+000	-1.847525928869271E+002	2.2574410E-001	-1.2218684E+000	0
6.5280032E+000	1.102387974217709E+002	-1.2238773E+000	-1.874811073949816E+002	2.2945388E-001	-1.2238684E+000	0
6.4594941E+000	1.104389974167134E+002	-1.2258370E+000	-1.897729065143874E+002	2.3263066E-001	-1.2258698E+000	0
6.3840175E+000	1.106391974116559E+002	-1.2278630E+000	-1.923338938948790E+002	2.3615967E-001	-1.2278723E+000	0
6.2988305E+000	1.108391974066035E+002	-1.2298893E+000	-1.952567599203582E+002	2.4014419E-001	-1.2298723E+000	0
6.2340341E+000	1.110391974015511E+002	-1.2318949E+000	-1.976079700301290E+002	2.4343224E-001	-1.2318723E+000	0
6.1821713E+000	1.112391973964986E+002	-1.2338954E+000	-1.995893322064499E+002	2.4627237E-001	-1.2338723E+000	0
6.1655788E+000	1.114391973914462E+002	-1.2358996E+000	-2.004515022507067E+002	2.4773793E-001	-1.2358723E+000	0
6.1667485E+000	1.116391973863938E+002	-1.2378848E+000	-2.007354100869632E+002	2.4848731E-001	-1.2378722E+000	0
6.0396066E+000	1.118391973813414E+002	-1.2399350E+000	-2.053006285042445E+002	2.5455946E-001	-1.2398722E+000	0
5.9734612E+000	1.120393973762839E+002	-1.2419224E+000	-2.079066709059493E+002	2.5820395E-001	-1.2418739E+000	0
5.8540616E+000	1.122396973712239E+002	-1.2438980E+000	-2.124846133601022E+002	2.6430920E-001	-1.2438772E+000	0
5.7400017E+000	1.124397973661689E+002	-1.2458953E+000	-2.170548612374023E+002	2.7042761E-001	-1.2458782E+000	0
5.6705112E+000	1.126397973611165E+002	-1.2479286E+000	-2.200733898145545E+002	2.7463588E-001	-1.2478783E+000	0
5.6215153E+000	1.128397973560641E+002	-1.2498704E+000	-2.223369343275394E+002	2.7789235E-001	-1.2498783E+000	0
5.5577278E+000	1.130397973510117E+002	-1.2519029E+000	-2.252544468730493E+002	2.8199670E-001	-1.2518784E+000	0
5.5067930E+000	1.132398973459567E+002	-1.2539212E+000	-2.277044326469058E+002	2.8552341E-001	-1.2538792E+000	0
5.4715109E+000	1.134400973408992E+002	-1.2559087E+000	-2.295360097046392E+002	2.8827628E-001	-1.2558811E+000	0
5.4183459E+000	1.136401973358443E+002	-1.2578852E+000	-2.321529943505129E+002	2.9202181E-001	-1.2578824E+000	0
5.3585911E+000	1.138403973307868E+002	-1.2599075E+000	-2.351191787528223E+002	2.9622841E-001	-1.2598838E+000	0
5.3140192E+000	1.140405973257293E+002	-1.2618784E+000	-2.374621303519425E+002	2.9964831E-001	-1.2618864E+000	0
5.2266903E+000	1.142405973206769E+002	-1.2638761E+000	-2.418119425416808E+002	3.0562034E-001	-1.2638863E+000	0
5.1249647E+000	1.144405973156245E+002	-1.2658975E+000	-2.470060988575419E+002	3.1268442E-001	-1.2658863E+000	0
5.0962658E+000	1.146405973105720E+002	-1.2679356E+000	-2.487970040120231E+002	3.1545860E-001	-1.2678864E+000	0
4.9344330E+000	1.148407973055146E+002	-1.2699335E+000	-2.573615776577212E+002	3.2683209E-001	-1.2698879E+000	0
4.8910584E+000	1.150409973004571E+002	-1.2718891E+000	-2.600437409169572E+002	3.3074680E-001	-1.2718904E+000	0
4.8478541E+000	1.152409972954047E+002	-1.2739429E+000	-2.627849086450060E+002	3.3477297E-001	-1.2738904E+000	0
4.7521362E+000	1.154409972903522E+002	-1.2759484E+000	-2.684999678216018E+002	3.4259212E-001	-1.2758905E+000	0
4.7144136E+000	1.156409972852998E+002	-1.2778883E+000	-2.710598659299112E+002	3.4638423E-001	-1.2778903E+000	0
4.6366453E+000	1.158409972802474E+002	-1.2799540E+000	-2.760517171332067E+002	3.5333347E-001	-1.2798903E+000	0
4.6159573E+000	1.160409972751950E+002	-1.2819242E+000	-2.777157848967977E+002	3.5601059E-001	-1.2818903E+000	0
4.6174369E+000	1.162409972701425E+002	-1.2839420E+000	-2.780637852243974E+002	3.5701776E-001	-1.2838901E+000	0
4.5848479E+000	1.164409972650901E+002	-1.2859634E+000	-2.804811351845315E+002	3.6068848E-001	-1.2858903E+000	0
4.5780725E+000	1.166409972600377E+002	-1.2879564E+000	-2.813315742669999E+002	3.6234277E-001	-1.2878903E+000	0
4.5557427E+000	1.168409972549853E+002	-1.2899508E+000	-2.831483184788508E+002	3.6524740E-001	-1.2898903E+000	0
4.5321054E+000	1.170409972499328E+002	-1.2919426E+000	-2.850645494871947E+002	3.6828703E-001	-1.2918903E+000	0
4.4738941E+000	1.172409972448804E+002	-1.2939357E+000	-2.892191089059215E+002	3.7423092E-001	-1.2938904E+000	0
4.4035573E+000	1.174409972398280E+002	-1.2959503E+000	-2.942962319856340E+002	3.8139328E-001	-1.2958903E+000	0
4.3641658E+000	1.176410972347730E+002	-1.2979524E+000	-2.974113498705840E+002	3.8602579E-001	-1.2978910E+000	0
4.2904711E+000	1.178411972297181E+002	-1.2999507E+000	-3.029855414193785E+002	3.9386627E-001	-1.2998923E+000	0
4.2976527E+000	1.180411972246657E+002	-1.3019692E+000	-3.029488903270567E+002	3.9443010E-001	-1.3018924E+000	0
4.2533698E+000	1.182411972196132E+002	-1.3040049E+000	-3.065816044537117E+002	3.9978391E-001	-1.3038923E+000	0
4.2092919E+000	1.184312972148109E+002	-1.3058590E+000	-3.102324462608726E+002	4.0511984E-001	-1.3057930E+000	0
4.2097549E+000	1.185815972110140E+002	-1.3073891E+000	-3.105618224458053E+002	4.0602514E-001	-1.3072957E+000	0
4.1796160E+000	1.187217972074723E+002	-1.3087921E+000	-3.131369260819556E+002	4.0983114E-001	-1.3086977E+000	0
4.1471715E+000	1.188823972034152E+002	-1.3104054E+000	-3.159757056123119E+002	4.1405627E-001	-1.3103036E+000	0
4.1145616E+000	1.190829971983476E+002	-1.3124040E+000	-3.189656922576246E+002	4.1861185E-001	-1.3123097E+000	0
4.1114349E+000	1.192434971942930E+002	-1.3140438E+000	-3.196071014102317E+002	4.1997772E-001	-1.3139143E+000	0
4.0984511E+000	1.193937971904961E+002	-1.3155087E+000	-3.209770429546070E+002	4.2224810E-001	-1.3154175E+000	0
4.0922270E+000	1.195742971859363E+002	-1.3173137E+000	-3.219062995201321E+002	4.2405158E-001	-1.3172230E+000	0
4.0887828E+000	1.197345971818868E+002	-1.3189481E+000	-3.225772274121564E+002	4.2546263E-001	-1.3188257E+000	0
4.0218468E+000	1.199047971775872E+002	-1.3205934E+000	-3.283549528103779E+002	4.3362337E-001	-1.3205278E+000	0
3.9731879E+000	1.200854971730223E+002	-1.3224355E+000	-3.328399152359025E+002	4.4015932E-001	-1.3223345E+000	0
3.9211776E+000	1.202661971684574E+002	-1.3242495E+000	-3.377172882243822E+002	4.4722196E-001	-1.3241419E+000	0
3.9109180E+000	1.204367971641477E+002	-1.3259529E+000	-3.390387797477460E+002	4.4954944E-001	-1.3258471E+000	0
3.8848863E+000	1.205971971600957E+002	-1.3274748E+000	-3.417023686353718E+002	4.5360130E-001	-1.3274519E+000	0
3.8278487E+000	1.207676971557885E+002	-1.3292344E+000	-3.472536441649891E+002	4.6158147E-001	-1.3291565E+000	0
3.8025050E+000	1.209478971512362E+002	-1.3310595E+000	-3.500480375337931E+002	4.6593475E-001	-1.3309587E+000	0
3.7832847E+000	1.211282971466790E+002	-1.3328366E+000	-3.522961625207290E+002	4.6955323E-001	-1.3327628E+000	0
3.7479970E+000	1.212985971423768E+002	-1.3345510E+000	-3.560704557761837E+002	4.7519419E-001	-1.3344656E+000	0
3.7786922E+000	1.214489971385774E+002	-1.3360989E+000	-3.535876447805448E+002	4.7242805E-001	-1.3359694E+000	0
3.7828877E+000	1.216188971342854E+002	-1.3377708E+000	-3.536374594114841E+002	4.7308588E-001	-1.3376688E+000	0
3.7881384E+000	1.217992971297281E+002	-1.3395998E+000	-3.536301229090782E+002	4.7372285E-001	-1.3394729E+000	0
3.7620153E+000	1.219794971251758E+002	-1.3413575E+000	-3.565528908567244E+002	4.7826490E-001	-1.3412750E+000	0
3.7198324E+000	1.221597971206211E+002	-1.3432015E+000	-3.610919486506117E+002	4.8501927E-001	-1.3430777E+000	0
3.7044587E+000	1.223002971170718E+002	-1.3445764E+000	-3.629616238734052E+002	4.8802963E-001	-1.3444823E+000	0
3.6977000E+000	1.224407971135224E+002	-1.3460039E+000	-3.640111183522467E+002	4.8996037E-001	-1.3458873E+000	0
3.6541929E+000	1.226212971089626E+002	-1.3477880E+000	-3.688332798677341E+002	4.9710906E-001	-1.3476927E+000	0
3.6328974E+000	1.227819971049030E+002	-1.3493793E+000	-3.714333724945491E+002	5.0120449E-001	-1.3492992E+000	0
3.6237848E+000	1.229025971018564E+002	-1.3506328E+000	-3.727132930792072E+002	5.0339878E-001	-1.3505054E+000	0
3.6312556E+000	1.230628970978069E+002	-1.3522354E+000	-3.723878276853648E+002	5.0355601E-001	-1.3521085E+000	0
3.5439289E+000	1.232334970934971E+002	-1.3539236E+000	-3.820402769445222E+002	5.1725334E-001	-1.3538142E+000	0
3.4743762E+000	1.234039970891899E+002	-1.3556402E+000	-3.901823210823604E+002	5.2894682E-001	-1.3555193E+000	0
3.4673841E+000	1.235843970846327E+002	-1.3574290E+000	-3.914850445419221E+002	5.3141314E-001	-1.3573235E+000	0
3.4392262E+000	1.237548970803255E+002	-1.3592086E+000	-3.952076654741923E+002	5.3716964E-001	-1.3590283E+000	0
3.4111111E+000	1.239154970762684E+002	-1.3607564E+000	-3.989188018358791E+002	5.4283130E-001	-1.3606341E+000	0
3.3018827E+000	1.240659970724664E+002	-1.3622925E+000	-4.125805246103237E+002	5.6205535E-001	-1.3621392E+000	0
3.2957878E+000	1.242363970681618E+002	-1.3639694E+000	-4.138523247178127E+002	5.6448191E-001	-1.3638437E+000	0
3.3217046E+000	1.244367970630992E+002	-1.3660011E+000	-4.112349678648134E+002	5.6174743E-001	-1.3658478E+000	0
3.3275452E+000	1.246071970587946E+002	-1.3676736E+000	-4.110157872413502E+002	5.6213546E-001	-1.3675514E+000	0
3.3245864E+000	1.247576970549926E+002	-1.3691756E+000	-4.118333375659531E+002	5.6387216E-001	-1.3690568E+000	0
3.3009064E+000	1.249479970501852E+002	-1.3710645E+000	-4.153600104089860E+002	5.6948537E-001	-1.3709594E+000	0
3.2778227E+000	1.250984970463833E+002	-1.3726115E+000	-4.187570882751643E+002	5.7479078E-001	-1.3724650E+000	0
3.2874224E+000	1.252687970420811E+002	-1.3742949E+000	-4.180463434891153E+002	5.7451892E-001	-1.3741678E+000	0
3.2179000E+000	1.254390970377790E+002	-1.3759595E+000	-4.275954843651871E+002	5.8835405E-001	-1.3758705E+000	0
3.1943417E+000	1.255796970342271E+002	-1.3774464E+000	-4.312144993241427E+002	5.9397489E-001	-1.3772767E+000	0
3.2167599E+000	1.257601970296673E+002	-1.3792225E+000	-4.287614183278338E+002	5.9135741E-001	-1.3790815E+000	0
3.2164528E+000	1.259105970258679E+002	-1.3807406E+000	-4.292743176680060E+002	5.9271652E-001	-1.3805859E+000	0
3.2222874E+000	1.260407970225788E+002	-1.3820341E+000	-4.288984558291631E+002	5.9275228E-001	-1.3818871E+000	0
3.1793139E+000	1.262011970185267E+002	-1.3836337E+000	-4.351988337553757E+002	6.0215580E-001	-1.3834918E+000	0
3.1983063E+000	1.263915970137168E+002	-1.3855493E+000	-4.332134330997887E+002	6.0023856E-001	-1.3853956E+000	0
3.1913948E+000	1.265720970091570E+002	-1.3873920E+000	-4.347290558741497E+002	6.0313964E-001	-1.3872005E+000	0
3.1515136E+000	1.267329970050923E+002	-1.3889612E+000	-4.407282927382548E+002	6.1215448E-001	-1.3888096E+000	0
3.1441562E+000	1.268834970012904E+002	-1.3904710E+000	-4.422397936247571E+002	6.1492163E-001	-1.3903146E+000	0
3.1391802E+000	1.270138969979962E+002	-1.3918017E+000	-4.433647007544223E+002	6.1707574E-001	-1.3916188E+000	0
3.1182954E+000	1.271742969939442E+002	-1.3934311E+000	-4.468566558918608E+002	6.2266397E-001	-1.3932229E+000	0
3.1115386E+000	1.273446969896395E+002	-1.3951005E+000	-4.483635335804811E+002	6.2551218E-001	-1.3949268E+000	0
3.1008837E+000	1.275051969855849E+002	-1.3966920E+000	-4.504174073553422E+002	6.2909442E-001	-1.3965316E+000	0
3.0549426E+000	1.276955969807750E+002	-1.3985857E+000	-4.578107824054823E+002	6.4028758E-001	-1.3984356E+000	0
3.0341668E+000	1.278858969759676E+002	-1.4004865E+000	-4.615720174514886E+002	6.4642537E-001	-1.4003388E+000	0
3.0460954E+000	1.280859969709127E+002	-1.4024782E+000	-4.604183477042607E+002	6.4572668E-001	-1.4023402E+000	0
3.0434575E+000	1.282663969663554E+002	-1.4043021E+000	-4.614167039924687E+002	6.4796847E-001	-1.4041436E+000	0
3.0000782E+000	1.284369969620457E+002	-1.4060261E+000	-4.686631656736427E+002	6.5895265E-001	-1.4058493E+000	0
2.9831088E+000	1.285875969582412E+002	-1.4075025E+000	-4.718240782216180E+002	6.6409361E-001	-1.4073554E+000	0
2.9759417E+000	1.287678969536864E+002	-1.4092994E+000	-4.735641975393955E+002	6.6739374E-001	-1.4091591E+000	0
2.9802964E+000	1.289680969486290E+002	-1.4113449E+000	-4.735585760172107E+002	6.6835445E-001	-1.4111611E+000	0
2.9831512E+000	1.291283969445794E+002	-1.4129169E+000	-4.736323422023579E+002	6.6920316E-001	-1.4127631E+000	0
2.9835055E+000	1.292586969412878E+002	-1.4142219E+000	-4.740135114469313E+002	6.7036027E-001	-1.4140668E+000	0
2.9816432E+000	1.294190969372357E+002	-1.4158072E+000	-4.748412632837408E+002	6.7228371E-001	-1.4156703E+000	0
2.9853122E+000	1.295893969329336E+002	-1.4175637E+000	-4.748460377521335E+002	6.7312449E-001	-1.4173735E+000	0
2.9396806E+000	1.297598969286264E+002	-1.4192411E+000	-4.827875224354229E+002	6.8519187E-001	-1.4190780E+000	0
2.9039106E+000	1.299106969248169E+002	-1.4207636E+000	-4.892587307630026E+002	6.9512099E-001	-1.4205863E+000	0
2.8851991E+000	1.300811969205097E+002	-1.4224660E+000	-4.930218073081260E+002	7.0130676E-001	-1.4222915E+000	0
2.8744977E+000	1.302415969164576E+002	-1.4240654E+000	-4.954136497246891E+002	7.0550144E-001	-1.4238958E+000	0
2.8760555E+000	1.304121969121479E+002	-1.4258125E+000	-4.957527591637299E+002	7.0685047E-001	-1.4256015E+000	0
2.8814049E+000	1.305725969080959E+002	-1.4273704E+000	-4.953731033537038E+002	7.0708090E-001	-1.4272058E+000	0
2.8525860E+000	1.307331969040388E+002	-1.4289668E+000	-5.009373249859509E+002	7.1582282E-001	-1.4288114E+000	0
2.8272734E+000	1.309135968994815E+002	-1.4307797E+000	-5.060634414017400E+002	7.2406530E-001	-1.4306159E+000	0
2.8257732E+000	1.311140968944164E+002	-1.4327964E+000	-5.070457593802485E+002	7.2649330E-001	-1.4326211E+000	0
2.8237834E+000	1.312844968901118E+002	-1.4345011E+000	-5.080067587766389E+002	7.2873622E-001	-1.4343247E+000	0
2.8255641E+000	1.314348968863123E+002	-1.4360117E+000	-5.082212182017574E+002	7.2981161E-001	-1.4358284E+000	0
2.8319468E+000	1.315952968822603E+002	-1.4376268E+000	-5.076461082102096E+002	7.2980565E-001	-1.4374325E+000	0
2.7931609E+000	1.317660968779455E+002	-1.4393272E+000	-5.153040890691273E+002	7.4169123E-001	-1.4391404E+000	0
2.7955689E+000	1.319166968741411E+002	-1.4408833E+000	-5.154168215888049E+002	7.4265546E-001	-1.4406464E+000	0
2.8063986E+000	1.320670968703416E+002	-1.4424093E+000	-5.139716314703528E+002	7.4135745E-001	-1.4421505E+000	0
2.7453992E+000	1.322573968655342E+002	-1.4442155E+000	-5.260493703439925E+002	7.5972867E-001	-1.4440541E+000	0
2.7491186E+000	1.324573968604818E+002	-1.4462593E+000	-5.260810574641864E+002	7.6084960E-001	-1.4460542E+000	0
2.6851020E+000	1.326573968554294E+002	-1.4482439E+000	-5.393626834324423E+002	7.8112870E-001	-1.4480541E+000	0
2.7015469E+000	1.328573968503770E+002	-1.4502560E+000	-5.368242710571958E+002	7.7853262E-001	-1.4500542E+000	0
2.6764646E+000	1.330573968453245E+002	-1.4522423E+000	-5.425972102331725E+002	7.8798258E-001	-1.4520543E+000	0
2.6634071E+000	1.332573968402721E+002	-1.4542618E+000	-5.460155824587728E+002	7.9404962E-001	-1.4540541E+000	0
2.6627688E+000	1.334573968352197E+002	-1.4563068E+000	-5.469144731984397E+002	7.9647529E-001	-1.4560542E+000	0
2.6665816E+000	1.336573968301673E+002	-1.4582523E+000	-5.468620791186568E+002	7.9746288E-001	-1.4580541E+000	0
2.6794498E+000	1.338573968251148E+002	-1.4602783E+000	-5.449918621694669E+002	7.9583979E-001	-1.4600542E+000	0
2.6625478E+000	1.340573968200624E+002	-1.4622698E+000	-5.491994667745239E+002	8.0307776E-001	-1.4620543E+000	0
2.6560016E+000	1.342573968150100E+002	-1.4642768E+000	-5.513087195960852E+002	8.0726856E-001	-1.4640541E+000	0
2.6754479E+000	1.344573968099576E+002	-1.4662867E+000	-5.480527943332186E+002	8.0360252E-001	-1.4660540E+000	0
2.6707916E+000	1.346573968049051E+002	-1.4683014E+000	-5.497626344460197E+002	8.0721724E-001	-1.4680541E+000	0
2.6508541E+000	1.348573967998527E+002	-1.4702927E+000	-5.546486392378010E+002	8.1549585E-001	-1.4700541E+000	0
2.6140552E+000	1.350573967948003E+002	-1.4723101E+000	-5.632283748228801E+002	8.2924682E-001	-1.4720540E+000	0
2.6080623E+000	1.352573967897479E+002	-1.4743133E+000	-5.652906476061866E+002	8.3341551E-001	-1.4740541E+000	0
2.6248009E+000	1.354573967846954E+002	-1.4762961E+000	-5.624411766804787E+002	8.3032972E-001	-1.4760541E+000	0
2.5959094E+000	1.355973967811588E+002	-1.4777225E+000	-5.692504514447701E+002	8.4119421E-001	-1.4774539E+000	0
2.5836906E+000	1.356471967799007E+002	-1.4782449E+000	-5.721447003682451E+002	8.4577000E-001	-1.4779538E+000	1