EC-Lab ASCII FILE
Nb header lines : 63                          

Linear Sweep Voltammetry

Run on channel : 1 (SN 1340)
User : 
Electrode connection : standard
Potential control : Ewe
Ewe ctrl range : min = -5.00 V, max = 5.00 V
Ewe,I filtering : <None>
Safety Limits :
	Do not start on E overload
Channel : Floating
Acquisition started on : 02/17/2026 15:28:45.127
Technique started on : 02/17/2026 15:28:47.964
Loaded Setting File :  NONE
Saved on :
	File : X22_5_2-17_02_LSV_C01.mpr
	Directory : C:\Users\volt\Documents\Platalytix\
	Host : 127.0.0.1
Device : SP-200 (SN 0262)
Address : USB
EC-LAB for windows v11.60 (software)
Internet server v11.60 (firmware)
Command interpretor v11.60 (firmware)
Electrode material : Pt22.5Pd22.5Ni22.5Co22.5Cr10
Initial state : 
Electrolyte : KOH (1M)
Comments : 
Cable : standard
Reference electrode : Hg/HgO (0.140 V)
Electrode surface area : 1.000 cm˛
Characteristic mass : 0.001 g
Equivalent Weight : 0.000 g/eq.
Density : 0.000 g/cm3
Volume (V) : 0.001 cmł
Cycle Definition : Charge/Discharge alternance
tR (h:m:s)          0:00:5.0000         
dER/dt (mV/h)       0.0                 
dER (mV)            0                   
dtR (s)             0.0000              
dE/dt               10.000              
dE/dt unit          mV/s                
Ei (V)              -0.200              
vs.                 Ref                 
EL (V)              -2.500              
vs.                 Ref                 
record              <I>                 
dI                  0.000               
unit dI             µA                  
tI (s)              0.0000              
step percent        50                  
N                   10                  
E range min (V)     -5.000              
E range max (V)     5.000               
I Range             Auto                
I Range min         Unset               
I Range max         Unset               
I Range init        Unset               
Bandwidth           8                   

Rwe/Ohm	time/s	Ewe/V	<I>/mA	Pwe/W	control/V	error	
0.0000000E+000	2.837400134740165E+000	-1.5932393E-001	0.000000000000000E+000	0.0000000E+000	0.0000000E+000	0
0.0000000E+000	7.837200008434593E+000	-3.9787564E-002	0.000000000000000E+000	0.0000000E+000	-1.9985116E-001	0
9.8505518E+003	8.037200003382168E+000	-2.0156340E-001	2.046214245638110E-002	-4.1244189E-006	-2.0175093E-001	0
1.9620120E+003	8.157200000350713E+000	-2.0273840E-001	-1.033318889721737E-001	2.0949343E-005	-2.0295100E-001	0
1.9238010E+003	8.367199995045667E+000	-2.0484041E-001	-1.064769214551364E-001	2.1810776E-005	-2.0505099E-001	0
2.0811248E+003	8.567199989993242E+000	-2.0682760E-001	-9.938260873667676E-002	2.0555066E-005	-2.0705099E-001	0
2.2336721E+003	8.767199984940817E+000	-2.0879970E-001	-9.347822829867747E-002	1.9518226E-005	-2.0905100E-001	0
2.3748657E+003	8.967199979888392E+000	-2.1080148E-001	-8.876353824065575E-002	1.8711486E-005	-2.1105097E-001	0
2.5030352E+003	9.167199974835967E+000	-2.1279523E-001	-8.501487377082828E-002	1.8090759E-005	-2.1305099E-001	0
2.6257490E+003	9.367199969783542E+000	-2.1484223E-001	-8.182130982759350E-002	1.7578674E-005	-2.1505100E-001	0
2.7367148E+003	9.567199964731117E+000	-2.1685146E-001	-7.923786980184433E-002	1.7182847E-005	-2.1705100E-001	0
2.8436074E+003	9.767199959678692E+000	-2.1883012E-001	-7.695511140324218E-002	1.6840097E-005	-2.1905097E-001	0
2.9427788E+003	9.967199954626267E+000	-2.2081476E-001	-7.503613982985291E-002	1.6569087E-005	-2.2105101E-001	0
3.0410652E+003	1.016719994957384E+001	-2.2283372E-001	-7.327489048726221E-002	1.6328117E-005	-2.2305098E-001	0
3.1363948E+003	1.036719994452142E+001	-2.2484021E-001	-7.168746855460506E-002	1.6118225E-005	-2.2505097E-001	0
3.2270969E+003	1.056719993946899E+001	-2.2680952E-001	-7.028283169039040E-002	1.5940816E-005	-2.2705100E-001	0
3.3153726E+003	1.076719993441657E+001	-2.2879115E-001	-6.900917990618871E-002	1.5788690E-005	-2.2905096E-001	0
3.4006829E+003	1.096719992936414E+001	-2.3080739E-001	-6.787089392481604E-002	1.5665104E-005	-2.3105098E-001	0
3.4855303E+003	1.116719992431172E+001	-2.3281874E-001	-6.679578788120233E-002	1.5551312E-005	-2.3305099E-001	0
3.5696226E+003	1.136719991925929E+001	-2.3484623E-001	-6.579021358062108E-002	1.5450583E-005	-2.3505098E-001	0
3.6509482E+003	1.156719991420687E+001	-2.3684336E-001	-6.487173768807886E-002	1.5364440E-005	-2.3705098E-001	0
3.7333816E+003	1.176719990915444E+001	-2.3880672E-001	-6.396526116782747E-002	1.5275335E-005	-2.3905098E-001	0
3.8136501E+003	1.196719990410202E+001	-2.4084020E-001	-6.315214732448537E-002	1.5209575E-005	-2.4105099E-001	0
3.8924285E+003	1.216719989904959E+001	-2.4281335E-001	-6.238094136349082E-002	1.5146925E-005	-2.4305098E-001	0
3.9675532E+003	1.236719989399717E+001	-2.4480835E-001	-6.170259769573025E-002	1.5105311E-005	-2.4505100E-001	0
4.0463357E+003	1.256719988894474E+001	-2.4682267E-001	-6.099905956498519E-002	1.5055951E-005	-2.4705099E-001	0
4.1231870E+003	1.276719988389232E+001	-2.4881977E-001	-6.034646885598349E-002	1.5015395E-005	-2.4905097E-001	0
4.1969780E+003	1.296719987883989E+001	-2.5081670E-001	-5.976126154054762E-002	1.4989123E-005	-2.5105098E-001	0
4.2741733E+003	1.316719987378747E+001	-2.5279176E-001	-5.914401539174796E-002	1.4951120E-005	-2.5305095E-001	0
4.3475889E+003	1.336719986873504E+001	-2.5480843E-001	-5.860913314385652E-002	1.4934101E-005	-2.5505099E-001	0
4.4241484E+003	1.356719986368262E+001	-2.5681087E-001	-5.804752623144971E-002	1.4907236E-005	-2.5705099E-001	0
4.4986792E+003	1.376719985863019E+001	-2.5881478E-001	-5.753128199263688E-002	1.4889946E-005	-2.5905097E-001	0
4.5699536E+003	1.396719985357777E+001	-2.6080853E-001	-5.707027689530580E-002	1.4884415E-005	-2.6105100E-001	0
4.6402705E+003	1.416719984852534E+001	-2.6278400E-001	-5.663118334624384E-002	1.4881769E-005	-2.6305097E-001	0
4.7174990E+003	1.436719984347292E+001	-2.6482633E-001	-5.613701656469239E-002	1.4866560E-005	-2.6505101E-001	0
4.7871182E+003	1.456719983842049E+001	-2.6681456E-001	-5.573594352006550E-002	1.4871162E-005	-2.6705098E-001	0
4.8579858E+003	1.476719983336807E+001	-2.6881489E-001	-5.533463703975317E-002	1.4874774E-005	-2.6905099E-001	0
4.9318950E+003	1.496719982831564E+001	-2.7081710E-001	-5.491136822558079E-002	1.4870938E-005	-2.7105096E-001	0
5.0077817E+003	1.516719982326322E+001	-2.7282697E-001	-5.448060260204979E-002	1.4863777E-005	-2.7305099E-001	0
5.0800347E+003	1.536719981821079E+001	-2.7479142E-001	-5.409242929901303E-002	1.4864136E-005	-2.7505100E-001	0
5.1536611E+003	1.556719981315837E+001	-2.7681020E-001	-5.371136905872498E-002	1.4867855E-005	-2.7705097E-001	0
5.2249282E+003	1.576719980810594E+001	-2.7878907E-001	-5.335749168257287E-002	1.4875485E-005	-2.7905098E-001	0
5.2876860E+003	1.596719980305352E+001	-2.8082383E-001	-5.310902176129184E-002	1.4914279E-005	-2.8105098E-001	0
5.3647988E+003	1.616719979800109E+001	-2.8280902E-001	-5.271567874049565E-002	1.4908469E-005	-2.8305098E-001	0
5.4344712E+003	1.636719979294867E+001	-2.8480297E-001	-5.240674831855918E-002	1.4925597E-005	-2.8505099E-001	0
5.4974707E+003	1.656719978789624E+001	-2.8683046E-001	-5.217498719276203E-002	1.4965375E-005	-2.8705102E-001	0
5.5746152E+003	1.676719978284382E+001	-2.8880253E-001	-5.180672245773799E-002	1.4961913E-005	-2.8905097E-001	0
5.6490288E+003	1.696719977779139E+001	-2.9084507E-001	-5.148585282409734E-002	1.4974406E-005	-2.9105097E-001	0
5.7180923E+003	1.716719977273897E+001	-2.9280591E-001	-5.120692169504948E-002	1.4993690E-005	-2.9305097E-001	0
5.7835176E+003	1.736719976768654E+001	-2.9482219E-001	-5.097627435449748E-002	1.5028937E-005	-2.9505098E-001	0
5.8567598E+003	1.756719976263412E+001	-2.9680121E-001	-5.067669026513499E-002	1.5040903E-005	-2.9705098E-001	0
5.9315186E+003	1.776719975758169E+001	-2.9880351E-001	-5.037554914644915E-002	1.5052391E-005	-2.9905099E-001	0
6.0012778E+003	1.796719975252927E+001	-3.0080721E-001	-5.012385893450488E-002	1.5077618E-005	-3.0105096E-001	0
6.0685098E+003	1.816719974747684E+001	-3.0282384E-001	-4.990085702740066E-002	1.5111169E-005	-3.0305099E-001	0
6.1365586E+003	1.836719974242442E+001	-3.0483371E-001	-4.967502729181617E-002	1.5142623E-005	-3.0505100E-001	0
6.2021802E+003	1.856719973737199E+001	-3.0681619E-001	-4.946908748406671E-002	1.5177917E-005	-3.0705100E-001	0
6.2761001E+003	1.876719973231957E+001	-3.0881843E-001	-4.920546578025875E-002	1.5195555E-005	-3.0905098E-001	0
6.3433096E+003	1.896719972726714E+001	-3.1081960E-001	-4.899959536395992E-002	1.5230034E-005	-3.1105098E-001	0
6.4098125E+003	1.916719972221472E+001	-3.1278127E-001	-4.879725895729092E-002	1.5262869E-005	-3.1305099E-001	0
6.4741260E+003	1.936719971716229E+001	-3.1480837E-001	-4.862561721545855E-002	1.5307751E-005	-3.1505099E-001	0
6.5405752E+003	1.956719971210987E+001	-3.1678152E-001	-4.843328324755847E-002	1.5342770E-005	-3.1705099E-001	0
6.6129736E+003	1.976719970705744E+001	-3.1884229E-001	-4.821466134920249E-002	1.5372872E-005	-3.1905100E-001	0
6.6786099E+003	1.996719970200502E+001	-3.2080141E-001	-4.803415994099691E-002	1.5409427E-005	-3.2105100E-001	0
6.7409404E+003	2.016719969695259E+001	-3.2279962E-001	-4.788643894363351E-002	1.5457725E-005	-3.2305098E-001	0
6.8066563E+003	2.036719969190017E+001	-3.2480904E-001	-4.771932412747759E-002	1.5499669E-005	-3.2505098E-001	0
6.8738638E+003	2.056719968684774E+001	-3.2679263E-001	-4.754133104128103E-002	1.5536156E-005	-3.2705098E-001	0
6.9433721E+003	2.076719968179532E+001	-3.2882434E-001	-4.735801915760640E-002	1.5572470E-005	-3.2905099E-001	0
7.0079570E+003	2.096719967674289E+001	-3.3082086E-001	-4.720646343479051E-002	1.5616883E-005	-3.3105096E-001	0
7.0741665E+003	2.116719967169047E+001	-3.3280456E-001	-4.704505726330777E-002	1.5656809E-005	-3.3305097E-001	0
7.1402573E+003	2.136719966663804E+001	-3.3478135E-001	-4.688645347761711E-002	1.5696711E-005	-3.3505097E-001	0
7.2020991E+003	2.156719966158562E+001	-3.3686528E-001	-4.677320800166240E-002	1.5756270E-005	-3.3705100E-001	0
7.2668486E+003	2.176719965653319E+001	-3.3886030E-001	-4.663098386125630E-002	1.5801390E-005	-3.3905101E-001	0
7.3327402E+003	2.196719965148077E+001	-3.4084699E-001	-4.648289388909421E-002	1.5843554E-005	-3.4105101E-001	0
7.3950557E+003	2.216719964642834E+001	-3.4277350E-001	-4.635171260069129E-002	1.5888139E-005	-3.4305099E-001	0
7.4553462E+003	2.236719964137592E+001	-3.4481883E-001	-4.625121499422307E-002	1.5948290E-005	-3.4505099E-001	0
7.5236631E+003	2.256719963632349E+001	-3.4681362E-001	-4.609637955560553E-002	1.5986852E-005	-3.4705099E-001	0
7.5931680E+003	2.276719963127107E+001	-3.4884408E-001	-4.594183680860117E-002	1.6026537E-005	-3.4905100E-001	0
7.6439990E+003	2.296719962621864E+001	-3.5081571E-001	-4.589426402391172E-002	1.6100428E-005	-3.5105097E-001	0
7.7092891E+003	2.316719962116622E+001	-3.5280842E-001	-4.576406688107371E-002	1.6145948E-005	-3.5305098E-001	0
7.7671196E+003	2.336719961611379E+001	-3.5481104E-001	-4.568116090079888E-002	1.6208180E-005	-3.5505098E-001	0
7.8374521E+003	2.356719961106137E+001	-3.5680792E-001	-4.552601027205294E-002	1.6244041E-005	-3.5705101E-001	0
7.9007466E+003	2.376719960600894E+001	-3.5883713E-001	-4.541813003431439E-002	1.6297712E-005	-3.5905099E-001	0
7.9566392E+003	2.396719960095652E+001	-3.6080310E-001	-4.534616905804167E-002	1.6361038E-005	-3.6105099E-001	0
8.0157969E+003	2.416719959590409E+001	-3.6279044E-001	-4.525943356671758E-002	1.6419690E-005	-3.6305103E-001	0
8.0787271E+003	2.436719959085167E+001	-3.6482090E-001	-4.515821552653793E-002	1.6474662E-005	-3.6505100E-001	0
8.1293799E+003	2.456719958579924E+001	-3.6678538E-001	-4.511849523670847E-002	1.6548804E-005	-3.6705104E-001	0
8.1866050E+003	2.476719958074682E+001	-3.6879182E-001	-4.504820070775373E-002	1.6613409E-005	-3.6905101E-001	0
8.2518340E+003	2.496719957569439E+001	-3.7081692E-001	-4.493751688760045E-002	1.6663591E-005	-3.7105098E-001	0
8.3114199E+003	2.516719957064197E+001	-3.7281111E-001	-4.485528281828610E-002	1.6722548E-005	-3.7305099E-001	0
8.3679707E+003	2.536719956558954E+001	-3.7480447E-001	-4.479036373038758E-002	1.6787628E-005	-3.7505099E-001	0
8.4222500E+003	2.556719956053712E+001	-3.7681049E-001	-4.473988227086900E-002	1.6858457E-005	-3.7705103E-001	0
8.4928105E+003	2.576719955548469E+001	-3.7880361E-001	-4.460285751855486E-002	1.6895723E-005	-3.7905100E-001	0
8.5450313E+003	2.596719955043227E+001	-3.8080454E-001	-4.456444004579085E-002	1.6970342E-005	-3.8105100E-001	0
8.6109854E+003	2.616719954537984E+001	-3.8282055E-001	-4.445722877484060E-002	1.7019142E-005	-3.8305101E-001	0
8.6576953E+003	2.636719954032742E+001	-3.8482323E-001	-4.444868982423222E-002	1.7104889E-005	-3.8505101E-001	0
8.7068887E+003	2.656719953527499E+001	-3.8682544E-001	-4.442751688867930E-002	1.7185694E-005	-3.8705099E-001	0
8.7685967E+003	2.676719953022257E+001	-3.8878497E-001	-4.433833651932051E-002	1.7238079E-005	-3.8905102E-001	0
8.8188867E+003	2.696719952517014E+001	-3.9076155E-001	-4.430962591447885E-002	1.7314498E-005	-3.9105099E-001	0
8.8833545E+003	2.716719952011772E+001	-3.9283934E-001	-4.422195722711164E-002	1.7372124E-005	-3.9305103E-001	0
8.9317754E+003	2.736719951506529E+001	-3.9480865E-001	-4.420270608149957E-002	1.7451610E-005	-3.9505100E-001	0
8.9815215E+003	2.756719951001287E+001	-3.9681047E-001	-4.418076097288404E-002	1.7531389E-005	-3.9705101E-001	0
9.0358145E+003	2.776719950496044E+001	-3.9881504E-001	-4.413714111532374E-002	1.7602555E-005	-3.9905101E-001	0
9.0911475E+003	2.796719949990802E+001	-4.0083680E-001	-4.409089272624281E-002	1.7673252E-005	-4.0105104E-001	0
9.1392344E+003	2.816719949485559E+001	-4.0280098E-001	-4.407382188544384E-002	1.7752978E-005	-4.0305099E-001	0
9.1961025E+003	2.836719948980317E+001	-4.0479451E-001	-4.401804939944032E-002	1.7818265E-005	-4.0505102E-001	0
9.2478467E+003	2.856719948475074E+001	-4.0679210E-001	-4.398776259687207E-002	1.7893875E-005	-4.0705100E-001	0
9.2973682E+003	2.876719947969832E+001	-4.0882403E-001	-4.397201693016017E-002	1.7976818E-005	-4.0905106E-001	0
9.3427471E+003	2.896719947464590E+001	-4.1079232E-001	-4.396911540022241E-002	1.8062176E-005	-4.1105101E-001	0
9.3937852E+003	2.916719946959347E+001	-4.1288194E-001	-4.395267020176077E-002	1.8147264E-005	-4.1305098E-001	0
9.4479082E+003	2.936719946454105E+001	-4.1489562E-001	-4.391402108890452E-002	1.8219735E-005	-4.1505101E-001	0
9.5022217E+003	2.956719945948862E+001	-4.1682723E-001	-4.386629075415910E-002	1.8284665E-005	-4.1705102E-001	0
9.5486973E+003	2.976719945443620E+001	-4.1881183E-001	-4.386062370064148E-002	1.8369348E-005	-4.1905102E-001	0
9.5950313E+003	2.996719944938377E+001	-4.2086962E-001	-4.386328718500421E-002	1.8460725E-005	-4.2105103E-001	0
9.6466650E+003	3.016719944433135E+001	-4.2285296E-001	-4.383410675616917E-002	1.8535382E-005	-4.2305103E-001	0
9.6978877E+003	3.036719943927892E+001	-4.2484373E-001	-4.380786105807744E-002	1.8611496E-005	-4.2505097E-001	0
9.7321328E+003	3.056719943422650E+001	-4.2684707E-001	-4.385956000223072E-002	1.8721325E-005	-4.2705101E-001	0
9.7899111E+003	3.076719942917407E+001	-4.2885861E-001	-4.380618012510232E-002	1.8786657E-005	-4.2905104E-001	0
9.8235723E+003	3.096719942412165E+001	-4.3087775E-001	-4.386161400486732E-002	1.8898992E-005	-4.3105102E-001	0
9.8760254E+003	3.116719941906922E+001	-4.3283883E-001	-4.382722693164942E-002	1.8970126E-005	-4.3305099E-001	0
9.9183018E+003	3.136719941401680E+001	-4.3484318E-001	-4.384250508393256E-002	1.9064615E-005	-4.3505102E-001	0
9.9604736E+003	3.156719940896437E+001	-4.3683755E-001	-4.385710456709485E-002	1.9158429E-005	-4.3705100E-001	0
1.0024423E+004	3.176719940391195E+001	-4.3886018E-001	-4.377909502449562E-002	1.9212901E-005	-4.3905100E-001	0
1.0063494E+004	3.196719939885952E+001	-4.4083819E-001	-4.380567774177652E-002	1.9311216E-005	-4.4105101E-001	0
1.0111456E+004	3.216719939380710E+001	-4.4283238E-001	-4.379511442190642E-002	1.9393894E-005	-4.4305104E-001	0
1.0148363E+004	3.236719938875467E+001	-4.4484031E-001	-4.383369942239029E-002	1.9498997E-005	-4.4505098E-001	0
1.0194975E+004	3.256719938370225E+001	-4.4687244E-001	-4.383261895674144E-002	1.9587589E-005	-4.4705102E-001	0
1.0230640E+004	3.276719937864982E+001	-4.4884160E-001	-4.387229312947247E-002	1.9691710E-005	-4.4905105E-001	0
1.0285281E+004	3.296719937359740E+001	-4.5084447E-001	-4.383394630021864E-002	1.9762292E-005	-4.5105103E-001	0
1.0318248E+004	3.316719936854497E+001	-4.5285517E-001	-4.388876656590926E-002	1.9875255E-005	-4.5305100E-001	0
1.0365947E+004	3.336719936349255E+001	-4.5489201E-001	-4.388330296651299E-002	1.9962165E-005	-4.5505103E-001	0
1.0408971E+004	3.356719935844012E+001	-4.5688385E-001	-4.389327806378376E-002	2.0054129E-005	-4.5705107E-001	0
1.0448118E+004	3.376719935338770E+001	-4.5883468E-001	-4.391553257159099E-002	2.0149970E-005	-4.5905101E-001	0
1.0501209E+004	3.396719934833527E+001	-4.6083331E-001	-4.388383497291881E-002	2.0223133E-005	-4.6105102E-001	0
1.0546295E+004	3.416719934328285E+001	-4.6285826E-001	-4.388823521047935E-002	2.0314032E-005	-4.6305102E-001	0
1.0574197E+004	3.436719933823042E+001	-4.6481565E-001	-4.395753378919687E-002	2.0432150E-005	-4.6505100E-001	0
1.0618409E+004	3.456719933317800E+001	-4.6684021E-001	-4.396517390898413E-002	2.0524711E-005	-4.6705103E-001	0
1.0642828E+004	3.476719932812557E+001	-4.6882820E-001	-4.405109069596280E-002	2.0652393E-005	-4.6905106E-001	0
1.0694130E+004	3.496719932307315E+001	-4.7082847E-001	-4.402681329771208E-002	2.0729078E-005	-4.7105104E-001	0
1.0723703E+004	3.516719931802072E+001	-4.7280675E-001	-4.408987744023962E-002	2.0845991E-005	-4.7305101E-001	0
1.0769787E+004	3.536719931296830E+001	-4.7484949E-001	-4.409088933277594E-002	2.0936537E-005	-4.7505102E-001	0
1.0823945E+004	3.556719930791587E+001	-4.7684899E-001	-4.405500728171315E-002	2.1007585E-005	-4.7705102E-001	0
1.0859768E+004	3.576719930286345E+001	-4.7882193E-001	-4.409135948674431E-002	2.1111910E-005	-4.7905102E-001	0
1.0900530E+004	3.596719929781102E+001	-4.8082203E-001	-4.410996859974547E-002	2.1209045E-005	-4.8105103E-001	0
1.0938744E+004	3.616719929275860E+001	-4.8284465E-001	-4.414077749071399E-002	2.1313139E-005	-4.8305103E-001	0
1.0976094E+004	3.636719928770617E+001	-4.8480630E-001	-4.416929474660114E-002	2.1413553E-005	-4.8505104E-001	0
1.1018435E+004	3.656719928265375E+001	-4.8685500E-001	-4.418549822118600E-002	2.1511931E-005	-4.8705098E-001	0
1.1043349E+004	3.676719927760132E+001	-4.8883623E-001	-4.426521854607146E-002	2.1638443E-005	-4.8905101E-001	0
1.1100527E+004	3.696719927254890E+001	-4.9084863E-001	-4.421849757017982E-002	2.1704589E-005	-4.9105105E-001	0
1.1138701E+004	3.716719926749647E+001	-4.9282581E-001	-4.424445895697771E-002	2.1804812E-005	-4.9305102E-001	0
1.1179392E+004	3.736719926244405E+001	-4.9481064E-001	-4.426096216194719E-002	2.1900794E-005	-4.9505100E-001	0
1.1216054E+004	3.756719925739162E+001	-4.9681625E-001	-4.429510066020670E-002	2.2006525E-005	-4.9705103E-001	0
1.1255814E+004	3.776719925233920E+001	-4.9881977E-001	-4.431663027831489E-002	2.2106011E-005	-4.9905103E-001	0
1.1295268E+004	3.796719924728677E+001	-5.0085366E-001	-4.434190106170588E-002	2.2208804E-005	-5.0105101E-001	0
1.1333679E+004	3.816719924223435E+001	-5.0286049E-001	-4.436868899992852E-002	2.2311260E-005	-5.0305098E-001	0
1.1373042E+004	3.836719923718192E+001	-5.0484997E-001	-4.439005412899455E-002	2.2410317E-005	-5.0505102E-001	0
1.1420551E+004	3.856719923212950E+001	-5.0684899E-001	-4.438043266293001E-002	2.2494178E-005	-5.0705099E-001	0
1.1450316E+004	3.876719922707707E+001	-5.0882775E-001	-4.443787609262895E-002	2.2611224E-005	-5.0905102E-001	0
1.1504574E+004	3.896719922202465E+001	-5.1083076E-001	-4.440240634002357E-002	2.2682116E-005	-5.1105106E-001	0
1.1535816E+004	3.916719921697222E+001	-5.1281947E-001	-4.445454661254988E-002	2.2797158E-005	-5.1305103E-001	0
1.1564703E+004	3.936719921191980E+001	-5.1484782E-001	-4.451889741522752E-002	2.2920458E-005	-5.1505101E-001	0
1.1623025E+004	3.956719920686737E+001	-5.1685745E-001	-4.446840900537108E-002	2.2983828E-005	-5.1705104E-001	0
1.1651523E+004	3.976719920181495E+001	-5.1884919E-001	-4.453058908704038E-002	2.3104660E-005	-5.1905102E-001	0
1.1687589E+004	3.996719919676252E+001	-5.2081877E-001	-4.456169583782954E-002	2.3208568E-005	-5.2105105E-001	0
1.1742479E+004	4.016719919171010E+001	-5.2283168E-001	-4.452481413895742E-002	2.3278983E-005	-5.2305102E-001	0
1.1777518E+004	4.036719918665767E+001	-5.2483004E-001	-4.456202515961638E-002	2.3387489E-005	-5.2505106E-001	0
1.1820641E+004	4.056719918160525E+001	-5.2682662E-001	-4.456836358082304E-002	2.3479801E-005	-5.2705103E-001	0
1.1863127E+004	4.076719917655282E+001	-5.2884597E-001	-4.457896830759045E-002	2.3575407E-005	-5.2905101E-001	0
1.1915952E+004	4.096719917150040E+001	-5.3083527E-001	-4.454828652604981E-002	2.3647801E-005	-5.3105104E-001	0
1.1941867E+004	4.116719916644797E+001	-5.3285152E-001	-4.462045369656076E-002	2.3776076E-005	-5.3305101E-001	0
1.1996345E+004	4.136719916139555E+001	-5.3483528E-001	-4.458318849816467E-002	2.3844663E-005	-5.3505099E-001	0
1.2037932E+004	4.156719915634312E+001	-5.3684735E-001	-4.459631236089501E-002	2.3941413E-005	-5.3705102E-001	0
1.2073616E+004	4.176719915129070E+001	-5.3885365E-001	-4.463067407431542E-002	2.4049401E-005	-5.3905106E-001	0
1.2119058E+004	4.196719914623827E+001	-5.4086351E-001	-4.462917237394731E-002	2.4138291E-005	-5.4105103E-001	0
1.2145434E+004	4.216719914118585E+001	-5.4287678E-001	-4.469801734207934E-002	2.4265515E-005	-5.4305100E-001	0
1.2207454E+004	4.236719913613342E+001	-5.4485953E-001	-4.463334652265771E-002	2.4318904E-005	-5.4505104E-001	0
1.2246364E+004	4.256719913108100E+001	-5.4686344E-001	-4.465516680949769E-002	2.4420278E-005	-5.4705101E-001	0
1.2313649E+004	4.276719912602857E+001	-5.4885888E-001	-4.457321037224743E-002	2.4464402E-005	-5.4905099E-001	0
1.2344287E+004	4.296719912097615E+001	-5.5082548E-001	-4.462189381665527E-002	2.4578876E-005	-5.5105102E-001	0
1.2406373E+004	4.316719911592372E+001	-5.5281097E-001	-4.455862776957087E-002	2.4632498E-005	-5.5305105E-001	0
1.2380847E+004	4.336719911087130E+001	-5.5485302E-001	-4.481543457877857E-002	2.4865980E-005	-5.5505103E-001	0
1.2465000E+004	4.356719910581887E+001	-5.5685532E-001	-4.467351223730698E-002	2.4876683E-005	-5.5705106E-001	0
1.2513446E+004	4.376719910076645E+001	-5.5885667E-001	-4.466049223182655E-002	2.4958814E-005	-5.5905104E-001	0
1.2558427E+004	4.396719909571402E+001	-5.6086159E-001	-4.466017809893985E-002	2.5048179E-005	-5.6105107E-001	0
1.2625093E+004	4.416719909066160E+001	-5.6285793E-001	-4.458247675098970E-002	2.5093601E-005	-5.6305099E-001	0
1.2659563E+004	4.436719908560917E+001	-5.6485593E-001	-4.461891308734134E-002	2.5203257E-005	-5.6505102E-001	0
1.2704270E+004	4.456719908055675E+001	-5.6681353E-001	-4.461598585495996E-002	2.5288944E-005	-5.6705105E-001	0
1.2753599E+004	4.476719907550432E+001	-5.6883299E-001	-4.460176222909118E-002	2.5370953E-005	-5.6905097E-001	0
1.2820122E+004	4.496719907045190E+001	-5.7082075E-001	-4.452537539570289E-002	2.5416008E-005	-5.7105106E-001	0
1.2872294E+004	4.516719906539947E+001	-5.7283205E-001	-4.450116325365147E-002	2.5491692E-005	-5.7305104E-001	0
1.2899654E+004	4.536719906034705E+001	-5.7481229E-001	-4.456028514177368E-002	2.5613799E-005	-5.7505107E-001	0
1.2957807E+004	4.556719905529462E+001	-5.7682824E-001	-4.451588664627293E-002	2.5678020E-005	-5.7705098E-001	0
1.3003864E+004	4.576719905024220E+001	-5.7883966E-001	-4.451289495966426E-002	2.5765828E-005	-5.7905102E-001	0
1.3065616E+004	4.596719904518977E+001	-5.8085227E-001	-4.445655357019768E-002	2.5822690E-005	-5.8105111E-001	0
1.3102587E+004	4.616719904013735E+001	-5.8281147E-001	-4.448064276922170E-002	2.5923830E-005	-5.8305097E-001	0
1.3160438E+004	4.636719903508492E+001	-5.8485180E-001	-4.444014831407039E-002	2.5990901E-005	-5.8505100E-001	0
1.3212975E+004	4.656719903003250E+001	-5.8680588E-001	-4.441133749094783E-002	2.6060834E-005	-5.8705109E-001	0
1.3268634E+004	4.676719902498007E+001	-5.8882236E-001	-4.437701605353328E-002	2.6130179E-005	-5.8905101E-001	0
1.3323788E+004	4.696719901992765E+001	-5.9086227E-001	-4.434641833309411E-002	2.6202626E-005	-5.9105104E-001	0
1.3371741E+004	4.716719901487522E+001	-5.9283024E-001	-4.433455981595047E-002	2.6282867E-005	-5.9305102E-001	0
1.3413465E+004	4.736719900982280E+001	-5.9481966E-001	-4.434496865163245E-002	2.6377260E-005	-5.9505105E-001	0
1.3472315E+004	4.756719900477037E+001	-5.9679329E-001	-4.429775097775907E-002	2.6436601E-005	-5.9705102E-001	0
1.3532987E+004	4.776719899971795E+001	-5.9885895E-001	-4.425179384503120E-002	2.6500584E-005	-5.9905100E-001	0
1.3557367E+004	4.796719899466552E+001	-6.0083377E-001	-4.431788118206659E-002	2.6627680E-005	-6.0105109E-001	0
1.3622191E+004	4.816719898961310E+001	-6.0282010E-001	-4.425279912908375E-002	2.6676476E-005	-6.0305095E-001	0
1.3665948E+004	4.836719898456067E+001	-6.0480660E-001	-4.425646778240463E-002	2.6766604E-005	-6.0505104E-001	0
1.3745975E+004	4.856719897950825E+001	-6.0679692E-001	-4.414360713511456E-002	2.6786205E-005	-6.0705107E-001	0
1.3800408E+004	4.876719897445582E+001	-6.0882586E-001	-4.411651201091093E-002	2.6859274E-005	-6.0905099E-001	0
1.3825012E+004	4.896719896940340E+001	-6.1079901E-001	-4.418072359168645E-002	2.6985543E-005	-6.1105102E-001	0
1.3917521E+004	4.916719896435097E+001	-6.1283952E-001	-4.403367104027822E-002	2.6985574E-005	-6.1305100E-001	0
1.3952986E+004	4.936719895929855E+001	-6.1484295E-001	-4.406533162230986E-002	2.7093258E-005	-6.1505109E-001	0
1.3983437E+004	4.956719895424612E+001	-6.1685854E-001	-4.411351647758083E-002	2.7211800E-005	-6.1705101E-001	0
1.4024307E+004	4.976719894919370E+001	-6.1883682E-001	-4.412601749194178E-002	2.7306804E-005	-6.1905098E-001	0
1.4080153E+004	4.996719894414127E+001	-6.2083817E-001	-4.409313820806160E-002	2.7374703E-005	-6.2105107E-001	0
1.4168229E+004	5.016719893908885E+001	-6.2284428E-001	-4.396062827317471E-002	2.7380625E-005	-6.2305099E-001	0
1.4212474E+004	5.036719893403642E+001	-6.2482846E-001	-4.396338581240611E-002	2.7469574E-005	-6.2505102E-001	0
1.4272053E+004	5.056719892898400E+001	-6.2681454E-001	-4.391901845866364E-002	2.7529080E-005	-6.2705100E-001	0
1.4328995E+004	5.076719892393157E+001	-6.2882632E-001	-4.388488569062476E-002	2.7595972E-005	-6.2905109E-001	0
1.4373026E+004	5.096719891887915E+001	-6.3081384E-001	-4.388872675926048E-002	2.7685615E-005	-6.3105100E-001	0
1.4445619E+004	5.116719891382672E+001	-6.3284242E-001	-4.380860547730472E-002	2.7723943E-005	-6.3305104E-001	0
1.4485031E+004	5.136719890877430E+001	-6.3480836E-001	-4.382512920067283E-002	2.7820559E-005	-6.3505107E-001	0
1.4545410E+004	5.156719890372187E+001	-6.3683665E-001	-4.378265355472921E-002	2.7882399E-005	-6.3705105E-001	0
1.4600634E+004	5.176719889866945E+001	-6.3885653E-001	-4.375539828475172E-002	2.7953422E-005	-6.3905102E-001	0
1.4626301E+004	5.198719889311178E+001	-6.4106023E-001	-4.382928126630123E-002	2.8097209E-005	-6.4125097E-001	0
1.4950325E+004	5.220719888755411E+001	-6.4322525E-001	-4.302416447932306E-002	2.7674228E-005	-6.4345098E-001	0
1.5005114E+004	5.240719888250169E+001	-6.4527529E-001	-4.300369025427692E-002	2.7749218E-005	-6.4545101E-001	0
1.5038110E+004	5.260719887744926E+001	-6.4726710E-001	-4.304178559528604E-002	2.7859533E-005	-6.4745110E-001	0
1.5083687E+004	5.280719887239684E+001	-6.4927363E-001	-4.304475701110991E-002	2.7947826E-005	-6.4945102E-001	0
1.5145578E+004	5.300719886734441E+001	-6.5123737E-001	-4.299851628880991E-002	2.8002241E-005	-6.5145099E-001	0
1.5181295E+004	5.320719886229199E+001	-6.5322989E-001	-4.302860070400093E-002	2.8107568E-005	-6.5345103E-001	0
1.5236345E+004	5.340719885723956E+001	-6.5528387E-001	-4.300794415988982E-002	2.8182412E-005	-6.5545106E-001	0
1.5276984E+004	5.360719885218714E+001	-6.5730119E-001	-4.302558583886384E-002	2.8280769E-005	-6.5745103E-001	0
1.5340349E+004	5.380719884713471E+001	-6.5925014E-001	-4.297491118851432E-002	2.8331217E-005	-6.5945101E-001	0
1.5383755E+004	5.400719884208229E+001	-6.6129714E-001	-4.298671983634361E-002	2.8426995E-005	-6.6145110E-001	0
1.5442539E+004	5.420719883702986E+001	-6.6327411E-001	-4.295110373542368E-002	2.8488355E-005	-6.6345102E-001	0
1.5488706E+004	5.440719883197744E+001	-6.6521263E-001	-4.294823868070308E-002	2.8569712E-005	-6.6545105E-001	0
1.5534187E+004	5.460719882692501E+001	-6.6726047E-001	-4.295432440780289E-002	2.8661723E-005	-6.6745102E-001	0
1.5589271E+004	5.480719882187259E+001	-6.6923571E-001	-4.292924958861966E-002	2.8729786E-005	-6.6945106E-001	0
1.5655526E+004	5.500719881682016E+001	-6.7122972E-001	-4.287493655372576E-002	2.8778932E-005	-6.7145103E-001	0
1.5684126E+004	5.520719881176774E+001	-6.7324048E-001	-4.292495980438543E-002	2.8898821E-005	-6.7345101E-001	0
1.5735395E+004	5.540719880671531E+001	-6.7526537E-001	-4.291378774378224E-002	2.8978195E-005	-6.7545110E-001	0
1.5795327E+004	5.560719880166289E+001	-6.7726547E-001	-4.287758372146466E-002	2.9039507E-005	-6.7745101E-001	0
1.5858841E+004	5.580719879661046E+001	-6.7925644E-001	-4.283140625122547E-002	2.9093508E-005	-6.7945099E-001	0
1.5903377E+004	5.600719879155804E+001	-6.8130767E-001	-4.284044002898700E-002	2.9187520E-005	-6.8145108E-001	0
1.5971007E+004	5.620719878650561E+001	-6.8327510E-001	-4.278221776732188E-002	2.9232024E-005	-6.8345100E-001	0
1.6005939E+004	5.640719878145319E+001	-6.8522096E-001	-4.281041718139827E-002	2.9334595E-005	-6.8545103E-001	0
1.6060344E+004	5.660719877640076E+001	-6.8723506E-001	-4.279080653656064E-002	2.9407342E-005	-6.8745100E-001	0
1.6117052E+004	5.680719877134834E+001	-6.8921494E-001	-4.276309072308215E-002	2.9472962E-005	-6.8945110E-001	0
1.6169313E+004	5.700719876629591E+001	-6.9125324E-001	-4.275093293751980E-002	2.9551720E-005	-6.9145101E-001	0
1.6231052E+004	5.720719876124349E+001	-6.9326717E-001	-4.271239871206717E-002	2.9611103E-005	-6.9345099E-001	0
1.6271337E+004	5.740719875619106E+001	-6.9525838E-001	-4.272902498730247E-002	2.9707713E-005	-6.9545108E-001	0
1.6341704E+004	5.760719875113864E+001	-6.9725704E-001	-4.266734084678303E-002	2.9750105E-005	-6.9745106E-001	0
1.6397316E+004	5.780719874608621E+001	-6.9919550E-001	-4.264084893318876E-002	2.9814290E-005	-6.9945103E-001	0
1.6467736E+004	5.800719874103379E+001	-7.0121127E-001	-4.258091499328898E-002	2.9858218E-005	-7.0145106E-001	0
1.6531191E+004	5.820719873598136E+001	-7.0327681E-001	-4.254241398843994E-002	2.9919094E-005	-7.0345110E-001	0
1.6558559E+004	5.840719873092894E+001	-7.0521408E-001	-4.258909870557864E-002	3.0034433E-005	-7.0545107E-001	0
1.6651979E+004	5.860719872587651E+001	-7.0724368E-001	-4.247205315158815E-002	3.0038091E-005	-7.0745105E-001	0
1.6715404E+004	5.880719872082409E+001	-7.0925105E-001	-4.243098494127956E-002	3.0094221E-005	-7.0945114E-001	0
1.6762037E+004	5.900719871577166E+001	-7.1126413E-001	-4.243303748146493E-002	3.0181098E-005	-7.1145105E-001	0
1.6834455E+004	5.920719871071924E+001	-7.1322006E-001	-4.236668474046201E-002	3.0216770E-005	-7.1345103E-001	0
1.6860305E+004	5.940719870566681E+001	-7.1526957E-001	-4.242329045474469E-002	3.0344088E-005	-7.1545106E-001	0
1.6966594E+004	5.960719870061439E+001	-7.1726292E-001	-4.227500782208798E-002	3.0322295E-005	-7.1745110E-001	0
1.7030447E+004	5.980719869556197E+001	-7.1924371E-001	-4.223281430986503E-002	3.0375686E-005	-7.1945107E-001	0
1.7090893E+004	6.000719869050954E+001	-7.2125393E-001	-4.220107081135016E-002	3.0437688E-005	-7.2145104E-001	0
1.7139529E+004	6.020719868545712E+001	-7.2323471E-001	-4.219688080217424E-002	3.0518248E-005	-7.2345114E-001	0
1.7230004E+004	6.040719868040469E+001	-7.2522575E-001	-4.209086320483367E-002	3.0525378E-005	-7.2545111E-001	0
1.7266721E+004	6.060719867535227E+001	-7.2727656E-001	-4.212013380433077E-002	3.0632986E-005	-7.2745097E-001	0
1.7367727E+004	6.080719867029984E+001	-7.2926879E-001	-4.198988064460435E-002	3.0621908E-005	-7.2945106E-001	0
1.7409504E+004	6.100719866524742E+001	-7.3126680E-001	-4.200388550575695E-002	3.0716048E-005	-7.3145103E-001	0
1.7460375E+004	6.120719866019499E+001	-7.3325312E-001	-4.199526848639998E-002	3.0793162E-005	-7.3345101E-001	0
1.7557623E+004	6.140719865514257E+001	-7.3523915E-001	-4.187577865202652E-002	3.0788713E-005	-7.3545104E-001	0
1.7601967E+004	6.160719865009014E+001	-7.3729825E-001	-4.188726447488852E-002	3.0883406E-005	-7.3745108E-001	0
1.7692582E+004	6.180719864503772E+001	-7.3921543E-001	-4.178109468418123E-002	3.0885229E-005	-7.3945105E-001	0
1.7752379E+004	6.200719863998529E+001	-7.4125654E-001	-4.175533616230043E-002	3.0951414E-005	-7.4145103E-001	0
1.7816811E+004	6.220719863493287E+001	-7.4326444E-001	-4.171702903700680E-002	3.1006784E-005	-7.4345112E-001	0
1.7896195E+004	6.240719862988044E+001	-7.4527425E-001	-4.164428343307941E-002	3.1036412E-005	-7.4545103E-001	0
1.7986273E+004	6.260719862482802E+001	-7.4723899E-001	-4.154495980517714E-002	3.1044015E-005	-7.4745101E-001	0
1.8027438E+004	6.280719861977559E+001	-7.4926239E-001	-4.156233623012451E-002	3.1141095E-005	-7.4945104E-001	0
1.8077318E+004	6.300719861472317E+001	-7.5130129E-001	-4.156043845209856E-002	3.1224412E-005	-7.5145108E-001	0
1.8178197E+004	6.320719860967074E+001	-7.5326902E-001	-4.143804791853323E-002	3.1213996E-005	-7.5345105E-001	0
1.8262404E+004	6.340719860461832E+001	-7.5527740E-001	-4.135695182905236E-002	3.1235970E-005	-7.5545102E-001	0
1.8319119E+004	6.360719859956589E+001	-7.5724548E-001	-4.133634886212323E-002	3.1301763E-005	-7.5745112E-001	0
1.8396301E+004	6.380719859451347E+001	-7.5930876E-001	-4.127507703088418E-002	3.1340529E-005	-7.5945109E-001	0
1.8429422E+004	6.400719858946104E+001	-7.6127392E-001	-4.130753185948494E-002	3.1446347E-005	-7.6145107E-001	0
1.8535559E+004	6.420719858440862E+001	-7.6328820E-001	-4.117967180993249E-002	3.1431959E-005	-7.6345104E-001	0
1.8609434E+004	6.440719857935619E+001	-7.6529258E-001	-4.112390495990903E-002	3.1471820E-005	-7.6545113E-001	0
1.8687896E+004	6.460719857430377E+001	-7.6730299E-001	-4.105881881496759E-002	3.1504554E-005	-7.6745099E-001	0
1.8786264E+004	6.480719856925134E+001	-7.6929063E-001	-4.094963592198370E-002	3.1502172E-005	-7.6945108E-001	0
1.8853713E+004	6.500719856419892E+001	-7.7126968E-001	-4.090810545124619E-002	3.1551182E-005	-7.7145106E-001	0
1.8912965E+004	6.520719855914649E+001	-7.7324706E-001	-4.088449544329292E-002	3.1613818E-005	-7.7345103E-001	0
1.9001162E+004	6.540719855409407E+001	-7.7523130E-001	-4.079915161979492E-002	3.1628781E-005	-7.7545100E-001	0
1.9087389E+004	6.560719854904164E+001	-7.7726412E-001	-4.072134260166349E-002	3.1651238E-005	-7.7745110E-001	0
1.9212031E+004	6.580719854398922E+001	-7.7925599E-001	-4.056083458336396E-002	3.1607273E-005	-7.7945107E-001	0
1.9189389E+004	6.600719853893679E+001	-7.8121251E-001	-4.071065102642618E-002	3.1803669E-005	-7.8145105E-001	0
1.9255094E+004	6.620719853388437E+001	-7.8328496E-001	-4.067936520590563E-002	3.1863536E-005	-7.8345108E-001	0
1.9334775E+004	6.640719852883194E+001	-7.8524625E-001	-4.061315703372603E-002	3.1891330E-005	-7.8545111E-001	0
1.9366430E+004	6.660719852377952E+001	-7.8725952E-001	-4.065072987003726E-002	3.2002674E-005	-7.8745109E-001	0
1.9391883E+004	6.680719851872709E+001	-7.8925520E-001	-4.070028734537023E-002	3.2122913E-005	-7.8945100E-001	0
1.9529453E+004	6.700719851367467E+001	-7.9123998E-001	-4.051521341020731E-002	3.2057258E-005	-7.9145116E-001	0
1.9637113E+004	6.720719850862224E+001	-7.9324692E-001	-4.039529390245566E-002	3.2043441E-005	-7.9345113E-001	0
1.9660568E+004	6.740719850356982E+001	-7.9525483E-001	-4.044922820346254E-002	3.2167445E-005	-7.9545105E-001	0
1.9698848E+004	6.760719849851739E+001	-7.9722124E-001	-4.047045182006936E-002	3.2263903E-005	-7.9745108E-001	0
1.9755373E+004	6.780719849346497E+001	-7.9923916E-001	-4.045679756015749E-002	3.2334658E-005	-7.9945111E-001	0
1.9804318E+004	6.800719848841254E+001	-8.0122632E-001	-4.045715098440333E-002	3.2415333E-005	-8.0145109E-001	0
1.9863582E+004	6.820719848336012E+001	-8.0324250E-001	-4.043794856507060E-002	3.2481479E-005	-8.0345106E-001	0
1.9915176E+004	6.840719847830769E+001	-8.0522346E-001	-4.043265758979797E-002	3.2557324E-005	-8.0545115E-001	0
2.0001023E+004	6.860719847325527E+001	-8.0726451E-001	-4.036115965744702E-002	3.2582131E-005	-8.0745101E-001	0
2.0043023E+004	6.880719846820284E+001	-8.0922925E-001	-4.037461011689539E-002	3.2672317E-005	-8.0945110E-001	0
2.0174033E+004	6.900719846315042E+001	-8.1132144E-001	-4.021612620123716E-002	3.2628206E-005	-8.1145108E-001	0
2.0076479E+004	6.920719845809799E+001	-8.1326866E-001	-4.050853065148516E-002	3.2944317E-005	-8.1345105E-001	0
2.0144104E+004	6.940719845304557E+001	-8.1527966E-001	-4.047237447401730E-002	3.2996304E-005	-8.1545115E-001	0
2.0176961E+004	6.960719844799314E+001	-8.1728190E-001	-4.050569934400877E-002	3.3104574E-005	-8.1745106E-001	0
2.0263852E+004	6.980719844294072E+001	-8.1926095E-001	-4.042967666012331E-002	3.3122455E-005	-8.1945115E-001	0
2.0296516E+004	7.000719843788829E+001	-8.2128119E-001	-4.046414840265317E-002	3.3232445E-005	-8.2145107E-001	0
2.0324955E+004	7.020719843283587E+001	-8.2327563E-001	-4.050565423082769E-002	3.3347318E-005	-8.2345098E-001	0
2.0244262E+004	7.040719842778344E+001	-8.2528126E-001	-4.076618298649559E-002	3.3643566E-005	-8.2545114E-001	0
2.0397189E+004	7.060719842273102E+001	-8.2723761E-001	-4.055644869075803E-002	3.3549819E-005	-8.2745111E-001	0
2.0322641E+004	7.080719841767859E+001	-8.2928908E-001	-4.080616574588736E-002	3.3840108E-005	-8.2945108E-001	0
2.0344215E+004	7.100719841262617E+001	-8.3125561E-001	-4.085955670306163E-002	3.3964738E-005	-8.3145106E-001	0
2.0291326E+004	7.120719840757374E+001	-8.3327276E-001	-4.106546689934665E-002	3.4218734E-005	-8.3345109E-001	0
2.0269205E+004	7.140719840252132E+001	-8.3524227E-001	-4.120745176429366E-002	3.4418204E-005	-8.3545107E-001	0
2.0241982E+004	7.160719839746889E+001	-8.3726025E-001	-4.136256056456550E-002	3.4631226E-005	-8.3745104E-001	0
2.0294902E+004	7.180719839241647E+001	-8.3923578E-001	-4.135204961311167E-002	3.4704120E-005	-8.3945113E-001	0
2.0165643E+004	7.200719838736404E+001	-8.4121883E-001	-4.171544686197404E-002	3.5091820E-005	-8.4145111E-001	0
1.9957129E+004	7.220719838231162E+001	-8.4325206E-001	-4.225317335633721E-002	3.5630077E-005	-8.4345108E-001	0
1.9769578E+004	7.240719837725919E+001	-8.4528482E-001	-4.275684532009338E-002	3.6141711E-005	-8.4545106E-001	0
1.9712688E+004	7.260719837220677E+001	-8.4724414E-001	-4.297963525179159E-002	3.6414243E-005	-8.4745103E-001	0
1.8148709E+004	7.281719836690172E+001	-8.4938073E-001	-4.680116328301487E-002	3.9752005E-005	-8.4955108E-001	0
1.6536377E+004	7.302719836159667E+001	-8.5148203E-001	-5.149144740604156E-002	4.3844044E-005	-8.5165113E-001	0
1.6278219E+004	7.322719835654425E+001	-8.5343248E-001	-5.242787840165830E-002	4.4743654E-005	-8.5365111E-001	0
1.5933542E+004	7.342719835149182E+001	-8.5545397E-001	-5.368887555739010E-002	4.5928362E-005	-8.5565108E-001	0
1.5612766E+004	7.362719834643940E+001	-8.5745543E-001	-5.492015036621289E-002	4.7091580E-005	-8.5765105E-001	0
1.5246086E+004	7.382719834138697E+001	-8.5947001E-001	-5.637315882722549E-002	4.8451038E-005	-8.5965115E-001	0
1.4810278E+004	7.402719833633455E+001	-8.6143845E-001	-5.816490723605772E-002	5.0105489E-005	-8.6165100E-001	0
1.4327414E+004	7.422719833128212E+001	-8.6344212E-001	-6.026503521539345E-002	5.2035371E-005	-8.6365110E-001	0
1.3817367E+004	7.442719832622970E+001	-8.6544859E-001	-6.263484145660358E-002	5.4207234E-005	-8.6565107E-001	0
1.3260508E+004	7.462719832117727E+001	-8.6746395E-001	-6.541709805249574E-002	5.6746972E-005	-8.6765105E-001	0
1.2640812E+004	7.482719831612485E+001	-8.6945039E-001	-6.878121761771983E-002	5.9801856E-005	-8.6965114E-001	0
1.1985628E+004	7.502719831107243E+001	-8.7143934E-001	-7.270702688433148E-002	6.3359767E-005	-8.7165105E-001	0
1.1343947E+004	7.522719830602000E+001	-8.7345111E-001	-7.699710646720259E-002	6.7253211E-005	-8.7365121E-001	0
1.0637288E+004	7.542719830096758E+001	-8.7544489E-001	-8.229962895284315E-002	7.2048788E-005	-8.7565106E-001	0
9.9578760E+003	7.562719829591515E+001	-8.7743473E-001	-8.811464609394482E-002	7.7314849E-005	-8.7765098E-001	0
9.2940352E+003	7.582719829086273E+001	-8.7944186E-001	-9.462433544836513E-002	8.3216604E-005	-8.7965113E-001	0
8.6790381E+003	7.602719828581030E+001	-8.8142329E-001	-1.015577215802712E-001	8.9515343E-005	-8.8165110E-001	0
8.1015151E+003	7.622719828075788E+001	-8.8341576E-001	-1.090432755689217E-001	9.6330550E-005	-8.8365108E-001	0
7.5923066E+003	7.642719827570545E+001	-8.8545305E-001	-1.166250399744680E-001	1.0326600E-004	-8.8565111E-001	0
7.1496426E+003	7.662719827065303E+001	-8.8744062E-001	-1.241237703096245E-001	1.1015248E-004	-8.8765109E-001	0
6.7675005E+003	7.682719826560060E+001	-8.8944560E-001	-1.314289713027106E-001	1.1689892E-004	-8.8965112E-001	0
6.4298501E+003	7.702719826054818E+001	-8.9141750E-001	-1.386373685947424E-001	1.2358377E-004	-8.9165103E-001	0
6.1382744E+003	7.722719825549575E+001	-8.9345038E-001	-1.455539927042835E-001	1.3004527E-004	-8.9365113E-001	0
5.8567144E+003	7.742719825044333E+001	-8.9547461E-001	-1.528970939476824E-001	1.3691546E-004	-8.9565110E-001	0
5.5897632E+003	7.762719824539090E+001	-8.9744538E-001	-1.605515972882210E-001	1.4408628E-004	-8.9765108E-001	0
5.3243584E+003	7.782719824033848E+001	-8.9946365E-001	-1.689337225073357E-001	1.5194975E-004	-8.9965111E-001	0
4.9708823E+003	7.802719823528605E+001	-9.0148884E-001	-1.813538962818868E-001	1.6348851E-004	-9.0165102E-001	0
4.7339888E+003	7.822719823023363E+001	-9.0346587E-001	-1.908466482763087E-001	1.7242343E-004	-9.0365112E-001	0
4.4857729E+003	7.842719822518120E+001	-9.0546352E-001	-2.018522873242081E-001	1.8276989E-004	-9.0565109E-001	0
4.2822080E+003	7.862719822012878E+001	-9.0744478E-001	-2.119104938133871E-001	1.9229707E-004	-9.0765119E-001	0
4.1435449E+003	7.882719821507635E+001	-9.0941447E-001	-2.194774055160797E-001	1.9959593E-004	-9.0965116E-001	0
4.0555400E+003	7.902719821002393E+001	-9.1146994E-001	-2.247468677102301E-001	2.0485002E-004	-9.1165107E-001	0
3.9291533E+003	7.922719820497150E+001	-9.1345227E-001	-2.324806878368568E-001	2.1236001E-004	-9.1365111E-001	0
3.7027517E+003	7.942719819991908E+001	-9.1545612E-001	-2.472367003209506E-001	2.2633435E-004	-9.1565120E-001	0
3.4062585E+003	7.962719819486665E+001	-9.1744721E-001	-2.693416199323768E-001	2.4710671E-004	-9.1765106E-001	0
3.0950010E+003	7.982719818981423E+001	-9.1945511E-001	-2.970774768769325E-001	2.7314940E-004	-9.1965109E-001	0
2.7889272E+003	8.002719818476180E+001	-9.2144930E-001	-3.303956154970416E-001	3.0444280E-004	-9.2165112E-001	0
2.4987603E+003	8.022719817970938E+001	-9.2348951E-001	-3.695790697450896E-001	3.4130240E-004	-9.2365110E-001	0
2.1696108E+003	8.042719817465695E+001	-9.2540807E-001	-4.265318084930545E-001	3.9471599E-004	-9.2565107E-001	0
1.9625979E+003	8.062719816960453E+001	-9.2743611E-001	-4.725553496886485E-001	4.3826489E-004	-9.2765111E-001	0
1.7510173E+003	8.082719816455210E+001	-9.2943746E-001	-5.307985539051809E-001	4.9334404E-004	-9.2965108E-001	0
1.5420642E+003	8.102719815949968E+001	-9.3147159E-001	-6.040420139466107E-001	5.6264800E-004	-9.3165106E-001	0
1.3599221E+003	8.122719815444725E+001	-9.3347085E-001	-6.864149420355332E-001	6.4074836E-004	-9.3365115E-001	0
1.2186965E+003	8.142719814939483E+001	-9.3551010E-001	-7.676317155226000E-001	7.1812724E-004	-9.3565112E-001	0
1.0642899E+003	8.162719814434240E+001	-9.3748552E-001	-8.808553705325615E-001	8.2578917E-004	-9.3765110E-001	0
9.5780902E+002	8.182719813928998E+001	-9.3950135E-001	-9.808858939596430E-001	9.2154363E-004	-9.3965107E-001	0
8.4019330E+002	8.203719813398493E+001	-9.4154155E-001	-1.120624936705912E+000	1.0551149E-003	-9.4175118E-001	0
7.4577594E+002	8.224719812867988E+001	-9.4363606E-001	-1.265307744310284E+000	1.1939900E-003	-9.4385111E-001	0
6.6632391E+002	8.244719812362746E+001	-9.4564480E-001	-1.419196780602071E+000	1.3420561E-003	-9.4585103E-001	0
5.9227838E+002	8.264719811857503E+001	-9.4764340E-001	-1.599996608840364E+000	1.5162262E-003	-9.4785112E-001	0
5.2873419E+002	8.284719811352261E+001	-9.4965595E-001	-1.796093347661884E+000	1.7056707E-003	-9.4985110E-001	0
4.7528995E+002	8.304719810847018E+001	-9.5162344E-001	-2.002195594397263E+000	1.9053363E-003	-9.5185107E-001	0
4.2745782E+002	8.324719810341776E+001	-9.5367086E-001	-2.231029108065322E+000	2.1276674E-003	-9.5385116E-001	0
3.8579282E+002	8.344719809836533E+001	-9.5565635E-001	-2.477123214121988E+000	2.3672786E-003	-9.5585114E-001	0
3.4882687E+002	8.364719809331291E+001	-9.5766056E-001	-2.745374842650364E+000	2.6291371E-003	-9.5785111E-001	0
3.1616144E+002	8.384719808826048E+001	-9.5962119E-001	-3.035225141345779E+000	2.9126664E-003	-9.5985109E-001	0
2.8739240E+002	8.404719808320806E+001	-9.6167439E-001	-3.346206781072134E+000	3.2179614E-003	-9.6185118E-001	0
2.6242166E+002	8.424719807815563E+001	-9.6368468E-001	-3.672275612211017E+000	3.5389157E-003	-9.6385115E-001	0
2.4002512E+002	8.444719807310321E+001	-9.6564233E-001	-4.023088822525651E+000	3.8848650E-003	-9.6585107E-001	0
2.2038045E+002	8.464719806805078E+001	-9.6766245E-001	-4.390872501968794E+000	4.2488826E-003	-9.6785110E-001	0
2.0295657E+002	8.484719806299836E+001	-9.6965224E-001	-4.777634114635241E+000	4.6326434E-003	-9.6985120E-001	0
1.8726877E+002	8.504719805794593E+001	-9.7167873E-001	-5.188685490768776E+000	5.0417352E-003	-9.7185105E-001	0
1.7352745E+002	8.524719805289351E+001	-9.7364062E-001	-5.610873529092004E+000	5.4629743E-003	-9.7385108E-001	0
1.6096530E+002	8.544719804784108E+001	-9.7565162E-001	-6.061254284819768E+000	5.9136725E-003	-9.7585112E-001	0
1.4970667E+002	8.564719804278866E+001	-9.7762054E-001	-6.530240687788776E+000	6.3840975E-003	-9.7785109E-001	0
1.3973846E+002	8.584719803773623E+001	-9.7964925E-001	-7.010590983085876E+000	6.8679200E-003	-9.7985113E-001	0
1.3054886E+002	8.604719803268381E+001	-9.8168194E-001	-7.519651639285797E+000	7.3819063E-003	-9.8185110E-001	0
1.2240450E+002	8.624719802763138E+001	-9.8363525E-001	-8.035939979850596E+000	7.9044336E-003	-9.8385108E-001	0
1.1488129E+002	8.644719802257896E+001	-9.8568231E-001	-8.580007687177257E+000	8.4571615E-003	-9.8585105E-001	0
1.0821464E+002	8.664719801752653E+001	-9.8765510E-001	-9.126816041615541E+000	9.0141464E-003	-9.8785114E-001	0
1.0212431E+002	8.684719801247411E+001	-9.8967916E-001	-9.690926631967486E+000	9.5909080E-003	-9.8985112E-001	0
9.6535301E+001	8.704719800742168E+001	-9.9165648E-001	-1.027247552678426E+001	1.0186767E-002	-9.9185109E-001	0
9.1108009E+001	8.725719800211664E+001	-9.9375939E-001	-1.090748647524396E+001	1.0839418E-002	-9.9395114E-001	0
8.6010185E+001	8.746719799681159E+001	-9.9584162E-001	-1.157818225614066E+001	1.1530036E-002	-9.9605113E-001	0
8.1704124E+001	8.766719799175917E+001	-9.9783731E-001	-1.221281382630741E+001	1.2186402E-002	-9.9805105E-001	0
7.7766281E+001	8.786719798670674E+001	-9.9982768E-001	-1.285682776942003E+001	1.2854612E-002	-1.0000510E+000	0
7.4100906E+001	8.806739798164926E+001	-1.0018969E+000	-1.352070995417184E+001	1.3546357E-002	-1.0020525E+000	0
7.0787590E+001	8.826769797658926E+001	-1.0038561E+000	-1.418124353184828E+001	1.4235928E-002	-1.0040560E+000	0
6.7610344E+001	8.846779797153431E+001	-1.0058300E+000	-1.487686633969114E+001	1.4963599E-002	-1.0060571E+000	0
6.4672363E+001	8.866789796647936E+001	-1.0078363E+000	-1.558372447046145E+001	1.5705844E-002	-1.0080578E+000	0
6.1974480E+001	8.886819796141936E+001	-1.0098864E+000	-1.629519787447367E+001	1.6456299E-002	-1.0100605E+000	0
5.9443439E+001	8.906849795635935E+001	-1.0118830E+000	-1.702261899621405E+001	1.7224899E-002	-1.0120639E+000	0
5.7062946E+001	8.926859795130440E+001	-1.0138825E+000	-1.776779138541812E+001	1.8014453E-002	-1.0140651E+000	0
5.4867714E+001	8.946879794624692E+001	-1.0158986E+000	-1.851541723491373E+001	1.8809786E-002	-1.0160667E+000	0
5.2778309E+001	8.966899794118945E+001	-1.0179052E+000	-1.928643074192431E+001	1.9631758E-002	-1.0180691E+000	0
5.0854893E+001	8.986909793613449E+001	-1.0199187E+000	-2.005546826679915E+001	2.0454947E-002	-1.0200700E+000	0
4.9040596E+001	9.006929793107702E+001	-1.0218797E+000	-2.083742319188184E+001	2.1293338E-002	-1.0220720E+000	0
4.7313095E+001	9.026949792601954E+001	-1.0239003E+000	-2.164094864186939E+001	2.2158174E-002	-1.0240740E+000	0
4.5647545E+001	9.046959792096459E+001	-1.0259148E+000	-2.247469724157229E+001	2.3057124E-002	-1.0260751E+000	0
4.4106262E+001	9.066969791590964E+001	-1.0279155E+000	-2.330543196205019E+001	2.3956014E-002	-1.0280759E+000	0
4.2633785E+001	9.086979791085469E+001	-1.0299232E+000	-2.415744200761088E+001	2.4880311E-002	-1.0300771E+000	0
4.1246536E+001	9.106989790579973E+001	-1.0319315E+000	-2.501862198448248E+001	2.5817504E-002	-1.0320779E+000	0
3.9927975E+001	9.126999790074478E+001	-1.0338962E+000	-2.589403165468025E+001	2.6771741E-002	-1.0340791E+000	0
3.8698654E+001	9.147009789568983E+001	-1.0359186E+000	-2.676885415837596E+001	2.7730353E-002	-1.0360799E+000	0
3.7515335E+001	9.167019789063488E+001	-1.0379288E+000	-2.766678888538252E+001	2.8716158E-002	-1.0380810E+000	0
3.6383499E+001	9.187039788557740E+001	-1.0399067E+000	-2.858182422221455E+001	2.9722432E-002	-1.0400827E+000	0
3.5302742E+001	9.207079788051487E+001	-1.0419153E+000	-2.951372080489352E+001	3.0750798E-002	-1.0420870E+000	0
3.4266453E+001	9.227079787546245E+001	-1.0439392E+000	-3.046534385837930E+001	3.1803969E-002	-1.0440872E+000	0
3.3270756E+001	9.247079787041002E+001	-1.0459681E+000	-3.143806141466234E+001	3.2883208E-002	-1.0460870E+000	0
3.2299011E+001	9.267099786535255E+001	-1.0479327E+000	-3.244473142871277E+001	3.3999898E-002	-1.0480886E+000	0
3.1397684E+001	9.287119786029507E+001	-1.0499203E+000	-3.343941998076275E+001	3.5108726E-002	-1.0500910E+000	0
3.0513525E+001	9.307119785524264E+001	-1.0519068E+000	-3.447346059454259E+001	3.6262870E-002	-1.0520911E+000	0
2.9679012E+001	9.327119785019022E+001	-1.0539016E+000	-3.550999324337965E+001	3.7424035E-002	-1.0540911E+000	0
2.8887415E+001	9.347119784513779E+001	-1.0559049E+000	-3.655241900858164E+001	3.8595878E-002	-1.0560911E+000	0
2.8116035E+001	9.367119784008537E+001	-1.0579288E+000	-3.762724046534163E+001	3.9806940E-002	-1.0580910E+000	0
2.7339279E+001	9.387129783503042E+001	-1.0599275E+000	-3.876940131425114E+001	4.1092753E-002	-1.0600920E+000	0
2.6586773E+001	9.407139782997547E+001	-1.0619415E+000	-3.994247555759773E+001	4.2416573E-002	-1.0620931E+000	0
2.5904491E+001	9.427149782492052E+001	-1.0639389E+000	-4.107159848973370E+001	4.3697670E-002	-1.0640939E+000	0
2.5225451E+001	9.447179781986051E+001	-1.0659515E+000	-4.225698573033640E+001	4.5043897E-002	-1.0660967E+000	0
2.4570263E+001	9.467199781480304E+001	-1.0679588E+000	-4.346550396943036E+001	4.6419367E-002	-1.0680990E+000	0
2.3957180E+001	9.487209780974808E+001	-1.0699435E+000	-4.466066158146805E+001	4.7784388E-002	-1.0700998E+000	0
2.3324554E+001	9.507229780469061E+001	-1.0719315E+000	-4.595721311288366E+001	4.9262982E-002	-1.0721018E+000	0
2.2721395E+001	9.527239779963566E+001	-1.0739230E+000	-4.726483474540066E+001	5.0758794E-002	-1.0741031E+000	0
2.2143366E+001	9.547239779458323E+001	-1.0759385E+000	-4.858965493951541E+001	5.2279480E-002	-1.0761031E+000	0
2.1599136E+001	9.567239778953081E+001	-1.0779462E+000	-4.990691263659460E+001	5.3796966E-002	-1.0781031E+000	0
2.1078306E+001	9.587239778447838E+001	-1.0799843E+000	-5.123676863441096E+001	5.5334907E-002	-1.0801030E+000	0
2.0553995E+001	9.607249777942343E+001	-1.0819777E+000	-5.264074961593292E+001	5.6956120E-002	-1.0821041E+000	0
2.0048681E+001	9.627279777436343E+001	-1.0839474E+000	-5.406577170050127E+001	5.8604453E-002	-1.0841067E+000	0
1.9563208E+001	9.647309776930342E+001	-1.0859087E+000	-5.550770008134225E+001	6.0276292E-002	-1.0861100E+000	0
1.9101912E+001	9.667319776424847E+001	-1.0879629E+000	-5.695570631200201E+001	6.1965693E-002	-1.0881112E+000	0
1.8642147E+001	9.687319775919605E+001	-1.0899571E+000	-5.846736042407622E+001	6.3726917E-002	-1.0901110E+000	0
1.8193968E+001	9.707329775414109E+001	-1.0919608E+000	-6.001773538432354E+001	6.5537013E-002	-1.0921119E+000	0
1.7757393E+001	9.727339774908614E+001	-1.0939598E+000	-6.160587836068726E+001	6.7394353E-002	-1.0941131E+000	0
1.7325216E+001	9.747339774403372E+001	-1.0959818E+000	-6.325934334947442E+001	6.9331095E-002	-1.0961132E+000	0
1.6924206E+001	9.767339773898129E+001	-1.0979573E+000	-6.487496137727160E+001	7.1229935E-002	-1.0981132E+000	0
1.6515162E+001	9.787349773392634E+001	-1.0999614E+000	-6.660312858428870E+001	7.3260874E-002	-1.1001139E+000	0
1.6161272E+001	9.807359772887139E+001	-1.1019475E+000	-6.818445804492148E+001	7.5135693E-002	-1.1021150E+000	0
1.5813565E+001	9.827379772381391E+001	-1.1039867E+000	-6.981263988543128E+001	7.7072226E-002	-1.1041167E+000	0
1.5451381E+001	9.847409771875391E+001	-1.1059672E+000	-7.157723927763715E+001	7.9162076E-002	-1.1061199E+000	0
1.5077523E+001	9.867419771369896E+001	-1.1079944E+000	-7.348650176130411E+001	8.1422634E-002	-1.1081212E+000	0
1.4764234E+001	9.887419770864653E+001	-1.1099994E+000	-7.518164759698652E+001	8.3451584E-002	-1.1101210E+000	0
1.4478005E+001	9.907419770359411E+001	-1.1119667E+000	-7.680386271984924E+001	8.5403338E-002	-1.1121211E+000	0
1.4174582E+001	9.927419769854168E+001	-1.1139617E+000	-7.858868171460495E+001	8.7544784E-002	-1.1141211E+000	0
1.3896264E+001	9.947419769348926E+001	-1.1159918E+000	-8.030876919147363E+001	8.9623928E-002	-1.1161211E+000	0
1.3600481E+001	9.967429768843431E+001	-1.1179810E+000	-8.220157414983169E+001	9.1899797E-002	-1.1181219E+000	0
1.3334143E+001	9.987449768337683E+001	-1.1200079E+000	-8.399549081316619E+001	9.4075613E-002	-1.1201239E+000	0
1.3090802E+001	1.000747976783168E+002	-1.1219834E+000	-8.570776350508042E+001	9.6162692E-002	-1.1221266E+000	0
1.2830058E+001	1.002751976732543E+002	-1.1239932E+000	-8.760624130101996E+001	9.8468818E-002	-1.1241311E+000	0
1.2541895E+001	1.004751976682019E+002	-1.1260184E+000	-8.978056587383639E+001	1.0109457E-001	-1.1261311E+000	0
1.2273289E+001	1.006752976631469E+002	-1.1280313E+000	-9.190945222451637E+001	1.0367674E-001	-1.1281320E+000	0
1.2000417E+001	1.008753976580920E+002	-1.1299990E+000	-9.416331879892573E+001	1.0640446E-001	-1.1301332E+000	0
1.1737478E+001	1.010754976530370E+002	-1.1320064E+000	-9.644374933943101E+001	1.0917494E-001	-1.1321340E+000	0
1.1505169E+001	1.012755976479821E+002	-1.1339492E+000	-9.855997444550751E+001	1.1176200E-001	-1.1341351E+000	0
1.1275328E+001	1.014756976429271E+002	-1.1360186E+000	-1.007526024468054E+002	1.1445683E-001	-1.1361358E+000	0
1.1062647E+001	1.016757976378722E+002	-1.1380631E+000	-1.028743925689300E+002	1.1707754E-001	-1.1381371E+000	0
1.0858495E+001	1.018757976328197E+002	-1.1400295E+000	-1.049896525579779E+002	1.1969130E-001	-1.1401372E+000	0
1.0652921E+001	1.020759976277623E+002	-1.1420674E+000	-1.072069784021704E+002	1.2243760E-001	-1.1421391E+000	0
1.0429785E+001	1.022860976224547E+002	-1.1441619E+000	-1.097013902686388E+002	1.2551616E-001	-1.1442398E+000	0
1.0170057E+001	1.024962976171446E+002	-1.1462368E+000	-1.127070112526344E+002	1.2918893E-001	-1.1463419E+000	0
9.9852715E+000	1.026963976120896E+002	-1.1481841E+000	-1.149877626328239E+002	1.3202712E-001	-1.1483431E+000	0
9.8124590E+000	1.028965976070322E+002	-1.1502410E+000	-1.172225073987825E+002	1.3483414E-001	-1.1503450E+000	0
9.6579838E+000	1.030966976019772E+002	-1.1522083E+000	-1.193011196504594E+002	1.3745974E-001	-1.1523459E+000	0
9.5078697E+000	1.032967975969223E+002	-1.1542991E+000	-1.214045966022950E+002	1.4013723E-001	-1.1543472E+000	0
9.3142366E+000	1.034967975918698E+002	-1.1562172E+000	-1.241344099628677E+002	1.4352635E-001	-1.1563472E+000	0
9.1553831E+000	1.036968975868149E+002	-1.1582395E+000	-1.265091184649674E+002	1.4652786E-001	-1.1583480E+000	0
9.0079947E+000	1.038969975817599E+002	-1.1602014E+000	-1.287968610744084E+002	1.4943030E-001	-1.1603491E+000	0
8.8198757E+000	1.040970975767050E+002	-1.1622381E+000	-1.317748835962286E+002	1.5315379E-001	-1.1623499E+000	0
8.6977453E+000	1.042971975716500E+002	-1.1642319E+000	-1.338544494062321E+002	1.5583763E-001	-1.1643512E+000	0
8.5402908E+000	1.044972975665951E+002	-1.1662185E+000	-1.365548877278262E+002	1.5925284E-001	-1.1663519E+000	0
8.3924332E+000	1.046973975615401E+002	-1.1682352E+000	-1.392010156886652E+002	1.6261953E-001	-1.1683531E+000	0
8.2973042E+000	1.048973975564877E+002	-1.1702102E+000	-1.410350003880433E+002	1.6504060E-001	-1.1703531E+000	0
8.1630383E+000	1.050973975514353E+002	-1.1722018E+000	-1.435987082587343E+002	1.6832666E-001	-1.1723531E+000	0
8.0622873E+000	1.052974975463803E+002	-1.1742638E+000	-1.456489683341067E+002	1.7103031E-001	-1.1743540E+000	0
7.9670215E+000	1.054976975413229E+002	-1.1762220E+000	-1.476363494146635E+002	1.7365311E-001	-1.1763560E+000	0
7.8460274E+000	1.056978975362654E+002	-1.1782134E+000	-1.501668688848655E+002	1.7692861E-001	-1.1783578E+000	0
7.6806512E+000	1.058982975312028E+002	-1.1802231E+000	-1.536618525703816E+002	1.8135527E-001	-1.1803614E+000	0
7.5692515E+000	1.060985975261428E+002	-1.1822420E+000	-1.561900810903437E+002	1.8465447E-001	-1.1823651E+000	0
7.4859324E+000	1.062985975210904E+002	-1.1842612E+000	-1.581982258290656E+002	1.8734802E-001	-1.1843652E+000	0
7.3710742E+000	1.064985975160380E+002	-1.1862296E+000	-1.609303580044078E+002	1.9090036E-001	-1.1863651E+000	0
7.2628341E+000	1.066985975109856E+002	-1.1882418E+000	-1.636058094550149E+002	1.9440326E-001	-1.1883651E+000	0
7.1772056E+000	1.068988975059256E+002	-1.1902399E+000	-1.658361155745506E+002	1.9738476E-001	-1.1903678E+000	0
7.1042495E+000	1.070989975008706E+002	-1.1922579E+000	-1.678231968685065E+002	2.0008853E-001	-1.1923691E+000	0
7.0053859E+000	1.072989974958182E+002	-1.1942481E+000	-1.704757074001421E+002	2.0359029E-001	-1.1943692E+000	0
6.8937750E+000	1.074989974907658E+002	-1.1962696E+000	-1.735289633290299E+002	2.0758744E-001	-1.1963692E+000	0
6.8270578E+000	1.076989974857133E+002	-1.1982535E+000	-1.755153639667968E+002	2.1031190E-001	-1.1983691E+000	0
6.7101836E+000	1.078991974806559E+002	-1.2003000E+000	-1.788773716222786E+002	2.1470651E-001	-1.2003706E+000	0
6.5743814E+000	1.080994974755959E+002	-1.2022477E+000	-1.828685731526894E+002	2.1985333E-001	-1.2023739E+000	0
6.5125589E+000	1.082996974705384E+002	-1.2043029E+000	-1.849200842086484E+002	2.2269979E-001	-1.2043759E+000	0
6.4224911E+000	1.084997974654834E+002	-1.2062603E+000	-1.878181368953246E+002	2.2655757E-001	-1.2063771E+000	0
6.3484058E+000	1.086997974604310E+002	-1.2082759E+000	-1.903274591212380E+002	2.2996809E-001	-1.2083771E+000	0
6.2690988E+000	1.088997974553786E+002	-1.2102995E+000	-1.930579725706662E+002	2.3365797E-001	-1.2103771E+000	0
6.2145901E+000	1.090997974503262E+002	-1.2122819E+000	-1.950702939693081E+002	2.3648019E-001	-1.2123771E+000	0
6.1435952E+000	1.092998974452712E+002	-1.2142766E+000	-1.976491846764715E+002	2.4000077E-001	-1.2143778E+000	0
6.0889082E+000	1.095001974402112E+002	-1.2162820E+000	-1.997537082725302E+002	2.4295685E-001	-1.2163807E+000	0
5.9992485E+000	1.097006974351461E+002	-1.2182782E+000	-2.030718009723150E+002	2.4739794E-001	-1.2183858E+000	0
5.9172225E+000	1.099008974300887E+002	-1.2202898E+000	-2.062267865667377E+002	2.5165644E-001	-1.2203878E+000	0
5.8273449E+000	1.101010974250312E+002	-1.2223059E+000	-2.097534915452968E+002	2.5638294E-001	-1.2223898E+000	0
5.7495546E+000	1.103011974199762E+002	-1.2242919E+000	-2.129368337254946E+002	2.6069686E-001	-1.2243911E+000	0
5.6732659E+000	1.105013974149188E+002	-1.2262866E+000	-2.161517971767196E+002	2.6506406E-001	-1.2263925E+000	0
5.6250067E+000	1.107015974098613E+002	-1.2282727E+000	-2.183593284105227E+002	2.6820481E-001	-1.2283951E+000	0
5.5776615E+000	1.109018974048013E+002	-1.2302988E+000	-2.205760972287121E+002	2.7137449E-001	-1.2303978E+000	0
5.4947090E+000	1.111019973997463E+002	-1.2322956E+000	-2.242694977373219E+002	2.7636632E-001	-1.2323991E+000	0
5.4485736E+000	1.113019973946939E+002	-1.2342811E+000	-2.265328761401370E+002	2.7960524E-001	-1.2343991E+000	0
5.3672018E+000	1.115020973896389E+002	-1.2363353E+000	-2.303500637003065E+002	2.8478992E-001	-1.2363998E+000	0
5.3361568E+000	1.117021973845840E+002	-1.2383273E+000	-2.320635153084918E+002	2.8737059E-001	-1.2384011E+000	0
5.3070607E+000	1.119021973795316E+002	-1.2403424E+000	-2.337155074467728E+002	2.8988725E-001	-1.2404011E+000	0
5.2253575E+000	1.121022973744766E+002	-1.2423418E+000	-2.377524795033014E+002	2.9536983E-001	-1.2424020E+000	0
5.1903930E+000	1.123025973694166E+002	-1.2443174E+000	-2.397347311293579E+002	2.9830611E-001	-1.2444046E+000	0
5.1208539E+000	1.125027973643591E+002	-1.2463185E+000	-2.433809948183789E+002	3.0333021E-001	-1.2464070E+000	0
5.0187659E+000	1.127028973593042E+002	-1.2483592E+000	-2.487382879730326E+002	3.1051472E-001	-1.2484080E+000	0
4.9564161E+000	1.129029973542492E+002	-1.2503492E+000	-2.522688037673352E+002	3.1542408E-001	-1.2504091E+000	0
4.9222608E+000	1.131030973491943E+002	-1.2523388E+000	-2.544234809140078E+002	3.1862438E-001	-1.2524099E+000	0
4.8825879E+000	1.133031973441393E+002	-1.2543594E+000	-2.569046257931618E+002	3.2225072E-001	-1.2544111E+000	0
4.8307848E+000	1.135034973390793E+002	-1.2563492E+000	-2.600714396805943E+002	3.2674053E-001	-1.2564136E+000	0
4.8031259E+000	1.137038973340168E+002	-1.2583432E+000	-2.619842300412583E+002	3.2966608E-001	-1.2584178E+000	0
4.7392378E+000	1.139040973289593E+002	-1.2603705E+000	-2.659437035867068E+002	3.3518758E-001	-1.2604198E+000	0
4.6825881E+000	1.141041973239044E+002	-1.2623467E+000	-2.695831341927278E+002	3.4030738E-001	-1.2624211E+000	0
4.6447124E+000	1.143041973188519E+002	-1.2643516E+000	-2.722130986535894E+002	3.4417307E-001	-1.2644212E+000	0
4.6038857E+000	1.145043973137945E+002	-1.2663673E+000	-2.750649034844373E+002	3.4833321E-001	-1.2664231E+000	0
4.5603509E+000	1.147045973087370E+002	-1.2683561E+000	-2.781268543402039E+002	3.5276389E-001	-1.2684247E+000	0
4.5216379E+000	1.149049973036745E+002	-1.2703791E+000	-2.809554958222743E+002	3.5691997E-001	-1.2704284E+000	0
4.4875350E+000	1.151052972986145E+002	-1.2723666E+000	-2.835335309948323E+002	3.6075860E-001	-1.2724320E+000	0
4.4762239E+000	1.153054972935570E+002	-1.2743591E+000	-2.846951284777554E+002	3.6280382E-001	-1.2744340E+000	0
4.4352422E+000	1.155055972885020E+002	-1.2763681E+000	-2.877786904722111E+002	3.6731157E-001	-1.2764351E+000	0
4.4154196E+000	1.157055972834496E+002	-1.2783757E+000	-2.895253240645861E+002	3.7012216E-001	-1.2784351E+000	0
4.3657312E+000	1.159055972783972E+002	-1.2803842E+000	-2.932805801162365E+002	3.7551183E-001	-1.2804351E+000	0
4.3347888E+000	1.161058972733372E+002	-1.2824036E+000	-2.958399114039917E+002	3.7938616E-001	-1.2824377E+000	0
4.2711673E+000	1.163059972682822E+002	-1.2844155E+000	-3.007176568924442E+002	3.8624641E-001	-1.2844391E+000	0
4.2216754E+000	1.165060972632273E+002	-1.2864063E+000	-3.047146216920792E+002	3.9198682E-001	-1.2864399E+000	0
4.2129483E+000	1.167062972581698E+002	-1.2883419E+000	-3.058052952672817E+002	3.9398175E-001	-1.2884420E+000	0
4.1905766E+000	1.169063972531148E+002	-1.2904099E+000	-3.079313709492585E+002	3.9735770E-001	-1.2904432E+000	0
4.1223421E+000	1.171064972480599E+002	-1.2923841E+000	-3.135072555315637E+002	4.0517181E-001	-1.2924439E+000	0
4.0918903E+000	1.173067972429999E+002	-1.2944759E+000	-3.163515659040304E+002	4.0950948E-001	-1.2944467E+000	0
4.0562239E+000	1.175070972379399E+002	-1.2964230E+000	-3.196132518589669E+002	4.1435397E-001	-1.2964499E+000	0
4.0334649E+000	1.177071972328849E+002	-1.2984035E+000	-3.219077145518088E+002	4.1796610E-001	-1.2984511E+000	0
3.9957507E+000	1.179072972278300E+002	-1.3004426E+000	-3.254563844263198E+002	4.2323735E-001	-1.3004519E+000	0
3.9649148E+000	1.181074972227725E+002	-1.3024223E+000	-3.284868202916600E+002	4.2782855E-001	-1.3024540E+000	0
3.9191313E+000	1.183076972177150E+002	-1.3044239E+000	-3.328349600717072E+002	4.3415788E-001	-1.3044559E+000	0
3.8987916E+000	1.185077972126601E+002	-1.3064219E+000	-3.350837934411838E+002	4.3776080E-001	-1.3064570E+000	0
3.9099975E+000	1.187078972076051E+002	-1.3084054E+000	-3.346307634518444E+002	4.3783268E-001	-1.3084580E+000	0
3.8677497E+000	1.189079972025502E+002	-1.3104496E+000	-3.388144756109532E+002	4.4399929E-001	-1.3104590E+000	0
3.8582878E+000	1.191080971974952E+002	-1.3124063E+000	-3.401525182240894E+002	4.4641832E-001	-1.3124599E+000	0
3.8447399E+000	1.193083971924352E+002	-1.3144578E+000	-3.418847010450706E+002	4.4939300E-001	-1.3144628E+000	0
3.8225408E+000	1.195086971873752E+002	-1.3164719E+000	-3.443971021121952E+002	4.5338911E-001	-1.3164657E+000	0
3.8208249E+000	1.196988971825704E+002	-1.3183525E+000	-3.450439441370144E+002	4.5488954E-001	-1.3183678E+000	0
3.7701068E+000	1.198392971790236E+002	-1.3198010E+000	-3.500699128477424E+002	4.6202260E-001	-1.3197713E+000	0
3.6784966E+000	1.199696971757294E+002	-1.3210895E+000	-3.591384315858672E+002	4.7445402E-001	-1.3210745E+000	0
3.6821697E+000	1.200904971726777E+002	-1.3222653E+000	-3.590994931649630E+002	4.7482479E-001	-1.3222822E+000	0
3.6971080E+000	1.202210971693785E+002	-1.3236192E+000	-3.580147512016420E+002	4.7387522E-001	-1.3235897E+000	0
3.6727867E+000	1.203315971665870E+002	-1.3247013E+000	-3.606801523508007E+002	4.7779346E-001	-1.3246940E+000	0
3.6478488E+000	1.204620971632903E+002	-1.3259969E+000	-3.635010463402859E+002	4.8200125E-001	-1.3259989E+000	0
3.6432672E+000	1.206026971597385E+002	-1.3274122E+000	-3.643466694495664E+002	4.8363823E-001	-1.3274055E+000	0
3.6103308E+000	1.207531971559365E+002	-1.3289075E+000	-3.680846928081091E+002	4.8915049E-001	-1.3289101E+000	0
3.5706792E+000	1.208936971523872E+002	-1.3303211E+000	-3.725680646013598E+002	4.9563515E-001	-1.3303152E+000	0
3.5533116E+000	1.210342971488353E+002	-1.3317587E+000	-3.747936931782278E+002	4.9913478E-001	-1.3317214E+000	0
3.5384965E+000	1.211451971460338E+002	-1.3329060E+000	-3.766870967018585E+002	5.0208849E-001	-1.3328296E+000	0
3.5261605E+000	1.212362971437324E+002	-1.3337468E+000	-3.782433725967389E+002	5.0448090E-001	-1.3337412E+000	0
3.5186458E+000	1.213966971396803E+002	-1.3353913E+000	-3.795185467909996E+002	5.0680578E-001	-1.3353450E+000	0
3.4938917E+000	1.215272971363811E+002	-1.3366579E+000	-3.825699328169021E+002	5.1136512E-001	-1.3366511E+000	0
3.5061159E+000	1.216380971335821E+002	-1.3377793E+000	-3.815559182581446E+002	5.1043761E-001	-1.3377589E+000	0
3.5090823E+000	1.217789971300226E+002	-1.3391904E+000	-3.816354953710429E+002	5.1108259E-001	-1.3391684E+000	0
3.4497595E+000	1.219198971264632E+002	-1.3405989E+000	-3.886065016429584E+002	5.2096546E-001	-1.3405771E+000	0
3.4305351E+000	1.220903971221560E+002	-1.3423542E+000	-3.912958620491399E+002	5.2525765E-001	-1.3422827E+000	0
3.4473267E+000	1.222407971183566E+002	-1.3438148E+000	-3.898136161342081E+002	5.2383733E-001	-1.3437854E+000	0
3.4526348E+000	1.223813971148047E+002	-1.3452238E+000	-3.896223823879650E+002	5.2412927E-001	-1.3451923E+000	0
3.4281867E+000	1.225218971112554E+002	-1.3466469E+000	-3.928161057888242E+002	5.2898461E-001	-1.3465968E+000	0
3.4078689E+000	1.226622971077086E+002	-1.3480569E+000	-3.955718140962281E+002	5.3325331E-001	-1.3480011E+000	0
3.3931201E+000	1.227829971046594E+002	-1.3492662E+000	-3.976476241349956E+002	5.3653246E-001	-1.3492078E+000	0
3.3789878E+000	1.228834971021206E+002	-1.3502513E+000	-3.996023141832111E+002	5.3956354E-001	-1.3502133E+000	0
3.3858526E+000	1.230437970980711E+002	-1.3518605E+000	-3.992673826000555E+002	5.3975379E-001	-1.3518162E+000	0
3.3619289E+000	1.232042970940165E+002	-1.3534653E+000	-4.025859337448717E+002	5.4488611E-001	-1.3534212E+000	0
3.3066795E+000	1.233547970902146E+002	-1.3550470E+000	-4.097908458411257E+002	5.5528587E-001	-1.3549263E+000	0
3.3143237E+000	1.235052970864126E+002	-1.3564665E+000	-4.092740216622587E+002	5.5516648E-001	-1.3564314E+000	0
3.2891123E+000	1.236655970823631E+002	-1.3580424E+000	-4.128902348804700E+002	5.6072241E-001	-1.3580344E+000	0
3.2204697E+000	1.238161970785586E+002	-1.3595905E+000	-4.221714889506711E+002	5.7398033E-001	-1.3595400E+000	0
3.2178347E+000	1.239565970750118E+002	-1.3609898E+000	-4.229520694562198E+002	5.7563347E-001	-1.3609443E+000	0
3.2291763E+000	1.240869970717176E+002	-1.3623571E+000	-4.218899899297985E+002	5.7476485E-001	-1.3622481E+000	0
3.2190831E+000	1.242274970681683E+002	-1.3637050E+000	-4.236315141820924E+002	5.7770842E-001	-1.3636527E+000	0
3.2227929E+000	1.243779970643664E+002	-1.3652256E+000	-4.236156542682288E+002	5.7833093E-001	-1.3651583E+000	0
3.1866648E+000	1.245184970608170E+002	-1.3666347E+000	-4.288605290978394E+002	5.8609569E-001	-1.3665630E+000	0
3.1533413E+000	1.246788970567650E+002	-1.3682679E+000	-4.339105123593345E+002	5.9370583E-001	-1.3681673E+000	0
3.1519289E+000	1.248396970527028E+002	-1.3698326E+000	-4.346013694627500E+002	5.9533113E-001	-1.3697753E+000	0
3.1497662E+000	1.249801970491535E+002	-1.3712500E+000	-4.353497907103920E+002	5.9697342E-001	-1.3711792E+000	0
3.1270387E+000	1.251109970458492E+002	-1.3725700E+000	-4.389360407649356E+002	6.0247046E-001	-1.3724881E+000	0
3.1147690E+000	1.252517970422923E+002	-1.3739840E+000	-4.411190538110031E+002	6.0609049E-001	-1.3738958E+000	0
3.0788462E+000	1.254125970382302E+002	-1.3756213E+000	-4.467976748739698E+002	6.1462438E-001	-1.3755045E+000	0
3.0557983E+000	1.255529970346834E+002	-1.3769785E+000	-4.506117000424638E+002	6.2048262E-001	-1.3769081E+000	0
3.0795817E+000	1.256836970313816E+002	-1.3783059E+000	-4.475626981265541E+002	6.1687833E-001	-1.3782151E+000	0
3.0590317E+000	1.258244970278247E+002	-1.3797034E+000	-4.510261999434797E+002	6.2228239E-001	-1.3796229E+000	0
3.0194271E+000	1.259552970245204E+002	-1.3809882E+000	-4.573676549757511E+002	6.3161933E-001	-1.3809310E+000	0
3.0206854E+000	1.260958970209686E+002	-1.3824036E+000	-4.576456532402772E+002	6.3265103E-001	-1.3823372E+000	0
3.0304763E+000	1.262464970171641E+002	-1.3839624E+000	-4.566814635252631E+002	6.3202995E-001	-1.3838431E+000	0
3.0216038E+000	1.263970970133596E+002	-1.3854280E+000	-4.585074740133891E+002	6.3522905E-001	-1.3853489E+000	0
3.0161908E+000	1.265378970098027E+002	-1.3868097E+000	-4.597884748390643E+002	6.3763911E-001	-1.3867571E+000	0
2.9998608E+000	1.266585970067536E+002	-1.3880268E+000	-4.626970775447835E+002	6.4223593E-001	-1.3879638E+000	0
2.9650567E+000	1.267789970037120E+002	-1.3892660E+000	-4.685461993673921E+002	6.5093529E-001	-1.3891679E+000	0
2.9742594E+000	1.269294969999100E+002	-1.3907741E+000	-4.676035146758027E+002	6.5033090E-001	-1.3906729E+000	0
2.9864864E+000	1.271001969955978E+002	-1.3924572E+000	-4.662526469445293E+002	6.4923686E-001	-1.3923804E+000	0
2.9675460E+000	1.272507969917933E+002	-1.3939313E+000	-4.697252482442377E+002	6.5476471E-001	-1.3938860E+000	0
2.9380040E+000	1.273915969882364E+002	-1.3953712E+000	-4.749384769951994E+002	6.6271549E-001	-1.3952937E+000	0
2.9368024E+000	1.275521969841793E+002	-1.3969704E+000	-4.756773718753111E+002	6.6450721E-001	-1.3969003E+000	0
2.9387352E+000	1.277124969801298E+002	-1.3985499E+000	-4.759019901380079E+002	6.6557270E-001	-1.3985032E+000	0
2.9288547E+000	1.278231969773333E+002	-1.3997012E+000	-4.779005474440469E+002	6.6891801E-001	-1.3996096E+000	0
2.8880522E+000	1.279436969742892E+002	-1.4008768E+000	-4.850593587086212E+002	6.7950839E-001	-1.4008151E+000	0
2.8633552E+000	1.280840969707424E+002	-1.4023092E+000	-4.897433688384972E+002	6.8677163E-001	-1.4022194E+000	0
2.8248432E+000	1.282347969669354E+002	-1.4038317E+000	-4.969591595946586E+002	6.9764704E-001	-1.4037255E+000	0
2.8275306E+000	1.283653969636362E+002	-1.4051168E+000	-4.969413003147783E+002	6.9826055E-001	-1.4050320E+000	0
2.8470795E+000	1.284758969608447E+002	-1.4061997E+000	-4.939095395535828E+002	6.9453543E-001	-1.4061370E+000	0
2.8418241E+000	1.286065969575429E+002	-1.4075719E+000	-4.953057869190044E+002	6.9717854E-001	-1.4074439E+000	0
2.8372905E+000	1.287468969539987E+002	-1.4089653E+000	-4.965883069891061E+002	6.9967574E-001	-1.4088473E+000	0
2.8191288E+000	1.289073969499441E+002	-1.4105700E+000	-5.003567340293093E+002	7.0578820E-001	-1.4104525E+000	0
2.7706223E+000	1.290579969461396E+002	-1.4121078E+000	-5.096717208380137E+002	7.1971142E-001	-1.4119581E+000	0
2.7461309E+000	1.291786969430905E+002	-1.4133255E+000	-5.146606418590404E+002	7.2738302E-001	-1.4131645E+000	0
2.7503092E+000	1.293192969395386E+002	-1.4147176E+000	-5.143849020038979E+002	7.2770935E-001	-1.4145705E+000	0
2.7332654E+000	1.294500969362343E+002	-1.4159993E+000	-5.180614139581749E+002	7.3357457E-001	-1.4158791E+000	0
2.7378886E+000	1.295904969326875E+002	-1.4174151E+000	-5.177037474809949E+002	7.3380113E-001	-1.4172833E+000	0
2.7321942E+000	1.297308969291407E+002	-1.4187614E+000	-5.192754497847266E+002	7.3672795E-001	-1.4186871E+000	0
2.7265224E+000	1.298714969255889E+002	-1.4201795E+000	-5.208757842579325E+002	7.3973709E-001	-1.4200929E+000	0
2.7030907E+000	1.300019969222922E+002	-1.4214978E+000	-5.258787124347664E+002	7.4753547E-001	-1.4213979E+000	0
2.6912940E+000	1.301223969192506E+002	-1.4227313E+000	-5.286420784951770E+002	7.5211561E-001	-1.4226016E+000	0
2.6835713E+000	1.302630969156962E+002	-1.4241182E+000	-5.306801954462571E+002	7.5575131E-001	-1.4240094E+000	0
2.6924026E+000	1.304436969111339E+002	-1.4259472E+000	-5.296188423466560E+002	7.5520849E-001	-1.4258152E+000	0
2.6809597E+000	1.305945969073218E+002	-1.4274063E+000	-5.324236492807895E+002	7.5998485E-001	-1.4273243E+000	0
2.6398456E+000	1.307452969035148E+002	-1.4289864E+000	-5.413143732939352E+002	7.7353090E-001	-1.4288309E+000	0
2.6221108E+000	1.308660969004632E+002	-1.4301325E+000	-5.454126793183277E+002	7.8001243E-001	-1.4300390E+000	0
2.6618195E+000	1.309868968974115E+002	-1.4314013E+000	-5.377529280242405E+002	7.6974022E-001	-1.4312462E+000	0
2.6740513E+000	1.311075968943624E+002	-1.4325382E+000	-5.357182903611883E+002	7.6743686E-001	-1.4324540E+000	0
2.6594999E+000	1.312182968915658E+002	-1.4336798E+000	-5.390787425595445E+002	7.7286631E-001	-1.4335608E+000	0
2.6555545E+000	1.313588968880140E+002	-1.4351264E+000	-5.404243876998116E+002	7.7557731E-001	-1.4349675E+000	0
2.6584551E+000	1.315093968842120E+002	-1.4365778E+000	-5.403807045669000E+002	7.7629894E-001	-1.4364722E+000	0
2.6594250E+000	1.316397968809179E+002	-1.4379226E+000	-5.406892782080604E+002	7.7746934E-001	-1.4377761E+000	0
2.6352267E+000	1.317801968773711E+002	-1.4392717E+000	-5.461661480098355E+002	7.8608149E-001	-1.4391803E+000	0
2.5959079E+000	1.319407968733140E+002	-1.4409121E+000	-5.550705991785180E+002	7.9980797E-001	-1.4407864E+000	0
2.5485818E+000	1.320714968700122E+002	-1.4421984E+000	-5.658827340079442E+002	8.1611520E-001	-1.4420923E+000	0
2.5593753E+000	1.321822968672132E+002	-1.4433650E+000	-5.639520817567177E+002	8.1398869E-001	-1.4432007E+000	0
2.5724707E+000	1.323125968639215E+002	-1.4446489E+000	-5.615802830996872E+002	8.1128633E-001	-1.4445039E+000	0
2.5639033E+000	1.324331968608749E+002	-1.4458085E+000	-5.639091382839106E+002	8.1530464E-001	-1.4457101E+000	0
2.5678711E+000	1.325736968573256E+002	-1.4472733E+000	-5.636082249187893E+002	8.1569511E-001	-1.4471151E+000	0
2.5662405E+000	1.327040968540314E+002	-1.4485520E+000	-5.644646138694934E+002	8.1765634E-001	-1.4484191E+000	0
2.5701594E+000	1.327752968522327E+002	-1.4492333E+000	-5.638690501823166E+002	8.1717777E-001	-1.4491302E+000	0
2.5650671E+000	1.328069968514319E+002	-1.4496508E+000	-5.651512366043862E+002	8.1927192E-001	-1.4494482E+000	0
2.5582619E+000	1.328575968501536E+002	-1.4500220E+000	-5.667996776347259E+002	8.2187200E-001	-1.4499530E+000	0
2.5495667E+000	1.328711968498101E+002	-1.4502565E+000	-5.688246747185203E+002	8.2494164E-001	-1.4501549E+000	1