EC-Lab ASCII FILE
Nb header lines : 66                          

Linear Sweep Voltammetry

Run on channel : 1 (SN 1340)
User : 
Electrode connection : standard
Potential control : Ewe
Ewe ctrl range : min = -10.00 V, max = 10.00 V
Ewe,I filtering : 50 kHz
Channel : Grounded
Acquisition started on : 02/10/2026 15:27:25.746
Technique started on : 02/10/2026 15:27:28.585
Loaded Setting File :  NONE
Saved on :
	File : Co40_polished_2-10_02_LSV_C01.mpr
	Directory : C:\Users\volt\Documents\Platalytix\
	Host : 127.0.0.1
Device : SP-200 (SN 0262)
Address : USB
EC-LAB for windows v11.60 (software)
Internet server v11.60 (firmware)
Command interpretor v11.60 (firmware)
Electrode material : 
Initial state : 
Electrolyte : 
Comments : 
Mass of active material : 0.001 mg
 at x = 0.000
Molecular weight of active material (at x = 0) : 0.001 g/mol
Atomic weight of intercalated ion : 0.001 g/mol
Acquisition started at : xo = 0.000
Number of e- transfered per intercalated ion : 1
for DX = 1, DQ = 26.802 mA.h
Battery capacity : 0.000 A.h
Cable : standard
Electrode surface area : 0.000 cm˛
Characteristic mass : 0.001 g
Volume (V) : 0.001 cmł
Cycle Definition : Charge/Discharge alternance
tR (h:m:s)          0:00:5.0000         
dER/dt (mV/h)       0.0                 
dER (mV)            0                   
dtR (s)             0.0000              
dE/dt               10.000              
dE/dt unit          mV/s                
Ei (V)              -0.200              
vs.                 Ref                 
EL (V)              -2.500              
vs.                 Ref                 
record              <I>                 
dI                  0.000               
unit dI             µA                  
tI (s)              0.0000              
step percent        50                  
N                   10                  
E range min (V)     -5.000              
E range max (V)     5.000               
I Range             Auto                
I Range min         Unset               
I Range max         Unset               
I Range init        Unset               
Bandwidth           8                   

Rwe/Ohm	time/s	Ewe/V	<I>/mA	Pwe/W	control/V	error	
0.0000000E+000	2.839400134835159E+000	-1.7113382E-001	0.000000000000000E+000	0.0000000E+000	0.0000000E+000	0
0.0000000E+000	7.839200008529588E+000	-5.3860605E-002	0.000000000000000E+000	0.0000000E+000	-1.9997193E-001	0
3.2805952E+003	8.039200003477163E+000	-2.0166157E-001	6.147102958522738E-002	-1.2396345E-005	-2.0187171E-001	0
2.6986753E+003	8.159200000445708E+000	-2.0286919E-001	-7.517362214162782E-002	1.5250412E-005	-2.0307177E-001	0
2.3813835E+003	8.369199995140661E+000	-2.0499799E-001	-8.608356662001637E-002	1.7646958E-005	-2.0517176E-001	0
2.5126794E+003	8.569199990088237E+000	-2.0699725E-001	-8.238107594872612E-002	1.7052656E-005	-2.0717177E-001	0
2.6544504E+003	8.769199985035812E+000	-2.0905568E-001	-7.875666648145252E-002	1.6464528E-005	-2.0917176E-001	0
2.7875635E+003	8.969199979983387E+000	-2.1105111E-001	-7.571167614555951E-002	1.5979032E-005	-2.1117176E-001	0
2.9113538E+003	9.169199974930962E+000	-2.1302854E-001	-7.317164314534841E-002	1.5587648E-005	-2.1317177E-001	0
3.0194114E+003	9.369199969878537E+000	-2.1503732E-001	-7.121829064288387E-002	1.5314590E-005	-2.1517175E-001	0
3.1248691E+003	9.569199964826112E+000	-2.1705207E-001	-6.945957151735777E-002	1.5076344E-005	-2.1717176E-001	0
3.2199138E+003	9.769199959773687E+000	-2.1898594E-001	-6.800987645445150E-002	1.4893207E-005	-2.1917178E-001	0
3.3144558E+003	9.969199954721262E+000	-2.2103441E-001	-6.668799437683864E-002	1.4740342E-005	-2.2117177E-001	0
3.4032542E+003	1.016919994966884E+001	-2.2300737E-001	-6.552768586881341E-002	1.4613157E-005	-2.2317176E-001	0
3.4847666E+003	1.036919994461641E+001	-2.2503527E-001	-6.457685496522902E-002	1.4532070E-005	-2.2517177E-001	0
3.5675520E+003	1.056919993956399E+001	-2.2701626E-001	-6.363362195276479E-002	1.4445866E-005	-2.2717173E-001	0
3.6432773E+003	1.076919993451156E+001	-2.2901382E-001	-6.285928791471207E-002	1.4395645E-005	-2.2917177E-001	0
3.7229683E+003	1.096919992945914E+001	-2.3104215E-001	-6.205858815727505E-002	1.4338149E-005	-2.3117177E-001	0
3.7934768E+003	1.116919992440671E+001	-2.3301485E-001	-6.142514084767781E-002	1.4312970E-005	-2.3317176E-001	0
3.8670681E+003	1.136919991935429E+001	-2.3500666E-001	-6.077127442843033E-002	1.4281654E-005	-2.3517177E-001	0
3.9388442E+003	1.156919991430186E+001	-2.3701060E-001	-6.017262350225105E-002	1.4261549E-005	-2.3717177E-001	0
4.0027617E+003	1.176919990924944E+001	-2.3897567E-001	-5.970269915554904E-002	1.4267493E-005	-2.3917177E-001	0
4.0724587E+003	1.196919990419701E+001	-2.4102247E-001	-5.918352624724565E-002	1.4264559E-005	-2.4117175E-001	0
4.1390313E+003	1.216919989914459E+001	-2.4299772E-001	-5.870883775581448E-002	1.4266114E-005	-2.4317178E-001	0
4.2044600E+003	1.236919989409216E+001	-2.4502921E-001	-5.827840252213456E-002	1.4279911E-005	-2.4517174E-001	0
4.2645415E+003	1.256919988903974E+001	-2.4706094E-001	-5.793376494401814E-002	1.4313170E-005	-2.4717174E-001	0
4.3330269E+003	1.276919988398731E+001	-2.4900779E-001	-5.746740405975737E-002	1.4309831E-005	-2.4917178E-001	0
4.3928232E+003	1.296919987893489E+001	-2.5102675E-001	-5.714474424778959E-002	1.4344860E-005	-2.5117174E-001	0
4.4521074E+003	1.316919987388246E+001	-2.5301433E-001	-5.683023924464159E-002	1.4378865E-005	-2.5317177E-001	0
4.5149482E+003	1.336919986883004E+001	-2.5502995E-001	-5.648568518197949E-002	1.4405541E-005	-2.5517175E-001	0
4.5776060E+003	1.356919986377761E+001	-2.5703746E-001	-5.615106733703801E-002	1.4432928E-005	-2.5717175E-001	0
4.6322500E+003	1.376919985872519E+001	-2.5904137E-001	-5.592128198515706E-002	1.4485925E-005	-2.5917175E-001	0
4.6933999E+003	1.396919985367276E+001	-2.6099947E-001	-5.560989602671651E-002	1.4514153E-005	-2.6117176E-001	0
4.7523970E+003	1.416919984862034E+001	-2.6299468E-001	-5.533937582072501E-002	1.4553962E-005	-2.6317176E-001	0
4.8039917E+003	1.436919984356791E+001	-2.6502046E-001	-5.516671676921481E-002	1.4620308E-005	-2.6517177E-001	0
4.8603286E+003	1.456919983851549E+001	-2.6697895E-001	-5.493022745492060E-002	1.4665215E-005	-2.6717177E-001	0
4.9185649E+003	1.476919983346306E+001	-2.6899981E-001	-5.469071271812431E-002	1.4711792E-005	-2.6917174E-001	0
4.9780527E+003	1.496919982841064E+001	-2.7096426E-001	-5.443177617877271E-002	1.4749066E-005	-2.7117178E-001	0
5.0275322E+003	1.516919982335821E+001	-2.7301851E-001	-5.430467503278397E-002	1.4826182E-005	-2.7317175E-001	0
5.0898330E+003	1.536919981830579E+001	-2.7502498E-001	-5.403418585239950E-002	1.4860751E-005	-2.7517176E-001	0
5.1345225E+003	1.556919981325336E+001	-2.7697539E-001	-5.394374693283499E-002	1.4941091E-005	-2.7717176E-001	0
5.1907710E+003	1.576919980820094E+001	-2.7898738E-001	-5.374680946701438E-002	1.4994682E-005	-2.7917176E-001	0
5.2443169E+003	1.596919980314851E+001	-2.8100488E-001	-5.358274335932828E-002	1.5057012E-005	-2.8117177E-001	0
5.2953032E+003	1.616919979809609E+001	-2.8297612E-001	-5.343907900617095E-002	1.5121983E-005	-2.8317177E-001	0
5.3512480E+003	1.636919979304366E+001	-2.8502163E-001	-5.326264722445913E-002	1.5181006E-005	-2.8517175E-001	0
5.4037661E+003	1.656919978799124E+001	-2.8699142E-001	-5.310951791547425E-002	1.5241976E-005	-2.8717178E-001	0
5.4553984E+003	1.676919978293881E+001	-2.8900570E-001	-5.297609417785863E-002	1.5310394E-005	-2.8917176E-001	0
5.5044404E+003	1.696919977788639E+001	-2.9098606E-001	-5.286387715682957E-002	1.5382651E-005	-2.9117176E-001	0
5.5553096E+003	1.716919977283396E+001	-2.9297641E-001	-5.273809072154001E-002	1.5451016E-005	-2.9317173E-001	0
5.6056406E+003	1.736919976778154E+001	-2.9499197E-001	-5.262412975200126E-002	1.5523696E-005	-2.9517177E-001	0
5.6548149E+003	1.756919976272911E+001	-2.9699907E-001	-5.252144896729402E-002	1.5598822E-005	-2.9717177E-001	0
5.7081543E+003	1.776919975767669E+001	-2.9899582E-001	-5.238047209589419E-002	1.5661542E-005	-2.9917175E-001	0
5.7580850E+003	1.796919975262426E+001	-3.0097789E-001	-5.227048300172868E-002	1.5732259E-005	-3.0117178E-001	0
5.8011123E+003	1.816919974757184E+001	-3.0302656E-001	-5.223594106049578E-002	1.5828877E-005	-3.0317175E-001	0
5.8549956E+003	1.836919974251941E+001	-3.0505422E-001	-5.210152953861030E-002	1.5893791E-005	-3.0517176E-001	0
5.8966812E+003	1.856919973746699E+001	-3.0701444E-001	-5.206563275111015E-002	1.5984901E-005	-3.0717176E-001	0
5.9447954E+003	1.876919973241456E+001	-3.0903724E-001	-5.198450430872895E-002	1.6065147E-005	-3.0917177E-001	0
5.9914189E+003	1.896919972736214E+001	-3.1101483E-001	-5.191004442055269E-002	1.6144793E-005	-3.1117174E-001	0
6.0352603E+003	1.916919972230971E+001	-3.1303194E-001	-5.186718167492133E-002	1.6236085E-005	-3.1317177E-001	0
6.0841924E+003	1.936919971725729E+001	-3.1498110E-001	-5.177040289044177E-002	1.6306698E-005	-3.1517175E-001	0
6.1315923E+003	1.956919971220486E+001	-3.1700537E-001	-5.170033347862613E-002	1.6389284E-005	-3.1717175E-001	0
6.1739331E+003	1.976919970715244E+001	-3.1897724E-001	-5.166516088048521E-002	1.6480009E-005	-3.1917176E-001	0
6.2239541E+003	1.996919970210001E+001	-3.2103232E-001	-5.158012274118423E-002	1.6558886E-005	-3.2117176E-001	0
6.2707222E+003	2.016919969704759E+001	-3.2302350E-001	-5.151296750739495E-002	1.6639899E-005	-3.2317176E-001	0
6.3068311E+003	2.036919969199516E+001	-3.2495505E-001	-5.152429782736911E-002	1.6743081E-005	-3.2517174E-001	0
6.3583247E+003	2.056919968694274E+001	-3.2701755E-001	-5.143140061429019E-002	1.6818971E-005	-3.2717180E-001	0
6.4046367E+003	2.076919968189031E+001	-3.2902631E-001	-5.137314278708431E-002	1.6903115E-005	-3.2917175E-001	0
6.4479092E+003	2.096919967683789E+001	-3.3099756E-001	-5.133409211633821E-002	1.6991458E-005	-3.3117178E-001	0
6.4856440E+003	2.116919967178546E+001	-3.3302993E-001	-5.134878263179460E-002	1.7100681E-005	-3.3317176E-001	0
6.5273101E+003	2.136919966673304E+001	-3.3497676E-001	-5.131926521228047E-002	1.7190761E-005	-3.3517176E-001	0
6.5665386E+003	2.156919966168061E+001	-3.3702436E-001	-5.132450790106491E-002	1.7297609E-005	-3.3717176E-001	0
6.6152051E+003	2.176919965662819E+001	-3.3903852E-001	-5.125139989043315E-002	1.7376198E-005	-3.3917177E-001	0
6.6584639E+003	2.196919965157576E+001	-3.4104156E-001	-5.121925531130483E-002	1.7467895E-005	-3.4117177E-001	0
6.6927896E+003	2.216919964652334E+001	-3.4300387E-001	-5.124976178113777E-002	1.7578866E-005	-3.4317178E-001	0
6.7305298E+003	2.236919964147091E+001	-3.4500548E-001	-5.125977963794148E-002	1.7684904E-005	-3.4517175E-001	0
6.7771299E+003	2.256919963641849E+001	-3.4700897E-001	-5.120293955823341E-002	1.7767879E-005	-3.4717175E-001	0
6.8133750E+003	2.276919963136606E+001	-3.4900609E-001	-5.122367122692051E-002	1.7877373E-005	-3.4917179E-001	0
6.8489736E+003	2.296919962631364E+001	-3.5102105E-001	-5.125162969427866E-002	1.7990402E-005	-3.5117176E-001	0
6.8914165E+003	2.316919962126121E+001	-3.5300055E-001	-5.122322125715151E-002	1.8081826E-005	-3.5317174E-001	0
6.9238179E+003	2.336919961620879E+001	-3.5503861E-001	-5.127786626762676E-002	1.8205623E-005	-3.5517177E-001	0
6.9627622E+003	2.356919961115636E+001	-3.5703152E-001	-5.127728171804979E-002	1.8307606E-005	-3.5717177E-001	0
6.9992495E+003	2.376919960610394E+001	-3.5901740E-001	-5.129369940237072E-002	1.8415330E-005	-3.5917175E-001	0
7.0427764E+003	2.396919960105151E+001	-3.6103380E-001	-5.126299382643579E-002	1.8507673E-005	-3.6117178E-001	0
7.0694458E+003	2.416919959599909E+001	-3.6301720E-001	-5.135016280802951E-002	1.8640992E-005	-3.6317179E-001	0
7.1095093E+003	2.436919959094666E+001	-3.6498800E-001	-5.133800204344884E-002	1.8737755E-005	-3.6517179E-001	0
7.1360225E+003	2.456919958589424E+001	-3.6700991E-001	-5.143059998467714E-002	1.8875540E-005	-3.6717176E-001	0
7.1752935E+003	2.476919958084181E+001	-3.6895397E-001	-5.142005385731774E-002	1.8971634E-005	-3.6917180E-001	0
7.2087749E+003	2.496919957578939E+001	-3.7099463E-001	-5.146431130496459E-002	1.9092982E-005	-3.7117177E-001	0
7.2419878E+003	2.516919957073696E+001	-3.7296885E-001	-5.150089466198848E-002	1.9208230E-005	-3.7317175E-001	0
7.2728564E+003	2.536919956568454E+001	-3.7500209E-001	-5.156186941478949E-002	1.9335808E-005	-3.7517175E-001	0
7.3076128E+003	2.556919956063211E+001	-3.7700218E-001	-5.159033212151831E-002	1.9449668E-005	-3.7717175E-001	0
7.3263521E+003	2.576919955557969E+001	-3.7903917E-001	-5.173641069931609E-002	1.9610126E-005	-3.7917179E-001	0
7.3651416E+003	2.596919955052726E+001	-3.8100848E-001	-5.173131584584745E-002	1.9710069E-005	-3.8117176E-001	0
7.3954673E+003	2.616919954547484E+001	-3.8302684E-001	-5.179210625274266E-002	1.9837767E-005	-3.8317177E-001	0
7.4274126E+003	2.636919954042241E+001	-3.8499209E-001	-5.183394474311087E-002	1.9955658E-005	-3.8517180E-001	0
7.4561069E+003	2.656919953536999E+001	-3.8703853E-001	-5.190892831333688E-002	2.0090756E-005	-3.8717178E-001	0
7.4813545E+003	2.676919953031756E+001	-3.8902164E-001	-5.199882434575465E-002	2.0228668E-005	-3.8917175E-001	0
7.5069326E+003	2.696919952526514E+001	-3.9099222E-001	-5.208415319391302E-002	2.0364500E-005	-3.9117178E-001	0
7.5429277E+003	2.716919952021271E+001	-3.9298677E-001	-5.210003104217154E-002	2.0474623E-005	-3.9317176E-001	0
7.5600957E+003	2.736919951516029E+001	-3.9500052E-001	-5.224808454017249E-002	2.0638021E-005	-3.9517179E-001	0
7.5857144E+003	2.756919951010786E+001	-3.9702207E-001	-5.233812472907640E-002	2.0779391E-005	-3.9717183E-001	0
7.6057383E+003	2.776919950505544E+001	-3.9903212E-001	-5.246461252998680E-002	2.0935066E-005	-3.9917180E-001	0
7.6448389E+003	2.796919950000301E+001	-4.0102223E-001	-5.245659652624335E-002	2.1036261E-005	-4.0117177E-001	0
7.6526763E+003	2.816919949495059E+001	-4.0299156E-001	-5.266021265671539E-002	2.1221622E-005	-4.0317181E-001	0
7.6805269E+003	2.836919948989816E+001	-4.0501031E-001	-5.273210098639636E-002	2.1357044E-005	-4.0517175E-001	0
7.6994092E+003	2.856919948484574E+001	-4.0701213E-001	-5.286277392076627E-002	2.1515791E-005	-4.0717179E-001	0
7.7258535E+003	2.876919947979331E+001	-4.0907609E-001	-5.294898335976095E-002	2.1660164E-005	-4.0917182E-001	0
7.7444204E+003	2.896919947474089E+001	-4.1103908E-001	-5.307551431564658E-002	2.1816111E-005	-4.1117182E-001	0
7.7644761E+003	2.916919946968846E+001	-4.1308755E-001	-5.320224335972568E-002	2.1977185E-005	-4.1317177E-001	0
7.7863237E+003	2.936919946463604E+001	-4.1501972E-001	-5.330111180662322E-002	2.2121012E-005	-4.1517180E-001	0
7.8073447E+003	2.956919945958362E+001	-4.1699773E-001	-5.341095555903141E-002	2.2272246E-005	-4.1717178E-001	0
7.8283950E+003	2.976919945453119E+001	-4.1905621E-001	-5.353028220261813E-002	2.2432198E-005	-4.1917178E-001	0
7.8522397E+003	2.996919944947877E+001	-4.2106608E-001	-5.362368971341713E-002	2.2579117E-005	-4.2117178E-001	0
7.8788438E+003	3.016919944442634E+001	-4.2305791E-001	-5.369543119718034E-002	2.2716276E-005	-4.2317182E-001	0
7.8866060E+003	3.036919943937392E+001	-4.2507684E-001	-5.389857784868157E-002	2.2911037E-005	-4.2517176E-001	0
7.8993599E+003	3.056919943432149E+001	-4.2705783E-001	-5.406233507299352E-002	2.3087743E-005	-4.2717180E-001	0
7.9251401E+003	3.076919942926907E+001	-4.2903295E-001	-5.413569118500251E-002	2.3225995E-005	-4.2917177E-001	0
7.9412808E+003	3.096919942421664E+001	-4.3108964E-001	-5.428464949192258E-002	2.3401550E-005	-4.3117180E-001	0
7.9560459E+003	3.116919941916422E+001	-4.3305323E-001	-5.443071069981464E-002	2.3571394E-005	-4.3317178E-001	0
7.9714868E+003	3.136919941411179E+001	-4.3505782E-001	-5.457674541886548E-002	2.3744040E-005	-4.3517175E-001	0
7.9943096E+003	3.156919940905937E+001	-4.3703905E-001	-5.466876793790021E-002	2.3892386E-005	-4.3717179E-001	0
8.0107642E+003	3.176919940400694E+001	-4.3902960E-001	-5.480496036870819E-002	2.4061001E-005	-4.3917179E-001	0
8.0311587E+003	3.196919939895452E+001	-4.4106770E-001	-5.491956066796355E-002	2.4223244E-005	-4.4117180E-001	0
8.0432329E+003	3.216919939390209E+001	-4.4307414E-001	-5.508657273743534E-002	2.4407436E-005	-4.4317180E-001	0
8.0625908E+003	3.236919938884967E+001	-4.4504941E-001	-5.519930313419455E-002	2.4566418E-005	-4.4517180E-001	0
8.0791079E+003	3.256919938379724E+001	-4.4709086E-001	-5.533913660334100E-002	2.4741623E-005	-4.4717175E-001	0
8.1033291E+003	3.276919937874482E+001	-4.4905427E-001	-5.541602312798388E-002	2.4884803E-005	-4.4917178E-001	0
8.1099897E+003	3.296919937369239E+001	-4.5104951E-001	-5.561653269790590E-002	2.5085810E-005	-4.5117182E-001	0
8.1330425E+003	3.316919936863997E+001	-4.5304596E-001	-5.570436503670617E-002	2.5236637E-005	-4.5317179E-001	0
8.1506875E+003	3.336919936358754E+001	-4.5505521E-001	-5.583028643404653E-002	2.5405863E-005	-4.5517176E-001	0
8.1687451E+003	3.356919935853512E+001	-4.5706531E-001	-5.595294044927498E-002	2.5574149E-005	-4.5717180E-001	0
8.1776250E+003	3.376919935348269E+001	-4.5903674E-001	-5.613325952706430E-002	2.5767229E-005	-4.5917177E-001	0
8.2113320E+003	3.396919934843027E+001	-4.6103960E-001	-5.614674986021218E-002	2.5885874E-005	-4.6117178E-001	0
8.2267305E+003	3.416919934337784E+001	-4.6305048E-001	-5.628609154457909E-002	2.6063302E-005	-4.6317181E-001	0
8.2404893E+003	3.436919933832542E+001	-4.6508729E-001	-5.643928241377505E-002	2.6249194E-005	-4.6517181E-001	0
8.2562881E+003	3.456919933327299E+001	-4.6705052E-001	-5.656906520966831E-002	2.6420612E-005	-4.6717176E-001	0
8.2773662E+003	3.476919932822057E+001	-4.6904206E-001	-5.666561801062557E-002	2.6578558E-005	-4.6917179E-001	0
8.3030352E+003	3.496919932316814E+001	-4.7105518E-001	-5.673289011483873E-002	2.6724321E-005	-4.7117183E-001	0
8.3173066E+003	3.516919931811572E+001	-4.7304043E-001	-5.687423242000500E-002	2.6903812E-005	-4.7317177E-001	0
8.3443701E+003	3.536919931306329E+001	-4.7502431E-001	-5.692751933514351E-002	2.7041955E-005	-4.7517177E-001	0
8.3582822E+003	3.556919930801087E+001	-4.7704229E-001	-5.707420421396761E-002	2.7226810E-005	-4.7717181E-001	0
8.3810801E+003	3.576919930295844E+001	-4.7905871E-001	-5.715954142238278E-002	2.7382775E-005	-4.7917184E-001	0
8.3978945E+003	3.596919929790602E+001	-4.8102704E-001	-5.727948241153327E-002	2.7552980E-005	-4.8117179E-001	0
8.4214346E+003	3.616919929285359E+001	-4.8302436E-001	-5.735654143675695E-002	2.7704607E-005	-4.8317179E-001	0
8.4467637E+003	3.636919928780117E+001	-4.8506218E-001	-5.742580073625859E-002	2.7855083E-005	-4.8517179E-001	0
8.4780449E+003	3.656919928274874E+001	-4.8702347E-001	-5.744525487851487E-002	2.7977187E-005	-4.8717177E-001	0
8.4975029E+003	3.676919927769632E+001	-4.8906535E-001	-5.755400788799192E-002	2.8147671E-005	-4.8917180E-001	0
8.5227109E+003	3.696919927264389E+001	-4.9104276E-001	-5.761579649582027E-002	2.8291819E-005	-4.9117184E-001	0
8.5494805E+003	3.716919926759147E+001	-4.9305919E-001	-5.767124877765327E-002	2.8435339E-005	-4.9317181E-001	0
8.5798457E+003	3.736919926253904E+001	-4.9509728E-001	-5.770468167156007E-002	2.8569431E-005	-4.9517179E-001	0
8.6027236E+003	3.756919925748662E+001	-4.9705487E-001	-5.777877740046655E-002	2.8719223E-005	-4.9717179E-001	0
8.6246689E+003	3.776919925243419E+001	-4.9903190E-001	-5.786099038435277E-002	2.8874480E-005	-4.9917179E-001	0
8.6547178E+003	3.796919924738177E+001	-5.0104159E-001	-5.789230689100178E-002	2.9006453E-005	-5.0117177E-001	0
8.6786201E+003	3.816919924232934E+001	-5.0303447E-001	-5.796249727549563E-002	2.9157134E-005	-5.0317180E-001	0
8.7157461E+003	3.836919923727692E+001	-5.0505257E-001	-5.794714052069605E-002	2.9266352E-005	-5.0517184E-001	0
8.7409639E+003	3.856919923222449E+001	-5.0703293E-001	-5.800652234126591E-002	2.9411218E-005	-5.0717181E-001	0
8.7697529E+003	3.876919922717207E+001	-5.0904262E-001	-5.804526597069248E-002	2.9547515E-005	-5.0917178E-001	0
8.8065225E+003	3.896919922211964E+001	-5.1105732E-001	-5.803168437796336E-002	2.9657516E-005	-5.1117182E-001	0
8.8366875E+003	3.916919921706722E+001	-5.1302201E-001	-5.805591837283389E-002	2.9783963E-005	-5.1317185E-001	0
8.8706738E+003	3.936919921201479E+001	-5.1504058E-001	-5.806104183807342E-002	2.9903793E-005	-5.1517177E-001	0
8.9098018E+003	3.956919920696237E+001	-5.1706034E-001	-5.803275281244524E-002	3.0006435E-005	-5.1717174E-001	0
8.9395664E+003	3.976919920190994E+001	-5.1906580E-001	-5.806386551519832E-002	3.0138966E-005	-5.1917183E-001	0
8.9771572E+003	3.996919919685752E+001	-5.2102804E-001	-5.803931627186021E-002	3.0240111E-005	-5.2117175E-001	0
9.0164326E+003	4.016919919180509E+001	-5.2307832E-001	-5.801389213807706E-002	3.0345809E-005	-5.2317178E-001	0
9.0502773E+003	4.036919918675267E+001	-5.2505422E-001	-5.801526414834457E-002	3.0461159E-005	-5.2517176E-001	0
9.0850547E+003	4.056919918170024E+001	-5.2703243E-001	-5.801092639571803E-002	3.0573639E-005	-5.2717185E-001	0
9.1358633E+003	4.076919917664782E+001	-5.2901345E-001	-5.790513930599417E-002	3.0632596E-005	-5.2917176E-001	0
9.1631338E+003	4.096919917159539E+001	-5.3104264E-001	-5.795425839633456E-002	3.0776184E-005	-5.3117180E-001	0
9.2112070E+003	4.116919916654297E+001	-5.3304654E-001	-5.786934842106342E-002	3.0847055E-005	-5.3317183E-001	0
9.2432705E+003	4.136919916149054E+001	-5.3502923E-001	-5.788310736422020E-002	3.0969153E-005	-5.3517181E-001	0
9.2902432E+003	4.156919915643812E+001	-5.3703314E-001	-5.780614644781068E-002	3.1043815E-005	-5.3717178E-001	0
9.3328896E+003	4.176919915138569E+001	-5.3906655E-001	-5.775987565762430E-002	3.1136417E-005	-5.3917181E-001	0
9.3762910E+003	4.196919914633327E+001	-5.4104179E-001	-5.770317861723739E-002	3.1219832E-005	-5.4117179E-001	0
9.4173525E+003	4.216919914128084E+001	-5.4306442E-001	-5.766635486600569E-002	3.1316544E-005	-5.4317182E-001	0
9.4634258E+003	4.236919913622842E+001	-5.4506278E-001	-5.759677515141359E-002	3.1393858E-005	-5.4517180E-001	0
9.5075820E+003	4.256919913117599E+001	-5.4700929E-001	-5.753400713277157E-002	3.1471638E-005	-5.4717183E-001	0
9.5476025E+003	4.276919912612357E+001	-5.4904437E-001	-5.750599160131556E-002	3.1573341E-005	-5.4917181E-001	0
9.5983350E+003	4.296919912107114E+001	-5.5104345E-001	-5.741031605395519E-002	3.1635580E-005	-5.5117178E-001	0
9.6405098E+003	4.316919911601872E+001	-5.5303586E-001	-5.736582900150378E-002	3.1725362E-005	-5.5317181E-001	0
9.6857314E+003	4.336919911096629E+001	-5.5506349E-001	-5.730733900730112E-002	3.1809210E-005	-5.5517179E-001	0
9.7398320E+003	4.356919910591387E+001	-5.5702651E-001	-5.719056418915275E-002	3.1856660E-005	-5.5717176E-001	0
9.7831074E+003	4.376919910086144E+001	-5.5901974E-001	-5.714132552628570E-002	3.1943127E-005	-5.5917180E-001	0
9.8333301E+003	4.396919909580902E+001	-5.6102794E-001	-5.705370611401372E-002	3.2008724E-005	-5.6117183E-001	0
9.8874531E+003	4.416919909075659E+001	-5.6303316E-001	-5.694420413745549E-002	3.2061474E-005	-5.6317180E-001	0
9.9319883E+003	4.436919908570417E+001	-5.6505036E-001	-5.689196890830350E-002	3.2146829E-005	-5.6517178E-001	0
9.9795273E+003	4.456919908065174E+001	-5.6704819E-001	-5.682114694349905E-002	3.2220327E-005	-5.6717181E-001	0
1.0030309E+004	4.476919907559932E+001	-5.6899267E-001	-5.672733744029834E-002	3.2277439E-005	-5.6917179E-001	0
1.0078687E+004	4.496919907054689E+001	-5.7100171E-001	-5.665437738007806E-002	3.2349748E-005	-5.7117176E-001	0
1.0133386E+004	4.516919906549447E+001	-5.7300460E-001	-5.654621221465139E-002	3.2401240E-005	-5.7317179E-001	0
1.0178161E+004	4.536919906044204E+001	-5.7501930E-001	-5.649540420672339E-002	3.2485947E-005	-5.7517183E-001	0
1.0237533E+004	4.556919905538962E+001	-5.7705629E-001	-5.636673216452448E-002	3.2526776E-005	-5.7717180E-001	0
1.0275600E+004	4.576919905033719E+001	-5.7902688E-001	-5.634969157006270E-002	3.2627984E-005	-5.7917184E-001	0
1.0335775E+004	4.596919904528477E+001	-5.8106136E-001	-5.621845980941448E-002	3.2666376E-005	-5.8117181E-001	0
1.0385722E+004	4.616919904023234E+001	-5.8304411E-001	-5.613900628468843E-002	3.2731517E-005	-5.8317184E-001	0
1.0436900E+004	4.636919903517992E+001	-5.8504736E-001	-5.605566264932693E-002	3.2795218E-005	-5.8517176E-001	0
1.0473047E+004	4.656919903012749E+001	-5.8703047E-001	-5.605154616078223E-002	3.2903965E-005	-5.8717179E-001	0
1.0521598E+004	4.676919902507507E+001	-5.8901781E-001	-5.598178539317428E-002	3.2974269E-005	-5.8917183E-001	0
1.0566488E+004	4.696919902002264E+001	-5.9103239E-001	-5.593461014305046E-002	3.3059165E-005	-5.9117174E-001	0
1.0627327E+004	4.716919901497022E+001	-5.9305674E-001	-5.580488068860490E-002	3.3095461E-005	-5.9317183E-001	0
1.0673566E+004	4.736919900991779E+001	-5.9499699E-001	-5.574491057732867E-002	3.3168053E-005	-5.9517181E-001	0
1.0711076E+004	4.756919900486537E+001	-5.9700918E-001	-5.573755298432814E-002	3.3275832E-005	-5.9717178E-001	0
1.0768091E+004	4.776919899981294E+001	-5.9905082E-001	-5.563203729066146E-002	3.3326418E-005	-5.9917176E-001	0
1.0812691E+004	4.796919899476052E+001	-6.0104579E-001	-5.558706481271580E-002	3.3410372E-005	-6.0117179E-001	0
1.0864991E+004	4.816919898970809E+001	-6.0306585E-001	-5.550541483391669E-002	3.3473421E-005	-6.0317189E-001	0
1.0902359E+004	4.836919898465567E+001	-6.0502118E-001	-5.549451915067882E-002	3.3575361E-005	-6.0517180E-001	0
1.0947633E+004	4.856919897960324E+001	-6.0704523E-001	-5.544990884687073E-002	3.3660603E-005	-6.0717177E-001	0
1.1005443E+004	4.876919897455082E+001	-6.0907418E-001	-5.534299211935578E-002	3.3707987E-005	-6.0917187E-001	0
1.1040304E+004	4.896919896949839E+001	-6.1099559E-001	-5.534228029219518E-002	3.3813889E-005	-6.1117178E-001	0
1.1078679E+004	4.916919896444597E+001	-6.1304325E-001	-5.533541259493113E-002	3.3923003E-005	-6.1317182E-001	0
1.1124423E+004	4.936919895939354E+001	-6.1503065E-001	-5.528652061583683E-002	3.4002904E-005	-6.1517179E-001	0
1.1150957E+004	4.956919895434112E+001	-6.1704379E-001	-5.533550096973550E-002	3.4144428E-005	-6.1717182E-001	0
1.1193501E+004	4.976919894928869E+001	-6.1901039E-001	-5.530087309868387E-002	3.4231816E-005	-6.1917180E-001	0
1.1242754E+004	4.996919894423627E+001	-6.2105656E-001	-5.524060539869582E-002	3.4307541E-005	-6.2117177E-001	0
1.1256099E+004	5.016919893918384E+001	-6.2304962E-001	-5.535218376738094E-002	3.4487159E-005	-6.2317187E-001	0
1.1313252E+004	5.036919893413142E+001	-6.2504637E-001	-5.524904491082072E-002	3.4533216E-005	-6.2517172E-001	0
1.1342553E+004	5.056919892907899E+001	-6.2701839E-001	-5.528018393188439E-002	3.4661691E-005	-6.2717181E-001	0
1.1372279E+004	5.076919892402657E+001	-6.2904280E-001	-5.531369641110673E-002	3.4794684E-005	-6.2917185E-001	0
1.1413925E+004	5.096919891897414E+001	-6.3109565E-001	-5.529172813663441E-002	3.4894369E-005	-6.3117182E-001	0
1.1441799E+004	5.116919891392172E+001	-6.3308597E-001	-5.533098070481030E-002	3.5029268E-005	-6.3317180E-001	0
1.1461104E+004	5.136919890886929E+001	-6.3507909E-001	-5.541168781559169E-002	3.5190806E-005	-6.3517177E-001	0
1.1506156E+004	5.156919890381687E+001	-6.3704312E-001	-5.536541555028263E-002	3.5270157E-005	-6.3717186E-001	0
1.1536590E+004	5.176919889876444E+001	-6.3904345E-001	-5.539274929501042E-002	3.5398374E-005	-6.3917178E-001	0
1.1549950E+004	5.196919889371202E+001	-6.4108789E-001	-5.550568584667373E-002	3.5584024E-005	-6.4117175E-001	0
1.1576699E+004	5.216919888865959E+001	-6.4308798E-001	-5.555020036311020E-002	3.5723668E-005	-6.4317185E-001	0
1.1607533E+004	5.236919888360717E+001	-6.4510524E-001	-5.557642758627535E-002	3.5852645E-005	-6.4517176E-001	0
1.1622284E+004	5.256919887855474E+001	-6.4706415E-001	-5.567443958544893E-002	3.6024932E-005	-6.4717180E-001	0
1.1635611E+004	5.276919887350232E+001	-6.4903581E-001	-5.578011966599727E-002	3.6203295E-005	-6.4917177E-001	0
1.1641391E+004	5.296919886844989E+001	-6.5104699E-001	-5.592518950212755E-002	3.6409925E-005	-6.5117180E-001	0
1.1681157E+004	5.316919886339747E+001	-6.5310311E-001	-5.591082439204587E-002	3.6515532E-005	-6.5317178E-001	0
1.1688290E+004	5.336919885834504E+001	-6.5506440E-001	-5.604450297309593E-002	3.6712758E-005	-6.5517181E-001	0
1.1699932E+004	5.356919885329262E+001	-6.5707099E-001	-5.616024268427866E-002	3.6901267E-005	-6.5717185E-001	0
1.1706226E+004	5.376919884824019E+001	-6.5907538E-001	-5.630126910900807E-002	3.7106780E-005	-6.5917182E-001	0
1.1732364E+004	5.396919884318777E+001	-6.6104537E-001	-5.634374709012158E-002	3.7245773E-005	-6.6117173E-001	0
1.1721092E+004	5.416919883813534E+001	-6.6304475E-001	-5.656851299873700E-002	3.7507456E-005	-6.6317183E-001	0
1.1733080E+004	5.436919883308292E+001	-6.6507357E-001	-5.668362964561321E-002	3.7698785E-005	-6.6517180E-001	0
1.1733337E+004	5.456919882803049E+001	-6.6705370E-001	-5.685114926952117E-002	3.7922768E-005	-6.6717178E-001	0
1.1753510E+004	5.476919882297807E+001	-6.6907054E-001	-5.692517143080766E-002	3.8086957E-005	-6.6917181E-001	0
1.1746038E+004	5.496919881792564E+001	-6.7102289E-001	-5.712759580997456E-002	3.8333925E-005	-6.7117184E-001	0
1.1744497E+004	5.516919881287322E+001	-6.7303491E-001	-5.730640598522102E-002	3.8569211E-005	-6.7317182E-001	0
1.1735257E+004	5.536919880782079E+001	-6.7504007E-001	-5.752239331957842E-002	3.8829920E-005	-6.7517173E-001	0
1.1734390E+004	5.556919880276837E+001	-6.7703807E-001	-5.769691435787006E-002	3.9063008E-005	-6.7717183E-001	0
1.1735822E+004	5.576919879771594E+001	-6.7903537E-001	-5.786005637076275E-002	3.9289025E-005	-6.7917180E-001	0
1.1720866E+004	5.596919879266352E+001	-6.8101156E-001	-5.810249229848739E-002	3.9568469E-005	-6.8117177E-001	0
1.1730973E+004	5.616919878761109E+001	-6.8304855E-001	-5.822607751855458E-002	3.9771239E-005	-6.8317181E-001	0
1.1727199E+004	5.636919878255867E+001	-6.8504840E-001	-5.841534713424679E-002	4.0017341E-005	-6.8517178E-001	0
1.1703558E+004	5.656919877750624E+001	-6.8705785E-001	-5.870504361364043E-002	4.0333762E-005	-6.8717182E-001	0
1.1691372E+004	5.676919877245382E+001	-6.8902522E-001	-5.893450318265475E-002	4.0607360E-005	-6.8917179E-001	0
1.1691381E+004	5.696919876740139E+001	-6.9105446E-001	-5.910802573385882E-002	4.0846866E-005	-6.9117182E-001	0
1.1667746E+004	5.716919876234897E+001	-6.9303715E-001	-5.939768940577805E-002	4.1164807E-005	-6.9317180E-001	0
1.1646055E+004	5.736919875729654E+001	-6.9506764E-001	-5.968266844753667E-002	4.1483490E-005	-6.9517177E-001	0
1.1647319E+004	5.756919875224412E+001	-6.9701421E-001	-5.984331496100048E-002	4.1711643E-005	-6.9717181E-001	0
1.1638896E+004	5.776919874719169E+001	-6.9904679E-001	-6.006126016243230E-002	4.1985630E-005	-6.9917184E-001	0
1.1614207E+004	5.796919874213927E+001	-7.0103794E-001	-6.036037820087259E-002	4.2314914E-005	-7.0117182E-001	0
1.1592854E+004	5.816919873708684E+001	-7.0302683E-001	-6.064312162549346E-002	4.2633743E-005	-7.0317179E-001	0
1.1574561E+004	5.836919873203442E+001	-7.0502609E-001	-6.091169417992059E-002	4.2944335E-005	-7.0517188E-001	0
1.1566546E+004	5.856919872698199E+001	-7.0705014E-001	-6.112889365700669E-002	4.3221193E-005	-7.0717186E-001	0
1.1552174E+004	5.876919872192957E+001	-7.0907217E-001	-6.137997626650096E-002	4.3522832E-005	-7.0917183E-001	0
1.1524380E+004	5.896919871687714E+001	-7.1105522E-001	-6.170008542932703E-002	4.3872169E-005	-7.1117181E-001	0
1.1495751E+004	5.916919871182472E+001	-7.1305084E-001	-6.202733750157308E-002	4.4228644E-005	-7.1317190E-001	0
1.1476236E+004	5.936919870677229E+001	-7.1506840E-001	-6.230861598534965E-002	4.4554923E-005	-7.1517175E-001	0
1.1469193E+004	5.956919870171987E+001	-7.1707207E-001	-6.252157702501393E-002	4.4832475E-005	-7.1717185E-001	0
1.1449315E+004	5.976919869666744E+001	-7.1908641E-001	-6.280606361359475E-002	4.5162986E-005	-7.1917188E-001	0
1.1426319E+004	5.996919869161502E+001	-7.2107399E-001	-6.310641012036262E-002	4.5504392E-005	-7.2117180E-001	0
1.1401456E+004	6.016919868656260E+001	-7.2304243E-001	-6.341667216252156E-002	4.5852943E-005	-7.2317177E-001	0
1.1392188E+004	6.036919868151017E+001	-7.2504461E-001	-6.364402046021633E-002	4.6144753E-005	-7.2517186E-001	0
1.1360313E+004	6.056919867645775E+001	-7.2706896E-001	-6.400078285248934E-002	4.6532983E-005	-7.2717184E-001	0
1.1328627E+004	6.076919867140532E+001	-7.2905433E-001	-6.435504632150924E-002	4.6918325E-005	-7.2917175E-001	0
1.1307926E+004	6.096919866635290E+001	-7.3101968E-001	-6.464666232642013E-002	4.7257981E-005	-7.3117179E-001	0
1.1278914E+004	6.116919866130047E+001	-7.3302847E-001	-6.499104817870927E-002	4.7640289E-005	-7.3317188E-001	0
1.1233437E+004	6.136919865624805E+001	-7.3506087E-001	-6.543508230322070E-002	4.8098769E-005	-7.3517179E-001	0
1.1239858E+004	6.156919865119562E+001	-7.3701382E-001	-6.557145174656087E-002	4.8327067E-005	-7.3717183E-001	0
1.1202690E+004	6.176919864614320E+001	-7.3905170E-001	-6.597091151135304E-002	4.8755915E-005	-7.3917186E-001	0
1.1170471E+004	6.196919864109077E+001	-7.4101841E-001	-6.633725671874791E-002	4.9157130E-005	-7.4117184E-001	0
1.1144616E+004	6.216919863603835E+001	-7.4301475E-001	-6.667028473481074E-002	4.9537004E-005	-7.4317181E-001	0
1.1112318E+004	6.236919863098592E+001	-7.4504179E-001	-6.704647339196246E-002	4.9952425E-005	-7.4517179E-001	0
1.1091225E+004	6.256919862593350E+001	-7.4707729E-001	-6.735751219252184E-002	5.0321269E-005	-7.4717194E-001	0
1.1052307E+004	6.276919862088107E+001	-7.4902397E-001	-6.777082552685676E-002	5.0761973E-005	-7.4917173E-001	0
1.1024159E+004	6.296919861582865E+001	-7.5105888E-001	-6.812845147689980E-002	5.1168478E-005	-7.5117183E-001	0
1.0974688E+004	6.316919861077622E+001	-7.5305027E-001	-6.861700360713918E-002	5.1672054E-005	-7.5317186E-001	0
1.0953395E+004	6.336919860572380E+001	-7.5503039E-001	-6.893117876898702E-002	5.2045136E-005	-7.5517178E-001	0
1.0919407E+004	6.356919860067137E+001	-7.5704199E-001	-6.932995293781441E-002	5.2485684E-005	-7.5717175E-001	0
1.0888492E+004	6.376919859561895E+001	-7.5904971E-001	-6.971118780161356E-002	5.2914256E-005	-7.5917184E-001	0
1.0868244E+004	6.396919859056652E+001	-7.6107657E-001	-7.002755411364170E-002	5.3296331E-005	-7.6117194E-001	0
1.0835331E+004	6.416919858551410E+001	-7.6306206E-001	-7.042351374381491E-002	5.3737513E-005	-7.6317179E-001	0
1.0806736E+004	6.436919858046167E+001	-7.6505697E-001	-7.079444815881981E-002	5.4161785E-005	-7.6517183E-001	0
1.0780530E+004	6.456919857540925E+001	-7.6705092E-001	-7.115150066757814E-002	5.4576823E-005	-7.6717186E-001	0
1.0745384E+004	6.476919857035682E+001	-7.6903898E-001	-7.156924234941836E-002	5.5039538E-005	-7.6917183E-001	0
1.0717470E+004	6.496919856530440E+001	-7.7105737E-001	-7.194397636623806E-002	5.5472934E-005	-7.7117181E-001	0
1.0696191E+004	6.516919856025197E+001	-7.7305019E-001	-7.227340523183134E-002	5.5870969E-005	-7.7317184E-001	0
1.0664535E+004	6.536919855519955E+001	-7.7503604E-001	-7.267414771607486E-002	5.6325083E-005	-7.7517182E-001	0
1.0637673E+004	6.556919855014712E+001	-7.7702981E-001	-7.304509688599575E-002	5.6758217E-005	-7.7717179E-001	0
1.0602849E+004	6.576919854509470E+001	-7.7906257E-001	-7.347672420359583E-002	5.7242967E-005	-7.7917176E-001	0
1.0588727E+004	6.596919854004227E+001	-7.8108257E-001	-7.376548707012148E-002	5.7616937E-005	-7.8117186E-001	0
1.0558886E+004	6.616919853498985E+001	-7.8306663E-001	-7.416186225917287E-002	5.8073678E-005	-7.8317189E-001	0
1.0554858E+004	6.636919852993742E+001	-7.8506118E-001	-7.437912962460635E-002	5.8392168E-005	-7.8517181E-001	0
1.0531189E+004	6.656919852488500E+001	-7.8705215E-001	-7.473535186984903E-002	5.8820620E-005	-7.8717190E-001	0
1.0509285E+004	6.676919851983257E+001	-7.8907204E-001	-7.508332395499528E-002	5.9246151E-005	-7.8917187E-001	0
1.0495967E+004	6.696919851478015E+001	-7.9103857E-001	-7.536595937206736E-002	5.9617381E-005	-7.9117185E-001	0
1.0487098E+004	6.716919850972772E+001	-7.9303211E-001	-7.561978532947466E-002	5.9968919E-005	-7.9317182E-001	0
1.0462301E+004	6.736919850467530E+001	-7.9505700E-001	-7.599255692027951E-002	6.0418413E-005	-7.9517180E-001	0
1.0454737E+004	6.756919849962287E+001	-7.9706776E-001	-7.623986350879286E-002	6.0768336E-005	-7.9717195E-001	0
1.0438579E+004	6.776919849457045E+001	-7.9904455E-001	-7.654725099742726E-002	6.1164661E-005	-7.9917181E-001	0
1.0413569E+004	6.796919848951802E+001	-8.0107266E-001	-7.692584584365747E-002	6.1623192E-005	-8.0117190E-001	0
1.0390188E+004	6.816919848446560E+001	-8.0304486E-001	-7.728876843267107E-002	6.2066349E-005	-8.0317193E-001	0
1.0359122E+004	6.836919847941317E+001	-8.0504394E-001	-7.771352760001687E-002	6.2562802E-005	-8.0517179E-001	0
1.0332821E+004	6.856919847436075E+001	-8.0705017E-001	-7.810550055766463E-002	6.3035055E-005	-8.0717188E-001	0
1.0290909E+004	6.876919846930832E+001	-8.0904204E-001	-7.861715486186571E-002	6.3604581E-005	-8.0917186E-001	0
1.0200112E+004	6.896919846425590E+001	-8.1106126E-001	-7.951493628741202E-002	6.4491483E-005	-8.1117183E-001	0
1.0188179E+004	6.916919845920347E+001	-8.1303120E-001	-7.980142767507337E-002	6.4881053E-005	-8.1317180E-001	0
1.0169615E+004	6.936919845415105E+001	-8.1505376E-001	-8.014597994002970E-002	6.5323286E-005	-8.1517190E-001	0
1.0137724E+004	6.956919844909862E+001	-8.1709754E-001	-8.059970438248065E-002	6.5857821E-005	-8.1717187E-001	0
1.0095186E+004	6.976919844404620E+001	-8.1901705E-001	-8.112946838138374E-002	6.6446417E-005	-8.1917185E-001	0
1.0011632E+004	6.996919843899377E+001	-8.2105529E-001	-8.201013273420132E-002	6.7334855E-005	-8.2117188E-001	0
9.9226338E+003	7.016919843394135E+001	-8.2305378E-001	-8.294711094624174E-002	6.8269932E-005	-8.2317191E-001	0
9.7617891E+003	7.036919842888892E+001	-8.2507247E-001	-8.452062154095841E-002	6.9735637E-005	-8.2517183E-001	0
9.6208994E+003	7.056919842383650E+001	-8.2707107E-001	-8.596608744693462E-002	7.1100061E-005	-8.2717180E-001	0
9.4033535E+003	7.076919841878407E+001	-8.2905316E-001	-8.816568789340584E-002	7.3094045E-005	-8.2917190E-001	0
9.1290889E+003	7.096919841373165E+001	-8.3107191E-001	-9.103558182108173E-002	7.5657117E-005	-8.3117187E-001	0
8.8474326E+003	7.116919840867922E+001	-8.3306003E-001	-9.415839200093945E-002	7.8439596E-005	-8.3317184E-001	0
8.6292832E+003	7.136919840362680E+001	-8.3504456E-001	-9.676870140363181E-002	8.0806181E-005	-8.3517194E-001	0
8.4545918E+003	7.156919839857437E+001	-8.3705658E-001	-9.900614891471604E-002	8.2873747E-005	-8.3717191E-001	0
8.2906563E+003	7.176919839352195E+001	-8.3903378E-001	-1.012023378854147E-001	8.4912179E-005	-8.3917177E-001	0
8.1618281E+003	7.196919838846952E+001	-8.4102577E-001	-1.030437960352776E-001	8.6662491E-005	-8.4117186E-001	0
8.0994492E+003	7.216919838341710E+001	-8.4308928E-001	-1.040921764756608E-001	8.7758999E-005	-8.4317195E-001	0
8.0088364E+003	7.236919837836467E+001	-8.4502953E-001	-1.055121482793417E-001	8.9160880E-005	-8.4517181E-001	0
7.9361528E+003	7.256919837331225E+001	-8.4708804E-001	-1.067378717831544E-001	9.0416375E-005	-8.4717184E-001	0
7.8608604E+003	7.276919836825982E+001	-8.4905303E-001	-1.080101879826766E-001	9.1706373E-005	-8.4917188E-001	0
7.7384609E+003	7.296919836320740E+001	-8.5106754E-001	-1.099789191244371E-001	9.3599490E-005	-8.5117185E-001	0
7.6714263E+003	7.316919835815497E+001	-8.5308254E-001	-1.112025983963172E-001	9.4864998E-005	-8.5317183E-001	0
7.5365039E+003	7.336919835310255E+001	-8.5506123E-001	-1.134559534112087E-001	9.7011791E-005	-8.5517186E-001	0
7.4145776E+003	7.356919834805012E+001	-8.5708207E-001	-1.155941881970117E-001	9.9073703E-005	-8.5717189E-001	0
7.2758940E+003	7.376919834299770E+001	-8.5906035E-001	-1.180693877770094E-001	1.0142873E-004	-8.5917187E-001	0
7.1486147E+003	7.396919833794527E+001	-8.6110049E-001	-1.204569729366031E-001	1.0372556E-004	-8.6117178E-001	0
6.9331753E+003	7.416919833289285E+001	-8.6305827E-001	-1.244823971959659E-001	1.0743556E-004	-8.6317194E-001	0
6.7246045E+003	7.436919832784042E+001	-8.6508763E-001	-1.286451342893669E-001	1.1128932E-004	-8.6517185E-001	0
6.5363120E+003	7.456919832278800E+001	-8.6710089E-001	-1.326590443163043E-001	1.1502878E-004	-8.6717182E-001	0
6.3173950E+003	7.476919831773557E+001	-8.6903495E-001	-1.375622279633706E-001	1.1954638E-004	-8.6917192E-001	0
6.1182969E+003	7.496919831268315E+001	-8.7103355E-001	-1.423653634697990E-001	1.2400500E-004	-8.7117189E-001	0
5.9133022E+003	7.516919830763072E+001	-8.7307888E-001	-1.476465890642316E-001	1.2890712E-004	-8.7317187E-001	0
5.7652910E+003	7.536919830257830E+001	-8.7502605E-001	-1.517748235399645E-001	1.3280692E-004	-8.7517184E-001	0
5.6628511E+003	7.556919829752587E+001	-8.7702656E-001	-1.548736741599499E-001	1.3582832E-004	-8.7717193E-001	0
5.5907061E+003	7.576919829247345E+001	-8.7905872E-001	-1.572357261808935E-001	1.3821943E-004	-8.7917179E-001	0
5.5430508E+003	7.596919828742102E+001	-8.8102162E-001	-1.589416435638829E-001	1.4003103E-004	-8.8117188E-001	0
5.5322646E+003	7.616919828236860E+001	-8.8303304E-001	-1.596151177988914E-001	1.4094543E-004	-8.8317186E-001	0
5.5175874E+003	7.636919827731617E+001	-8.8502932E-001	-1.604015102658563E-001	1.4196004E-004	-8.8517183E-001	0
5.5184800E+003	7.656919827226375E+001	-8.8702530E-001	-1.607372463330241E-001	1.4257801E-004	-8.8717192E-001	0
5.4881021E+003	7.676919826721132E+001	-8.8904071E-001	-1.619942021005011E-001	1.4401945E-004	-8.8917184E-001	0
5.4427954E+003	7.696919826215890E+001	-8.9101624E-001	-1.637056220667086E-001	1.4586437E-004	-8.9117199E-001	0
5.3865781E+003	7.716919825710647E+001	-8.9303964E-001	-1.657897861211930E-001	1.4805685E-004	-8.9317185E-001	0
5.3109839E+003	7.736919825205405E+001	-8.9505887E-001	-1.685297607746215E-001	1.5084406E-004	-8.9517182E-001	0
5.2030591E+003	7.756919824700162E+001	-8.9708531E-001	-1.724149746041060E-001	1.5467094E-004	-8.9717191E-001	0
5.0596318E+003	7.776919824194920E+001	-8.9903587E-001	-1.776879961822022E-001	1.5974788E-004	-8.9917189E-001	0
4.9290820E+003	7.796919823689677E+001	-9.0104961E-001	-1.828027268366936E-001	1.6471432E-004	-9.0117186E-001	0
4.7627432E+003	7.816919823184435E+001	-9.0308833E-001	-1.896151713393373E-001	1.7123925E-004	-9.0317190E-001	0
4.5647881E+003	7.836919822679192E+001	-9.0510803E-001	-1.982804126541242E-001	1.7946519E-004	-9.0517193E-001	0
4.3748545E+003	7.856919822173950E+001	-9.0704560E-001	-2.073316150545537E-001	1.8805923E-004	-9.0717191E-001	0
4.1668760E+003	7.876919821668707E+001	-9.0907353E-001	-2.181666873441905E-001	1.9832957E-004	-9.0917182E-001	0
3.9422546E+003	7.896919821163465E+001	-9.1101211E-001	-2.310891060471159E-001	2.1052497E-004	-9.1117191E-001	0
3.7203484E+003	7.916919820658222E+001	-9.1306740E-001	-2.454252345825374E-001	2.2408977E-004	-9.1317189E-001	0
3.4966770E+003	7.936919820152980E+001	-9.1505390E-001	-2.616924285495870E-001	2.3946268E-004	-9.1517180E-001	0
3.2747522E+003	7.956919819647737E+001	-9.1707945E-001	-2.800454579635847E-001	2.5682393E-004	-9.1717196E-001	0
3.0615789E+003	7.976919819142495E+001	-9.1905022E-001	-3.001883099100584E-001	2.7588813E-004	-9.1917181E-001	0
2.8402266E+003	7.996919818637252E+001	-9.2104167E-001	-3.242845864240034E-001	2.9867960E-004	-9.2117190E-001	0
2.6111387E+003	8.016919818132010E+001	-9.2308623E-001	-3.535186552174396E-001	3.2632821E-004	-9.2317188E-001	0
2.4416707E+003	8.036919817626767E+001	-9.2511576E-001	-3.788863957739199E-001	3.5051379E-004	-9.2517197E-001	0
2.2752380E+003	8.056919817121525E+001	-9.2707133E-001	-4.074612308226002E-001	3.7774563E-004	-9.2717195E-001	0
2.1170596E+003	8.076919816616282E+001	-9.2906767E-001	-4.388481549783485E-001	4.0771964E-004	-9.2917186E-001	0
1.9708334E+003	8.096919816111040E+001	-9.3108869E-001	-4.724340100272157E-001	4.3987797E-004	-9.3117189E-001	0
1.8205408E+003	8.116919815605797E+001	-9.3312818E-001	-5.125554941738217E-001	4.7827998E-004	-9.3317187E-001	0
1.6860974E+003	8.136919815100555E+001	-9.3507516E-001	-5.545795609215736E-001	5.1857356E-004	-9.3517184E-001	0
1.5778574E+003	8.156919814595312E+001	-9.3706536E-001	-5.938847058214021E-001	5.5650878E-004	-9.3717188E-001	0
1.4767463E+003	8.176919814090070E+001	-9.3901479E-001	-6.358673761550175E-001	5.9708889E-004	-9.3917191E-001	0
1.3793519E+003	8.196919813584827E+001	-9.4105750E-001	-6.822461297908742E-001	6.4203283E-004	-9.4117188E-001	0
1.2800702E+003	8.216919813079585E+001	-9.4306493E-001	-7.367290452232513E-001	6.9478335E-004	-9.4317180E-001	0
1.2047074E+003	8.236919812574342E+001	-9.4512022E-001	-7.845226114873451E-001	7.4146816E-004	-9.4517189E-001	0
1.1350829E+003	8.256919812069100E+001	-9.4708288E-001	-8.343733010598187E-001	7.9022069E-004	-9.4717187E-001	0
1.0593083E+003	8.276919811563857E+001	-9.4913155E-001	-8.959917441652487E-001	8.5041404E-004	-9.4917184E-001	0
1.0011727E+003	8.296919811058615E+001	-9.5105922E-001	-9.499452087749418E-001	9.0345414E-004	-9.5117193E-001	0
9.4901550E+002	8.316919810553372E+001	-9.5310420E-001	-1.004308346650499E+000	9.5721049E-004	-9.5317191E-001	0
8.9222351E+002	8.337919810022868E+001	-9.5516002E-001	-1.070538962898500E+000	1.0225361E-003	-9.5527184E-001	0
8.4309399E+002	8.358919809492363E+001	-9.5726001E-001	-1.135413150710644E+000	1.0868856E-003	-9.5737189E-001	0
8.0317310E+002	8.378919808987121E+001	-9.5924824E-001	-1.194323163572488E+000	1.1456524E-003	-9.5937192E-001	0
7.6019421E+002	8.398919808481878E+001	-9.6126449E-001	-1.264498575727817E+000	1.2155176E-003	-9.6137184E-001	0
7.2603473E+002	8.418919807976636E+001	-9.6328074E-001	-1.326769506807977E+000	1.2780515E-003	-9.6337181E-001	0
6.9447723E+002	8.438919807471393E+001	-9.6526086E-001	-1.389910044938386E+000	1.3416258E-003	-9.6537191E-001	0
6.6030438E+002	8.458919806966151E+001	-9.6726948E-001	-1.464884211273343E+000	1.4169378E-003	-9.6737188E-001	0
6.3391577E+002	8.478919806460908E+001	-9.6927166E-001	-1.529022838134749E+000	1.4820385E-003	-9.6937180E-001	0
6.0667987E+002	8.498919805955666E+001	-9.7124368E-001	-1.600916214185922E+000	1.5548797E-003	-9.7137195E-001	0
5.8172510E+002	8.518919805450423E+001	-9.7326356E-001	-1.673064427412282E+000	1.6283327E-003	-9.7337180E-001	0
5.6055719E+002	8.538919804945181E+001	-9.7525871E-001	-1.739802245920750E+000	1.6967573E-003	-9.7537190E-001	0
5.3688568E+002	8.558919804439938E+001	-9.7721964E-001	-1.820163326941930E+000	1.7786993E-003	-9.7737187E-001	0
5.1831812E+002	8.578919803934696E+001	-9.7926408E-001	-1.889311000518923E+000	1.8501343E-003	-9.7937196E-001	0
4.9885397E+002	8.598919803429453E+001	-9.8126745E-001	-1.967043438263225E+000	1.9301957E-003	-9.8137194E-001	0
4.8148468E+002	8.618919802924211E+001	-9.8325008E-001	-2.042121217668470E+000	2.0079159E-003	-9.8337185E-001	0
4.6587854E+002	8.638919802418968E+001	-9.8523480E-001	-2.114789019518296E+000	2.0835637E-003	-9.8537189E-001	0
4.4880612E+002	8.658919801913726E+001	-9.8726028E-001	-2.199747830206974E+000	2.1717236E-003	-9.8737186E-001	0
4.3515836E+002	8.678919801408483E+001	-9.8927253E-001	-2.273362216022285E+000	2.2489747E-003	-9.8937184E-001	0
4.2015344E+002	8.698919800903241E+001	-9.9121326E-001	-2.359169643836907E+000	2.3384402E-003	-9.9137187E-001	0
4.0764697E+002	8.718919800397998E+001	-9.9323314E-001	-2.436503115661285E+000	2.4200156E-003	-9.9337190E-001	0
3.9450998E+002	8.738919799892756E+001	-9.9523538E-001	-2.522712888327039E+000	2.5106932E-003	-9.9537188E-001	0
3.8292575E+002	8.758919799387513E+001	-9.9725646E-001	-2.604307715348092E+000	2.5971627E-003	-9.9737179E-001	0
3.7126590E+002	8.778919798882271E+001	-9.9927682E-001	-2.691539484086768E+000	2.6895930E-003	-9.9937189E-001	0
3.6070029E+002	8.798919798377028E+001	-1.0012463E+000	-2.775840200196583E+000	2.7792999E-003	-1.0013719E+000	0
3.5029477E+002	8.818919797871786E+001	-1.0032318E+000	-2.863964427693368E+000	2.8732200E-003	-1.0033718E+000	0
3.4039395E+002	8.838919797366543E+001	-1.0052394E+000	-2.953164672500151E+000	2.9686373E-003	-1.0053718E+000	0
3.3098846E+002	8.858919796861301E+001	-1.0072492E+000	-3.043155152477368E+000	3.0652157E-003	-1.0073718E+000	0
3.2198410E+002	8.878919796356058E+001	-1.0092537E+000	-3.134483207549351E+000	3.1634888E-003	-1.0093719E+000	0
3.1317285E+002	8.898919795850816E+001	-1.0112591E+000	-3.229076577354721E+000	3.2654330E-003	-1.0113719E+000	0
3.0509232E+002	8.918919795345573E+001	-1.0132703E+000	-3.321192354909961E+000	3.3652654E-003	-1.0133719E+000	0
2.9698401E+002	8.938919794840331E+001	-1.0152391E+000	-3.418497640124244E+000	3.4705924E-003	-1.0153718E+000	0
2.8946606E+002	8.958919794335088E+001	-1.0172369E+000	-3.514183655752902E+000	3.5747574E-003	-1.0173719E+000	0
2.8177023E+002	8.978919793829846E+001	-1.0192318E+000	-3.617244384659124E+000	3.6868104E-003	-1.0193719E+000	0
2.7510117E+002	8.998919793324603E+001	-1.0212839E+000	-3.712393659515456E+000	3.7914077E-003	-1.0213720E+000	0
2.6767047E+002	9.018919792819361E+001	-1.0232689E+000	-3.822868268168172E+000	3.9118226E-003	-1.0233718E+000	0
2.6138779E+002	9.038919792314118E+001	-1.0252728E+000	-3.922420501979287E+000	4.0215515E-003	-1.0253719E+000	0
2.5490596E+002	9.058919791808876E+001	-1.0272771E+000	-4.030023972767822E+000	4.1399514E-003	-1.0273719E+000	0
2.4870969E+002	9.078919791303633E+001	-1.0292643E+000	-4.138416720017826E+000	4.2595249E-003	-1.0293719E+000	0
2.4289342E+002	9.098919790798391E+001	-1.0312569E+000	-4.245717845705101E+000	4.3784259E-003	-1.0313720E+000	0
2.3672052E+002	9.118919790293148E+001	-1.0332668E+000	-4.364922687445102E+000	4.5101298E-003	-1.0333719E+000	0
2.3127794E+002	9.138919789787906E+001	-1.0352840E+000	-4.476363228798711E+000	4.6343072E-003	-1.0353719E+000	0
2.2588974E+002	9.158919789282663E+001	-1.0372626E+000	-4.591897596611467E+000	4.7630034E-003	-1.0373718E+000	0
2.2045900E+002	9.178919788777421E+001	-1.0392736E+000	-4.714135490814030E+000	4.8992769E-003	-1.0393718E+000	0
2.1551340E+002	9.198919788272178E+001	-1.0412809E+000	-4.831629252487833E+000	5.0310832E-003	-1.0413719E+000	0
2.1050092E+002	9.218919787766936E+001	-1.0432991E+000	-4.956268426850279E+000	5.1708701E-003	-1.0433719E+000	0
2.0544870E+002	9.238919787261693E+001	-1.0452503E+000	-5.087646055113435E+000	5.3178635E-003	-1.0453719E+000	0
2.0083209E+002	9.258919786756451E+001	-1.0472945E+000	-5.214776457504861E+000	5.4614069E-003	-1.0473719E+000	0
1.9636537E+002	9.278919786251208E+001	-1.0492470E+000	-5.343340404145851E+000	5.6064841E-003	-1.0493720E+000	0
1.9178064E+002	9.298919785745966E+001	-1.0512538E+000	-5.481542697400194E+000	5.7624928E-003	-1.0513719E+000	0
1.8740288E+002	9.318919785240723E+001	-1.0532577E+000	-5.620285794274110E+000	5.9196092E-003	-1.0533719E+000	0
1.8325812E+002	9.338919784735481E+001	-1.0552739E+000	-5.758401673802439E+000	6.0766907E-003	-1.0553719E+000	0
1.7913834E+002	9.358919784230238E+001	-1.0572984E+000	-5.902133540265154E+000	6.2403167E-003	-1.0573717E+000	0
1.7513043E+002	9.378919783724996E+001	-1.0592834E+000	-6.048539788848672E+000	6.4071175E-003	-1.0593719E+000	0
1.7115866E+002	9.398919783219753E+001	-1.0613102E+000	-6.200738745718354E+000	6.5809069E-003	-1.0613719E+000	0
1.6736221E+002	9.418919782714511E+001	-1.0632685E+000	-6.353097894564769E+000	6.7550493E-003	-1.0633719E+000	0
1.6363168E+002	9.438919782209268E+001	-1.0652753E+000	-6.510202170837474E+000	6.9351578E-003	-1.0653719E+000	0
1.6001180E+002	9.458919781704026E+001	-1.0672815E+000	-6.670017317106407E+000	7.1187858E-003	-1.0673718E+000	0
1.5653970E+002	9.478919781198783E+001	-1.0692881E+000	-6.830779169827643E+000	7.3040710E-003	-1.0693719E+000	0
1.5313264E+002	9.498919780693541E+001	-1.0712973E+000	-6.995877909957699E+000	7.4946652E-003	-1.0713719E+000	0
1.4977202E+002	9.518919780188298E+001	-1.0732827E+000	-7.166109676601657E+000	7.6912618E-003	-1.0733718E+000	0
1.4643204E+002	9.538919779683056E+001	-1.0752729E+000	-7.343153135103421E+000	7.8958934E-003	-1.0753719E+000	0
1.4313721E+002	9.558919779177813E+001	-1.0772891E+000	-7.526268804695064E+000	8.1079677E-003	-1.0773718E+000	0
1.3996593E+002	9.578919778672571E+001	-1.0792613E+000	-7.710886013480828E+000	8.3220610E-003	-1.0793718E+000	0
1.3688887E+002	9.598919778167328E+001	-1.0812550E+000	-7.898779075567390E+000	8.5405940E-003	-1.0813719E+000	0
1.3385272E+002	9.618919777662086E+001	-1.0832579E+000	-8.092908865808122E+000	8.7667080E-003	-1.0833719E+000	0
1.3094768E+002	9.638919777156843E+001	-1.0852731E+000	-8.287837753287775E+000	8.9945681E-003	-1.0853719E+000	0
1.2798933E+002	9.658919776651601E+001	-1.0872765E+000	-8.495055889799460E+000	9.2364745E-003	-1.0873718E+000	0
1.2519208E+002	9.678919776146358E+001	-1.0892762E+000	-8.700839802656617E+000	9.4776172E-003	-1.0893719E+000	0
1.2241624E+002	9.698919775641116E+001	-1.0913155E+000	-8.914793119071042E+000	9.7288517E-003	-1.0913719E+000	0
1.1969985E+002	9.718919775135873E+001	-1.0932792E+000	-9.133505495024394E+000	9.9854721E-003	-1.0933719E+000	0
1.1707715E+002	9.738919774630631E+001	-1.0953137E+000	-9.355486139148297E+000	1.0247191E-002	-1.0953718E+000	0
1.1453069E+002	9.758919774125388E+001	-1.0973107E+000	-9.580931018742319E+000	1.0513258E-002	-1.0973718E+000	0
1.1203013E+002	9.778919773620146E+001	-1.0992815E+000	-9.812374258460395E+000	1.0786562E-002	-1.0993719E+000	0
1.0951961E+002	9.798919773114903E+001	-1.1013072E+000	-1.005579928347581E+001	1.1074523E-002	-1.1013719E+000	0
1.0711771E+002	9.818919772609661E+001	-1.1032654E+000	-1.029956056309395E+001	1.1363149E-002	-1.1033719E+000	0
1.0480017E+002	9.838919772104418E+001	-1.1053147E+000	-1.054687911941082E+001	1.1657621E-002	-1.1053718E+000	0
1.0246343E+002	9.858919771599176E+001	-1.1072744E+000	-1.080653276681360E+001	1.1965797E-002	-1.1073718E+000	0
9.9850052E+001	9.879919771068671E+001	-1.1093593E+000	-1.111025200534834E+001	1.2325261E-002	-1.1094720E+000	0
9.7531670E+001	9.900919770538167E+001	-1.1114084E+000	-1.139535880730810E+001	1.2664897E-002	-1.1115719E+000	0
9.5365387E+001	9.920919770032924E+001	-1.1134672E+000	-1.167580054000936E+001	1.3000621E-002	-1.1135719E+000	0
9.3273705E+001	9.940919769527682E+001	-1.1154903E+000	-1.195932205741096E+001	1.3340508E-002	-1.1155719E+000	0
9.1193665E+001	9.960919769022439E+001	-1.1174860E+000	-1.225398752160895E+001	1.3693660E-002	-1.1175718E+000	0
8.9194702E+001	9.980919768517197E+001	-1.1194892E+000	-1.255107220439685E+001	1.4050790E-002	-1.1195719E+000	0
8.7235626E+001	1.000091976801195E+002	-1.1214753E+000	-1.285570338523846E+001	1.4417354E-002	-1.1215719E+000	0
8.5252357E+001	1.002091976750671E+002	-1.1234281E+000	-1.317767787020222E+001	1.4804173E-002	-1.1235719E+000	0
8.3386139E+001	1.004091976700147E+002	-1.1254870E+000	-1.349729046516133E+001	1.5191024E-002	-1.1255718E+000	0
8.1488632E+001	1.006091976649623E+002	-1.1275281E+000	-1.383663026572899E+001	1.5601189E-002	-1.1275718E+000	0
7.9654686E+001	1.008091976599098E+002	-1.1294736E+000	-1.417962495769774E+001	1.6015511E-002	-1.1295719E+000	0
7.7915558E+001	1.010091976548574E+002	-1.1314652E+000	-1.452168451144851E+001	1.6430780E-002	-1.1315719E+000	0
7.6164764E+001	1.012091976498050E+002	-1.1334649E+000	-1.488175008302370E+001	1.6867941E-002	-1.1335719E+000	0
7.4456718E+001	1.014091976447526E+002	-1.1354313E+000	-1.524954749843161E+001	1.7314814E-002	-1.1355718E+000	0
7.2726997E+001	1.016091976397001E+002	-1.1374782E+000	-1.564038447606589E+001	1.7790597E-002	-1.1375719E+000	0
7.1092766E+001	1.018091976346477E+002	-1.1394755E+000	-1.602800930114020E+001	1.8263523E-002	-1.1395719E+000	0
6.9495041E+001	1.020091976295953E+002	-1.1414577E+000	-1.642502414382773E+001	1.8748470E-002	-1.1415719E+000	0
6.7914413E+001	1.022091976245429E+002	-1.1434300E+000	-1.683633854329725E+001	1.9251175E-002	-1.1435720E+000	0
6.6388367E+001	1.024091976194904E+002	-1.1454601E+000	-1.725392783999177E+001	1.9763686E-002	-1.1455718E+000	0
6.4840401E+001	1.026091976144380E+002	-1.1474468E+000	-1.769647798638216E+001	2.0305766E-002	-1.1475719E+000	0
6.3318363E+001	1.028091976093856E+002	-1.1494781E+000	-1.815394447612110E+001	2.0867562E-002	-1.1495719E+000	0
6.1860310E+001	1.030091976043332E+002	-1.1514838E+000	-1.861425766639429E+001	2.1434017E-002	-1.1515720E+000	0
6.0447998E+001	1.032091975992807E+002	-1.1534314E+000	-1.908138332075009E+001	2.2009067E-002	-1.1535718E+000	0
5.9007164E+001	1.034091975942283E+002	-1.1554785E+000	-1.958200290049018E+001	2.2626583E-002	-1.1555718E+000	0
5.7629921E+001	1.036091975891759E+002	-1.1574169E+000	-2.008361088959271E+001	2.3245111E-002	-1.1575719E+000	0
5.6301373E+001	1.038091975841235E+002	-1.1594577E+000	-2.059377249717161E+001	2.3877608E-002	-1.1595719E+000	0
5.4915859E+001	1.040091975790710E+002	-1.1614517E+000	-2.114965873997232E+001	2.4564307E-002	-1.1615719E+000	0
5.3626797E+001	1.042091975740186E+002	-1.1634159E+000	-2.169467538960124E+001	2.5239930E-002	-1.1635718E+000	0
5.2366013E+001	1.044091975689662E+002	-1.1654558E+000	-2.225595926914087E+001	2.5938338E-002	-1.1655718E+000	0
5.1098381E+001	1.046091975639138E+002	-1.1674805E+000	-2.284770015916047E+001	2.6674245E-002	-1.1675718E+000	0
4.9804104E+001	1.048091975588613E+002	-1.1694378E+000	-2.348075064253104E+001	2.7459277E-002	-1.1695719E+000	0
4.8598278E+001	1.050091975538089E+002	-1.1714320E+000	-2.410439430923975E+001	2.8236659E-002	-1.1715720E+000	0
4.7396904E+001	1.052091975487565E+002	-1.1734787E+000	-2.475855148257591E+001	2.9053634E-002	-1.1735718E+000	0
4.6244980E+001	1.054091975437041E+002	-1.1754545E+000	-2.541799061422705E+001	2.9877691E-002	-1.1755718E+000	0
4.5118958E+001	1.056091975386516E+002	-1.1774104E+000	-2.609569096024615E+001	3.0725338E-002	-1.1775719E+000	0
4.4051105E+001	1.058091975335992E+002	-1.1794657E+000	-2.677493847930236E+001	3.1580120E-002	-1.1795720E+000	0
4.2963753E+001	1.060091975285468E+002	-1.1814517E+000	-2.749880020202161E+001	3.2488503E-002	-1.1815718E+000	0
4.1885265E+001	1.062091975234944E+002	-1.1834887E+000	-2.825548995838676E+001	3.3440053E-002	-1.1835718E+000	0
4.0855526E+001	1.064091975184419E+002	-1.1854461E+000	-2.901556335825512E+001	3.4396388E-002	-1.1855719E+000	0
3.9798134E+001	1.066091975133895E+002	-1.1875001E+000	-2.983808603470561E+001	3.5432730E-002	-1.1875719E+000	0
3.8835312E+001	1.068091975083371E+002	-1.1894556E+000	-3.062819942946874E+001	3.6430884E-002	-1.1895719E+000	0
3.7861244E+001	1.070091975032847E+002	-1.1914653E+000	-3.146925939859445E+001	3.7494529E-002	-1.1915718E+000	0
3.6937851E+001	1.072091974982322E+002	-1.1934887E+000	-3.231072540212926E+001	3.8562488E-002	-1.1935719E+000	0
3.6034248E+001	1.074091974931798E+002	-1.1955158E+000	-3.317720906561476E+001	3.9663877E-002	-1.1955719E+000	0
3.5143929E+001	1.076091974881274E+002	-1.1975282E+000	-3.407496675747601E+001	4.0805735E-002	-1.1975719E+000	0
3.4322048E+001	1.078091974830750E+002	-1.1995025E+000	-3.494845248079622E+001	4.1920755E-002	-1.1995720E+000	0
3.3495525E+001	1.080091974780225E+002	-1.2015104E+000	-3.587077261423042E+001	4.3099109E-002	-1.2015719E+000	0
3.2651478E+001	1.082091974729701E+002	-1.2034826E+000	-3.685844386786283E+001	4.4358496E-002	-1.2035719E+000	0
3.1799408E+001	1.084091974679177E+002	-1.2055321E+000	-3.791051900711173E+001	4.5702346E-002	-1.2055719E+000	0
3.1025131E+001	1.086091974628653E+002	-1.2075138E+000	-3.892050665684576E+001	4.6997048E-002	-1.2075719E+000	0
3.0261908E+001	1.088091974578128E+002	-1.2095275E+000	-3.996864693343232E+001	4.8343178E-002	-1.2095720E+000	0
2.9493294E+001	1.090091974527604E+002	-1.2115287E+000	-4.107810661473792E+001	4.9767304E-002	-1.2115719E+000	0
2.8771938E+001	1.092091974477080E+002	-1.2135565E+000	-4.217847742920804E+001	5.1185966E-002	-1.2135719E+000	0
2.8043854E+001	1.094091974426556E+002	-1.2155225E+000	-4.334363514090327E+001	5.2685164E-002	-1.2155719E+000	0
2.7373051E+001	1.096091974376031E+002	-1.2175447E+000	-4.447968438504245E+001	5.4156002E-002	-1.2175719E+000	0
2.6695042E+001	1.098091974325507E+002	-1.2195065E+000	-4.568288367702849E+001	5.5710573E-002	-1.2195719E+000	0
2.5969923E+001	1.100091974274983E+002	-1.2215527E+000	-4.703721035472927E+001	5.7458434E-002	-1.2215719E+000	0
2.5350819E+001	1.102091974224459E+002	-1.2235430E+000	-4.826444004803830E+001	5.9053618E-002	-1.2235719E+000	0
2.4765003E+001	1.104091974173934E+002	-1.2255461E+000	-4.948701638348234E+001	6.0648620E-002	-1.2255719E+000	0
2.4158997E+001	1.106091974123410E+002	-1.2275381E+000	-5.081080657338339E+001	6.2372200E-002	-1.2275718E+000	0
2.3571793E+001	1.108091974072886E+002	-1.2295297E+000	-5.216106204272933E+001	6.4133577E-002	-1.2295719E+000	0
2.3002323E+001	1.110091974022362E+002	-1.2315259E+000	-5.353919832722670E+001	6.5934911E-002	-1.2315719E+000	0
2.2481409E+001	1.112091973971837E+002	-1.2335420E+000	-5.486942541464146E+001	6.7683741E-002	-1.2335719E+000	0
2.1944624E+001	1.114091973921313E+002	-1.2355263E+000	-5.630200617924297E+001	6.9562614E-002	-1.2355717E+000	0
2.1388992E+001	1.116091973870789E+002	-1.2375607E+000	-5.785970147883290E+001	7.1604893E-002	-1.2375718E+000	0
2.0822495E+001	1.118091973820265E+002	-1.2395103E+000	-5.952746526183995E+001	7.3784903E-002	-1.2395719E+000	0
2.0296259E+001	1.120091973769740E+002	-1.2415307E+000	-6.117041599669437E+001	7.5944945E-002	-1.2415719E+000	0
1.9832460E+001	1.122091973719216E+002	-1.2435460E+000	-6.270256119520479E+001	7.7973522E-002	-1.2435719E+000	0
1.9389503E+001	1.124091973668692E+002	-1.2455368E+000	-6.423768503163092E+001	8.0010399E-002	-1.2455719E+000	0
1.8905266E+001	1.126091973618168E+002	-1.2475361E+000	-6.598881603422632E+001	8.2323425E-002	-1.2475719E+000	0
1.8490761E+001	1.128091973567643E+002	-1.2495383E+000	-6.757635657803553E+001	8.4439248E-002	-1.2495719E+000	0
1.8135128E+001	1.130091973517119E+002	-1.2515738E+000	-6.901378579583007E+001	8.6375847E-002	-1.2515719E+000	0
1.7710928E+001	1.132091973466595E+002	-1.2535363E+000	-7.077756330485749E+001	8.8722251E-002	-1.2535720E+000	0
1.7301735E+001	1.134091973416071E+002	-1.2555572E+000	-7.256828569068421E+001	9.1113634E-002	-1.2555718E+000	0
1.6906591E+001	1.136091973365546E+002	-1.2575668E+000	-7.438322634329336E+001	9.3541875E-002	-1.2575718E+000	0
1.6539063E+001	1.138091973315022E+002	-1.2595336E+000	-7.615507678704444E+001	9.5919885E-002	-1.2595719E+000	0
1.6190884E+001	1.140091973264498E+002	-1.2615720E+000	-7.791866367852606E+001	9.8300003E-002	-1.2615719E+000	0
1.5834375E+001	1.142091973213974E+002	-1.2635572E+000	-7.979836260218185E+001	1.0082980E-001	-1.2635719E+000	0
1.5483189E+001	1.144091973163449E+002	-1.2655324E+000	-8.173590115570991E+001	1.0343943E-001	-1.2655718E+000	0
1.5172218E+001	1.146091973112925E+002	-1.2675651E+000	-8.354514420600208E+001	1.0589891E-001	-1.2675719E+000	0
1.4869939E+001	1.148091973062401E+002	-1.2695374E+000	-8.537610489062399E+001	1.0838816E-001	-1.2695719E+000	0
1.4543863E+001	1.150091973011877E+002	-1.2715203E+000	-8.742658180390339E+001	1.1116467E-001	-1.2715719E+000	0
1.4230769E+001	1.152091972961352E+002	-1.2735343E+000	-8.949160166500428E+001	1.1397062E-001	-1.2735720E+000	0
1.3901617E+001	1.154091972910828E+002	-1.2755538E+000	-9.175578603020085E+001	1.1703944E-001	-1.2755718E+000	0
1.3590988E+001	1.156091972860304E+002	-1.2774993E+000	-9.399605634693643E+001	1.2007990E-001	-1.2775719E+000	0
1.3271247E+001	1.158091972809780E+002	-1.2795930E+000	-9.641844332191147E+001	1.2337636E-001	-1.2795719E+000	0
1.3043817E+001	1.160091972759255E+002	-1.2815473E+000	-9.824941509651171E+001	1.2591128E-001	-1.2815719E+000	0
1.2743861E+001	1.162091972708731E+002	-1.2834951E+000	-1.007147721784727E+002	1.2926692E-001	-1.2835720E+000	0
1.2426467E+001	1.164091972658207E+002	-1.2855765E+000	-1.034547019642760E+002	1.3299893E-001	-1.2855719E+000	0
1.2141763E+001	1.166091972607683E+002	-1.2875144E+000	-1.060401595314613E+002	1.3652824E-001	-1.2875719E+000	0
1.1924276E+001	1.168091972557158E+002	-1.2895626E+000	-1.081459853027418E+002	1.3946101E-001	-1.2895720E+000	0
1.1656328E+001	1.170191972504108E+002	-1.2916323E+000	-1.108095333109098E+002	1.4312518E-001	-1.2916720E+000	0
1.1421066E+001	1.172291972451058E+002	-1.2936956E+000	-1.132727522741911E+002	1.4654046E-001	-1.2937719E+000	0
1.1234210E+001	1.174291972400533E+002	-1.2956797E+000	-1.153334035797724E+002	1.4943515E-001	-1.2957718E+000	0
1.1016706E+001	1.176291972350009E+002	-1.2977263E+000	-1.177962147859757E+002	1.5286724E-001	-1.2977719E+000	0
1.0792918E+001	1.178291972299485E+002	-1.2996891E+000	-1.204205451573912E+002	1.5650927E-001	-1.2997719E+000	0
1.0617064E+001	1.180291972248961E+002	-1.3017343E+000	-1.226077591697104E+002	1.5960273E-001	-1.3017719E+000	0
1.0423543E+001	1.182291972198436E+002	-1.3037467E+000	-1.250771118140274E+002	1.6306888E-001	-1.3037719E+000	0
1.0279539E+001	1.184291972147912E+002	-1.3057487E+000	-1.270240517808734E+002	1.6586149E-001	-1.3057719E+000	0
1.0084381E+001	1.186291972097388E+002	-1.3077090E+000	-1.296766687012585E+002	1.6957934E-001	-1.3077719E+000	0
9.9026785E+000	1.188291972046864E+002	-1.3097658E+000	-1.322637980822260E+002	1.7323460E-001	-1.3097720E+000	0
9.6345320E+000	1.190291971996339E+002	-1.3117427E+000	-1.361501208941140E+002	1.7859392E-001	-1.3117719E+000	0
9.4766388E+000	1.192291971945815E+002	-1.3137298E+000	-1.386282394002624E+002	1.8212004E-001	-1.3137718E+000	0
9.3614159E+000	1.194291971895291E+002	-1.3157283E+000	-1.405480059247438E+002	1.8492299E-001	-1.3157718E+000	0
9.1723928E+000	1.196291971844767E+002	-1.3177549E+000	-1.436653332796773E+002	1.8931569E-001	-1.3177719E+000	0
9.0420189E+000	1.198291971794242E+002	-1.3197451E+000	-1.459568973312032E+002	1.9262590E-001	-1.3197719E+000	0
8.8469515E+000	1.200291971743718E+002	-1.3217443E+000	-1.494011025244963E+002	1.9747005E-001	-1.3217719E+000	0
8.6829996E+000	1.202291971693194E+002	-1.3237559E+000	-1.524537453543294E+002	2.0181154E-001	-1.3237718E+000	0
8.5971308E+000	1.204291971642670E+002	-1.3257213E+000	-1.542050748876970E+002	2.0443295E-001	-1.3257718E+000	0
8.5103502E+000	1.206291971592145E+002	-1.3277359E+000	-1.560142544099801E+002	2.0714572E-001	-1.3277719E+000	0
8.4177570E+000	1.208291971541621E+002	-1.3297131E+000	-1.579652540916211E+002	2.1004847E-001	-1.3297720E+000	0
8.2200994E+000	1.210291971491097E+002	-1.3317221E+000	-1.620080383424045E+002	2.1574970E-001	-1.3317719E+000	0
8.0724401E+000	1.212291971440573E+002	-1.3337156E+000	-1.652183860997227E+002	2.2035433E-001	-1.3337719E+000	0
7.9045062E+000	1.214291971390048E+002	-1.3357354E+000	-1.689840430207801E+002	2.2571798E-001	-1.3357718E+000	0
7.7572646E+000	1.216291971339524E+002	-1.3377520E+000	-1.724515075315956E+002	2.3069735E-001	-1.3377719E+000	0
7.6519527E+000	1.218291971289000E+002	-1.3396949E+000	-1.750788218407406E+002	2.3455220E-001	-1.3397719E+000	0
7.5414872E+000	1.220291971238476E+002	-1.3417288E+000	-1.779130299929325E+002	2.3871104E-001	-1.3417718E+000	0
7.4247308E+000	1.222291971187951E+002	-1.3437480E+000	-1.809827245325180E+002	2.4319518E-001	-1.3437718E+000	0
7.3266134E+000	1.224291971137427E+002	-1.3457315E+000	-1.836771498342769E+002	2.4718012E-001	-1.3457718E+000	0
7.2611394E+000	1.226291971086903E+002	-1.3477473E+000	-1.856109951077681E+002	2.5015673E-001	-1.3477719E+000	0
7.1428862E+000	1.228291971036379E+002	-1.3497447E+000	-1.889634910721888E+002	2.5505248E-001	-1.3497720E+000	0
7.0643363E+000	1.230291970985854E+002	-1.3517524E+000	-1.913488173311803E+002	2.5865623E-001	-1.3517718E+000	0
6.8675652E+000	1.232291970935330E+002	-1.3537400E+000	-1.971207991576248E+002	2.6685029E-001	-1.3537718E+000	0
6.7575469E+000	1.234291970884806E+002	-1.3557636E+000	-2.006295425648586E+002	2.7200621E-001	-1.3557719E+000	0
6.6902499E+000	1.236291970834282E+002	-1.3577532E+000	-2.029450601655617E+002	2.7554929E-001	-1.3577719E+000	0
6.6542916E+000	1.238291970783757E+002	-1.3597708E+000	-2.043449378824562E+002	2.7786228E-001	-1.3597718E+000	0
6.6097312E+000	1.240291970733233E+002	-1.3617742E+000	-2.060256487766363E+002	2.8056040E-001	-1.3617719E+000	0
6.5615544E+000	1.242291970682709E+002	-1.3637329E+000	-2.078368627954760E+002	2.8343397E-001	-1.3637719E+000	0
6.4075217E+000	1.244291970632185E+002	-1.3657743E+000	-2.131517147098793E+002	2.9111713E-001	-1.3657719E+000	0
6.2302656E+000	1.246291970581660E+002	-1.3677402E+000	-2.195315975267058E+002	3.0026218E-001	-1.3677719E+000	0
6.1514668E+000	1.248291970531136E+002	-1.3697516E+000	-2.226707182233290E+002	3.0500355E-001	-1.3697720E+000	0
5.9665670E+000	1.250291970480612E+002	-1.3717451E+000	-2.299052606721041E+002	3.1537142E-001	-1.3717719E+000	0
5.8876696E+000	1.252291970430088E+002	-1.3737509E+000	-2.333267751442868E+002	3.2053286E-001	-1.3737719E+000	0
5.7845116E+000	1.254292970379538E+002	-1.3757708E+000	-2.378369848142629E+002	3.2720917E-001	-1.3757728E+000	0
5.7045717E+000	1.256295970328938E+002	-1.3778346E+000	-2.415316445146277E+002	3.3279064E-001	-1.3777754E+000	0
5.6292062E+000	1.258300970278287E+002	-1.3797951E+000	-2.451136098589668E+002	3.3820656E-001	-1.3797802E+000	0
5.6316881E+000	1.260304970227662E+002	-1.3817939E+000	-2.453605029013256E+002	3.3903763E-001	-1.3817847E+000	0
5.5872855E+000	1.262308970177037E+002	-1.3837545E+000	-2.476613069898058E+002	3.4270245E-001	-1.3837886E+000	0
5.5253906E+000	1.264309970126487E+002	-1.3858110E+000	-2.508077930160662E+002	3.4757218E-001	-1.3857899E+000	0
5.4642215E+000	1.266313970075862E+002	-1.3877805E+000	-2.539758996352030E+002	3.5246280E-001	-1.3877934E+000	0
5.3649130E+000	1.268318970025211E+002	-1.3898833E+000	-2.590691128709268E+002	3.6007583E-001	-1.3897982E+000	0
5.3413243E+000	1.270325969974510E+002	-1.3918892E+000	-2.605887835857566E+002	3.6271071E-001	-1.3918053E+000	0
5.2686105E+000	1.272329969923885E+002	-1.3938839E+000	-2.645638711327872E+002	3.6877134E-001	-1.3938094E+000	0
5.1844554E+000	1.274332969873285E+002	-1.3958464E+000	-2.692368441067808E+002	3.7581328E-001	-1.3958127E+000	0
5.0947742E+000	1.276335969822685E+002	-1.3978535E+000	-2.743700496848064E+002	3.8352913E-001	-1.3978153E+000	0
5.1049886E+000	1.278239969774586E+002	-1.3997457E+000	-2.741917390378919E+002	3.8379872E-001	-1.3997192E+000	0
5.0132666E+000	1.280143969726487E+002	-1.4016559E+000	-2.795893569860679E+002	3.9188808E-001	-1.4016232E+000	0
4.9432635E+000	1.282148969675836E+002	-1.4036397E+000	-2.839500102530290E+002	3.9856350E-001	-1.4036287E+000	0
4.8731003E+000	1.284050969627788E+002	-1.4055982E+000	-2.884402347421446E+002	4.0543106E-001	-1.4055305E+000	0
4.8187623E+000	1.285954969579689E+002	-1.4074438E+000	-2.920757840034812E+002	4.1108024E-001	-1.4074342E+000	0
4.8586459E+000	1.287958969529063E+002	-1.4094748E+000	-2.900962251206392E+002	4.0888333E-001	-1.4094387E+000	0
4.7895231E+000	1.289962969478438E+002	-1.4114718E+000	-2.946998572325210E+002	4.1596055E-001	-1.4114422E+000	0
4.7768211E+000	1.291968969427762E+002	-1.4134867E+000	-2.959052985538797E+002	4.1825822E-001	-1.4134486E+000	0
4.7441063E+000	1.293969969377213E+002	-1.4154922E+000	-2.983685511634458E+002	4.2233834E-001	-1.4154500E+000	0
4.6670475E+000	1.295972969326613E+002	-1.4174788E+000	-3.037206626964698E+002	4.3051761E-001	-1.4174527E+000	0
4.6005354E+000	1.297975969276013E+002	-1.4195145E+000	-3.085541893350655E+002	4.3799716E-001	-1.4194556E+000	0
4.5696487E+000	1.299978969225413E+002	-1.4215393E+000	-3.110828265628081E+002	4.4221646E-001	-1.4214586E+000	0
4.5690131E+000	1.301979969174863E+002	-1.4235067E+000	-3.115567346040889E+002	4.4350311E-001	-1.4234599E+000	0
4.5941920E+000	1.303981969124288E+002	-1.4255102E+000	-3.102852807357810E+002	4.4231483E-001	-1.4254615E+000	0
4.5511098E+000	1.305986969073638E+002	-1.4275287E+000	-3.136660774834970E+002	4.4776735E-001	-1.4274663E+000	0
4.4997325E+000	1.307989969023038E+002	-1.4295299E+000	-3.176921902373269E+002	4.5415050E-001	-1.4294701E+000	0
4.4381609E+000	1.309991968972463E+002	-1.4315414E+000	-3.225528327100233E+002	4.6174774E-001	-1.4314713E+000	0
4.4003973E+000	1.311994968921863E+002	-1.4335579E+000	-3.257791727288511E+002	4.6702328E-001	-1.4334747E+000	0
4.3564062E+000	1.313998968871238E+002	-1.4355406E+000	-3.295240424219514E+002	4.7304514E-001	-1.4354782E+000	0
4.2604318E+000	1.316004968820562E+002	-1.4375489E+000	-3.374186022156960E+002	4.8505574E-001	-1.4374841E+000	0
4.1947374E+000	1.318009968769911E+002	-1.4395541E+000	-3.431809711280162E+002	4.9402758E-001	-1.4394894E+000	0
4.2254405E+000	1.320013968719286E+002	-1.4415283E+000	-3.411545743296110E+002	4.9178398E-001	-1.4414937E+000	0
4.2273846E+000	1.322015968668711E+002	-1.4435828E+000	-3.414836511053145E+002	4.9295992E-001	-1.4434956E+000	0
4.1486864E+000	1.324018968618111E+002	-1.4455560E+000	-3.484370377468895E+002	5.0368530E-001	-1.4454983E+000	0
4.1552944E+000	1.326022968567486E+002	-1.4476026E+000	-3.483754514096499E+002	5.0430924E-001	-1.4475027E+000	0
4.1580043E+000	1.328025968516886E+002	-1.4495372E+000	-3.486136847802495E+002	5.0532848E-001	-1.4495053E+000	0
4.1548162E+000	1.330031968466210E+002	-1.4515506E+000	-3.493657836973446E+002	5.0712210E-001	-1.4515110E+000	0
4.1096191E+000	1.332037968415534E+002	-1.4535875E+000	-3.537036966630985E+002	5.1413929E-001	-1.4535174E+000	0
4.0638394E+000	1.334041968364909E+002	-1.4555774E+000	-3.581778740641366E+002	5.2135563E-001	-1.4555212E+000	0
3.9531894E+000	1.336044968314309E+002	-1.4575981E+000	-3.687144580631548E+002	5.3743750E-001	-1.4575247E+000	0
3.9054806E+000	1.338046968263734E+002	-1.4596076E+000	-3.737331576021400E+002	5.4550374E-001	-1.4595265E+000	0
3.9102025E+000	1.340050968213109E+002	-1.4616053E+000	-3.737927417981609E+002	5.4633749E-001	-1.4615303E+000	0
3.9330237E+000	1.342053968162509E+002	-1.4636513E+000	-3.721440287337873E+002	5.4468912E-001	-1.4635338E+000	0
3.8616991E+000	1.344058968111858E+002	-1.4656001E+000	-3.795221047323121E+002	5.5622762E-001	-1.4655380E+000	0
3.8106396E+000	1.346063968061208E+002	-1.4676423E+000	-3.851433032689479E+002	5.6525260E-001	-1.4675434E+000	0
3.7542999E+000	1.348069968010532E+002	-1.4696680E+000	-3.914625999181408E+002	5.7532007E-001	-1.4695493E+000	0
3.6880860E+000	1.350073967959906E+002	-1.4716595E+000	-3.990307044161621E+002	5.8723736E-001	-1.4715533E+000	0
3.6979091E+000	1.352075967909332E+002	-1.4736675E+000	-3.985137212499540E+002	5.8727670E-001	-1.4735556E+000	0
3.6708238E+000	1.354077967858757E+002	-1.4756650E+000	-4.019983144200323E+002	5.9321481E-001	-1.4755574E+000	0
3.6281948E+000	1.356080967808157E+002	-1.4776258E+000	-4.072619878326900E+002	6.0178083E-001	-1.4775608E+000	0
3.6544483E+000	1.358081967757607E+002	-1.4796910E+000	-4.049013346284974E+002	5.9912890E-001	-1.4795619E+000	0
3.6573474E+000	1.360081967707083E+002	-1.4816196E+000	-4.051077064678539E+002	6.0021549E-001	-1.4815618E+000	0
3.6546037E+000	1.362081967656559E+002	-1.4836988E+000	-4.059807796089021E+002	6.0235322E-001	-1.4835619E+000	0
3.5936558E+000	1.364084967605959E+002	-1.4856412E+000	-4.134066535282509E+002	6.1417395E-001	-1.4855646E+000	0
3.5955677E+000	1.366087967555359E+002	-1.4876739E+000	-4.137521466826256E+002	6.1552829E-001	-1.4875674E+000	0
3.5569849E+000	1.368091967504733E+002	-1.4896656E+000	-4.188001126400377E+002	6.2387216E-001	-1.4895715E+000	0
3.5035911E+000	1.370095967454108E+002	-1.4916767E+000	-4.257565067539940E+002	6.3509107E-001	-1.4915752E+000	0
3.5234139E+000	1.372099967403483E+002	-1.4937023E+000	-4.239360811365877E+002	6.3323432E-001	-1.4935797E+000	0
3.4431713E+000	1.374104967352832E+002	-1.4957067E+000	-4.343980007252576E+002	6.4973199E-001	-1.4955840E+000	0
3.4250910E+000	1.376109967302182E+002	-1.4976923E+000	-4.372708020886912E+002	6.5489715E-001	-1.4975893E+000	0
3.4319274E+000	1.378112967251582E+002	-1.4997503E+000	-4.369994064403827E+002	6.5538996E-001	-1.4995927E+000	0
3.4368377E+000	1.380114967201007E+002	-1.5017067E+000	-4.369443136016462E+002	6.5616220E-001	-1.5015948E+000	0
3.3877757E+000	1.382116967150432E+002	-1.5037006E+000	-4.438607313423299E+002	6.6743368E-001	-1.5035968E+000	0
3.3582556E+000	1.384119967099832E+002	-1.5057191E+000	-4.483634439996913E+002	6.7510939E-001	-1.5055997E+000	0
3.2734056E+000	1.386119967049308E+002	-1.5077204E+000	-4.605968532951538E+002	6.9445127E-001	-1.5075998E+000	0
3.2019627E+000	1.388119966998784E+002	-1.5097308E+000	-4.715016737222104E+002	7.1184063E-001	-1.5095997E+000	0
3.2308574E+000	1.390119966948259E+002	-1.5117241E+000	-4.679018432418243E+002	7.0733851E-001	-1.5115995E+000	0
3.2799897E+000	1.392119966897735E+002	-1.5137434E+000	-4.615085655653584E+002	6.9860554E-001	-1.5135996E+000	0
3.3162630E+000	1.394119966847211E+002	-1.5157120E+000	-4.570542260297570E+002	6.9276261E-001	-1.5155997E+000	0
3.3308396E+000	1.396119966796687E+002	-1.5177499E+000	-4.556658517400701E+002	6.9158679E-001	-1.5175998E+000	0
3.2848103E+000	1.398119966746162E+002	-1.5197264E+000	-4.626527215261322E+002	7.0310557E-001	-1.5195997E+000	0
3.3106639E+000	1.400119966695638E+002	-1.5217106E+000	-4.596391138695253E+002	6.9943774E-001	-1.5215995E+000	0
3.2944758E+000	1.402119966645114E+002	-1.5237353E+000	-4.625122064041175E+002	7.0474619E-001	-1.5235996E+000	0
3.2323425E+000	1.404119966594590E+002	-1.5257738E+000	-4.720334596698794E+002	7.2021627E-001	-1.5255997E+000	0
3.1670430E+000	1.406119966544065E+002	-1.5277728E+000	-4.823972522320400E+002	7.3699337E-001	-1.5275996E+000	0
3.0683389E+000	1.408119966493541E+002	-1.5298115E+000	-4.985797097342361E+002	7.6273298E-001	-1.5295997E+000	0
3.0843866E+000	1.410119966443017E+002	-1.5317612E+000	-4.966177785315467E+002	7.6069981E-001	-1.5315998E+000	0
3.0515211E+000	1.412119966392493E+002	-1.5337796E+000	-5.026279150688160E+002	7.7092046E-001	-1.5335996E+000	0
3.0632472E+000	1.414119966341968E+002	-1.5358202E+000	-5.013699950133853E+002	7.7001417E-001	-1.5355997E+000	0
3.0989106E+000	1.416119966291444E+002	-1.5378109E+000	-4.962424237820032E+002	7.6312703E-001	-1.5375998E+000	0
3.0604358E+000	1.418119966240920E+002	-1.5398132E+000	-5.031352529417637E+002	7.7473426E-001	-1.5395997E+000	0
2.9930720E+000	1.420119966190396E+002	-1.5417587E+000	-5.151090859566666E+002	7.9417390E-001	-1.5415996E+000	0
3.0234399E+000	1.422119966139871E+002	-1.5437547E+000	-5.105954551048017E+002	7.8823411E-001	-1.5435997E+000	0
3.0477412E+000	1.424119966089347E+002	-1.5457673E+000	-5.071845785863261E+002	7.8398937E-001	-1.5455997E+000	0
2.9293268E+000	1.426119966038823E+002	-1.5477731E+000	-5.283716290013308E+002	8.1779939E-001	-1.5475998E+000	0
2.8873193E+000	1.428119965988299E+002	-1.5497757E+000	-5.367524564401356E+002	8.3184594E-001	-1.5495996E+000	0
2.9243627E+000	1.430119965937774E+002	-1.5518050E+000	-5.306472632912000E+002	8.2346112E-001	-1.5515996E+000	0
2.9587560E+000	1.432119965887250E+002	-1.5537726E+000	-5.251438532502743E+002	8.1595409E-001	-1.5535997E+000	0
2.9308805E+000	1.434119965836726E+002	-1.5557920E+000	-5.308274995539996E+002	8.2585716E-001	-1.5555997E+000	0
2.8961842E+000	1.436119965786202E+002	-1.5578105E+000	-5.378837840411120E+002	8.3792102E-001	-1.5575997E+000	0
2.8825500E+000	1.438119965735677E+002	-1.5597829E+000	-5.411121409366442E+002	8.4401745E-001	-1.5595998E+000	0
2.8918843E+000	1.440119965685153E+002	-1.5617837E+000	-5.400574519358543E+002	8.4345293E-001	-1.5615996E+000	0
2.8828847E+000	1.442119965634629E+002	-1.5637336E+000	-5.424197235972406E+002	8.4819996E-001	-1.5635997E+000	0
2.8432984E+000	1.444119965584105E+002	-1.5657927E+000	-5.506958524050906E+002	8.6227554E-001	-1.5655998E+000	0
2.8068919E+000	1.446119965533580E+002	-1.5677648E+000	-5.585412054429526E+002	8.7566119E-001	-1.5675997E+000	0
2.8155298E+000	1.448119965483056E+002	-1.5698102E+000	-5.575540880908247E+002	8.7525409E-001	-1.5695999E+000	0
2.7875121E+000	1.450119965432532E+002	-1.5717907E+000	-5.638686478846212E+002	8.8628352E-001	-1.5715997E+000	0
2.7288971E+000	1.452119965382008E+002	-1.5743048E+000	-5.769014746088542E+002	9.0821880E-001	-1.5735997E+000	0
2.6922927E+000	1.453719965341588E+002	-1.5758833E+000	-5.853313145929478E+002	9.2241383E-001	-1.5751997E+000	0
2.6995137E+000	1.454231965328654E+002	-1.5765851E+000	-5.840255635579424E+002	9.2076600E-001	-1.5758994E+000	1