EC-Lab ASCII FILE
Nb header lines : 63                          

Linear Sweep Voltammetry

Run on channel : 1 (SN 1340)
User : 
Electrode connection : standard
Potential control : Ewe
Ewe ctrl range : min = -5.00 V, max = 5.00 V
Ewe,I filtering : <None>
Safety Limits :
	Do not start on E overload
Channel : Floating
Acquisition started on : 02/19/2026 17:21:02.954
Technique started on : 02/19/2026 17:21:05.793
Loaded Setting File :  NONE
Saved on :
	File : Co40_2_19_02_LSV_C01.mpr
	Directory : C:\Users\volt\Documents\Platalytix\
	Host : 127.0.0.1
Device : SP-200 (SN 0262)
Address : USB
EC-LAB for windows v11.60 (software)
Internet server v11.60 (firmware)
Command interpretor v11.60 (firmware)
Electrode material : Co40
Initial state : 
Electrolyte : KOH (1M)
Comments : 
Cable : standard
Reference electrode : Hg/HgO (0.140 V)
Electrode surface area : 1.000 cm˛
Characteristic mass : 0.001 g
Equivalent Weight : 0.000 g/eq.
Density : 0.000 g/cm3
Volume (V) : 0.001 cmł
Cycle Definition : Charge/Discharge alternance
tR (h:m:s)          0:00:5.0000         
dER/dt (mV/h)       0.0                 
dER (mV)            0                   
dtR (s)             0.0000              
dE/dt               10.000              
dE/dt unit          mV/s                
Ei (V)              -0.200              
vs.                 Ref                 
EL (V)              -2.500              
vs.                 Ref                 
record              <I>                 
dI                  0.000               
unit dI             µA                  
tI (s)              0.0000              
step percent        50                  
N                   10                  
E range min (V)     -5.000              
E range max (V)     5.000               
I Range             Auto                
I Range min         Unset               
I Range max         Unset               
I Range init        Unset               
Bandwidth           8                   

Rwe/Ohm	time/s	Ewe/V	<I>/mA	Pwe/W	control/V	error	
0.0000000E+000	2.839400134835159E+000	-1.6747181E-001	0.000000000000000E+000	0.0000000E+000	0.0000000E+000	0
0.0000000E+000	7.839200008529588E+000	-7.2664917E-002	0.000000000000000E+000	0.0000000E+000	-1.9997239E-001	0
1.2843762E+003	8.039200003477163E+000	-2.0165680E-001	1.570075792074199E-001	-3.1661646E-005	-2.0187217E-001	0
4.1902422E+003	8.159200000445708E+000	-2.0287584E-001	-4.841625603391486E-002	9.8224882E-006	-2.0307222E-001	0
2.5591921E+003	8.369199995140661E+000	-2.0501919E-001	-8.011090538629206E-002	1.6424274E-005	-2.0517223E-001	0
2.5095339E+003	8.569199990088237E+000	-2.0700763E-001	-8.248847908215806E-002	1.7075745E-005	-2.0717224E-001	0
2.5520144E+003	8.769199985035812E+000	-2.0904382E-001	-8.191325690474782E-002	1.7123461E-005	-2.0917223E-001	0
2.6134653E+003	8.969199979983387E+000	-2.1096879E-001	-8.072377716575505E-002	1.7030197E-005	-2.1117222E-001	0
2.6810071E+003	9.169199974930962E+000	-2.1300964E-001	-7.945135269945486E-002	1.6923905E-005	-2.1317224E-001	0
2.7483513E+003	9.369199969878537E+000	-2.1500252E-001	-7.822963514559500E-002	1.6819569E-005	-2.1517220E-001	0
2.8168708E+003	9.569199964826112E+000	-2.1701685E-001	-7.704181769227070E-002	1.6719372E-005	-2.1717224E-001	0
2.8827651E+003	9.769199959773687E+000	-2.1900930E-001	-7.597195220976016E-002	1.6638563E-005	-2.1917221E-001	0
2.9476934E+003	9.969199954721262E+000	-2.2096081E-001	-7.496058361133873E-002	1.6563352E-005	-2.2117220E-001	0
3.0105808E+003	1.016919994966884E+001	-2.2300717E-001	-7.407446772804127E-002	1.6519138E-005	-2.2317223E-001	0
3.0758577E+003	1.036919994461641E+001	-2.2501831E-001	-7.315628357863069E-002	1.6461503E-005	-2.2517221E-001	0
3.1346870E+003	1.056919993956399E+001	-2.2703473E-001	-7.242660115466637E-002	1.6443353E-005	-2.2717224E-001	0
3.1979509E+003	1.076919993451156E+001	-2.2900473E-001	-7.160983172978130E-002	1.6398990E-005	-2.2917221E-001	0
3.2564465E+003	1.096919992945914E+001	-2.3099589E-001	-7.093495626557944E-002	1.6385684E-005	-2.3117222E-001	0
3.3133281E+003	1.116919992440671E+001	-2.3297116E-001	-7.031333976416754E-002	1.6380980E-005	-2.3317221E-001	0
3.3746816E+003	1.136919991935429E+001	-2.3503813E-001	-6.964749968008832E-002	1.6369819E-005	-2.3517221E-001	0
3.4306882E+003	1.156919991430186E+001	-2.3700555E-001	-6.908396551493196E-002	1.6373284E-005	-2.3717225E-001	0
3.4909819E+003	1.176919990924944E+001	-2.3903662E-001	-6.847260059480481E-002	1.6367459E-005	-2.3917221E-001	0
3.5470007E+003	1.196919990419701E+001	-2.4097624E-001	-6.793802914836861E-002	1.6371450E-005	-2.4117222E-001	0
3.6042698E+003	1.216919989914459E+001	-2.4301451E-001	-6.742406146370672E-002	1.6385025E-005	-2.4317223E-001	0
3.6604485E+003	1.236919989409216E+001	-2.4501483E-001	-6.693573874609338E-002	1.6400249E-005	-2.4517220E-001	0
3.7153435E+003	1.256919988903974E+001	-2.4699648E-001	-6.648011758496986E-002	1.6420356E-005	-2.4717222E-001	0
3.7711506E+003	1.276919988398731E+001	-2.4901867E-001	-6.603254233286315E-002	1.6443335E-005	-2.4917223E-001	0
3.8292356E+003	1.296919987893489E+001	-2.5102237E-001	-6.555417103084660E-002	1.6455564E-005	-2.5117221E-001	0
3.8850281E+003	1.316919987388246E+001	-2.5302821E-001	-6.512905538869795E-002	1.6479489E-005	-2.5317222E-001	0
3.9397583E+003	1.336919986883004E+001	-2.5505185E-001	-6.473794496616075E-002	1.6511533E-005	-2.5517222E-001	0
3.9906082E+003	1.356919986377761E+001	-2.5701270E-001	-6.440439288686051E-002	1.6552747E-005	-2.5717223E-001	0
4.0458203E+003	1.376919985872519E+001	-2.5900495E-001	-6.401790647245853E-002	1.6580954E-005	-2.5917223E-001	0
4.1027012E+003	1.396919985367276E+001	-2.6098680E-001	-6.361340739512981E-002	1.6602260E-005	-2.6117224E-001	0
4.1588506E+003	1.416919984862034E+001	-2.6300600E-001	-6.324006841927687E-002	1.6632517E-005	-2.6317221E-001	0
4.2140625E+003	1.436919984356791E+001	-2.6501966E-001	-6.288935074502422E-002	1.6666914E-005	-2.6517224E-001	0
4.2675654E+003	1.456919983851549E+001	-2.6702106E-001	-6.256987740203324E-002	1.6707476E-005	-2.6717222E-001	0
4.3225640E+003	1.476919983346306E+001	-2.6903600E-001	-6.223991248110428E-002	1.6744776E-005	-2.6917222E-001	0
4.3789014E+003	1.496919982841064E+001	-2.7100703E-001	-6.188927545125625E-002	1.6772428E-005	-2.7117223E-001	0
4.4277124E+003	1.516919982335821E+001	-2.7297974E-001	-6.165254416309579E-002	1.6829896E-005	-2.7317223E-001	0
4.4820884E+003	1.536919981830579E+001	-2.7500999E-001	-6.135755909190788E-002	1.6873943E-005	-2.7517220E-001	0
4.5347979E+003	1.556919981325336E+001	-2.7699417E-001	-6.108192055034223E-002	1.6919335E-005	-2.7717221E-001	0
4.5904893E+003	1.576919980820094E+001	-2.7897581E-001	-6.077256431283572E-002	1.6954076E-005	-2.7917224E-001	0
4.6385361E+003	1.596919980314851E+001	-2.8099397E-001	-6.057815810152312E-002	1.7022097E-005	-2.8117222E-001	0
4.6968848E+003	1.616919979809609E+001	-2.8298789E-001	-6.025012726409784E-002	1.7050057E-005	-2.8317225E-001	0
4.7467109E+003	1.636919979304366E+001	-2.8501201E-001	-6.004410475606503E-002	1.7113291E-005	-2.8517222E-001	0
4.8021416E+003	1.656919978799124E+001	-2.8702080E-001	-5.976933121676975E-002	1.7155042E-005	-2.8717220E-001	0
4.8548677E+003	1.676919978293881E+001	-2.8899434E-001	-5.952671686632960E-002	1.7202885E-005	-2.8917220E-001	0
4.9077466E+003	1.696919977788639E+001	-2.9099637E-001	-5.929327650099159E-002	1.7254128E-005	-2.9117221E-001	0
4.9609917E+003	1.716919977283396E+001	-2.9300433E-001	-5.906164416591420E-002	1.7305318E-005	-2.9317221E-001	0
5.0146387E+003	1.736919976778154E+001	-2.9498279E-001	-5.882433530781661E-002	1.7352166E-005	-2.9517221E-001	0
5.0630854E+003	1.756919976272911E+001	-2.9701746E-001	-5.866333326037598E-002	1.7424034E-005	-2.9717222E-001	0
5.1174390E+003	1.776919975767669E+001	-2.9901394E-001	-5.843038517029328E-002	1.7471501E-005	-2.9917222E-001	0
5.1699897E+003	1.796919975262426E+001	-3.0095956E-001	-5.821279358581272E-002	1.7519696E-005	-3.0117223E-001	0
5.2206323E+003	1.816919974757184E+001	-3.0303794E-001	-5.804621309776903E-002	1.7590204E-005	-3.0317223E-001	0
5.2719814E+003	1.836919974251941E+001	-3.0498305E-001	-5.784979634369170E-002	1.7643208E-005	-3.0517220E-001	0
5.3214712E+003	1.856919973746699E+001	-3.0701199E-001	-5.769306654321715E-002	1.7712464E-005	-3.0717221E-001	0
5.3750889E+003	1.876919973241456E+001	-3.0903503E-001	-5.749394098041205E-002	1.7767641E-005	-3.0917221E-001	0
5.4250708E+003	1.896919972736214E+001	-3.1102815E-001	-5.733162942743728E-002	1.7831751E-005	-3.1117222E-001	0
5.4733682E+003	1.916919972230971E+001	-3.1302741E-001	-5.719100087807139E-002	1.7902352E-005	-3.1317222E-001	0
5.5246279E+003	1.936919971725729E+001	-3.1499398E-001	-5.701632630301723E-002	1.7959799E-005	-3.1517223E-001	0
5.5746401E+003	1.956919971220486E+001	-3.1697795E-001	-5.686070208591909E-002	1.8023589E-005	-3.1717223E-001	0
5.6300049E+003	1.976919970715244E+001	-3.1901601E-001	-5.666353893540205E-002	1.8076576E-005	-3.1917223E-001	0
5.6782998E+003	1.996919970210001E+001	-3.2100421E-001	-5.653174737755540E-002	1.8146930E-005	-3.2117224E-001	0
5.7244229E+003	2.016919969704759E+001	-3.2303891E-001	-5.643169731514164E-002	1.8229633E-005	-3.2317221E-001	0
5.7749604E+003	2.036919969199516E+001	-3.2503605E-001	-5.628368326108019E-002	1.8294226E-005	-3.2517225E-001	0
5.8253130E+003	2.056919968694274E+001	-3.2702553E-001	-5.613870363072193E-002	1.8358789E-005	-3.2717219E-001	0
5.8789019E+003	2.076919968189031E+001	-3.2902965E-001	-5.596787734020547E-002	1.8415090E-005	-3.2917222E-001	0
5.9269785E+003	2.096919967683789E+001	-3.3099306E-001	-5.584515775912902E-002	1.8484359E-005	-3.3117223E-001	0
5.9643462E+003	2.116919967178546E+001	-3.3297065E-001	-5.582684715270003E-002	1.8588702E-005	-3.3317223E-001	0
6.0168306E+003	2.136919966673304E+001	-3.3492875E-001	-5.566531227417948E-002	1.8643914E-005	-3.3517224E-001	0
6.0652134E+003	2.156919966168061E+001	-3.3701161E-001	-5.556467559416683E-002	1.8725941E-005	-3.3717224E-001	0
6.1139282E+003	2.176919965662819E+001	-3.3902889E-001	-5.545189117383464E-002	1.8799794E-005	-3.3917221E-001	0
6.1623438E+003	2.196919965157576E+001	-3.4103814E-001	-5.534227688051341E-002	1.8873827E-005	-3.4117222E-001	0
6.2068545E+003	2.216919964652334E+001	-3.4301466E-001	-5.526384509479010E-002	1.8956309E-005	-3.4317225E-001	0
6.2539097E+003	2.236919964147091E+001	-3.4502941E-001	-5.517019549291780E-002	1.9035340E-005	-3.4517223E-001	0
6.2947607E+003	2.256919963641849E+001	-3.4701085E-001	-5.512693165400219E-002	1.9129644E-005	-3.4717220E-001	0
6.3403154E+003	2.276919963136606E+001	-3.4900883E-001	-5.504597114534260E-002	1.9211529E-005	-3.4917223E-001	0
6.3837388E+003	2.296919962631364E+001	-3.5099557E-001	-5.498276003097913E-002	1.9298705E-005	-3.5117221E-001	0
6.4294424E+003	2.316919962126121E+001	-3.5298780E-001	-5.490177537392729E-002	1.9379657E-005	-3.5317224E-001	0
6.4732485E+003	2.336919961620879E+001	-3.5501954E-001	-5.484410926705963E-002	1.9470730E-005	-3.5517222E-001	0
6.5134243E+003	2.356919961115636E+001	-3.5701898E-001	-5.481279383005921E-002	1.9569208E-005	-3.5717222E-001	0
6.5552627E+003	2.376919960610394E+001	-3.5898495E-001	-5.476286082608772E-002	1.9659043E-005	-3.5917225E-001	0
6.6022842E+003	2.396919960105151E+001	-3.6105654E-001	-5.468661080498916E-002	1.9744959E-005	-3.6117223E-001	0
6.6411470E+003	2.416919959599909E+001	-3.6300510E-001	-5.466000192752207E-002	1.9841860E-005	-3.6317226E-001	0
6.6876206E+003	2.436919959094666E+001	-3.6501878E-001	-5.458126436547328E-002	1.9923187E-005	-3.6517224E-001	0
6.7275488E+003	2.456919958589424E+001	-3.6702734E-001	-5.455587812764823E-002	2.0023499E-005	-3.6717227E-001	0
6.7574858E+003	2.476919958084181E+001	-3.6898941E-001	-5.460453897666040E-002	2.0148496E-005	-3.6917222E-001	0
6.7786724E+003	2.496919957578939E+001	-3.7094837E-001	-5.472286669600801E-002	2.0299358E-005	-3.7117222E-001	0
6.8121675E+003	2.516919957073696E+001	-3.7302363E-001	-5.475843408094350E-002	2.0426191E-005	-3.7317225E-001	0
6.8535244E+003	2.536919956568454E+001	-3.7503478E-001	-5.472144657374267E-002	2.0522446E-005	-3.7517223E-001	0
6.8881597E+003	2.556919956063211E+001	-3.7699091E-001	-5.473027928402896E-002	2.0632819E-005	-3.7717223E-001	0
6.9292534E+003	2.576919955557969E+001	-3.7899444E-001	-5.469484446737116E-002	2.0729041E-005	-3.7917224E-001	0
6.9707710E+003	2.596919955052726E+001	-3.8098347E-001	-5.465442195952863E-002	2.0822432E-005	-3.8117224E-001	0
7.0128530E+003	2.616919954547484E+001	-3.8300776E-001	-5.461511297559030E-002	2.0918013E-005	-3.8317221E-001	0
7.0498232E+003	2.636919954042241E+001	-3.8500977E-001	-5.461268255522966E-002	2.1026417E-005	-3.8517225E-001	0
7.0891953E+003	2.656919953536999E+001	-3.8701966E-001	-5.459289144156532E-002	2.1128522E-005	-3.8717222E-001	0
7.1194019E+003	2.676919953031756E+001	-3.8902146E-001	-5.464243669856894E-002	2.1257079E-005	-3.8917223E-001	0
7.1645596E+003	2.696919952526514E+001	-3.9100775E-001	-5.457526689676206E-002	2.1339352E-005	-3.9117229E-001	0
7.1979863E+003	2.716919952021271E+001	-3.9299875E-001	-5.459843063093428E-002	2.1457116E-005	-3.9317223E-001	0
7.2347969E+003	2.736919951516029E+001	-3.9501923E-001	-5.459990699526310E-002	2.1568014E-005	-3.9517224E-001	0
7.2638706E+003	2.756919951010786E+001	-3.9700833E-001	-5.465520254881179E-002	2.1698570E-005	-3.9717227E-001	0
7.3001958E+003	2.776919950505544E+001	-3.9898545E-001	-5.465407319453523E-002	2.1806180E-005	-3.9917222E-001	0
7.3299546E+003	2.796919950000301E+001	-4.0101740E-001	-5.470939577544476E-002	2.1939419E-005	-4.0117225E-001	0
7.3702983E+003	2.816919949495059E+001	-4.0303448E-001	-5.468360286431972E-002	2.2039378E-005	-4.0317225E-001	0
7.3977783E+003	2.836919948989816E+001	-4.0505496E-001	-5.475359661251211E-002	2.2178216E-005	-4.0517229E-001	0
7.4288394E+003	2.856919948484574E+001	-4.0701878E-001	-5.478901536121561E-002	2.2300159E-005	-4.0717223E-001	0
7.4598208E+003	2.876919947979331E+001	-4.0901124E-001	-5.482856305199957E-002	2.2425498E-005	-4.0917227E-001	0
7.4930010E+003	2.896919947474089E+001	-4.1096482E-001	-5.484649258224367E-002	2.2539978E-005	-4.1117224E-001	0
7.5196162E+003	2.916919946968846E+001	-4.1309249E-001	-5.493531635352089E-002	2.2693366E-005	-4.1317222E-001	0
7.5436211E+003	2.936919946463604E+001	-4.1504228E-001	-5.501897083838247E-002	2.2835200E-005	-4.1517225E-001	0
7.5766494E+003	2.956919945958362E+001	-4.1705319E-001	-5.504454113384627E-002	2.2956501E-005	-4.1717225E-001	0
7.6057930E+003	2.976919945453119E+001	-4.1901788E-001	-5.509193833915282E-002	2.3084507E-005	-4.1917226E-001	0
7.6313286E+003	2.996919944947877E+001	-4.2102137E-001	-5.517012865151671E-002	2.3227803E-005	-4.2117226E-001	0
7.6598550E+003	3.016919944442634E+001	-4.2306226E-001	-5.523110743846482E-002	2.3366198E-005	-4.2317227E-001	0
7.6892280E+003	3.036919943937392E+001	-4.2501202E-001	-5.527369116428760E-002	2.3491983E-005	-4.2517227E-001	0
7.7121113E+003	3.056919943432149E+001	-4.2706028E-001	-5.537527327820690E-002	2.3648579E-005	-4.2717224E-001	0
7.7442300E+003	3.076919942926907E+001	-4.2899019E-001	-5.539481506351351E-002	2.3763832E-005	-4.2917222E-001	0
7.7715107E+003	3.096919942421664E+001	-4.3102738E-001	-5.546249527444053E-002	2.3905854E-005	-4.3117225E-001	0
7.7937212E+003	3.116919941916422E+001	-4.3303213E-001	-5.556166335800983E-002	2.4059986E-005	-4.3317229E-001	0
7.8205659E+003	3.136919941411179E+001	-4.3503335E-001	-5.562683637623539E-002	2.4199529E-005	-4.3517226E-001	0
7.8509863E+003	3.156919940905937E+001	-4.3707857E-001	-5.567180181329734E-002	2.4332950E-005	-4.3717223E-001	0
7.8739150E+003	3.176919940400694E+001	-4.3904009E-001	-5.575880515621445E-002	2.4480350E-005	-4.3917227E-001	0
7.8991846E+003	3.196919939895452E+001	-4.4105440E-001	-5.583543478048747E-002	2.4626464E-005	-4.4117221E-001	0
7.9181401E+003	3.216919939390209E+001	-4.4305280E-001	-5.595414838257362E-002	2.4790643E-005	-4.4317225E-001	0
7.9345249E+003	3.236919938884967E+001	-4.4503233E-001	-5.608808801112430E-002	2.4961013E-005	-4.4517228E-001	0
7.9563442E+003	3.256919938379724E+001	-4.4705558E-001	-5.618856798291499E-002	2.5119412E-005	-4.4717228E-001	0
7.9720791E+003	3.276919937874482E+001	-4.4900724E-001	-5.632247554313596E-002	2.5289199E-005	-4.4917223E-001	0
8.0025190E+003	3.296919937369239E+001	-4.5109457E-001	-5.636907233634858E-002	2.5427782E-005	-4.5117226E-001	0
8.0281089E+003	3.316919936863997E+001	-4.5307642E-001	-5.643625801340479E-002	2.5569938E-005	-4.5317230E-001	0
8.0432012E+003	3.336919936358754E+001	-4.5506808E-001	-5.657797930403197E-002	2.5746833E-005	-4.5517224E-001	0
8.0669961E+003	3.356919935853512E+001	-4.5700669E-001	-5.665141007917895E-002	2.5890073E-005	-4.5717224E-001	0
8.0830874E+003	3.376919935348269E+001	-4.5900971E-001	-5.678643389814075E-002	2.6065525E-005	-4.5917228E-001	0
8.1027368E+003	3.396919934843027E+001	-4.6105480E-001	-5.690112111766865E-002	2.6234535E-005	-4.6117222E-001	0
8.1308965E+003	3.416919934337784E+001	-4.6305296E-001	-5.694980262630878E-002	2.6370775E-005	-4.6317226E-001	0
8.1476470E+003	3.436919933832542E+001	-4.6501845E-001	-5.707395647529978E-002	2.6540443E-005	-4.6517229E-001	0
8.1650093E+003	3.456919933327299E+001	-4.6705592E-001	-5.720212812537562E-002	2.6716592E-005	-4.6717227E-001	0
8.1850146E+003	3.476919932822057E+001	-4.6901190E-001	-5.730129063790435E-002	2.6874988E-005	-4.6917224E-001	0
8.2134570E+003	3.496919932316814E+001	-4.7104529E-001	-5.735043015134594E-002	2.7014650E-005	-4.7117224E-001	0
8.2302568E+003	3.516919931811572E+001	-4.7305351E-001	-5.747737009036030E-002	2.7189872E-005	-4.7317231E-001	0
8.2513730E+003	3.536919931306329E+001	-4.7502711E-001	-5.756946412483221E-002	2.7347056E-005	-4.7517225E-001	0
8.2671035E+003	3.556919930801087E+001	-4.7705409E-001	-5.770510898495435E-002	2.7528458E-005	-4.7717226E-001	0
8.2891104E+003	3.576919930295844E+001	-4.7899419E-001	-5.778596077490228E-002	2.7679140E-005	-4.7917226E-001	0
8.3030479E+003	3.596919929790602E+001	-4.8100191E-001	-5.793076677062031E-002	2.7864809E-005	-4.8117226E-001	0
8.3238613E+003	3.616919929285359E+001	-4.8303506E-001	-5.803016435815311E-002	2.8030603E-005	-4.8317221E-001	0
8.3460293E+003	3.636919928780117E+001	-4.8502758E-001	-5.811477057179631E-002	2.8187267E-005	-4.8517224E-001	0
8.3693809E+003	3.656919928274874E+001	-4.8703083E-001	-5.819197918305308E-002	2.8341288E-005	-4.8717228E-001	0
8.3916787E+003	3.676919927769632E+001	-4.8905474E-001	-5.827853814783224E-002	2.8501396E-005	-4.8917225E-001	0
8.4169775E+003	3.696919927264389E+001	-4.9101299E-001	-5.833602577813246E-002	2.8643746E-005	-4.9117222E-001	0
8.4351816E+003	3.716919926759147E+001	-4.9300250E-001	-5.844598387467270E-002	2.8814016E-005	-4.9317226E-001	0
8.4534775E+003	3.736919926253904E+001	-4.9496567E-001	-5.855172249655372E-002	2.8981092E-005	-4.9517226E-001	0
8.4780664E+003	3.756919925748662E+001	-4.9707124E-001	-5.863025819601897E-002	2.9143415E-005	-4.9717224E-001	0
8.4989678E+003	3.776919925243419E+001	-4.9904105E-001	-5.871784249046086E-002	2.9302613E-005	-4.9917227E-001	0
8.5203672E+003	3.796919924738177E+001	-5.0109118E-001	-5.881098290385836E-002	2.9469666E-005	-5.0117224E-001	0
8.5413789E+003	3.816919924232934E+001	-5.0305504E-001	-5.889623253574587E-002	2.9628047E-005	-5.0317222E-001	0
8.5600820E+003	3.836919923727692E+001	-5.0502056E-001	-5.899716273019873E-002	2.9794781E-005	-5.0517225E-001	0
8.5918271E+003	3.856919923222449E+001	-5.0706154E-001	-5.901673153653114E-002	2.9925115E-005	-5.0717229E-001	0
8.6224912E+003	3.876919922717207E+001	-5.0907552E-001	-5.904042456919945E-002	3.0056035E-005	-5.0917226E-001	0
8.6515400E+003	3.896919922211964E+001	-5.1103991E-001	-5.906924060672591E-002	3.0186740E-005	-5.1117224E-001	0
8.6612764E+003	3.916919921706722E+001	-5.1304847E-001	-5.923474335181367E-002	3.0390294E-005	-5.1317227E-001	0
8.6765020E+003	3.936919921201479E+001	-5.1502067E-001	-5.935810236133587E-002	3.0570649E-005	-5.1517224E-001	0
8.7223330E+003	3.956919920696237E+001	-5.1703727E-001	-5.927740757949138E-002	3.0648629E-005	-5.1717228E-001	0
8.7441260E+003	3.976919920190994E+001	-5.1906389E-001	-5.936144050443015E-002	3.0812382E-005	-5.1917225E-001	0
8.7711318E+003	3.996919919685752E+001	-5.2104145E-001	-5.940412965554609E-002	3.0952015E-005	-5.2117229E-001	0
8.7971426E+003	4.016919919180509E+001	-5.2303886E-001	-5.945554239117867E-002	3.1097559E-005	-5.2317232E-001	0
8.8260000E+003	4.036919918675267E+001	-5.2504128E-001	-5.948801878248400E-002	3.1233667E-005	-5.2517223E-001	0
8.8443613E+003	4.056919918170024E+001	-5.2700740E-001	-5.958682572249485E-002	3.1402698E-005	-5.2717227E-001	0
8.8550010E+003	4.076919917664782E+001	-5.2901340E-001	-5.974176576753842E-002	3.1604195E-005	-5.2917230E-001	0
8.8940879E+003	4.096919917159539E+001	-5.3104711E-001	-5.970787820237322E-002	3.1707696E-005	-5.3117222E-001	0
8.9391758E+003	4.116919916654297E+001	-5.3304106E-001	-5.962977736402730E-002	3.1785119E-005	-5.3317225E-001	0
8.9722861E+003	4.136919916149054E+001	-5.3499424E-001	-5.962741987720599E-002	3.1900327E-005	-5.3517228E-001	0
9.0029336E+003	4.156919915643812E+001	-5.3699183E-001	-5.964631547511465E-002	3.2029584E-005	-5.3717232E-001	0
9.0376172E+003	4.176919915138569E+001	-5.3908020E-001	-5.964848982981197E-002	3.2155320E-005	-5.3917223E-001	0
9.0880986E+003	4.196919914633327E+001	-5.4105616E-001	-5.953458115160748E-002	3.2211552E-005	-5.4117227E-001	0
9.1159385E+003	4.216919914128084E+001	-5.4307568E-001	-5.957430062441738E-002	3.2353353E-005	-5.4317230E-001	0
9.1498457E+003	4.236919913622842E+001	-5.4508770E-001	-5.957342945187072E-002	3.2472744E-005	-5.4517221E-001	0
9.1634688E+003	4.256919913117599E+001	-5.4707128E-001	-5.970132914150073E-002	3.2660882E-005	-5.4717225E-001	0
9.1975723E+003	4.276919912612357E+001	-5.4907048E-001	-5.969732369311043E-002	3.2778036E-005	-5.4917228E-001	0
9.2474170E+003	4.296919912107114E+001	-5.5107230E-001	-5.959202524257701E-002	3.2839514E-005	-5.5117226E-001	0
9.2662783E+003	4.316919911601872E+001	-5.5305564E-001	-5.968476581554072E-002	3.3008997E-005	-5.5317229E-001	0
9.3054346E+003	4.336919911096629E+001	-5.5509830E-001	-5.965312831251623E-002	3.3113349E-005	-5.5517226E-001	0
9.3493027E+003	4.356919910591387E+001	-5.5704969E-001	-5.958195286433376E-002	3.3190110E-005	-5.5717230E-001	0
9.3826963E+003	4.376919910086144E+001	-5.5908310E-001	-5.958661316553970E-002	3.3313867E-005	-5.5917221E-001	0
9.4319180E+003	4.396919909580902E+001	-5.6105328E-001	-5.948454006722870E-002	3.3373995E-005	-5.6117225E-001	0
9.5019717E+003	4.416919909075659E+001	-5.6306082E-001	-5.925726121430880E-002	3.3365443E-005	-5.6317228E-001	0
9.5381064E+003	4.436919908570417E+001	-5.6505984E-001	-5.924235088507857E-002	3.3475473E-005	-5.6517220E-001	0
9.5679580E+003	4.456919908065174E+001	-5.6708694E-001	-5.926938101653545E-002	3.3610893E-005	-5.6717229E-001	0
9.6446973E+003	4.476919907559932E+001	-5.6905770E-001	-5.900213432755919E-002	3.3575619E-005	-5.6917232E-001	0
9.6941777E+003	4.496919907054689E+001	-5.7103807E-001	-5.890526083749981E-002	3.3637145E-005	-5.7117230E-001	0
9.7521318E+003	4.516919906549447E+001	-5.7305497E-001	-5.876202324971269E-002	3.3673870E-005	-5.7317221E-001	0
9.8015723E+003	4.536919906044204E+001	-5.7507521E-001	-5.867173067291931E-002	3.3740656E-005	-5.7517225E-001	0
9.8610781E+003	4.556919905538962E+001	-5.7702607E-001	-5.851551515732357E-002	3.3764976E-005	-5.7717234E-001	0
9.9155029E+003	4.576919905033719E+001	-5.7901722E-001	-5.839514644033023E-002	3.3811797E-005	-5.7917219E-001	0
9.9603125E+003	4.596919904528477E+001	-5.8105475E-001	-5.833700084488624E-002	3.3896991E-005	-5.8117223E-001	0
1.0016253E+004	4.616919904023234E+001	-5.8303398E-001	-5.820878917380906E-002	3.3937700E-005	-5.8317232E-001	0
1.0062387E+004	4.636919903517992E+001	-5.8505577E-001	-5.814284310663487E-002	3.4016804E-005	-5.8517224E-001	0
1.0109345E+004	4.656919903012749E+001	-5.8705157E-001	-5.807018851229917E-002	3.4090197E-005	-5.8717227E-001	0
1.0159979E+004	4.676919902507507E+001	-5.8905149E-001	-5.797762279620478E-002	3.4151806E-005	-5.8917224E-001	0
1.0205012E+004	4.696919902002264E+001	-5.9102976E-001	-5.791563862066729E-002	3.4229866E-005	-5.9117228E-001	0
1.0257890E+004	4.716919901497022E+001	-5.9303981E-001	-5.781304324256975E-002	3.4285436E-005	-5.9317225E-001	0
1.0309169E+004	4.736919900991779E+001	-5.9505987E-001	-5.772142154914309E-002	3.4347700E-005	-5.9517223E-001	0
1.0358156E+004	4.756919900486537E+001	-5.9701943E-001	-5.763761396889439E-002	3.4410776E-005	-5.9717232E-001	0
1.0379263E+004	4.776919899981294E+001	-5.9900701E-001	-5.771190554321715E-002	3.4569835E-005	-5.9917223E-001	0
1.0379639E+004	4.796919899476052E+001	-6.0104805E-001	-5.790644990651972E-002	3.4804558E-005	-6.0117227E-001	0
1.0407617E+004	4.816919898970809E+001	-6.0304904E-001	-5.794304397375327E-002	3.4942495E-005	-6.0317230E-001	0
1.0444294E+004	4.836919898465567E+001	-6.0503596E-001	-5.792980799620440E-002	3.5049616E-005	-6.0517228E-001	0
1.0470306E+004	4.856919897960324E+001	-6.0701817E-001	-5.797520814708479E-002	3.5192006E-005	-6.0717225E-001	0
1.0482025E+004	4.876919897455082E+001	-6.0901940E-001	-5.810130679348480E-002	3.5384823E-005	-6.0917222E-001	0
1.0432627E+004	4.896919896949839E+001	-6.1099911E-001	-5.856617959163446E-002	3.5783884E-005	-6.1117232E-001	0
1.0421638E+004	4.916919896444597E+001	-6.1303765E-001	-5.882354236742171E-002	3.6061047E-005	-6.1317223E-001	0
8.6087441E+003	4.936919895939354E+001	-6.1505300E-001	-7.144514727881401E-002	4.3942553E-005	-6.1517221E-001	0
9.3395078E+003	4.956919895434112E+001	-6.1706382E-001	-6.607027512831398E-002	4.0769577E-005	-6.1717230E-001	0
9.5152412E+003	4.976919894928869E+001	-6.1903542E-001	-6.505724648700051E-002	4.0272742E-005	-6.1917222E-001	0
9.5687900E+003	4.996919894423627E+001	-6.2104565E-001	-6.490325760740412E-002	4.0307885E-005	-6.2117225E-001	0
9.5714639E+003	5.016919893918384E+001	-6.2304407E-001	-6.509391727958636E-002	4.0556381E-005	-6.2317222E-001	0
9.5524590E+003	5.036919893413142E+001	-6.2504947E-001	-6.543336122068688E-002	4.0899089E-005	-6.2517226E-001	0
9.5246191E+003	5.056919892907899E+001	-6.2706512E-001	-6.583624309015437E-002	4.1283613E-005	-6.2717229E-001	0
9.4935947E+003	5.076919892402657E+001	-6.2907958E-001	-6.626357987592768E-002	4.1685063E-005	-6.2917227E-001	0
9.4675205E+003	5.096919891897414E+001	-6.3105273E-001	-6.665449049915129E-002	4.2062500E-005	-6.3117230E-001	0
9.4138857E+003	5.116919891392172E+001	-6.3304007E-001	-6.724534982597885E-002	4.2569001E-005	-6.3317227E-001	0
9.3748203E+003	5.136919890886929E+001	-6.3506991E-001	-6.774208503205070E-002	4.3020958E-005	-6.3517225E-001	0
9.3404141E+003	5.156919890381687E+001	-6.3704073E-001	-6.820262171847574E-002	4.3447850E-005	-6.3717228E-001	0
9.2932666E+003	5.176919889876444E+001	-6.3910365E-001	-6.877061719594357E-002	4.3951553E-005	-6.3917232E-001	0
9.2533467E+003	5.196919889371202E+001	-6.4111137E-001	-6.928426942359400E-002	4.4418932E-005	-6.4117229E-001	0
9.2106787E+003	5.216919888865959E+001	-6.4306730E-001	-6.981757879489492E-002	4.4897402E-005	-6.4317226E-001	0
9.1715361E+003	5.236919888360717E+001	-6.4507145E-001	-7.033407024652727E-002	4.5370500E-005	-6.4517230E-001	0
9.1181201E+003	5.256919887855474E+001	-6.4705867E-001	-7.096404013595636E-002	4.5917895E-005	-6.4717227E-001	0
9.0753477E+003	5.276919887350232E+001	-6.4904708E-001	-7.151760242492922E-002	4.6418292E-005	-6.4917225E-001	0
9.0331982E+003	5.296919886844989E+001	-6.5110368E-001	-7.207897796439178E-002	4.6930887E-005	-6.5117228E-001	0
8.9843730E+003	5.316919886339747E+001	-6.5308738E-001	-7.269147770846769E-002	4.7473888E-005	-6.5317231E-001	0
8.9441885E+003	5.336919885834504E+001	-6.5508175E-001	-7.324105316441520E-002	4.7978876E-005	-6.5517223E-001	0
8.8912109E+003	5.356919885329262E+001	-6.5710330E-001	-7.390481256879877E-002	4.8563095E-005	-6.5717226E-001	0
8.8513525E+003	5.376919884824019E+001	-6.5906006E-001	-7.445868024446262E-002	4.9072743E-005	-6.5917230E-001	0
8.8122402E+003	5.396919884318777E+001	-6.6107672E-001	-7.501801357830540E-002	4.9592662E-005	-6.6117227E-001	0
8.7645215E+003	5.416919883813534E+001	-6.6305351E-001	-7.565198905550641E-002	5.0161318E-005	-6.6317225E-001	0
8.7321367E+003	5.436919883308292E+001	-6.6507733E-001	-7.616432600067535E-002	5.0655166E-005	-6.6517228E-001	0
8.6912070E+003	5.456919882803049E+001	-6.6707999E-001	-7.675343690241543E-002	5.1200681E-005	-6.6717231E-001	0
8.6619854E+003	5.476919882297807E+001	-6.6906822E-001	-7.724190292438538E-002	5.1680101E-005	-6.6917223E-001	0
8.6272090E+003	5.496919881792564E+001	-6.7112285E-001	-7.779142518407456E-002	5.2207604E-005	-6.7117226E-001	0
8.5919238E+003	5.516919881287322E+001	-6.7302275E-001	-7.833202082617330E-002	5.2719231E-005	-6.7317230E-001	0
8.5530527E+003	5.536919880782079E+001	-6.7505479E-001	-7.892559255766862E-002	5.3279098E-005	-6.7517221E-001	0
8.5307305E+003	5.556919880276837E+001	-6.7706734E-001	-7.936804109493767E-002	5.3737509E-005	-6.7717230E-001	0
8.5092578E+003	5.576919879771594E+001	-6.7907190E-001	-7.980389401629218E-002	5.4192584E-005	-6.7917228E-001	0
8.4912266E+003	5.596919879266352E+001	-6.8103820E-001	-8.020492658323143E-002	5.4622618E-005	-6.8117231E-001	0
8.4786406E+003	5.616919878761109E+001	-6.8304795E-001	-8.056102470703874E-002	5.5027042E-005	-6.8317223E-001	0
8.4738486E+003	5.636919878255867E+001	-6.8509996E-001	-8.084873600161746E-002	5.5389464E-005	-6.8517226E-001	0
8.4793955E+003	5.656919877750624E+001	-6.8706179E-001	-8.102721205855490E-002	5.5670702E-005	-6.8717229E-001	0
8.4830615E+003	5.676919877245382E+001	-6.8908811E-001	-8.123105858999569E-002	5.5975357E-005	-6.8917221E-001	0
8.4788213E+003	5.696919876740139E+001	-6.9107741E-001	-8.150630643751766E-002	5.6327168E-005	-6.9117224E-001	0
8.4813857E+003	5.716919876234897E+001	-6.9303650E-001	-8.171264634545805E-002	5.6629848E-005	-6.9317234E-001	0
8.4925713E+003	5.736919875729654E+001	-6.9510859E-001	-8.184901068817063E-002	5.6893950E-005	-6.9517225E-001	0
8.5030586E+003	5.756919875224412E+001	-6.9707495E-001	-8.197931449199336E-002	5.7145728E-005	-6.9717222E-001	0
8.5289375E+003	5.776919874719169E+001	-6.9908291E-001	-8.196600386608899E-002	5.7301033E-005	-6.9917232E-001	0
8.5383096E+003	5.796919874213927E+001	-7.0106709E-001	-8.210841617008441E-002	5.7563509E-005	-7.0117229E-001	0
8.5522930E+003	5.816919873708684E+001	-7.0304579E-001	-8.220553433241695E-002	5.7794256E-005	-7.0317227E-001	0
8.5706992E+003	5.836919873203442E+001	-7.0507896E-001	-8.226621037670090E-002	5.8004174E-005	-7.0517224E-001	0
8.5951436E+003	5.856919872698199E+001	-7.0705295E-001	-8.226191208068509E-002	5.8163529E-005	-7.0717233E-001	0
8.6116875E+003	5.876919872192957E+001	-7.0907986E-001	-8.233924880792742E-002	5.8385103E-005	-7.0917225E-001	0
8.6322129E+003	5.896919871687714E+001	-7.1105301E-001	-8.237204144607468E-002	5.8570888E-005	-7.1117228E-001	0
8.6539463E+003	5.916919871182472E+001	-7.1304303E-001	-8.239512730710830E-002	5.8751273E-005	-7.1317232E-001	0
8.6663838E+003	5.936919870677229E+001	-7.1502912E-001	-8.250605307736952E-002	5.8994232E-005	-7.1517229E-001	0
8.6855313E+003	5.956919870171987E+001	-7.1709651E-001	-8.256219114734420E-002	5.9205060E-005	-7.1717227E-001	0
8.7046680E+003	5.976919869666744E+001	-7.1905297E-001	-8.260544882126353E-002	5.9397695E-005	-7.1917224E-001	0
8.7283896E+003	5.996919869161502E+001	-7.2106087E-001	-8.261098486187635E-002	5.9567548E-005	-7.2117239E-001	0
8.7442168E+003	6.016919868656260E+001	-7.2302020E-001	-8.268553171203386E-002	5.9783310E-005	-7.2317231E-001	0
8.7682490E+003	6.036919868151017E+001	-7.2504854E-001	-8.269023260127006E-002	5.9954433E-005	-7.2517228E-001	0
8.7821328E+003	6.056919867645775E+001	-7.2707349E-001	-8.279008593287762E-002	6.0194478E-005	-7.2717232E-001	0
8.8050684E+003	6.076919867140532E+001	-7.2908252E-001	-8.280259939681434E-002	6.0369930E-005	-7.2917223E-001	0
8.8263945E+003	6.096919866635290E+001	-7.3109680E-001	-8.283073713426470E-002	6.0557286E-005	-7.3117232E-001	0
8.8425244E+003	6.116919866130047E+001	-7.3306197E-001	-8.290188742670589E-002	6.0772221E-005	-7.3317230E-001	0
8.8645381E+003	6.136919865624805E+001	-7.3506242E-001	-8.292168177571391E-002	6.0952611E-005	-7.3517239E-001	0
8.8951465E+003	6.156919865119562E+001	-7.3707229E-001	-8.286229671874479E-002	6.1075501E-005	-7.3717225E-001	0
8.9193730E+003	6.176919864614320E+001	-7.3905545E-001	-8.285957071222705E-002	6.1237821E-005	-7.3917222E-001	0
8.9376211E+003	6.196919864109077E+001	-7.4108142E-001	-8.291707951902826E-002	6.1448307E-005	-7.4117231E-001	0
8.9519980E+003	6.216919863603835E+001	-7.4309570E-001	-8.300891748836481E-002	6.1683568E-005	-7.4317229E-001	0
8.9752686E+003	6.236919863098592E+001	-7.4507868E-001	-8.301463922751839E-002	6.1852435E-005	-7.4517226E-001	0
8.9971230E+003	6.256919862593350E+001	-7.4704862E-001	-8.303194446964376E-002	6.2028899E-005	-7.4717230E-001	0
9.0237422E+003	6.276919862088107E+001	-7.4905550E-001	-8.300941266634776E-002	6.2178660E-005	-7.4917233E-001	0
9.0387705E+003	6.296919861582865E+001	-7.5108343E-001	-8.309575391441282E-002	6.2411847E-005	-7.5117224E-001	0
9.0623760E+003	6.316919861077622E+001	-7.5306010E-001	-8.309742697681421E-002	6.2577354E-005	-7.5317222E-001	0
9.0820068E+003	6.336919860572380E+001	-7.5506574E-001	-8.313864619521805E-002	6.2775143E-005	-7.5517237E-001	0
9.1091992E+003	6.356919860067137E+001	-7.5705671E-001	-8.310902795792419E-002	6.2918247E-005	-7.5717229E-001	0
9.1235420E+003	6.376919859561895E+001	-7.5902373E-001	-8.319397929943939E-002	6.3146203E-005	-7.5917226E-001	0
9.1539326E+003	6.396919859056652E+001	-7.6106203E-001	-8.314044146519783E-002	6.3275031E-005	-7.6117229E-001	0
9.1729844E+003	6.416919858551410E+001	-7.6304299E-001	-8.318371871220220E-002	6.3472755E-005	-7.6317233E-001	0
9.1967500E+003	6.436919858046167E+001	-7.6505589E-001	-8.318763478952640E-002	6.3643187E-005	-7.6517230E-001	0
9.2194648E+003	6.456919857540925E+001	-7.6706803E-001	-8.320092899955034E-002	6.3820771E-005	-7.6717228E-001	0
9.2402930E+003	6.476919857035682E+001	-7.6907241E-001	-8.323030432109668E-002	6.4010128E-005	-7.6917237E-001	0
9.2674238E+003	6.496919856530440E+001	-7.7107406E-001	-8.320262828575675E-002	6.4155385E-005	-7.7117234E-001	0
9.2813008E+003	6.516919856025197E+001	-7.7306712E-001	-8.329296724019730E-002	6.4391053E-005	-7.7317226E-001	0
9.3095693E+003	6.536919855519955E+001	-7.7507395E-001	-8.325561708158280E-002	6.4529260E-005	-7.7517229E-001	0
9.3245586E+003	6.556919855014712E+001	-7.7703130E-001	-8.333169562739973E-002	6.4751337E-005	-7.7717227E-001	0
9.3537256E+003	6.576919854509470E+001	-7.7904445E-001	-8.328707649292277E-002	6.4884334E-005	-7.7917224E-001	0
9.3748193E+003	6.596919854004227E+001	-7.8108639E-001	-8.331748901955083E-002	6.5078159E-005	-7.8117228E-001	0
9.3912939E+003	6.616919853498985E+001	-7.8306943E-001	-8.338248978269691E-002	6.5294276E-005	-7.8317243E-001	0
9.4241826E+003	6.636919852993742E+001	-7.8504920E-001	-8.330156743767231E-002	6.5395827E-005	-7.8517228E-001	0
9.4475576E+003	6.656919852488500E+001	-7.8707540E-001	-8.330993445552098E-002	6.5571199E-005	-7.8717226E-001	0
9.4780576E+003	6.676919851983257E+001	-7.8908128E-001	-8.325348247545872E-002	6.5693763E-005	-7.8917235E-001	0
9.5020264E+003	6.696919851478015E+001	-7.9108095E-001	-8.325392206446569E-002	6.5860593E-005	-7.9117233E-001	0
9.5285547E+003	6.716919850972772E+001	-7.9307383E-001	-8.323128718371731E-002	6.6008557E-005	-7.9317230E-001	0
9.5508105E+003	6.736919850467530E+001	-7.9507327E-001	-8.324667891749343E-002	6.6187211E-005	-7.9517233E-001	0
9.5797900E+003	6.756919849962287E+001	-7.9709268E-001	-8.320565414699432E-002	6.6322616E-005	-7.9717237E-001	0
9.6113213E+003	6.776919849457045E+001	-7.9911220E-001	-8.314280793368578E-002	6.6440429E-005	-7.9917228E-001	0
9.6434629E+003	6.796919848951802E+001	-8.0102640E-001	-8.306419012630922E-002	6.6536610E-005	-8.0117226E-001	0
9.6721553E+003	6.816919848446560E+001	-8.0307102E-001	-8.302916679900940E-002	6.6678316E-005	-8.0317235E-001	0
9.6884443E+003	6.836919847941317E+001	-8.0506617E-001	-8.309550050439118E-002	6.6897373E-005	-8.0517238E-001	0
9.7121377E+003	6.856919847436075E+001	-8.0706948E-001	-8.309905948180693E-002	6.7066714E-005	-8.0717230E-001	0
9.7279609E+003	6.876919846930832E+001	-8.0902606E-001	-8.316502058794056E-002	6.7282672E-005	-8.0917233E-001	0
9.7500000E+003	6.896919846425590E+001	-8.1104881E-001	-8.318449503133935E-002	6.7466688E-005	-8.1117237E-001	0
9.7790723E+003	6.916919845920347E+001	-8.1305295E-001	-8.314213821508187E-002	6.7598958E-005	-8.1317222E-001	0
9.7817979E+003	6.936919845415105E+001	-8.1501269E-001	-8.331931585260155E-002	6.7906301E-005	-8.1517231E-001	0
9.7937930E+003	6.956919844909862E+001	-8.1710988E-001	-8.343140074725577E-002	6.8172623E-005	-8.1717241E-001	0
9.8104541E+003	6.976919844404620E+001	-8.1904382E-001	-8.348683948214691E-002	6.8379377E-005	-8.1917226E-001	0
9.8047734E+003	6.996919843899377E+001	-8.2100505E-001	-8.373524187778936E-002	6.8747053E-005	-8.2117236E-001	0
9.8036992E+003	7.016919843394135E+001	-8.2310808E-001	-8.395893215053984E-002	6.9107278E-005	-8.2317233E-001	0
9.8002764E+003	7.036919842888892E+001	-8.2503283E-001	-8.418464852030283E-002	6.9455098E-005	-8.2517231E-001	0
9.7972051E+003	7.056919842383650E+001	-8.2705265E-001	-8.441720720350965E-002	6.9817477E-005	-8.2717228E-001	0
9.7933486E+003	7.076919841878407E+001	-8.2903260E-001	-8.465261749401606E-002	7.0179776E-005	-8.2917231E-001	0
9.7808818E+003	7.096919841373165E+001	-8.3106554E-001	-8.496836700915966E-002	7.0614282E-005	-8.3117241E-001	0
9.7602959E+003	7.116919840867922E+001	-8.3304143E-001	-8.535001958538779E-002	7.1100105E-005	-8.3317232E-001	0
9.7492979E+003	7.136919840362680E+001	-8.3503115E-001	-8.565039209263373E-002	7.1520742E-005	-8.3517224E-001	0
9.7304688E+003	7.156919839857437E+001	-8.3707017E-001	-8.602567536010919E-002	7.2009527E-005	-8.3717239E-001	0
9.7001494E+003	7.176919839352195E+001	-8.3906394E-001	-8.650010686036158E-002	7.2579118E-005	-8.3917236E-001	0
9.6635908E+003	7.196919838846952E+001	-8.4109819E-001	-8.703785061375902E-002	7.3207375E-005	-8.4117228E-001	0
9.6279326E+003	7.216919838341710E+001	-8.4306151E-001	-8.756412220421916E-002	7.3821939E-005	-8.4317237E-001	0
9.5996279E+003	7.236919837836467E+001	-8.4507823E-001	-8.803239717652978E-002	7.4394266E-005	-8.4517235E-001	0
9.5601855E+003	7.256919837331225E+001	-8.4707379E-001	-8.860432150849729E-002	7.5054399E-005	-8.4717232E-001	0
9.5056221E+003	7.276919836825982E+001	-8.4905058E-001	-8.932088991170933E-002	7.5837954E-005	-8.4917229E-001	0
9.4429658E+003	7.296919836320740E+001	-8.5107750E-001	-9.012819896346541E-002	7.6706085E-005	-8.5117239E-001	0
9.3628672E+003	7.316919835815497E+001	-8.5308641E-001	-9.111380327362006E-002	7.7727949E-005	-8.5317224E-001	0
9.1629014E+003	7.336919835310255E+001	-8.5509354E-001	-9.332126872761926E-002	7.9798410E-005	-8.5517234E-001	0
8.9470996E+003	7.356919834805012E+001	-8.5705328E-001	-9.579118260007147E-002	8.2098144E-005	-8.5717231E-001	0
9.0679180E+003	7.376919834299770E+001	-8.5909033E-001	-9.473953643167521E-002	8.1389822E-005	-8.5917228E-001	0
9.0142295E+003	7.396919833794527E+001	-8.6104667E-001	-9.552082677832185E-002	8.2247891E-005	-8.6117238E-001	0
8.9020547E+003	7.416919833289285E+001	-8.6304742E-001	-9.694923767175867E-002	8.3671788E-005	-8.6317229E-001	0
8.7827891E+003	7.436919832784042E+001	-8.6504203E-001	-9.849286423637027E-002	8.5200467E-005	-8.6517245E-001	0
8.6336709E+003	7.456919832278800E+001	-8.6703259E-001	-1.004245621785773E-001	8.7071370E-005	-8.6717230E-001	0
8.4835078E+003	7.476919831773557E+001	-8.6904430E-001	-1.024392673095305E-001	8.9024259E-005	-8.6917222E-001	0
8.3073398E+003	7.496919831268315E+001	-8.7102520E-001	-1.048500795305922E-001	9.1327063E-005	-8.7117237E-001	0
8.1178379E+003	7.516919830763072E+001	-8.7305105E-001	-1.075472378186763E-001	9.3894232E-005	-8.7317234E-001	0
7.9073564E+003	7.536919830257830E+001	-8.7500817E-001	-1.106574862230310E-001	9.6826203E-005	-8.7517232E-001	0
7.6863271E+003	7.556919829752587E+001	-8.7698388E-001	-1.140966141826625E-001	1.0006089E-004	-8.7717235E-001	0
7.4547104E+003	7.576919829247345E+001	-8.7905461E-001	-1.179193512847023E-001	1.0365755E-004	-8.7917233E-001	0
7.2141479E+003	7.596919828742102E+001	-8.8098961E-001	-1.221197061441304E-001	1.0758619E-004	-8.8117230E-001	0
6.9688525E+003	7.616919828236860E+001	-8.8307136E-001	-1.267168932454970E-001	1.1190006E-004	-8.8317227E-001	0
6.7246499E+003	7.636919827731617E+001	-8.8506579E-001	-1.316151504284473E-001	1.1648807E-004	-8.8517237E-001	0
6.3951592E+003	7.656919827226375E+001	-8.8708109E-001	-1.387113363032240E-001	1.2304820E-004	-8.8717234E-001	0
6.1826616E+003	7.676919826721132E+001	-8.8902605E-001	-1.437934210836513E-001	1.2783610E-004	-8.8917232E-001	0
5.9526255E+003	7.696919826215890E+001	-8.9103878E-001	-1.496883620087758E-001	1.3337814E-004	-8.9117229E-001	0
5.7234248E+003	7.716919825710647E+001	-8.9306146E-001	-1.560361950601241E-001	1.3934991E-004	-8.9317226E-001	0
5.4939058E+003	7.736919825205405E+001	-8.9503932E-001	-1.629149337677189E-001	1.4581527E-004	-8.9517236E-001	0
5.2647886E+003	7.756919824700162E+001	-8.9701593E-001	-1.703802380244124E-001	1.5283379E-004	-8.9717233E-001	0
5.0392690E+003	7.776919824194920E+001	-8.9909494E-001	-1.784177324692395E-001	1.6041448E-004	-8.9917243E-001	0
4.8241299E+003	7.796919823689677E+001	-9.0104860E-001	-1.867795049269887E-001	1.6829741E-004	-9.0117240E-001	0
4.6151880E+003	7.816919823184435E+001	-9.0303075E-001	-1.956649899795280E-001	1.7669151E-004	-9.0317231E-001	0
4.4083716E+003	7.836919822679192E+001	-9.0502393E-001	-2.052966537241252E-001	1.8579839E-004	-9.0517235E-001	0
4.2029712E+003	7.856919822173950E+001	-9.0706003E-001	-2.158140117437692E-001	1.9575626E-004	-9.0717244E-001	0
4.0099670E+003	7.876919821668707E+001	-9.0904623E-001	-2.266966910745585E-001	2.0607778E-004	-9.0917230E-001	0
3.8211545E+003	7.896919821163465E+001	-9.1103077E-001	-2.384176786182257E-001	2.1720584E-004	-9.1117233E-001	0
3.6339050E+003	7.916919820658222E+001	-9.1303802E-001	-2.512553390390044E-001	2.2940568E-004	-9.1317236E-001	0
3.4556187E+003	7.936919820152980E+001	-9.1505176E-001	-2.648011449568155E-001	2.4230675E-004	-9.1517234E-001	0
3.2844944E+003	7.956919819647737E+001	-9.1704351E-001	-2.792038569319781E-001	2.5604208E-004	-9.1717231E-001	0
3.1238154E+003	7.976919819142495E+001	-9.1903889E-001	-2.942039622036132E-001	2.7038489E-004	-9.1917235E-001	0
2.9270752E+003	7.996919818637252E+001	-9.2106426E-001	-3.146705274256845E-001	2.8983178E-004	-9.2117232E-001	0
2.7884233E+003	8.016919818132010E+001	-9.2303711E-001	-3.310247313784536E-001	3.0554811E-004	-9.2317230E-001	0
2.6561079E+003	8.036919817626767E+001	-9.2504233E-001	-3.482698698078295E-001	3.2216439E-004	-9.2517239E-001	0
2.5262859E+003	8.056919817121525E+001	-9.2704922E-001	-3.669613288533863E-001	3.4019121E-004	-9.2717236E-001	0
2.4007913E+003	8.076919816616282E+001	-9.2903632E-001	-3.869708669973804E-001	3.5950998E-004	-9.2917234E-001	0
2.2800852E+003	8.096919816111040E+001	-9.3108892E-001	-4.083570547722905E-001	3.8021672E-004	-9.3117231E-001	0
2.1619849E+003	8.116919815605797E+001	-9.3304801E-001	-4.315700735389978E-001	4.0267559E-004	-9.3317240E-001	0
2.0456366E+003	8.136919815100555E+001	-9.3509042E-001	-4.571146379117255E-001	4.2744353E-004	-9.3517244E-001	0
1.9076781E+003	8.156919814595312E+001	-9.3706983E-001	-4.912096108489443E-001	4.6029771E-004	-9.3717235E-001	0
1.8077676E+003	8.176919814090070E+001	-9.3907797E-001	-5.194683227088337E-001	4.8782126E-004	-9.3917233E-001	0
1.7091154E+003	8.196919813584827E+001	-9.4108099E-001	-5.506246092258316E-001	5.1818235E-004	-9.4117242E-001	0
1.6128083E+003	8.216919813079585E+001	-9.4305634E-001	-5.847293214276954E-001	5.5143272E-004	-9.4317228E-001	0
1.5218545E+003	8.236919812574342E+001	-9.4505036E-001	-6.209859997076315E-001	5.8686303E-004	-9.4517231E-001	0
1.4221670E+003	8.256919812069100E+001	-9.4705582E-001	-6.659244888434654E-001	6.3066767E-004	-9.4717234E-001	0
1.3415817E+003	8.276919811563857E+001	-9.4904333E-001	-7.074063162946551E-001	6.7135924E-004	-9.4917232E-001	0
1.2729111E+003	8.296919811058615E+001	-9.5108813E-001	-7.471756002107579E-001	7.1062986E-004	-9.5117229E-001	0
1.2067268E+003	8.316919810553372E+001	-9.5304084E-001	-7.897734828039891E-001	7.5268641E-004	-9.5317233E-001	0
1.1347716E+003	8.336919810048130E+001	-9.5509422E-001	-8.416621113310021E-001	8.0386660E-004	-9.5517230E-001	0
1.0793248E+003	8.356919809542887E+001	-9.5706737E-001	-8.867277881709263E-001	8.4865821E-004	-9.5717227E-001	0
1.0264158E+003	8.376919809037645E+001	-9.5908618E-001	-9.344032011132093E-001	8.9617318E-004	-9.5917237E-001	0
9.7160913E+002	8.396919808532402E+001	-9.6109229E-001	-9.891758720029369E-001	9.5068931E-004	-9.6117240E-001	0
9.2355609E+002	8.417919808001898E+001	-9.6314138E-001	-1.042861794982475E+000	1.0044234E-003	-9.6327233E-001	0
8.8014911E+002	8.438919807471393E+001	-9.6522790E-001	-1.096664058901959E+000	1.0585308E-003	-9.6537232E-001	0
8.3767773E+002	8.458919806966151E+001	-9.6729636E-001	-1.154735662617510E+000	1.1169716E-003	-9.6737236E-001	0
8.0072388E+002	8.478919806460908E+001	-9.6925306E-001	-1.210471045943883E+000	1.1732528E-003	-9.6937233E-001	0
7.6858545E+002	8.498919805955666E+001	-9.7123772E-001	-1.263669119442468E+000	1.2273231E-003	-9.7137231E-001	0
7.3434521E+002	8.518919805450423E+001	-9.7323442E-001	-1.325309156543675E+000	1.2898365E-003	-9.7337234E-001	0
7.0562634E+002	8.538919804945181E+001	-9.7523308E-001	-1.382081413983691E+000	1.3478515E-003	-9.7537231E-001	0
6.7910144E+002	8.558919804439938E+001	-9.7722960E-001	-1.439003911536698E+000	1.4062373E-003	-9.7737229E-001	0
6.5007715E+002	8.578919803934696E+001	-9.7921765E-001	-1.506309841808072E+000	1.4750052E-003	-9.7937238E-001	0
6.2716852E+002	8.598919803429453E+001	-9.8124677E-001	-1.564566353821700E+000	1.5352257E-003	-9.8137236E-001	0
6.0487933E+002	8.618919802924211E+001	-9.8318315E-001	-1.625420360202963E+000	1.5980859E-003	-9.8337233E-001	0
5.8156537E+002	8.638919802418968E+001	-9.8519248E-001	-1.694035588275828E+000	1.6689511E-003	-9.8537230E-001	0
5.6239282E+002	8.658919801913726E+001	-9.8721325E-001	-1.755380208580817E+000	1.7329346E-003	-9.8737240E-001	0
5.4235199E+002	8.678919801408483E+001	-9.8923129E-001	-1.823965357984001E+000	1.8043236E-003	-9.8937243E-001	0
5.2432965E+002	8.698919800903241E+001	-9.9120861E-001	-1.890430319860005E+000	1.8738108E-003	-9.9137235E-001	0
5.0798062E+002	8.718919800397998E+001	-9.9322706E-001	-1.955245958704525E+000	1.9420033E-003	-9.9337232E-001	0
4.9023404E+002	8.738919799892756E+001	-9.9521381E-001	-2.030078961668103E+000	2.0203625E-003	-9.9537241E-001	0
4.7582733E+002	8.758919799387513E+001	-9.9720359E-001	-2.095725790409533E+000	2.0898653E-003	-9.9737227E-001	0
4.5986816E+002	8.778919798882271E+001	-9.9921137E-001	-2.172821336626455E+000	2.1711078E-003	-9.9937230E-001	0
4.4654337E+002	8.798919798377028E+001	-1.0012193E+000	-2.242154587541715E+000	2.2448883E-003	-1.0013723E+000	0
4.3297598E+002	8.818919797871786E+001	-1.0032067E+000	-2.317003217025274E+000	2.3244333E-003	-1.0033723E+000	0
4.2012424E+002	8.838919797366543E+001	-1.0052328E+000	-2.392703692202801E+000	2.4052244E-003	-1.0053724E+000	0
4.0819379E+002	8.858919796861301E+001	-1.0072067E+000	-2.467471781467637E+000	2.4852541E-003	-1.0073724E+000	0
3.9602042E+002	8.878919796356058E+001	-1.0092703E+000	-2.548531008499950E+000	2.5721567E-003	-1.0093724E+000	0
3.8525763E+002	8.898919795850816E+001	-1.0112480E+000	-2.624861723204869E+000	2.6543862E-003	-1.0113722E+000	0
3.7389374E+002	8.918919795345573E+001	-1.0132203E+000	-2.709915110093785E+000	2.7457410E-003	-1.0133724E+000	0
3.6383167E+002	8.938919794840331E+001	-1.0152266E+000	-2.790374578177385E+000	2.8328625E-003	-1.0153724E+000	0
3.5358688E+002	8.958919794335088E+001	-1.0172949E+000	-2.877071781155742E+000	2.9268304E-003	-1.0173724E+000	0
3.4447775E+002	8.978919793829846E+001	-1.0192449E+000	-2.958812103114695E+000	3.0157543E-003	-1.0193723E+000	0
3.3478259E+002	8.998919793324603E+001	-1.0212114E+000	-3.050371772510388E+000	3.1150745E-003	-1.0213723E+000	0
3.2618933E+002	9.018919792819361E+001	-1.0232791E+000	-3.137070855434114E+000	3.2100989E-003	-1.0233724E+000	0
3.1743365E+002	9.038919792314118E+001	-1.0253009E+000	-3.229969013068412E+000	3.3116899E-003	-1.0253724E+000	0
3.0929892E+002	9.058919791808876E+001	-1.0272489E+000	-3.321217101210898E+000	3.4117165E-003	-1.0273724E+000	0
3.0139481E+002	9.078919791303633E+001	-1.0292941E+000	-3.415102574492792E+000	3.5151450E-003	-1.0293723E+000	0
2.9340720E+002	9.098919790798391E+001	-1.0312791E+000	-3.514839007335453E+000	3.6247799E-003	-1.0313723E+000	0
2.8646362E+002	9.118919790293148E+001	-1.0332735E+000	-3.606997088645329E+000	3.7270144E-003	-1.0333723E+000	0
2.7874832E+002	9.138919789787906E+001	-1.0352386E+000	-3.713883014932264E+000	3.8447552E-003	-1.0353724E+000	0
2.7210205E+002	9.158919789282663E+001	-1.0372853E+000	-3.812118676176411E+000	3.9542546E-003	-1.0373724E+000	0
2.6541766E+002	9.178919788777421E+001	-1.0392454E+000	-3.915509626269341E+000	4.0691751E-003	-1.0393722E+000	0
2.5872714E+002	9.198919788272178E+001	-1.0412399E+000	-4.024470680864212E+000	4.1904394E-003	-1.0413723E+000	0
2.5266768E+002	9.218919787766936E+001	-1.0432584E+000	-4.128974581116196E+000	4.3075876E-003	-1.0433724E+000	0
2.4628992E+002	9.238919787261693E+001	-1.0452499E+000	-4.243981771356921E+000	4.4360217E-003	-1.0453725E+000	0
2.4006512E+002	9.258919786756451E+001	-1.0472820E+000	-4.362491261796876E+000	4.5687584E-003	-1.0473722E+000	0
2.3449216E+002	9.278919786251208E+001	-1.0492593E+000	-4.474603064307523E+000	4.6950188E-003	-1.0493723E+000	0
2.2891611E+002	9.298919785745966E+001	-1.0512687E+000	-4.592375411603470E+000	4.8278207E-003	-1.0513723E+000	0
2.2330235E+002	9.318919785240723E+001	-1.0532695E+000	-4.716786478179394E+000	4.9680471E-003	-1.0533723E+000	0
2.1818202E+002	9.338919784735481E+001	-1.0552436E+000	-4.836528731581847E+000	5.1037162E-003	-1.0553725E+000	0
2.1313060E+002	9.358919784230238E+001	-1.0572438E+000	-4.960544529820773E+000	5.2445051E-003	-1.0573723E+000	0
2.0802812E+002	9.378919783724996E+001	-1.0592779E+000	-5.091993889976273E+000	5.3938366E-003	-1.0593723E+000	0
2.0293555E+002	9.398919783219753E+001	-1.0612842E+000	-5.229661320747979E+000	5.5501568E-003	-1.0613723E+000	0
1.9824420E+002	9.418919782714511E+001	-1.0632784E+000	-5.363478245682465E+000	5.7028709E-003	-1.0633724E+000	0
1.9357233E+002	9.438919782209268E+001	-1.0652692E+000	-5.503210548911230E+000	5.8624009E-003	-1.0653725E+000	0
1.8899057E+002	9.458919781704026E+001	-1.0672420E+000	-5.647064879401455E+000	6.0267849E-003	-1.0673723E+000	0
1.8467975E+002	9.478919781198783E+001	-1.0692902E+000	-5.789969700939807E+000	6.1911577E-003	-1.0693723E+000	0
1.8039571E+002	9.498919780693541E+001	-1.0712457E+000	-5.938310233677598E+000	6.3613891E-003	-1.0713723E+000	0
1.7623531E+002	9.518919780188298E+001	-1.0732759E+000	-6.090016527443552E+000	6.5362682E-003	-1.0733724E+000	0
1.7213208E+002	9.538919779683056E+001	-1.0752653E+000	-6.246745658907500E+000	6.7169089E-003	-1.0753723E+000	0
1.6811003E+002	9.558919779177813E+001	-1.0772684E+000	-6.408114683263193E+000	6.9032591E-003	-1.0773723E+000	0
1.6418811E+002	9.578919778672571E+001	-1.0792780E+000	-6.573423428870640E+000	7.0945513E-003	-1.0793723E+000	0
1.6037759E+002	9.598919778167328E+001	-1.0812377E+000	-6.741825265138317E+000	7.2895153E-003	-1.0813723E+000	0
1.5662408E+002	9.618919777662086E+001	-1.0832388E+000	-6.916170208429797E+000	7.4918643E-003	-1.0833724E+000	0
1.5306561E+002	9.638919777156843E+001	-1.0852200E+000	-7.089900699940387E+000	7.6941019E-003	-1.0853723E+000	0
1.4955852E+002	9.658919776651601E+001	-1.0872766E+000	-7.269907783488861E+000	7.9044001E-003	-1.0873723E+000	0
1.4607118E+002	9.678919776146358E+001	-1.0892700E+000	-7.457118002465513E+000	8.1228148E-003	-1.0893724E+000	0
1.4259512E+002	9.698919775641116E+001	-1.0912055E+000	-7.652473876738448E+000	8.3504217E-003	-1.0913724E+000	0
1.3928511E+002	9.718919775135873E+001	-1.0932196E+000	-7.848790346359692E+000	8.5804518E-003	-1.0933723E+000	0
1.3599655E+002	9.738919774630631E+001	-1.0952986E+000	-8.053870395332780E+000	8.8213934E-003	-1.0953724E+000	0
1.3274492E+002	9.758919774125388E+001	-1.0972430E+000	-8.265800360852104E+000	9.0695908E-003	-1.0973724E+000	0
1.2955212E+002	9.778919773620146E+001	-1.0992279E+000	-8.484831689369116E+000	9.3267635E-003	-1.0993724E+000	0
1.2654245E+002	9.798919773114903E+001	-1.1012470E+000	-8.702588993946179E+000	9.5836995E-003	-1.1013724E+000	0
1.2363751E+002	9.818919772609661E+001	-1.1032728E+000	-8.923446829491994E+000	9.8449960E-003	-1.1033723E+000	0
1.2066504E+002	9.838919772104418E+001	-1.1052445E+000	-9.159608641719572E+000	1.0123607E-002	-1.1053724E+000	0
1.1781544E+002	9.858919771599176E+001	-1.1072811E+000	-9.398437545548216E+000	1.0406712E-002	-1.1073724E+000	0
1.1499049E+002	9.878919771093933E+001	-1.1092465E+000	-9.646419483450263E+000	1.0700257E-002	-1.1093723E+000	0
1.1231487E+002	9.898919770588691E+001	-1.1112561E+000	-9.894114584676785E+000	1.0994895E-002	-1.1113724E+000	0
1.0962295E+002	9.918919770083448E+001	-1.1132658E+000	-1.015540818900479E+001	1.1305668E-002	-1.1133723E+000	0
1.0709883E+002	9.938919769578206E+001	-1.1152768E+000	-1.041352936625476E+001	1.1613968E-002	-1.1153724E+000	0
1.0454355E+002	9.958919769072963E+001	-1.1172521E+000	-1.068695444794469E+001	1.1940022E-002	-1.1173724E+000	0
1.0170122E+002	9.979919768542459E+001	-1.1193728E+000	-1.100648381053182E+001	1.2320359E-002	-1.1194724E+000	0
9.9089149E+001	1.000091976801195E+002	-1.1214464E+000	-1.131754933314525E+001	1.2692025E-002	-1.1215724E+000	0
9.6664650E+001	1.002091976750671E+002	-1.1234831E+000	-1.162248101006014E+001	1.3057660E-002	-1.1235723E+000	0
9.4305595E+001	1.004091976700147E+002	-1.1254834E+000	-1.193442871065105E+001	1.3432002E-002	-1.1255724E+000	0
9.2038422E+001	1.006091976649623E+002	-1.1274332E+000	-1.224959226165493E+001	1.3810596E-002	-1.1275724E+000	0
8.9790001E+001	1.008091976599098E+002	-1.1294433E+000	-1.257871983191859E+001	1.4206951E-002	-1.1295723E+000	0
8.7476212E+001	1.010091976548574E+002	-1.1314868E+000	-1.293479444123722E+001	1.4635549E-002	-1.1315724E+000	0
8.5344734E+001	1.012091976498050E+002	-1.1334639E+000	-1.328100561811809E+001	1.5053540E-002	-1.1335723E+000	0
8.3255989E+001	1.014091976447526E+002	-1.1354901E+000	-1.363853882716089E+001	1.5486426E-002	-1.1355723E+000	0
8.1205009E+001	1.016091976397001E+002	-1.1374834E+000	-1.400755165426108E+001	1.5933357E-002	-1.1375724E+000	0
7.9215546E+001	1.018091976346477E+002	-1.1394389E+000	-1.438403165313395E+001	1.6389724E-002	-1.1395724E+000	0
7.7234909E+001	1.020091976295953E+002	-1.1414726E+000	-1.477923158682935E+001	1.6870087E-002	-1.1415722E+000	0
7.5298782E+001	1.022091976245429E+002	-1.1434863E+000	-1.518598623313599E+001	1.7364966E-002	-1.1435723E+000	0
7.3381371E+001	1.024091976194904E+002	-1.1454682E+000	-1.560979604572390E+001	1.7880525E-002	-1.1455724E+000	0
7.1570503E+001	1.026091976144380E+002	-1.1474487E+000	-1.603242456210171E+001	1.8396383E-002	-1.1475723E+000	0
6.9758644E+001	1.028091976093856E+002	-1.1494335E+000	-1.647729078469092E+001	1.8939549E-002	-1.1495723E+000	0
6.7965652E+001	1.030091976043332E+002	-1.1514858E+000	-1.694217308470455E+001	1.9508671E-002	-1.1515723E+000	0
6.6087646E+001	1.032091975992807E+002	-1.1534445E+000	-1.745325407230393E+001	2.0131361E-002	-1.1535724E+000	0
6.4362709E+001	1.034091975942283E+002	-1.1554555E+000	-1.795225088234122E+001	2.0743027E-002	-1.1555724E+000	0
6.2990452E+001	1.036091975891759E+002	-1.1574647E+000	-1.837524062895187E+001	2.1268694E-002	-1.1575723E+000	0
6.1374832E+001	1.038091975841235E+002	-1.1594182E+000	-1.889077595450718E+001	2.1902310E-002	-1.1595722E+000	0
5.9841099E+001	1.040091975790710E+002	-1.1614263E+000	-1.940850621461861E+001	2.2541549E-002	-1.1615723E+000	0
5.8317497E+001	1.042091975740186E+002	-1.1634020E+000	-1.994944932414832E+001	2.3209229E-002	-1.1635723E+000	0
5.6814320E+001	1.044091975689662E+002	-1.1654680E+000	-2.051363138236155E+001	2.3907980E-002	-1.1655724E+000	0
5.5170513E+001	1.046091975639138E+002	-1.1674623E+000	-2.116098363342732E+001	2.4704652E-002	-1.1675724E+000	0
5.3861256E+001	1.048091975588613E+002	-1.1694255E+000	-2.171181294058457E+001	2.5390347E-002	-1.1695724E+000	0
5.2476017E+001	1.050091975538089E+002	-1.1714679E+000	-2.232387235875569E+001	2.6151700E-002	-1.1715723E+000	0
5.1179184E+001	1.052091975487565E+002	-1.1734756E+000	-2.292876694748469E+001	2.6906349E-002	-1.1735724E+000	0
4.9777290E+001	1.054091975437041E+002	-1.1754552E+000	-2.361428637272104E+001	2.7757537E-002	-1.1755724E+000	0
4.8419773E+001	1.056091975386516E+002	-1.1774315E+000	-2.431716232829626E+001	2.8631791E-002	-1.1775724E+000	0
4.6984917E+001	1.058091975335992E+002	-1.1794566E+000	-2.510287635680496E+001	2.9607752E-002	-1.1795723E+000	0
4.5705189E+001	1.060091975285468E+002	-1.1814559E+000	-2.584949155243066E+001	3.0540032E-002	-1.1815723E+000	0
4.4290611E+001	1.062091975234944E+002	-1.1834601E+000	-2.672033802262774E+001	3.1622455E-002	-1.1835724E+000	0
4.3294182E+001	1.064091975184419E+002	-1.1854714E+000	-2.738177251869854E+001	3.2460310E-002	-1.1855724E+000	0
4.2133850E+001	1.066091975133895E+002	-1.1874729E+000	-2.818334665238990E+001	3.3466961E-002	-1.1875724E+000	0
4.0970642E+001	1.068091975083371E+002	-1.1894708E+000	-2.903227085564416E+001	3.4533039E-002	-1.1895723E+000	0
3.9846420E+001	1.070091975032847E+002	-1.1914519E+000	-2.990110223931254E+001	3.5625726E-002	-1.1915723E+000	0
3.8654015E+001	1.072091974982322E+002	-1.1934367E+000	-3.087484545286005E+001	3.6847174E-002	-1.1935724E+000	0
3.7581654E+001	1.074091974931798E+002	-1.1955254E+000	-3.181140985159107E+001	3.8031347E-002	-1.1955724E+000	0
3.6509281E+001	1.076091974881274E+002	-1.1974775E+000	-3.279926200275236E+001	3.9276376E-002	-1.1975724E+000	0
3.5516994E+001	1.078091974830750E+002	-1.1994780E+000	-3.377194538246192E+001	4.0508706E-002	-1.1995723E+000	0
3.4506729E+001	1.080091974780225E+002	-1.2015089E+000	-3.481955340362717E+001	4.1836001E-002	-1.2015724E+000	0
3.3549656E+001	1.082091974729701E+002	-1.2035042E+000	-3.587232635378038E+001	4.3172497E-002	-1.2035724E+000	0
3.2684624E+001	1.084091974679177E+002	-1.2054847E+000	-3.688232103172612E+001	4.4461075E-002	-1.2055724E+000	0
3.1842836E+001	1.086091974628653E+002	-1.2075191E+000	-3.792121551393657E+001	4.5790590E-002	-1.2075723E+000	0
3.0947805E+001	1.088091974578128E+002	-1.2095273E+000	-3.908281251416446E+001	4.7271729E-002	-1.2095722E+000	0
2.9990906E+001	1.090091974527604E+002	-1.2115211E+000	-4.039628303807871E+001	4.8940953E-002	-1.2115723E+000	0
2.9046099E+001	1.092091974477080E+002	-1.2135489E+000	-4.178009905674560E+001	5.0702192E-002	-1.2135724E+000	0
2.8235899E+001	1.094091974426556E+002	-1.2155308E+000	-4.304912493315396E+001	5.2327536E-002	-1.2155724E+000	0
2.7424641E+001	1.096091974376031E+002	-1.2175097E+000	-4.439473754018886E+001	5.4051027E-002	-1.2175723E+000	0
2.6744843E+001	1.098091974325507E+002	-1.2194966E+000	-4.559744899694647E+001	5.5605933E-002	-1.2195723E+000	0
2.6046774E+001	1.100091974274983E+002	-1.2215248E+000	-4.689735622254625E+001	5.7286285E-002	-1.2215724E+000	0
2.5356625E+001	1.102091974224459E+002	-1.2235107E+000	-4.825211568997838E+001	5.9036981E-002	-1.2235724E+000	0
2.4752331E+001	1.104091974173934E+002	-1.2254955E+000	-4.951030443449957E+001	6.0674652E-002	-1.2255722E+000	0
2.4094105E+001	1.106091974123410E+002	-1.2275552E+000	-5.094836176766296E+001	6.2541924E-002	-1.2275723E+000	0
2.3494986E+001	1.108091974072886E+002	-1.2295221E+000	-5.233125751142865E+001	6.4342439E-002	-1.2295723E+000	0
2.2868252E+001	1.110091974022362E+002	-1.2314949E+000	-5.385173010880183E+001	6.6318132E-002	-1.2315723E+000	0
2.2294846E+001	1.112091973971837E+002	-1.2335268E+000	-5.532789409133579E+001	6.8248443E-002	-1.2335724E+000	0
2.1747425E+001	1.114091973921313E+002	-1.2355078E+000	-5.681168176203369E+001	7.0191279E-002	-1.2355723E+000	0
2.1150434E+001	1.116091973870789E+002	-1.2375000E+000	-5.850943243044026E+001	7.2405420E-002	-1.2375723E+000	0
2.0615072E+001	1.118091973820265E+002	-1.2395021E+000	-6.012600947507622E+001	7.4526310E-002	-1.2395723E+000	0
2.0083838E+001	1.120091973769740E+002	-1.2415116E+000	-6.181645058342110E+001	7.6745838E-002	-1.2415724E+000	0
1.9569468E+001	1.122091973719216E+002	-1.2435260E+000	-6.354419308616995E+001	7.9018854E-002	-1.2435724E+000	0
1.9118567E+001	1.124091973668692E+002	-1.2455398E+000	-6.514817729234164E+001	8.1144646E-002	-1.2455723E+000	0
1.8658674E+001	1.126091973618168E+002	-1.2475325E+000	-6.686072360631283E+001	8.3410926E-002	-1.2475723E+000	0
1.8231958E+001	1.128091973567643E+002	-1.2495558E+000	-6.853656662402511E+001	8.5640267E-002	-1.2495723E+000	0
1.7812410E+001	1.130091973517119E+002	-1.2515293E+000	-7.026165054012048E+001	8.7934516E-002	-1.2515724E+000	0
1.7338451E+001	1.132091973466595E+002	-1.2535393E+000	-7.229823084266786E+001	9.0628676E-002	-1.2535723E+000	0
1.6964100E+001	1.134091973416071E+002	-1.2555193E+000	-7.401036571645386E+001	9.2921443E-002	-1.2555723E+000	0
1.6526257E+001	1.136091973365546E+002	-1.2575098E+000	-7.609163530235105E+001	9.5685981E-002	-1.2575724E+000	0
1.6151382E+001	1.138091973315022E+002	-1.2595066E+000	-7.798134463768702E+001	9.8218016E-002	-1.2595724E+000	0
1.5826187E+001	1.140091973264498E+002	-1.2615409E+000	-7.971224227351625E+001	1.0056026E-001	-1.2615724E+000	0
1.5460018E+001	1.142091973213974E+002	-1.2635549E+000	-8.173049232640795E+001	1.0327097E-001	-1.2635725E+000	0
1.5132286E+001	1.144091973163449E+002	-1.2655730E+000	-8.363396308427502E+001	1.0584489E-001	-1.2655724E+000	0
1.4819900E+001	1.146091973112925E+002	-1.2675858E+000	-8.553268190576341E+001	1.0842001E-001	-1.2675724E+000	0
1.4505305E+001	1.148091973062401E+002	-1.2695632E+000	-8.752406150413458E+001	1.1111733E-001	-1.2695724E+000	0
1.4187662E+001	1.150091973011877E+002	-1.2715966E+000	-8.962692439042542E+001	1.1396929E-001	-1.2715724E+000	0
1.3881373E+001	1.152091972961352E+002	-1.2735405E+000	-9.174455822892742E+001	1.1684041E-001	-1.2735724E+000	0
1.3628698E+001	1.154091972910828E+002	-1.2755816E+000	-9.359526550310329E+001	1.1938840E-001	-1.2755724E+000	0
1.3362046E+001	1.156091972860304E+002	-1.2775280E+000	-9.560871235475497E+001	1.2214281E-001	-1.2775723E+000	0
1.3080660E+001	1.158091972809780E+002	-1.2795546E+000	-9.782034114699252E+001	1.2516646E-001	-1.2795724E+000	0
1.2796360E+001	1.160091972759255E+002	-1.2814931E+000	-1.001451225507826E+002	1.2833528E-001	-1.2815725E+000	0
1.2559358E+001	1.162091972708731E+002	-1.2835416E+000	-1.021980278540632E+002	1.3117541E-001	-1.2835724E+000	0
1.2288614E+001	1.164091972658207E+002	-1.2855817E+000	-1.046156789753711E+002	1.3449201E-001	-1.2855724E+000	0
1.2024402E+001	1.166091972607683E+002	-1.2875222E+000	-1.070757804219684E+002	1.3786244E-001	-1.2875724E+000	0
1.1793698E+001	1.168191972554632E+002	-1.2896562E+000	-1.093512950965336E+002	1.4102557E-001	-1.2896725E+000	0
1.1452178E+001	1.170291972501582E+002	-1.2917206E+000	-1.127925769639401E+002	1.4569649E-001	-1.2917724E+000	0
1.1221489E+001	1.172291972451058E+002	-1.2937117E+000	-1.152887674124065E+002	1.4915042E-001	-1.2937723E+000	0
1.0964597E+001	1.174291972400533E+002	-1.2957184E+000	-1.181729170038043E+002	1.5311883E-001	-1.2957724E+000	0
1.0745512E+001	1.176291972350009E+002	-1.2977473E+000	-1.207710904437126E+002	1.5673035E-001	-1.2977723E+000	0
1.0567003E+001	1.178291972299485E+002	-1.2997909E+000	-1.230046780914951E+002	1.5988036E-001	-1.2997723E+000	0
1.0269814E+001	1.180291972248961E+002	-1.3017480E+000	-1.267547713158624E+002	1.6500278E-001	-1.3017724E+000	0
1.0076609E+001	1.182291972198436E+002	-1.3036802E+000	-1.293768759811811E+002	1.6866606E-001	-1.3037724E+000	0
9.8629942E+000	1.184291972147912E+002	-1.3057222E+000	-1.323859874872396E+002	1.7285933E-001	-1.3057723E+000	0
9.6859980E+000	1.186291972097388E+002	-1.3077015E+000	-1.350094741834261E+002	1.7655209E-001	-1.3077724E+000	0
9.5324717E+000	1.188291972046864E+002	-1.3097175E+000	-1.373953739131664E+002	1.7994913E-001	-1.3097723E+000	0
9.3355322E+000	1.190291971996339E+002	-1.3116961E+000	-1.405057648022973E+002	1.8430085E-001	-1.3117723E+000	0
9.1295023E+000	1.192291971945815E+002	-1.3137522E+000	-1.439018372397300E+002	1.8905134E-001	-1.3137723E+000	0
8.9696178E+000	1.194291971895291E+002	-1.3157378E+000	-1.466882770888658E+002	1.9300331E-001	-1.3157723E+000	0
8.8091993E+000	1.196291971844767E+002	-1.3177065E+000	-1.495830028257133E+002	1.9710650E-001	-1.3177723E+000	0
8.6660538E+000	1.198291971794242E+002	-1.3197219E+000	-1.522863793578545E+002	2.0097567E-001	-1.3197722E+000	0
8.5399246E+000	1.200291971743718E+002	-1.3216915E+000	-1.547661717981443E+002	2.0455314E-001	-1.3217723E+000	0
8.3926792E+000	1.202291971693194E+002	-1.3237129E+000	-1.577223355267321E+002	2.0877910E-001	-1.3237724E+000	0
8.2213030E+000	1.204291971642670E+002	-1.3257349E+000	-1.612560554458973E+002	2.1378277E-001	-1.3257723E+000	0
8.1031179E+000	1.206291971592145E+002	-1.3276862E+000	-1.638487971699421E+002	2.1753979E-001	-1.3277723E+000	0
7.9177852E+000	1.208291971541621E+002	-1.3297424E+000	-1.679437373825206E+002	2.2332191E-001	-1.3297724E+000	0
7.8276272E+000	1.210291971491097E+002	-1.3317986E+000	-1.701407783263941E+002	2.2659324E-001	-1.3317723E+000	0
7.6640229E+000	1.212291971440573E+002	-1.3337146E+000	-1.740227813699075E+002	2.3209673E-001	-1.3337724E+000	0
7.4547977E+000	1.214291971390048E+002	-1.3357124E+000	-1.791748717863802E+002	2.3932610E-001	-1.3357724E+000	0
7.3064213E+000	1.216291971339524E+002	-1.3377422E+000	-1.830913108622408E+002	2.4492897E-001	-1.3377724E+000	0
7.2326293E+000	1.218291971289000E+002	-1.3397382E+000	-1.852352986919650E+002	2.4816681E-001	-1.3397723E+000	0
7.1414733E+000	1.220291971238476E+002	-1.3417041E+000	-1.878749813330687E+002	2.5207263E-001	-1.3417723E+000	0
7.0501838E+000	1.222291971187951E+002	-1.3437351E+000	-1.905957541422495E+002	2.5611019E-001	-1.3437724E+000	0
6.9013062E+000	1.224291971137427E+002	-1.3457191E+000	-1.949948399148020E+002	2.6240829E-001	-1.3457724E+000	0
6.7609463E+000	1.226291971086903E+002	-1.3477817E+000	-1.993480765478962E+002	2.6867768E-001	-1.3477724E+000	0
6.6591516E+000	1.228291971036379E+002	-1.3497325E+000	-2.026883645003627E+002	2.7357507E-001	-1.3497723E+000	0
6.5507512E+000	1.230291970985854E+002	-1.3517598E+000	-2.063518690251974E+002	2.7893817E-001	-1.3517724E+000	0
6.4481668E+000	1.232291970935330E+002	-1.3537756E+000	-2.099473661846587E+002	2.8422162E-001	-1.3537724E+000	0
6.3540936E+000	1.234291970884806E+002	-1.3557258E+000	-2.133625731068132E+002	2.8926113E-001	-1.3557724E+000	0
6.2068439E+000	1.236291970834282E+002	-1.3577480E+000	-2.187501523283871E+002	2.9700759E-001	-1.3577724E+000	0
6.1562581E+000	1.238291970783757E+002	-1.3597642E+000	-2.208751108640995E+002	3.0033806E-001	-1.3597723E+000	0
6.1197543E+000	1.240291970733233E+002	-1.3617786E+000	-2.225217748304613E+002	3.0302539E-001	-1.3617724E+000	0
5.9430528E+000	1.242291970682709E+002	-1.3637780E+000	-2.294743265467714E+002	3.1295204E-001	-1.3637724E+000	0
5.8539562E+000	1.244094970637161E+002	-1.3655968E+000	-2.332775833000369E+002	3.1856310E-001	-1.3655747E+000	0
5.8149796E+000	1.245800970594064E+002	-1.3673021E+000	-2.351344501857102E+002	3.2149982E-001	-1.3672806E+000	0
5.7107568E+000	1.247506970550967E+002	-1.3690258E+000	-2.397275566943547E+002	3.2819322E-001	-1.3689866E+000	0
5.6194897E+000	1.249210970507920E+002	-1.3707030E+000	-2.439194847823037E+002	3.3434117E-001	-1.3706906E+000	0
5.5321774E+000	1.250815970467374E+002	-1.3723115E+000	-2.480599080525710E+002	3.4041545E-001	-1.3722953E+000	0
5.4802241E+000	1.252321970429330E+002	-1.3738425E+000	-2.506909354332174E+002	3.4440985E-001	-1.3738016E+000	0
5.4663715E+000	1.254024970386308E+002	-1.3755212E+000	-2.516333111988288E+002	3.4612694E-001	-1.3755050E+000	0
5.3451571E+000	1.255827970340761E+002	-1.3773508E+000	-2.576820006436133E+002	3.5491851E-001	-1.3773078E+000	0
5.2477722E+000	1.257730970292687E+002	-1.3792636E+000	-2.628284043058516E+002	3.6250967E-001	-1.3792112E+000	0
5.1416864E+000	1.259631970244664E+002	-1.3811414E+000	-2.686164138261065E+002	3.7099725E-001	-1.3811121E+000	0
5.1115017E+000	1.261234970204168E+002	-1.3827078E+000	-2.705091264882939E+002	3.7403509E-001	-1.3827147E+000	0
5.0480161E+000	1.263037970158621E+002	-1.3845508E+000	-2.742762408684889E+002	3.7974939E-001	-1.3845176E+000	0
4.9676380E+000	1.264743970115524E+002	-1.3862633E+000	-2.790588332351763E+002	3.8684902E-001	-1.3862233E+000	0
4.9566531E+000	1.266451970072376E+002	-1.3879791E+000	-2.800234570561761E+002	3.8866672E-001	-1.3879317E+000	0
4.9408197E+000	1.268256970026778E+002	-1.3897437E+000	-2.812779533269596E+002	3.9090425E-001	-1.3897368E+000	0
4.8860960E+000	1.270161969978653E+002	-1.3917459E+000	-2.848380145631501E+002	3.9642215E-001	-1.3916417E+000	0
4.8746448E+000	1.271968969933005E+002	-1.3934828E+000	-2.858634605577968E+002	3.9834583E-001	-1.3934485E+000	0
4.8078222E+000	1.273473969894985E+002	-1.3950478E+000	-2.901620892040755E+002	4.0478998E-001	-1.3949531E+000	0
4.7032084E+000	1.274978969856966E+002	-1.3964617E+000	-2.969168325702453E+002	4.1463301E-001	-1.3964583E+000	0
4.7280149E+000	1.276483969818946E+002	-1.3980666E+000	-2.956984327759492E+002	4.1340610E-001	-1.3979638E+000	0
4.6951323E+000	1.278188969775874E+002	-1.3997029E+000	-2.981178849065773E+002	4.1727647E-001	-1.3996686E+000	0
4.5840259E+000	1.280193969725224E+002	-1.4017229E+000	-3.057842444948651E+002	4.2862478E-001	-1.4016740E+000	0
4.4958777E+000	1.282197969674598E+002	-1.4037666E+000	-3.122341514391437E+002	4.3830389E-001	-1.4036781E+000	0
4.4177160E+000	1.284002969629000E+002	-1.4055343E+000	-3.181585760905336E+002	4.4718277E-001	-1.4054829E+000	0
4.3489809E+000	1.285704969586004E+002	-1.4071627E+000	-3.235614684095940E+002	4.5530361E-001	-1.4071851E+000	0
4.3419290E+000	1.287507969540457E+002	-1.4090093E+000	-3.245123029958927E+002	4.5724088E-001	-1.4089880E+000	0
4.2939701E+000	1.289310969494909E+002	-1.4108584E+000	-3.285673461876172E+002	4.6356201E-001	-1.4107907E+000	0
4.2410560E+000	1.291215969446785E+002	-1.4127103E+000	-3.331034303352130E+002	4.7057864E-001	-1.4126958E+000	0
4.2176523E+000	1.292920969403713E+002	-1.4144590E+000	-3.353664200245785E+002	4.7436205E-001	-1.4144003E+000	0
4.2012467E+000	1.294524969363192E+002	-1.4160764E+000	-3.370610037403057E+002	4.7730413E-001	-1.4160049E+000	0
4.0867562E+000	1.296128969322672E+002	-1.4176819E+000	-3.468966152266057E+002	4.9178907E-001	-1.4176087E+000	0
4.0215931E+000	1.297832969279625E+002	-1.4194132E+000	-3.529479788924291E+002	5.0097901E-001	-1.4193125E+000	0
3.9907115E+000	1.299437969239079E+002	-1.4209807E+000	-3.560720301255606E+002	5.0597149E-001	-1.4209176E+000	0
3.9247353E+000	1.301243969193456E+002	-1.4228227E+000	-3.625270529600784E+002	5.1581174E-001	-1.4227239E+000	0
3.9344184E+000	1.303148969145332E+002	-1.4247271E+000	-3.621188431833734E+002	5.1592052E-001	-1.4246285E+000	0
3.9197125E+000	1.304854969102234E+002	-1.4264451E+000	-3.639157486288168E+002	5.1910585E-001	-1.4263344E+000	0
3.9423862E+000	1.306659969056636E+002	-1.4282359E+000	-3.622770205575725E+002	5.1741701E-001	-1.4281399E+000	0
3.8798318E+000	1.308663969006011E+002	-1.4302162E+000	-3.686284014460089E+002	5.2721828E-001	-1.4301441E+000	0
3.8144240E+000	1.310567968957912E+002	-1.4321738E+000	-3.754626688901253E+002	5.3772783E-001	-1.4320475E+000	0
3.7875240E+000	1.312474968909737E+002	-1.4340589E+000	-3.786270103312963E+002	5.4297346E-001	-1.4339546E+000	0
3.7700217E+000	1.314380968861587E+002	-1.4359716E+000	-3.808921303858824E+002	5.4695028E-001	-1.4358606E+000	0
3.7473681E+000	1.316286968813438E+002	-1.4378794E+000	-3.837038263357895E+002	5.5171984E-001	-1.4377669E+000	0
3.7185619E+000	1.318090968767865E+002	-1.4397225E+000	-3.871718625501753E+002	5.5742007E-001	-1.4395709E+000	0
3.6324651E+000	1.319992968719816E+002	-1.4415565E+000	-3.968534817689549E+002	5.7208669E-001	-1.4414730E+000	0
3.6292090E+000	1.321796968674244E+002	-1.4433855E+000	-3.977135261717790E+002	5.7405394E-001	-1.4432769E+000	0
3.6102607E+000	1.323600968628671E+002	-1.4451755E+000	-4.002967134616038E+002	5.7849902E-001	-1.4450809E+000	0
3.5617690E+000	1.325505968580546E+002	-1.4470716E+000	-4.062788987830934E+002	5.8791465E-001	-1.4469855E+000	0
3.5233200E+000	1.327511968529871E+002	-1.4490653E+000	-4.112783755745745E+002	5.9596926E-001	-1.4489919E+000	0
3.5075631E+000	1.329416968481746E+002	-1.4510194E+000	-4.136830450858280E+002	6.0026211E-001	-1.4508966E+000	0
3.4802189E+000	1.331222968436123E+002	-1.4527857E+000	-4.174409174661544E+002	6.0645223E-001	-1.4527025E+000	0
3.4706366E+000	1.333028968390499E+002	-1.4546274E+000	-4.191240730537293E+002	6.0966939E-001	-1.4545087E+000	0
3.4631011E+000	1.334734968347402E+002	-1.4563688E+000	-4.205389224478449E+002	6.1245978E-001	-1.4562145E+000	0
3.4297705E+000	1.336437968304381E+002	-1.4580293E+000	-4.251098751169720E+002	6.1982262E-001	-1.4579177E+000	0
3.3970559E+000	1.338240968258833E+002	-1.4598476E+000	-4.297390569630170E+002	6.2735349E-001	-1.4597210E+000	0
3.3766618E+000	1.340044968213260E+002	-1.4616615E+000	-4.328717415038645E+002	6.3271195E-001	-1.4615246E+000	0
3.4198318E+000	1.341850968167637E+002	-1.4634324E+000	-4.279252636605238E+002	6.2623972E-001	-1.4633305E+000	0
3.4000561E+000	1.343657968121988E+002	-1.4652323E+000	-4.309435584711437E+002	6.3143241E-001	-1.4651376E+000	0
3.3811278E+000	1.345462968076390E+002	-1.4670763E+000	-4.339014468809091E+002	6.3656652E-001	-1.4669428E+000	0
3.2887106E+000	1.347365968028316E+002	-1.4689591E+000	-4.466671756114662E+002	6.5613580E-001	-1.4688462E+000	0
3.2593801E+000	1.349365967977792E+002	-1.4709435E+000	-4.512954743443695E+002	6.6383010E-001	-1.4708462E+000	0
3.2105722E+000	1.351365967927268E+002	-1.4729679E+000	-4.587867170061395E+002	6.7577809E-001	-1.4728462E+000	0
3.2019279E+000	1.353365967876744E+002	-1.4749939E+000	-4.606580788748597E+002	6.7946786E-001	-1.4748462E+000	0
3.2201920E+000	1.355365967826219E+002	-1.4769959E+000	-4.586670643164180E+002	6.7744941E-001	-1.4768461E+000	0
3.1713850E+000	1.357365967775695E+002	-1.4789399E+000	-4.663388027269000E+002	6.8968707E-001	-1.4788462E+000	0
3.1654685E+000	1.359365967725171E+002	-1.4809774E+000	-4.678541080275909E+002	6.9288135E-001	-1.4808463E+000	0
3.1608586E+000	1.361365967674647E+002	-1.4829888E+000	-4.691727844030693E+002	6.9577801E-001	-1.4828461E+000	0
3.0421808E+000	1.363365967624122E+002	-1.4850460E+000	-4.881517907616226E+002	7.2492790E-001	-1.4848462E+000	0
3.0038228E+000	1.365365967573598E+002	-1.4870292E+000	-4.950455814889237E+002	7.3614722E-001	-1.4868461E+000	0
3.0096045E+000	1.367365967523074E+002	-1.4890455E+000	-4.947645324265877E+002	7.3672688E-001	-1.4888462E+000	0
3.0292261E+000	1.369365967472550E+002	-1.4910588E+000	-4.922243414682057E+002	7.3393548E-001	-1.4908463E+000	0
3.0121379E+000	1.371365967422025E+002	-1.4930402E+000	-4.956745769258523E+002	7.4006206E-001	-1.4928461E+000	0
2.9800005E+000	1.373365967371501E+002	-1.4950411E+000	-5.016915704074117E+002	7.5004953E-001	-1.4948460E+000	0
2.9045894E+000	1.375365967320977E+002	-1.4969617E+000	-5.153780631110776E+002	7.7150124E-001	-1.4968461E+000	0
2.8704298E+000	1.377365967270453E+002	-1.4989760E+000	-5.222130702401500E+002	7.8278488E-001	-1.4988462E+000	0
2.8115675E+000	1.379365967219928E+002	-1.5009899E+000	-5.338622873699824E+002	8.0132192E-001	-1.5008460E+000	0
2.7977531E+000	1.381365967169404E+002	-1.5030200E+000	-5.372239584198342E+002	8.0745840E-001	-1.5028461E+000	0
2.8232448E+000	1.383365967118880E+002	-1.5050045E+000	-5.330761641850531E+002	8.0228204E-001	-1.5048462E+000	0
2.8361769E+000	1.385365967068356E+002	-1.5069895E+000	-5.313453808695795E+002	8.0073190E-001	-1.5068461E+000	0
2.8378451E+000	1.387365967017831E+002	-1.5089959E+000	-5.317400717010878E+002	8.0239356E-001	-1.5088462E+000	0
2.8100033E+000	1.389365966967307E+002	-1.5110569E+000	-5.377420603780270E+002	8.1255883E-001	-1.5108463E+000	0
2.8005083E+000	1.391365966916783E+002	-1.5130509E+000	-5.402772653973298E+002	8.1746703E-001	-1.5128461E+000	0
2.7261307E+000	1.393365966866259E+002	-1.5149760E+000	-5.557239270458940E+002	8.4190845E-001	-1.5148461E+000	0
2.6560013E+000	1.395365966815734E+002	-1.5172784E+000	-5.712641635168168E+002	8.6676681E-001	-1.5168461E+000	0
2.6533484E+000	1.397365966765210E+002	-1.5195961E+000	-5.727088468945221E+002	8.7028611E-001	-1.5188462E+000	0
2.6484101E+000	1.399365966714686E+002	-1.5215441E+000	-5.745122599915294E+002	8.7414575E-001	-1.5208462E+000	0
2.6127942E+000	1.401365966664162E+002	-1.5235920E+000	-5.831274449744219E+002	8.8844830E-001	-1.5228461E+000	0
2.6245189E+000	1.402465966636373E+002	-1.5247326E+000	-5.809569664779976E+002	8.8580400E-001	-1.5239458E+000	0
2.6203871E+000	1.402471966636222E+002	-1.5247602E+000	-5.818836059570313E+002	8.8723302E-001	-1.5241458E+000	1