EC-Lab ASCII FILE
Nb header lines : 63                          

Linear Sweep Voltammetry

Run on channel : 1 (SN 1340)
User : 
Electrode connection : standard
Potential control : Ewe
Ewe ctrl range : min = -5.00 V, max = 5.00 V
Ewe,I filtering : <None>
Safety Limits :
	Do not start on E overload
Channel : Floating
Acquisition started on : 02/19/2026 17:10:45.691
Technique started on : 02/19/2026 17:10:48.529
Loaded Setting File :  NONE
Saved on :
	File : Ni10Co10_2_19_02_LSV_C01.mpr
	Directory : C:\Users\volt\Documents\Platalytix\
	Host : 127.0.0.1
Device : SP-200 (SN 0262)
Address : USB
EC-LAB for windows v11.60 (software)
Internet server v11.60 (firmware)
Command interpretor v11.60 (firmware)
Electrode material : Ni10Co10
Initial state : 
Electrolyte : KOH (1M)
Comments : 
Cable : standard
Reference electrode : Hg/HgO (0.140 V)
Electrode surface area : 1.000 cm˛
Characteristic mass : 0.001 g
Equivalent Weight : 0.000 g/eq.
Density : 0.000 g/cm3
Volume (V) : 0.001 cmł
Cycle Definition : Charge/Discharge alternance
tR (h:m:s)          0:00:5.0000         
dER/dt (mV/h)       0.0                 
dER (mV)            0                   
dtR (s)             0.0000              
dE/dt               10.000              
dE/dt unit          mV/s                
Ei (V)              -0.200              
vs.                 Ref                 
EL (V)              -2.500              
vs.                 Ref                 
record              <I>                 
dI                  0.000               
unit dI             µA                  
tI (s)              0.0000              
step percent        50                  
N                   10                  
E range min (V)     -5.000              
E range max (V)     5.000               
I Range             Auto                
I Range min         Unset               
I Range max         Unset               
I Range init        Unset               
Bandwidth           8                   

Rwe/Ohm	time/s	Ewe/V	<I>/mA	Pwe/W	control/V	error	
0.0000000E+000	2.838400134787662E+000	-1.5339820E-001	0.000000000000000E+000	0.0000000E+000	0.0000000E+000	0
0.0000000E+000	7.838200008482090E+000	-3.5314232E-002	0.000000000000000E+000	0.0000000E+000	-1.9999252E-001	0
3.6523501E+003	8.038200003429665E+000	-2.0183125E-001	5.526065180660222E-002	-1.1153326E-005	-2.0189230E-001	0
1.9814116E+003	8.158200000398210E+000	-2.0293799E-001	-1.024209141911829E-001	2.0785095E-005	-2.0309237E-001	0
1.8576074E+003	8.368199995093164E+000	-2.0500195E-001	-1.103580577231418E-001	2.2623617E-005	-2.0519234E-001	0
1.9974944E+003	8.568199990040739E+000	-2.0704472E-001	-1.036522189564919E-001	2.1460644E-005	-2.0719236E-001	0
2.1427014E+003	8.768199984988314E+000	-2.0902063E-001	-9.755004882440832E-002	2.0389973E-005	-2.0919237E-001	0
2.2776987E+003	8.968199979935889E+000	-2.1110134E-001	-9.268185766857284E-002	1.9565265E-005	-2.1119234E-001	0
2.4020872E+003	9.168199974883464E+000	-2.1306729E-001	-8.870089699856343E-002	1.8899260E-005	-2.1319236E-001	0
2.5163252E+003	9.368199969831039E+000	-2.1502940E-001	-8.545374056818522E-002	1.8375067E-005	-2.1519236E-001	0
2.6293127E+003	9.568199964778614E+000	-2.1703100E-001	-8.254286056582982E-002	1.7914359E-005	-2.1719235E-001	0
2.7320747E+003	9.768199959726189E+000	-2.1903427E-001	-8.017140668299474E-002	1.7560285E-005	-2.1919236E-001	0
2.8328301E+003	9.968199954673764E+000	-2.2104688E-001	-7.803040743349321E-002	1.7248378E-005	-2.2119237E-001	0
2.9298347E+003	1.016819994962134E+001	-2.2308262E-001	-7.614170956476074E-002	1.6985892E-005	-2.2319235E-001	0
3.0196150E+003	1.036819994456891E+001	-2.2505918E-001	-7.453241133259902E-002	1.6774204E-005	-2.2519235E-001	0
3.1142925E+003	1.056819993951649E+001	-2.2700813E-001	-7.289236131844329E-002	1.6547159E-005	-2.2719237E-001	0
3.1986047E+003	1.076819993446406E+001	-2.2902033E-001	-7.160007307050398E-002	1.6397873E-005	-2.2919233E-001	0
3.2865920E+003	1.096819992941164E+001	-2.3101217E-001	-7.028927543736962E-002	1.6237678E-005	-2.3119237E-001	0
3.3681353E+003	1.116819992435921E+001	-2.3309460E-001	-6.920583367710909E-002	1.6131506E-005	-2.3319237E-001	0
3.4512258E+003	1.136819991930679E+001	-2.3510633E-001	-6.812255747158025E-002	1.6016045E-005	-2.3519236E-001	0
3.5327051E+003	1.156819991425436E+001	-2.3701626E-001	-6.709200212343380E-002	1.5901895E-005	-2.3719236E-001	0
3.6107256E+003	1.176819990920194E+001	-2.3902635E-001	-6.619898075144925E-002	1.5823302E-005	-2.3919237E-001	0
3.6944143E+003	1.196819990414951E+001	-2.4108350E-001	-6.525621646455559E-002	1.5732197E-005	-2.4119237E-001	0
3.7667864E+003	1.216819989909709E+001	-2.4302907E-001	-6.451894371250796E-002	1.5679980E-005	-2.4319234E-001	0
3.8465444E+003	1.236819989404466E+001	-2.4501984E-001	-6.369868835408954E-002	1.5607442E-005	-2.4519235E-001	0
3.9231279E+003	1.256819988899224E+001	-2.4708191E-001	-6.298084461495557E-002	1.5561427E-005	-2.4719234E-001	0
3.9954556E+003	1.276819988393981E+001	-2.4904592E-001	-6.233229797677703E-002	1.5523605E-005	-2.4919234E-001	0
4.0730710E+003	1.296819987888739E+001	-2.5102311E-001	-6.162993745168754E-002	1.5470539E-005	-2.5119236E-001	0
4.1430444E+003	1.316819987383496E+001	-2.5304443E-001	-6.107692672425480E-002	1.5455176E-005	-2.5319234E-001	0
4.2218823E+003	1.336819986878254E+001	-2.5503775E-001	-6.040854219140290E-002	1.5406458E-005	-2.5519237E-001	0
4.2935669E+003	1.356819986373011E+001	-2.5702891E-001	-5.986372740514795E-002	1.5386708E-005	-2.5719234E-001	0
4.3662139E+003	1.376819985867769E+001	-2.5899971E-001	-5.931905991516073E-002	1.5363619E-005	-2.5919235E-001	0
4.4403115E+003	1.396819985362527E+001	-2.6103100E-001	-5.878664132011246E-002	1.5345136E-005	-2.6119235E-001	0
4.5060132E+003	1.416819984857284E+001	-2.6304024E-001	-5.837538248390517E-002	1.5355075E-005	-2.6319236E-001	0
4.5857051E+003	1.436819984352042E+001	-2.6501426E-001	-5.779138719821419E-002	1.5315542E-005	-2.6519236E-001	0
4.6493765E+003	1.456819983846799E+001	-2.6697254E-001	-5.742114910944585E-002	1.5329870E-005	-2.6719236E-001	0
4.7304326E+003	1.476819983341557E+001	-2.6902759E-001	-5.687166719545367E-002	1.5300047E-005	-2.6919237E-001	0
4.7948467E+003	1.496819982836314E+001	-2.7104849E-001	-5.652912208903349E-002	1.5322134E-005	-2.7119234E-001	0
4.8676206E+003	1.516819982331072E+001	-2.7303863E-001	-5.609283018688260E-002	1.5315509E-005	-2.7319238E-001	0
4.9370474E+003	1.536819981825829E+001	-2.7503467E-001	-5.570833271162390E-002	1.5321722E-005	-2.7519235E-001	0
5.0099321E+003	1.556819981320587E+001	-2.7695563E-001	-5.528131516358886E-002	1.5310472E-005	-2.7719232E-001	0
5.0808691E+003	1.576819980815344E+001	-2.7902153E-001	-5.491610311601081E-002	1.5322776E-005	-2.7919236E-001	0
5.1502739E+003	1.596819980310102E+001	-2.8094840E-001	-5.455018791513733E-002	1.5325788E-005	-2.8119236E-001	0
5.2223535E+003	1.616819979804859E+001	-2.8312165E-001	-5.421341882961600E-002	1.5348993E-005	-2.8319237E-001	0
5.2907266E+003	1.636819979299617E+001	-2.8502285E-001	-5.387215514122490E-002	1.5354795E-005	-2.8519234E-001	0
5.3624624E+003	1.656819978794374E+001	-2.8701639E-001	-5.352324586944515E-002	1.5362049E-005	-2.8719234E-001	0
5.4326494E+003	1.676819978289132E+001	-2.8906825E-001	-5.320944379468162E-002	1.5381162E-005	-2.8919235E-001	0
5.4955278E+003	1.696819977783889E+001	-2.9100427E-001	-5.295292658482134E-002	1.5409527E-005	-2.9119235E-001	0
5.5686421E+003	1.716819977278647E+001	-2.9306379E-001	-5.262751388152376E-002	1.5423218E-005	-2.9319236E-001	0
5.6396768E+003	1.736819976773404E+001	-2.9503059E-001	-5.231338870540547E-002	1.5434051E-005	-2.9519233E-001	0
5.7043140E+003	1.756819976268162E+001	-2.9708797E-001	-5.208127787009387E-002	1.5472720E-005	-2.9719234E-001	0
5.7829370E+003	1.776819975762919E+001	-2.9907492E-001	-5.171678771683030E-002	1.5467194E-005	-2.9919237E-001	0
5.8518477E+003	1.796819975257677E+001	-3.0103236E-001	-5.144227800633172E-002	1.5485790E-005	-3.0119234E-001	0
5.9187100E+003	1.816819974752434E+001	-3.0305961E-001	-5.120365998640142E-002	1.5517760E-005	-3.0319238E-001	0
5.9868979E+003	1.836819974247192E+001	-3.0506715E-001	-5.095579773673353E-002	1.5544940E-005	-3.0519232E-001	0
6.0565186E+003	1.856819973741949E+001	-3.0703074E-001	-5.069426044160730E-002	1.5564696E-005	-3.0719236E-001	0
6.1229648E+003	1.876819973236707E+001	-3.0904400E-001	-5.047293522082641E-002	1.5598358E-005	-3.0919236E-001	0
6.1925981E+003	1.896819972731464E+001	-3.1103539E-001	-5.022696158246853E-002	1.5622363E-005	-3.1119233E-001	0
6.2569355E+003	1.916819972226222E+001	-3.1300858E-001	-5.002585986719943E-002	1.5658523E-005	-3.1319234E-001	0
6.3325059E+003	1.936819971720979E+001	-3.1503749E-001	-4.974926067378926E-002	1.5672882E-005	-3.1519237E-001	0
6.3957729E+003	1.956819971215737E+001	-3.1702060E-001	-4.956720705997292E-002	1.5713826E-005	-3.1719235E-001	0
6.4677485E+003	1.976819970710494E+001	-3.1901395E-001	-4.932380369188616E-002	1.5734982E-005	-3.1919235E-001	0
6.5300483E+003	1.996819970205252E+001	-3.2104689E-001	-4.916455108744178E-002	1.5784126E-005	-3.2119235E-001	0
6.6009883E+003	2.016819969700009E+001	-3.2302216E-001	-4.893542479041577E-002	1.5807227E-005	-3.2319233E-001	0
6.6650356E+003	2.036819969194767E+001	-3.2506576E-001	-4.877179764663098E-002	1.5854042E-005	-3.2519236E-001	0
6.7339438E+003	2.056819968689524E+001	-3.2703787E-001	-4.856557841307113E-002	1.5882782E-005	-3.2719234E-001	0
6.8046172E+003	2.076819968184282E+001	-3.2907340E-001	-4.836030929246937E-002	1.5914091E-005	-3.2919237E-001	0
6.8710303E+003	2.096819967679039E+001	-3.3103210E-001	-4.817794075197712E-002	1.5948444E-005	-3.3119234E-001	0
6.9382080E+003	2.116819967173797E+001	-3.3300251E-001	-4.799546450197034E-002	1.5982610E-005	-3.3319238E-001	0
7.0072310E+003	2.136819966668554E+001	-3.3499900E-001	-4.780761334467531E-002	1.6015503E-005	-3.3519235E-001	0
7.0677939E+003	2.156819966163312E+001	-3.3703563E-001	-4.768611214603069E-002	1.6071919E-005	-3.3719236E-001	0
7.1395420E+003	2.176819965658069E+001	-3.3902699E-001	-4.748581632071047E-002	1.6098973E-005	-3.3919236E-001	0
7.2064775E+003	2.196819965152827E+001	-3.4099782E-001	-4.731823732736440E-002	1.6135416E-005	-3.4119236E-001	0
7.2738994E+003	2.216819964647584E+001	-3.4302911E-001	-4.715890369495235E-002	1.6176877E-005	-3.4319237E-001	0
7.3393130E+003	2.236819964142342E+001	-3.4506080E-001	-4.701540664618709E-002	1.6223174E-005	-3.4519237E-001	0
7.4090781E+003	2.256819963637099E+001	-3.4710911E-001	-4.684916258100102E-002	1.6261771E-005	-3.4719235E-001	0
7.4701187E+003	2.276819963131857E+001	-3.4901756E-001	-4.672182213553067E-002	1.6306736E-005	-3.4919235E-001	0
7.5414307E+003	2.296819962626614E+001	-3.5106513E-001	-4.655152768326420E-002	1.6342618E-005	-3.5119238E-001	0
7.6110566E+003	2.316819962121372E+001	-3.5304618E-001	-4.638596212696236E-002	1.6376387E-005	-3.5319236E-001	0
7.6735088E+003	2.336819961616129E+001	-3.5503712E-001	-4.626789887498073E-002	1.6426822E-005	-3.5519233E-001	0
7.7389805E+003	2.356819961110887E+001	-3.5702237E-001	-4.613299787576719E-002	1.6470512E-005	-3.5719237E-001	0
7.8149272E+003	2.376819960605644E+001	-3.5907808E-001	-4.594771869141667E-002	1.6498818E-005	-3.5919237E-001	0
7.8738525E+003	2.396819960100402E+001	-3.6105695E-001	-4.585518287742918E-002	1.6556332E-005	-3.6119235E-001	0
7.9353628E+003	2.416819959595159E+001	-3.6304221E-001	-4.574991806379622E-002	1.6609150E-005	-3.6319238E-001	0
8.0039165E+003	2.436819959089917E+001	-3.6499789E-001	-4.560241279880717E-002	1.6644784E-005	-3.6519235E-001	0
8.0687319E+003	2.456819958584674E+001	-3.6700037E-001	-4.548426989419485E-002	1.6692744E-005	-3.6719239E-001	0
8.1377832E+003	2.476819958079432E+001	-3.6897248E-001	-4.534066208588627E-002	1.6729457E-005	-3.6919236E-001	0
8.2015703E+003	2.496819957574189E+001	-3.7102753E-001	-4.523859864239133E-002	1.6784765E-005	-3.7119240E-001	0
8.2682002E+003	2.516819957068947E+001	-3.7302527E-001	-4.511565539527629E-002	1.6829279E-005	-3.7319237E-001	0
8.3348643E+003	2.536819956563704E+001	-3.7504044E-001	-4.499658652768174E-002	1.6875540E-005	-3.7519234E-001	0
8.3894209E+003	2.556819956058462E+001	-3.7702316E-001	-4.494030724222575E-002	1.6943537E-005	-3.7719235E-001	0
8.4596875E+003	2.576819955553219E+001	-3.7904000E-001	-4.480543683173216E-002	1.6983053E-005	-3.7919235E-001	0
8.5295830E+003	2.596819955047977E+001	-3.8105708E-001	-4.467476308879026E-002	1.7023634E-005	-3.8119239E-001	0
8.5846719E+003	2.616819954542734E+001	-3.8301322E-001	-4.461594071168495E-002	1.7088496E-005	-3.8319239E-001	0
8.6511963E+003	2.636819954037492E+001	-3.8505900E-001	-4.450933631803060E-002	1.7138720E-005	-3.8519236E-001	0
8.7253281E+003	2.656819953532249E+001	-3.8700980E-001	-4.435475439740277E-002	1.7165725E-005	-3.8719234E-001	0
8.7787217E+003	2.676819953027007E+001	-3.8904878E-001	-4.431724736795406E-002	1.7241571E-005	-3.8919237E-001	0
8.8484482E+003	2.696819952521764E+001	-3.9105502E-001	-4.419475817068748E-002	1.7282582E-005	-3.9119241E-001	0
8.9070879E+003	2.716819952016522E+001	-3.9304474E-001	-4.412718914536867E-002	1.7343960E-005	-3.9319238E-001	0
8.9812529E+003	2.736819951511279E+001	-3.9508304E-001	-4.398974606977402E-002	1.7379603E-005	-3.9519235E-001	0
9.0368564E+003	2.756819951006037E+001	-3.9700907E-001	-4.393220920740837E-002	1.7441485E-005	-3.9719239E-001	0
9.1117168E+003	2.776819950500794E+001	-3.9905331E-001	-4.379562429936990E-002	1.7476788E-005	-3.9919236E-001	0
9.1604609E+003	2.796819949995552E+001	-4.0101966E-001	-4.377723418444368E-002	1.7555532E-005	-4.0119237E-001	0
9.2371670E+003	2.816819949490309E+001	-4.0303484E-001	-4.363186498776583E-002	1.7585162E-005	-4.0319237E-001	0
9.2976504E+003	2.836819948985067E+001	-4.0498123E-001	-4.355737246185454E-002	1.7639919E-005	-4.0519240E-001	0
9.3823662E+003	2.858819948429300E+001	-4.0719745E-001	-4.340029121674625E-002	1.7672488E-005	-4.0739235E-001	0
9.4746777E+003	2.880819947873533E+001	-4.0945572E-001	-4.321579228587177E-002	1.7694952E-005	-4.0959239E-001	0
9.5419297E+003	2.900819947368291E+001	-4.1148451E-001	-4.312382548437138E-002	1.7744786E-005	-4.1159236E-001	0
9.6020098E+003	2.920819946863048E+001	-4.1349071E-001	-4.306293323703625E-002	1.7806124E-005	-4.1359237E-001	0
9.6602148E+003	2.940819946357806E+001	-4.1552484E-001	-4.301403907271295E-002	1.7873403E-005	-4.1559237E-001	0
9.7188066E+003	2.960819945852563E+001	-4.1745126E-001	-4.295293530533723E-002	1.7930757E-005	-4.1759241E-001	0
9.7933867E+003	2.980819945347321E+001	-4.1956633E-001	-4.284180235936008E-002	1.7974979E-005	-4.1959235E-001	0
9.8584648E+003	3.000819944842078E+001	-4.2142898E-001	-4.274793258074100E-002	1.8015218E-005	-4.2159238E-001	0
9.9163203E+003	3.020819944336836E+001	-4.2351264E-001	-4.270865004789501E-002	1.8087652E-005	-4.2359242E-001	0
9.9818740E+003	3.040819943831593E+001	-4.2548880E-001	-4.262614555449934E-002	1.8136947E-005	-4.2559236E-001	0
1.0035949E+004	3.060819943326351E+001	-4.2752773E-001	-4.259963058328053E-002	1.8212524E-005	-4.2759237E-001	0
1.0095575E+004	3.080819942821108E+001	-4.2947564E-001	-4.254097619770814E-002	1.8270313E-005	-4.2959240E-001	0
1.0161957E+004	3.100819942315866E+001	-4.3149674E-001	-4.246197355849896E-002	1.8322204E-005	-4.3159238E-001	0
1.0216471E+004	3.120819941810623E+001	-4.3347704E-001	-4.242923594810610E-002	1.8392100E-005	-4.3359238E-001	0
1.0281028E+004	3.140819941305381E+001	-4.3543983E-001	-4.235372210793675E-002	1.8442497E-005	-4.3559238E-001	0
1.0344133E+004	3.160819940800138E+001	-4.3748066E-001	-4.229263641397407E-002	1.8502211E-005	-4.3759239E-001	0
1.0408072E+004	3.180819940294896E+001	-4.3944210E-001	-4.222127801792544E-002	1.8553807E-005	-4.3959236E-001	0
1.0461435E+004	3.200819939789653E+001	-4.4143754E-001	-4.219665296524627E-002	1.8627186E-005	-4.4159240E-001	0
1.0535009E+004	3.220819939284411E+001	-4.4348839E-001	-4.209663340681433E-002	1.8669369E-005	-4.4359237E-001	0
1.0604118E+004	3.240819938779168E+001	-4.4549251E-001	-4.201127173560687E-002	1.8715707E-005	-4.4559240E-001	0
1.0654537E+004	3.260819938273926E+001	-4.4756013E-001	-4.200653051677683E-002	1.8800449E-005	-4.4759238E-001	0
1.0720338E+004	3.280819937768683E+001	-4.4950992E-001	-4.193057469937025E-002	1.8848210E-005	-4.4959235E-001	0
1.0773808E+004	3.300819937263441E+001	-4.5144486E-001	-4.190207294968770E-002	1.8916475E-005	-4.5159239E-001	0
1.0846149E+004	3.320819936758198E+001	-4.5352155E-001	-4.181405894543833E-002	1.8963578E-005	-4.5359239E-001	0
1.0895898E+004	3.340819936252956E+001	-4.5552659E-001	-4.180716327866719E-002	1.9044275E-005	-4.5559239E-001	0
1.0960712E+004	3.360819935747713E+001	-4.5741734E-001	-4.173244947362734E-002	1.9089146E-005	-4.5759240E-001	0
1.1032783E+004	3.380819935242471E+001	-4.5950532E-001	-4.164908455933981E-002	1.9137977E-005	-4.5959240E-001	0
1.1076688E+004	3.400819934737228E+001	-4.6146867E-001	-4.166125206096211E-002	1.9225363E-005	-4.6159235E-001	0
1.1146095E+004	3.420819934231986E+001	-4.6344754E-001	-4.157936531214079E-002	1.9269855E-005	-4.6359238E-001	0
1.1204593E+004	3.440819933726743E+001	-4.6548927E-001	-4.154450505076485E-002	1.9338520E-005	-4.6559241E-001	0
1.1258748E+004	3.460819933221501E+001	-4.6744797E-001	-4.151864594287846E-002	1.9407807E-005	-4.6759239E-001	0
1.1333235E+004	3.480819932716258E+001	-4.6950600E-001	-4.142735779043616E-002	1.9450394E-005	-4.6959236E-001	0
1.1389767E+004	3.500819932211016E+001	-4.7147575E-001	-4.139468036623681E-002	1.9516589E-005	-4.7159240E-001	0
1.1436066E+004	3.520819931705773E+001	-4.7343832E-001	-4.139870461187373E-002	1.9599733E-005	-4.7359237E-001	0
1.1505440E+004	3.540819931200531E+001	-4.7549438E-001	-4.132778681666849E-002	1.9651130E-005	-4.7559237E-001	0
1.1567100E+004	3.560819930695288E+001	-4.7749367E-001	-4.128032894261285E-002	1.9711097E-005	-4.7759241E-001	0
1.1622406E+004	3.580819930190046E+001	-4.7948465E-001	-4.125519450980937E-002	1.9781233E-005	-4.7959241E-001	0
1.1681484E+004	3.600819929684803E+001	-4.8147625E-001	-4.121704374243626E-002	1.9845027E-005	-4.8159236E-001	0
1.1747040E+004	3.620819929179561E+001	-4.8342985E-001	-4.115333140388444E-002	1.9894749E-005	-4.8359239E-001	0
1.1809103E+004	3.640819928674318E+001	-4.8547813E-001	-4.111050123685683E-002	1.9958250E-005	-4.8559242E-001	0
1.1856054E+004	3.660819928169076E+001	-4.8742497E-001	-4.111190515732953E-002	2.0038970E-005	-4.8759237E-001	0
1.1924272E+004	3.680819927663833E+001	-4.8945412E-001	-4.104687607833440E-002	2.0090563E-005	-4.8959237E-001	0
1.1993253E+004	3.700819927158591E+001	-4.9150223E-001	-4.098156012374027E-002	2.0142528E-005	-4.9159241E-001	0
1.2042797E+004	3.720819926653348E+001	-4.9348655E-001	-4.097773509402084E-002	2.0221962E-005	-4.9359244E-001	0
1.2105527E+004	3.740819926148106E+001	-4.9548545E-001	-4.093051228625810E-002	2.0280473E-005	-4.9559239E-001	0
1.2152000E+004	3.760819925642863E+001	-4.9750394E-001	-4.094008733692636E-002	2.0367854E-005	-4.9759236E-001	0
1.2224535E+004	3.780819925137621E+001	-4.9950957E-001	-4.086123104523987E-002	2.0410576E-005	-4.9959239E-001	0
1.2276747E+004	3.800819924632378E+001	-5.0144392E-001	-4.084501479559133E-002	2.0481484E-005	-5.0159234E-001	0
1.2345896E+004	3.820819924127136E+001	-5.0343853E-001	-4.077780217168817E-002	2.0529116E-005	-5.0359237E-001	0
1.2399609E+004	3.840819923621893E+001	-5.0545901E-001	-4.076410701700062E-002	2.0604586E-005	-5.0559247E-001	0
1.2471027E+004	3.860819923116651E+001	-5.0750005E-001	-4.069432669505063E-002	2.0652373E-005	-5.0759238E-001	0
1.2523676E+004	3.880819922611408E+001	-5.0948852E-001	-4.068202859708356E-002	2.0727026E-005	-5.0959235E-001	0
1.2579547E+004	3.900819922106166E+001	-5.1144677E-001	-4.065700941782469E-002	2.0793896E-005	-5.1159239E-001	0
1.2644579E+004	3.920819921600923E+001	-5.1343983E-001	-4.060552966313175E-002	2.0848496E-005	-5.1359236E-001	0
1.2702803E+004	3.940819921095681E+001	-5.1552719E-001	-4.058373437417234E-002	2.0922018E-005	-5.1559234E-001	0
1.2772324E+004	3.960819920590438E+001	-5.1749802E-001	-4.051713633816685E-002	2.0967538E-005	-5.1759237E-001	0
1.2827380E+004	3.980819920085196E+001	-5.1941258E-001	-4.049249082569317E-002	2.1032309E-005	-5.1959240E-001	0
1.2883073E+004	4.000819919579953E+001	-5.2147543E-001	-4.047756355605353E-002	2.1108055E-005	-5.2159238E-001	0
1.2947350E+004	4.020819919074711E+001	-5.2354157E-001	-4.043619611111515E-002	2.1170030E-005	-5.2359235E-001	0
1.2998592E+004	4.040819918569468E+001	-5.2549458E-001	-4.042703752160959E-002	2.1244188E-005	-5.2559239E-001	0
1.3060319E+004	4.060819918064226E+001	-5.2748066E-001	-4.038803682814623E-002	2.1303909E-005	-5.2759242E-001	0
1.3134453E+004	4.080819917558983E+001	-5.2950478E-001	-4.031418562104383E-002	2.1346554E-005	-5.2959239E-001	0
1.3182291E+004	4.100819917053741E+001	-5.3145117E-001	-4.031553787370407E-002	2.1425740E-005	-5.3159243E-001	0
1.3248506E+004	4.120819916548498E+001	-5.3342491E-001	-4.026302450591002E-002	2.1477301E-005	-5.3359240E-001	0
1.3305707E+004	4.140819916043256E+001	-5.3543121E-001	-4.024071955489508E-002	2.1546137E-005	-5.3559244E-001	0
1.3364532E+004	4.160819915538013E+001	-5.3751361E-001	-4.021941238878068E-002	2.1618482E-005	-5.3759235E-001	0
1.3427331E+004	4.180819915032771E+001	-5.3947550E-001	-4.017741731426094E-002	2.1674732E-005	-5.3959239E-001	0
1.3478241E+004	4.200819914527528E+001	-5.4151249E-001	-4.017679102569949E-002	2.1756234E-005	-5.4159242E-001	0
1.3535704E+004	4.220819914022286E+001	-5.4340333E-001	-4.014592249260037E-002	2.1815427E-005	-5.4359233E-001	0
1.3593688E+004	4.240819913517043E+001	-5.4541087E-001	-4.012236062753022E-002	2.1883172E-005	-5.4559243E-001	0
1.3657934E+004	4.260819913011801E+001	-5.4751259E-001	-4.008751439063674E-002	2.1948419E-005	-5.4759246E-001	0
1.3719226E+004	4.280819912506558E+001	-5.4950470E-001	-4.005362449320521E-002	2.2009655E-005	-5.4959244E-001	0
1.3776938E+004	4.300819912001316E+001	-5.5155396E-001	-4.003458505769852E-002	2.2081234E-005	-5.5159235E-001	0
1.3836462E+004	4.320819911496073E+001	-5.5345815E-001	-3.999997589387672E-002	2.2138312E-005	-5.5359238E-001	0
1.3901656E+004	4.340819910990831E+001	-5.5550647E-001	-3.995973256980463E-002	2.2197890E-005	-5.5559248E-001	0
1.3955815E+004	4.360819910485588E+001	-5.5742860E-001	-3.994238687427859E-002	2.2265029E-005	-5.5759233E-001	0
1.4019004E+004	4.380819909980346E+001	-5.5951411E-001	-3.991111729725942E-002	2.2330833E-005	-5.5959237E-001	0
1.4072207E+004	4.400819909475103E+001	-5.6139702E-001	-3.989402679362186E-002	2.2396387E-005	-5.6159246E-001	0
1.4128548E+004	4.420819908969861E+001	-5.6351554E-001	-3.988488809661764E-002	2.2475755E-005	-5.6359237E-001	0
1.4182639E+004	4.440819908464618E+001	-5.6547022E-001	-3.987059261873704E-002	2.2545633E-005	-5.6559241E-001	0
1.4243991E+004	4.460819907959376E+001	-5.6748009E-001	-3.983996343870738E-002	2.2608387E-005	-5.6759238E-001	0
1.4288155E+004	4.480819907454134E+001	-5.6941485E-001	-3.985223054221654E-002	2.2692451E-005	-5.6959248E-001	0
1.4354616E+004	4.500819906948891E+001	-5.7145733E-001	-3.981000435134174E-002	2.2749718E-005	-5.7159239E-001	0
1.4426256E+004	4.520819906443649E+001	-5.7349187E-001	-3.975334092013766E-002	2.2798218E-005	-5.7359236E-001	0
1.4475541E+004	4.540819905938406E+001	-5.7546413E-001	-3.975423918023280E-002	2.2877139E-005	-5.7559246E-001	0
1.4527533E+004	4.560819905433164E+001	-5.7743073E-001	-3.974733525008617E-002	2.2951333E-005	-5.7759231E-001	0
1.4606810E+004	4.580819904927921E+001	-5.7954139E-001	-3.967611093571408E-002	2.2993949E-005	-5.7959241E-001	0
1.4655817E+004	4.600819904422679E+001	-5.8149439E-001	-3.967669576827781E-002	2.3071776E-005	-5.8159244E-001	0
1.4710723E+004	4.620819903917436E+001	-5.8354497E-001	-3.966800124482664E-002	2.3148063E-005	-5.8359241E-001	0
1.4764121E+004	4.640819903412194E+001	-5.8540756E-001	-3.965068723274678E-002	2.3211813E-005	-5.8559239E-001	0
1.4826074E+004	4.660819902906951E+001	-5.8747935E-001	-3.962474239619490E-002	2.3278719E-005	-5.8759236E-001	0
1.4869298E+004	4.680819902401709E+001	-5.8943129E-001	-3.964082830529564E-002	2.3365545E-005	-5.8959246E-001	0
1.4931632E+004	4.700819901896466E+001	-5.9152138E-001	-3.961532173547351E-002	2.3433309E-005	-5.9159237E-001	0
1.4989617E+004	4.720819901391224E+001	-5.9349686E-001	-3.959386448994665E-002	2.3498835E-005	-5.9359235E-001	0
1.5043337E+004	4.740819900885981E+001	-5.9546536E-001	-3.958332962477945E-002	2.3570501E-005	-5.9559244E-001	0
1.5111316E+004	4.760819900380739E+001	-5.9747261E-001	-3.953809013971421E-002	2.3622926E-005	-5.9759235E-001	0
1.5155633E+004	4.780819899875496E+001	-5.9944087E-001	-3.955234844494160E-002	2.3709294E-005	-5.9959239E-001	0
1.5199543E+004	4.800819899370254E+001	-6.0144526E-001	-3.956995626210391E-002	2.3799163E-005	-6.0159236E-001	0
1.5268889E+004	4.820819898865011E+001	-6.0345405E-001	-3.952180639452094E-002	2.3849594E-005	-6.0359240E-001	0
1.5316221E+004	4.840819898359769E+001	-6.0543257E-001	-3.952884950433266E-002	2.3932052E-005	-6.0559237E-001	0
1.5365609E+004	4.860819897854526E+001	-6.0751265E-001	-3.953716625452108E-002	2.4019329E-005	-6.0759240E-001	0
1.5422874E+004	4.880819897349284E+001	-6.0943252E-001	-3.951484701293153E-002	2.4081633E-005	-6.0959244E-001	0
1.5473822E+004	4.900819896844041E+001	-6.1152107E-001	-3.951971611808440E-002	2.4167139E-005	-6.1159235E-001	0
1.5530662E+004	4.920819896338799E+001	-6.1350083E-001	-3.950255443030531E-002	2.4234851E-005	-6.1359239E-001	0
1.5584301E+004	4.940819895833556E+001	-6.1543405E-001	-3.949064306456523E-002	2.4303887E-005	-6.1559242E-001	0
1.5629972E+004	4.960819895328314E+001	-6.1741716E-001	-3.950213008985770E-002	2.4389294E-005	-6.1759239E-001	0
1.5677446E+004	4.980819894823071E+001	-6.1948961E-001	-3.951470140798544E-002	2.4478946E-005	-6.1959243E-001	0
1.5733861E+004	5.000819894317829E+001	-6.2152177E-001	-3.950217697777852E-002	2.4551464E-005	-6.2159240E-001	0
1.5776873E+004	5.020819893812586E+001	-6.2351871E-001	-3.952105776982306E-002	2.4642119E-005	-6.2359244E-001	0
1.5827946E+004	5.040819893307344E+001	-6.2546772E-001	-3.951666927410719E-002	2.4716401E-005	-6.2559241E-001	0
1.5877895E+004	5.060819892802101E+001	-6.2748182E-001	-3.951920903221301E-002	2.4797586E-005	-6.2759233E-001	0
1.5924977E+004	5.080819892296859E+001	-6.2949187E-001	-3.952859054148511E-002	2.4882926E-005	-6.2959242E-001	0
1.5974972E+004	5.100819891791616E+001	-6.3148344E-001	-3.952955052255527E-002	2.4962257E-005	-6.3159245E-001	0
1.6035137E+004	5.120819891286374E+001	-6.3348901E-001	-3.950630477444811E-002	2.5026809E-005	-6.3359237E-001	0
1.6077777E+004	5.140819890781131E+001	-6.3539642E-001	-3.952016627554339E-002	2.5110972E-005	-6.3559240E-001	0
1.6125720E+004	5.160819890275889E+001	-6.3749862E-001	-3.953303456308566E-002	2.5202255E-005	-6.3759249E-001	0
1.6163003E+004	5.180819889770646E+001	-6.3939518E-001	-3.955918217902521E-002	2.5293950E-005	-6.3959241E-001	0
1.6207308E+004	5.200819889265404E+001	-6.4153588E-001	-3.958312474410808E-002	2.5393994E-005	-6.4159238E-001	0
1.6247417E+004	5.220819888760161E+001	-6.4341909E-001	-3.960131525876145E-002	2.5480242E-005	-6.4359242E-001	0
1.6285174E+004	5.240819888254919E+001	-6.4547771E-001	-3.963591088646451E-002	2.5584097E-005	-6.4559239E-001	0
1.6333845E+004	5.260819887749676E+001	-6.4753193E-001	-3.964356974251926E-002	2.5670477E-005	-6.4759237E-001	0
1.6375104E+004	5.280819887244434E+001	-6.4953071E-001	-3.966574397285491E-002	2.5764119E-005	-6.4959240E-001	0
1.6404520E+004	5.300819886739191E+001	-6.5150076E-001	-3.971470960430662E-002	2.5874164E-005	-6.5159243E-001	0
1.6461543E+004	5.320819886233949E+001	-6.5349573E-001	-3.969832813993396E-002	2.5942687E-005	-6.5359235E-001	0
1.6503055E+004	5.340819885728706E+001	-6.5550345E-001	-3.972012677114856E-002	2.6036680E-005	-6.5559238E-001	0
1.6529715E+004	5.360819885223464E+001	-6.5747213E-001	-3.977516288034903E-002	2.6151061E-005	-6.5759242E-001	0
1.6564646E+004	5.380819884718221E+001	-6.5949088E-001	-3.981315808755059E-002	2.6256415E-005	-6.5959245E-001	0
1.6608768E+004	5.400819884212979E+001	-6.6151887E-001	-3.982949911647349E-002	2.6347965E-005	-6.6159236E-001	0
1.6626617E+004	5.420819883707736E+001	-6.6348922E-001	-3.990524297061665E-002	2.6476699E-005	-6.6359240E-001	0
1.6674621E+004	5.440819883202494E+001	-6.6546750E-001	-3.990900202927794E-002	2.6558144E-005	-6.6559243E-001	0
1.6706865E+004	5.460819882697251E+001	-6.6748178E-001	-3.995254268587825E-002	2.6667594E-005	-6.6759235E-001	0
1.6750836E+004	5.480819882192009E+001	-6.6953111E-001	-3.997000970464826E-002	2.6761165E-005	-6.6959238E-001	0
1.6768234E+004	5.500819881686766E+001	-6.7145270E-001	-4.004313812386283E-002	2.6887074E-005	-6.7159247E-001	0
1.6801732E+004	5.520819881181524E+001	-6.7351460E-001	-4.008601998087742E-002	2.6998519E-005	-6.7359239E-001	0
1.6842615E+004	5.540819880676281E+001	-6.7535532E-001	-4.009800850621770E-002	2.7080403E-005	-6.7559236E-001	0
1.6870715E+004	5.560819880171039E+001	-6.7747676E-001	-4.015696695277171E-002	2.7205411E-005	-6.7759240E-001	0
1.6905416E+004	5.580819879665796E+001	-6.7946011E-001	-4.019185925423135E-002	2.7308764E-005	-6.7959243E-001	0
1.6928334E+004	5.600819879160554E+001	-6.8147838E-001	-4.025667241527420E-002	2.7434053E-005	-6.8159235E-001	0
1.6953387E+004	5.620819878655311E+001	-6.8345332E-001	-4.031367710070333E-002	2.7552516E-005	-6.8359238E-001	0
1.6964740E+004	5.640819878150069E+001	-6.8544596E-001	-4.040415172387013E-002	2.7694863E-005	-6.8559247E-001	0
1.7029270E+004	5.660819877644826E+001	-6.8741953E-001	-4.036694012799812E-002	2.7749024E-005	-6.8759239E-001	0
1.7047672E+004	5.680819877139584E+001	-6.8947142E-001	-4.044373077604413E-002	2.7884797E-005	-6.8959242E-001	0
1.7083162E+004	5.700819876634341E+001	-6.9146729E-001	-4.047653720927435E-002	2.7988201E-005	-6.9159240E-001	0
1.7107885E+004	5.720819876129099E+001	-6.9340414E-001	-4.053125847389710E-002	2.8104543E-005	-6.9359243E-001	0
1.7126719E+004	5.740819875623856E+001	-6.9553965E-001	-4.061138000821829E-002	2.8246825E-005	-6.9559240E-001	0
1.7158107E+004	5.760819875118614E+001	-6.9749558E-001	-4.065107997367479E-002	2.8353948E-005	-6.9759238E-001	0
1.7172646E+004	5.780819874613371E+001	-6.9953799E-001	-4.073559448424960E-002	2.8496095E-005	-6.9959253E-001	0
1.7221461E+004	5.800819874108129E+001	-7.0150322E-001	-4.073424655241917E-002	2.8575205E-005	-7.0159233E-001	0
1.7241248E+004	5.820819873602886E+001	-7.0345664E-001	-4.080079796105229E-002	2.8701592E-005	-7.0359242E-001	0
1.7273689E+004	5.840819873097644E+001	-7.0550174E-001	-4.084256419710297E-002	2.8814500E-005	-7.0559245E-001	0
1.7310688E+004	5.860819872592401E+001	-7.0751417E-001	-4.087152280908091E-002	2.8917182E-005	-7.0759237E-001	0
1.7350055E+004	5.880819872087159E+001	-7.0958698E-001	-4.089825505299960E-002	2.9020870E-005	-7.0959246E-001	0
1.7362686E+004	5.900819871581916E+001	-7.1139997E-001	-4.097292307302858E-002	2.9148136E-005	-7.1159244E-001	0
1.7417008E+004	5.920819871076674E+001	-7.1350187E-001	-4.096581156565138E-002	2.9229182E-005	-7.1359253E-001	0
1.7443525E+004	5.940819870571431E+001	-7.1543711E-001	-4.101448048638984E-002	2.9343282E-005	-7.1559238E-001	0
1.7483385E+004	5.960819870066189E+001	-7.1749222E-001	-4.103851800572234E-002	2.9444818E-005	-7.1759236E-001	0
1.7513496E+004	5.980819869560946E+001	-7.1945423E-001	-4.107998691888875E-002	2.9555171E-005	-7.1959245E-001	0
1.7524461E+004	6.000819869055704E+001	-7.2148257E-001	-4.117002965097871E-002	2.9703458E-005	-7.2159243E-001	0
1.7585441E+004	6.020819868550461E+001	-7.2341520E-001	-4.113716338027290E-002	2.9759249E-005	-7.2359240E-001	0
1.7580398E+004	6.040819868045219E+001	-7.2548664E-001	-4.126679098134312E-002	2.9938505E-005	-7.2559243E-001	0
1.7668473E+004	6.060819867539976E+001	-7.2752601E-001	-4.117651010099010E-002	2.9956982E-005	-7.2759247E-001	0
1.7659863E+004	6.080819867034734E+001	-7.2952598E-001	-4.130983281465639E-002	3.0136596E-005	-7.2959238E-001	0
1.7689746E+004	6.100819866529491E+001	-7.3147172E-001	-4.135003987707148E-002	3.0246385E-005	-7.3159236E-001	0
1.7744549E+004	6.120819866024249E+001	-7.3347485E-001	-4.133522176672641E-002	3.0318346E-005	-7.3359251E-001	0
1.7757965E+004	6.140819865519006E+001	-7.3549217E-001	-4.141759199049128E-002	3.0462315E-005	-7.3559242E-001	0
1.7837836E+004	6.160819865013764E+001	-7.3739022E-001	-4.133854826934460E-002	3.0482641E-005	-7.3759240E-001	0
1.7891236E+004	6.180819864508521E+001	-7.3951524E-001	-4.133393975526996E-002	3.0567080E-005	-7.3959243E-001	0
1.7898674E+004	6.200819864003279E+001	-7.4141628E-001	-4.142297084402097E-002	3.0711664E-005	-7.4159247E-001	0
1.7883756E+004	6.220819863498036E+001	-7.4345511E-001	-4.157153125472221E-002	3.0906569E-005	-7.4359244E-001	0
1.7976152E+004	6.240819862992794E+001	-7.4548250E-001	-4.147063655057576E-002	3.0915635E-005	-7.4559242E-001	0
1.7995582E+004	6.260819862487551E+001	-7.4750739E-001	-4.153838284950384E-002	3.1050247E-005	-7.4759251E-001	0
1.8032736E+004	6.280819861982309E+001	-7.4949181E-001	-4.156284295830259E-002	3.1151012E-005	-7.4959248E-001	0
1.8096000E+004	6.300819861477066E+001	-7.5148576E-001	-4.152772858735726E-002	3.1207495E-005	-7.5159234E-001	0
1.8099447E+004	6.320819860971824E+001	-7.5349879E-001	-4.163103976472782E-002	3.1368938E-005	-7.5359243E-001	0
1.8172461E+004	6.340819860466581E+001	-7.5551730E-001	-4.157484976507186E-002	3.1410520E-005	-7.5559241E-001	0
1.8223111E+004	6.360819859961339E+001	-7.5752187E-001	-4.156929592796230E-002	3.1489650E-005	-7.5759238E-001	0
1.8257313E+004	6.380819859456096E+001	-7.5949556E-001	-4.159952616878670E-002	3.1594656E-005	-7.5959241E-001	0
1.8280926E+004	6.400819858950854E+001	-7.6147008E-001	-4.165380471148415E-002	3.1718126E-005	-7.6159245E-001	0
1.8321867E+004	6.420819858445611E+001	-7.6346999E-001	-4.166987852342285E-002	3.1813703E-005	-7.6359242E-001	0
1.8420539E+004	6.440819857940369E+001	-7.6535630E-001	-4.154907135940175E-002	3.1799842E-005	-7.6559240E-001	0
1.8407502E+004	6.460819857435126E+001	-7.6747078E-001	-4.169336742116458E-002	3.1998443E-005	-7.6759249E-001	0
1.8435650E+004	6.480819856929884E+001	-7.6951212E-001	-4.174043608342584E-002	3.2119773E-005	-7.6959240E-001	0
1.8514938E+004	6.500819856424641E+001	-7.7144128E-001	-4.166588594856113E-002	3.2142783E-005	-7.7159238E-001	0
1.8526561E+004	6.520819855919399E+001	-7.7345222E-001	-4.174828884147457E-002	3.2290307E-005	-7.7359247E-001	0
1.8607715E+004	6.540819855414156E+001	-7.7549392E-001	-4.167593368265765E-002	3.2319433E-005	-7.7559245E-001	0
1.8671492E+004	6.560819854908914E+001	-7.7745837E-001	-4.163879166064730E-002	3.2372427E-005	-7.7759230E-001	0
1.8687047E+004	6.580819854403671E+001	-7.7944386E-001	-4.171038356497719E-002	3.2510903E-005	-7.7959239E-001	0
1.8728654E+004	6.600819853898429E+001	-7.8148192E-001	-4.172653951439287E-002	3.2608536E-005	-7.8159249E-001	0
1.8741633E+004	6.620819853393186E+001	-7.8344429E-001	-4.180235125582721E-002	3.2749813E-005	-7.8359252E-001	0
1.8813742E+004	6.640819852887944E+001	-7.8548723E-001	-4.175071731445223E-002	3.2794655E-005	-7.8559244E-001	0
1.8823424E+004	6.660819852382701E+001	-7.8753060E-001	-4.183779663644952E-002	3.2948545E-005	-7.8759247E-001	0
1.8935039E+004	6.680819851877459E+001	-7.8943872E-001	-4.169195261625525E-002	3.2913242E-005	-7.8959250E-001	0
1.8949785E+004	6.700819851372216E+001	-7.9150337E-001	-4.176846145501244E-002	3.3059878E-005	-7.9159236E-001	0
1.8997703E+004	6.720819850866974E+001	-7.9340976E-001	-4.176345572737206E-002	3.3135533E-005	-7.9359245E-001	0
1.9056395E+004	6.740819850361731E+001	-7.9551488E-001	-4.174529819969963E-002	3.3209006E-005	-7.9559255E-001	0
1.9099223E+004	6.760819849856489E+001	-7.9741561E-001	-4.175120894665124E-002	3.3293065E-005	-7.9759240E-001	0
1.9149496E+004	6.780819849351246E+001	-7.9949498E-001	-4.175018248530527E-002	3.3379063E-005	-7.9959249E-001	0
1.9190963E+004	6.800819848846004E+001	-8.0145687E-001	-4.176220362963762E-002	3.3470606E-005	-8.0159247E-001	0
1.9240416E+004	6.820819848340761E+001	-8.0341804E-001	-4.175679286775058E-002	3.3548160E-005	-8.0359244E-001	0
1.9215145E+004	6.840819847835519E+001	-8.0546397E-001	-4.191818467342411E-002	3.3763587E-005	-8.0559242E-001	0
1.9244432E+004	6.860819847330276E+001	-8.0746263E-001	-4.195824983268939E-002	3.3879718E-005	-8.0759245E-001	0
1.9300910E+004	6.880819846825034E+001	-8.0950314E-001	-4.194118873434799E-002	3.3951525E-005	-8.0959249E-001	0
1.9376301E+004	6.900819846319791E+001	-8.1142354E-001	-4.187711345162795E-002	3.3980075E-005	-8.1159246E-001	0
1.9357799E+004	6.920819845814549E+001	-8.1345379E-001	-4.202201926332100E-002	3.4182973E-005	-8.1359237E-001	0
1.9355480E+004	6.940819845309306E+001	-8.1548721E-001	-4.213210938724354E-002	3.4358196E-005	-8.1559253E-001	0
1.9336311E+004	6.960819844804064E+001	-8.1744725E-001	-4.227524538325939E-002	3.4557783E-005	-8.1759250E-001	0
1.9387193E+004	6.980819844298821E+001	-8.1945109E-001	-4.226765053055317E-002	3.4636272E-005	-8.1959242E-001	0
1.9377582E+004	7.000819843793579E+001	-8.2153040E-001	-4.239591957220928E-002	3.4829536E-005	-8.2159245E-001	0
1.9344145E+004	7.020819843288336E+001	-8.2348996E-001	-4.257050161846521E-002	3.5056382E-005	-8.2359248E-001	0
1.9349584E+004	7.040819842783094E+001	-8.2546985E-001	-4.266085576682077E-002	3.5215249E-005	-8.2559246E-001	0
1.9391215E+004	7.060819842277851E+001	-8.2740653E-001	-4.266914299740976E-002	3.5304729E-005	-8.2759243E-001	0
1.9326686E+004	7.080819841772609E+001	-8.2949895E-001	-4.291987418706031E-002	3.5601992E-005	-8.2959253E-001	0
1.9326693E+004	7.100819841267366E+001	-8.3142543E-001	-4.301953991894064E-002	3.5767538E-005	-8.3159238E-001	0
1.9224521E+004	7.120819840762124E+001	-8.3345926E-001	-4.335396748686596E-002	3.6133766E-005	-8.3359247E-001	0
1.9225314E+004	7.140819840256881E+001	-8.3556688E-001	-4.346180398095312E-002	3.6315243E-005	-8.3559245E-001	0
1.9172430E+004	7.160819839751639E+001	-8.3742124E-001	-4.367840902292763E-002	3.6577228E-005	-8.3759242E-001	0
1.9177008E+004	7.180819839246396E+001	-8.3951831E-001	-4.377733528494719E-002	3.6751873E-005	-8.3959252E-001	0
1.9069852E+004	7.200819838741154E+001	-8.4139681E-001	-4.412183380641399E-002	3.7123969E-005	-8.4159243E-001	0
1.8964586E+004	7.220819838235911E+001	-8.4350514E-001	-4.447791015026067E-002	3.7517348E-005	-8.4359258E-001	0
1.8877213E+004	7.240819837730669E+001	-8.4541076E-001	-4.478472327843086E-002	3.7861486E-005	-8.4559244E-001	0
1.8782693E+004	7.260819837225426E+001	-8.4752423E-001	-4.512261245779846E-002	3.8242506E-005	-8.4759235E-001	0
1.8637900E+004	7.280819836720184E+001	-8.4952784E-001	-4.558066396404881E-002	3.8722043E-005	-8.4959251E-001	0
1.8446117E+004	7.300819836214941E+001	-8.5142744E-001	-4.615754467464761E-002	3.9299801E-005	-8.5159248E-001	0
1.8224813E+004	7.320819835709699E+001	-8.5338575E-001	-4.682548721257558E-002	3.9960203E-005	-8.5359246E-001	0
1.8049693E+004	7.340819835204456E+001	-8.5545242E-001	-4.739429229313985E-002	4.0543560E-005	-8.5559249E-001	0
1.7701564E+004	7.360819834699214E+001	-8.5754806E-001	-4.844475952726779E-002	4.1543710E-005	-8.5759246E-001	0
1.7387070E+004	7.380819834193971E+001	-8.5946447E-001	-4.943123850929218E-002	4.2484393E-005	-8.5959244E-001	0
1.6979121E+004	7.400819833688729E+001	-8.6146635E-001	-5.073680454662377E-002	4.3708049E-005	-8.6159241E-001	0
1.6433596E+004	7.420819833183486E+001	-8.6341441E-001	-5.253959359239996E-002	4.5363442E-005	-8.6359251E-001	0
1.5980890E+004	7.440819832678244E+001	-8.6546099E-001	-5.415599648587288E-002	4.6869904E-005	-8.6559248E-001	0
1.5303374E+004	7.460819832173001E+001	-8.6747861E-001	-5.668544899165417E-002	4.9173414E-005	-8.6759245E-001	0
1.4524905E+004	7.480819831667759E+001	-8.6955881E-001	-5.986674729937436E-002	5.2057658E-005	-8.6959243E-001	0
1.3779088E+004	7.500819831162516E+001	-8.7149173E-001	-6.324741884468388E-002	5.5119603E-005	-8.7159240E-001	0
1.2928031E+004	7.520819830657274E+001	-8.7356097E-001	-6.757107343579583E-002	5.9027450E-005	-8.7359250E-001	0
1.1564428E+004	7.541819830126769E+001	-8.7553555E-001	-7.570937206136696E-002	6.6286244E-005	-8.7569249E-001	0
1.0464888E+004	7.562819829596265E+001	-8.7764353E-001	-8.386554566102178E-002	7.3604053E-005	-8.7779248E-001	0
9.7765098E+003	7.582819829091022E+001	-8.7968159E-001	-8.997910202780757E-002	7.9152960E-005	-8.7979245E-001	0
9.0901533E+003	7.602819828585780E+001	-8.8167316E-001	-9.699210880246101E-002	8.5515341E-005	-8.8179243E-001	0
8.4597646E+003	7.622819828080537E+001	-8.8367343E-001	-1.044560336030584E-001	9.2305025E-005	-8.8379252E-001	0
7.8626743E+003	7.642819827575295E+001	-8.8564825E-001	-1.126395716055244E-001	9.9759040E-005	-8.8579237E-001	0
7.3359170E+003	7.662819827070052E+001	-8.8768899E-001	-1.210058692699116E-001	1.0741558E-004	-8.8779247E-001	0
6.8600088E+003	7.682819826564810E+001	-8.8964021E-001	-1.296849991627837E-001	1.1537299E-004	-8.8979244E-001	0
6.4371538E+003	7.702819826059567E+001	-8.9166105E-001	-1.385179060361352E-001	1.2351102E-004	-8.9179242E-001	0
6.0817622E+003	7.722819825554325E+001	-8.9362842E-001	-1.469357724083988E-001	1.3130598E-004	-8.9379251E-001	0
5.7493457E+003	7.742819825049082E+001	-8.9564681E-001	-1.557823842087267E-001	1.3952599E-004	-8.9579248E-001	0
5.4852666E+003	7.762819824543840E+001	-8.9764720E-001	-1.636469561971992E-001	1.4689723E-004	-8.9779258E-001	0
5.3152886E+003	7.782819824038597E+001	-8.9965767E-001	-1.692584854119836E-001	1.5227469E-004	-8.9979243E-001	0
5.1894995E+003	7.802819823533355E+001	-9.0163904E-001	-1.737429668256789E-001	1.5665345E-004	-9.0179241E-001	0
5.0961865E+003	7.822819823028112E+001	-9.0367818E-001	-1.773243991905177E-001	1.6024419E-004	-9.0379250E-001	0
5.0219312E+003	7.842819822522870E+001	-9.0567750E-001	-1.803444665455411E-001	1.6333393E-004	-9.0579247E-001	0
4.9383525E+003	7.862819822017627E+001	-9.0771914E-001	-1.838101213586736E-001	1.6684797E-004	-9.0779245E-001	0
4.8220986E+003	7.882819821512385E+001	-9.0965676E-001	-1.886433254369879E-001	1.7160068E-004	-9.0979248E-001	0
4.6668921E+003	7.902819821007142E+001	-9.1169238E-001	-1.953532154336068E-001	1.7810204E-004	-9.1179252E-001	0
4.4608174E+003	7.922819820501900E+001	-9.1363847E-001	-2.048141367885533E-001	1.8712608E-004	-9.1379249E-001	0
4.2027349E+003	7.942819819996657E+001	-9.1566938E-001	-2.178746587903049E-001	1.9950116E-004	-9.1579241E-001	0
3.9015635E+003	7.962819819491415E+001	-9.1765040E-001	-2.352006801608910E-001	2.1583200E-004	-9.1779250E-001	0
3.5707234E+003	7.982819818986172E+001	-9.1970330E-001	-2.575677865208066E-001	2.3688594E-004	-9.1979247E-001	0
3.2426558E+003	8.002819818480930E+001	-9.2172688E-001	-2.842506205603954E-001	2.6200144E-004	-9.2179245E-001	0
2.9188787E+003	8.022819817975687E+001	-9.2367578E-001	-3.164488411679560E-001	2.9229614E-004	-9.2379254E-001	0
2.5722708E+003	8.042819817470445E+001	-9.2565995E-001	-3.598610240915416E-001	3.3310894E-004	-9.2579240E-001	0
2.2978860E+003	8.062819816965202E+001	-9.2766887E-001	-4.037053376803712E-001	3.7450486E-004	-9.2779249E-001	0
2.0595942E+003	8.082819816459960E+001	-9.2969936E-001	-4.513992615753692E-001	4.1966559E-004	-9.2979246E-001	0
1.8426025E+003	8.102819815954717E+001	-9.3163973E-001	-5.056107813733188E-001	4.7104710E-004	-9.3179256E-001	0
1.6037939E+003	8.122819815449475E+001	-9.3367356E-001	-5.821655349691879E-001	5.4355257E-004	-9.3379253E-001	0
1.4409375E+003	8.142819814944232E+001	-9.3570977E-001	-6.493756849183585E-001	6.0762715E-004	-9.3579245E-001	0
1.2738429E+003	8.162819814438990E+001	-9.3767852E-001	-7.361021917440063E-001	6.9022720E-004	-9.3779248E-001	0
1.1329565E+003	8.182819813933747E+001	-9.3966901E-001	-8.293954920944486E-001	7.7935721E-004	-9.3979257E-001	0
1.0063849E+003	8.202819813428505E+001	-9.4168323E-001	-9.357088440839139E-001	8.8114134E-004	-9.4179243E-001	0
8.9572626E+002	8.223819812898000E+001	-9.4375914E-001	-1.053624507271319E+000	9.9436776E-004	-9.4389248E-001	0
7.8863202E+002	8.244819812367496E+001	-9.4590360E-001	-1.199423230458013E+000	1.1345388E-003	-9.4599241E-001	0
7.0540546E+002	8.264819811862253E+001	-9.4785136E-001	-1.343697176557751E+000	1.2736252E-003	-9.4799250E-001	0
6.3283490E+002	8.284819811357011E+001	-9.4986391E-001	-1.500966434052343E+000	1.4257139E-003	-9.4999248E-001	0
5.7014984E+002	8.304819810851768E+001	-9.5185536E-001	-1.669482897519401E+000	1.5891063E-003	-9.5199245E-001	0
5.1267999E+002	8.324819810346526E+001	-9.5389694E-001	-1.860608966205941E+000	1.7748292E-003	-9.5399255E-001	0
4.6225238E+002	8.344819809841283E+001	-9.5585591E-001	-2.067822539042737E+000	1.9765403E-003	-9.5599246E-001	0
4.1810190E+002	8.364819809336041E+001	-9.5788503E-001	-2.291032523795321E+000	2.1945457E-003	-9.5799249E-001	0
3.8035095E+002	8.384819808830798E+001	-9.5986068E-001	-2.523618507192666E+000	2.4223223E-003	-9.5999247E-001	0
3.4615308E+002	8.404819808325556E+001	-9.6186358E-001	-2.778723162064622E+000	2.6727526E-003	-9.6199244E-001	0
3.1601648E+002	8.424819807820313E+001	-9.6386862E-001	-3.050058157299386E+000	2.9398554E-003	-9.6399248E-001	0
2.8971198E+002	8.444819807315071E+001	-9.6589774E-001	-3.333993308837449E+000	3.2202967E-003	-9.6599251E-001	0
2.6561536E+002	8.464819806809828E+001	-9.6789539E-001	-3.643973608135914E+000	3.5269852E-003	-9.6799248E-001	0
2.4455574E+002	8.484819806304586E+001	-9.6989834E-001	-3.965960278532671E+000	3.8465783E-003	-9.6999240E-001	0
2.2659087E+002	8.504819805799343E+001	-9.7186655E-001	-4.289080954395459E+000	4.1684145E-003	-9.7199249E-001	0
2.0975684E+002	8.524819805294101E+001	-9.7381616E-001	-4.642595726346208E+000	4.5210347E-003	-9.7399247E-001	0
1.9465939E+002	8.544819804788858E+001	-9.7580504E-001	-5.012884261724352E+000	4.8915977E-003	-9.7599244E-001	0
1.8124306E+002	8.564819804283616E+001	-9.7785485E-001	-5.395268017776708E+000	5.2757892E-003	-9.7799253E-001	0
1.6927312E+002	8.584819803778373E+001	-9.7984552E-001	-5.788547807303445E+000	5.6718825E-003	-9.7999239E-001	0
1.5840222E+002	8.604819803273131E+001	-9.8186642E-001	-6.198564828793749E+000	6.0861628E-003	-9.8199248E-001	0
1.4842720E+002	8.624819802767888E+001	-9.8379892E-001	-6.628158066548476E+000	6.5207747E-003	-9.8399246E-001	0
1.3959485E+002	8.644819802262646E+001	-9.8590881E-001	-7.062644806984039E+000	6.9631236E-003	-9.8599255E-001	0
1.3136310E+002	8.664819801757403E+001	-9.8787618E-001	-7.520195558295484E+000	7.4290219E-003	-9.8799253E-001	0
1.2405821E+002	8.684819801252161E+001	-9.8988706E-001	-7.979214222860978E+000	7.8985207E-003	-9.8999244E-001	0
1.1714220E+002	8.704819800746918E+001	-9.9188966E-001	-8.467398644101877E+000	8.3987247E-003	-9.9199247E-001	0
1.1098339E+002	8.724819800241676E+001	-9.9388355E-001	-8.955245857538820E+000	8.9004720E-003	-9.9399239E-001	0
1.0534846E+002	8.744819799736433E+001	-9.9585682E-001	-9.452979221568370E+000	9.4138142E-003	-9.9599236E-001	0
1.0005518E+002	8.764819799231191E+001	-9.9787992E-001	-9.973296266632033E+000	9.9521521E-003	-9.9799246E-001	0
9.5186363E+001	8.784819798725948E+001	-9.9990398E-001	-1.050469758545729E+001	1.0503689E-002	-9.9999249E-001	0
9.0279770E+001	8.805819798195444E+001	-1.0019534E+000	-1.109831552876508E+001	1.1119994E-002	-1.0020926E+000	0
8.5773041E+001	8.826819797664939E+001	-1.0040913E+000	-1.170637405689068E+001	1.1754268E-002	-1.0041925E+000	0
8.1983040E+001	8.846819797159696E+001	-1.0060480E+000	-1.227141524327584E+001	1.2345633E-002	-1.0061924E+000	0
7.8396408E+001	8.866819796654454E+001	-1.0080825E+000	-1.285878438095392E+001	1.2962716E-002	-1.0081924E+000	0
7.5063499E+001	8.886819796149211E+001	-1.0100750E+000	-1.345627367523525E+001	1.3591846E-002	-1.0101925E+000	0
7.1926254E+001	8.906819795643969E+001	-1.0121040E+000	-1.407141324898009E+001	1.4241735E-002	-1.0121925E+000	0
6.8965271E+001	8.926819795138726E+001	-1.0140746E+000	-1.470413310511581E+001	1.4911087E-002	-1.0141925E+000	0
6.6203072E+001	8.946819794633484E+001	-1.0161099E+000	-1.534838041264447E+001	1.5595642E-002	-1.0161924E+000	0
6.3663921E+001	8.966819794128241E+001	-1.0180748E+000	-1.599139207277165E+001	1.6280433E-002	-1.0181925E+000	0
6.1219482E+001	8.986819793622999E+001	-1.0201355E+000	-1.666357627315048E+001	1.6999107E-002	-1.0201925E+000	0
5.8955948E+001	9.006819793117756E+001	-1.0221200E+000	-1.733701276738628E+001	1.7720507E-002	-1.0221925E+000	0
5.6798817E+001	9.026819792612514E+001	-1.0240901E+000	-1.803013001534407E+001	1.8464476E-002	-1.0241925E+000	0
5.4774216E+001	9.046819792107272E+001	-1.0260708E+000	-1.873273409575290E+001	1.9221112E-002	-1.0261925E+000	0
5.2874187E+001	9.066819791602029E+001	-1.0281196E+000	-1.944464066753039E+001	1.9991415E-002	-1.0281924E+000	0
5.1077400E+001	9.086819791096787E+001	-1.0300859E+000	-2.016715606040155E+001	2.0773904E-002	-1.0301924E+000	0
4.9420628E+001	9.106819790591544E+001	-1.0320945E+000	-2.088388007622456E+001	2.1554137E-002	-1.0321925E+000	0
4.7833191E+001	9.126819790086302E+001	-1.0340776E+000	-2.161841178089047E+001	2.2355117E-002	-1.0341924E+000	0
4.6342632E+001	9.146819789581059E+001	-1.0360943E+000	-2.235725984335491E+001	2.3164229E-002	-1.0361924E+000	0
4.4939342E+001	9.166819789075817E+001	-1.0381020E+000	-2.310007214938173E+001	2.3980232E-002	-1.0381924E+000	0
4.3587978E+001	9.186819788570574E+001	-1.0400691E+000	-2.386137603361858E+001	2.4817480E-002	-1.0401924E+000	0
4.2289154E+001	9.206819788065332E+001	-1.0421083E+000	-2.464244947519990E+001	2.5680101E-002	-1.0421925E+000	0
4.1055748E+001	9.226819787560089E+001	-1.0440937E+000	-2.543112282012316E+001	2.6552476E-002	-1.0441926E+000	0
3.9885490E+001	9.246819787054847E+001	-1.0460862E+000	-2.622723637903096E+001	2.7435949E-002	-1.0461925E+000	0
3.8784920E+001	9.266819786549604E+001	-1.0481373E+000	-2.702435270296473E+001	2.8325232E-002	-1.0481925E+000	0
3.7745949E+001	9.286819786044362E+001	-1.0501041E+000	-2.782031511476521E+001	2.9214228E-002	-1.0501924E+000	0
3.6767879E+001	9.306819785539119E+001	-1.0521190E+000	-2.861516846848178E+001	3.0106563E-002	-1.0521924E+000	0
3.5852131E+001	9.326819785033877E+001	-1.0541290E+000	-2.940212922842329E+001	3.0993637E-002	-1.0541925E+000	0
3.4938339E+001	9.346819784528634E+001	-1.0560782E+000	-3.022691325508809E+001	3.1921983E-002	-1.0561924E+000	0
3.4042110E+001	9.366819784023392E+001	-1.0580678E+000	-3.108114692494439E+001	3.2885961E-002	-1.0581925E+000	0
3.3207287E+001	9.386819783518149E+001	-1.0600986E+000	-3.192367689706856E+001	3.3842247E-002	-1.0601925E+000	0
3.2361221E+001	9.406819783012907E+001	-1.0620879E+000	-3.281977156176316E+001	3.4857482E-002	-1.0621926E+000	0
3.1499758E+001	9.426819782507664E+001	-1.0640867E+000	-3.378078850434756E+001	3.5945687E-002	-1.0641925E+000	0
3.0709698E+001	9.446819782002422E+001	-1.0660949E+000	-3.471525215372725E+001	3.7009753E-002	-1.0661924E+000	0
2.9915934E+001	9.466819781497179E+001	-1.0681493E+000	-3.570502982388268E+001	3.8138304E-002	-1.0681925E+000	0
2.9140310E+001	9.486819780991937E+001	-1.0700924E+000	-3.672206774374274E+001	3.9296009E-002	-1.0701925E+000	0
2.8393438E+001	9.506819780486694E+001	-1.0721104E+000	-3.775909116992597E+001	4.0481914E-002	-1.0721924E+000	0
2.7716612E+001	9.526819779981452E+001	-1.0741210E+000	-3.875369146054027E+001	4.1626155E-002	-1.0741925E+000	0
2.6986067E+001	9.546819779476209E+001	-1.0760870E+000	-3.987565171150936E+001	4.2909671E-002	-1.0761925E+000	0
2.6332226E+001	9.566819778970967E+001	-1.0781307E+000	-4.094339477421204E+001	4.4142332E-002	-1.0781925E+000	0
2.5769659E+001	9.586819778465724E+001	-1.0801280E+000	-4.191471594071993E+001	4.5273256E-002	-1.0801924E+000	0
2.5136190E+001	9.606819777960482E+001	-1.0821238E+000	-4.305042766875965E+001	4.6585891E-002	-1.0821925E+000	0
2.4466084E+001	9.626819777455239E+001	-1.0841180E+000	-4.431105739135052E+001	4.8038416E-002	-1.0841925E+000	0
2.3876806E+001	9.646819776949997E+001	-1.0861490E+000	-4.548970965355147E+001	4.9408603E-002	-1.0861925E+000	0
2.3284195E+001	9.666819776444754E+001	-1.0880806E+000	-4.673043731686204E+001	5.0846484E-002	-1.0881925E+000	0
2.2646666E+001	9.686819775939512E+001	-1.0901026E+000	-4.813523337927541E+001	5.2472342E-002	-1.0901924E+000	0
2.2102955E+001	9.706819775434269E+001	-1.0920808E+000	-4.940881679766301E+001	5.3958423E-002	-1.0921925E+000	0
2.1514545E+001	9.726819774929027E+001	-1.0941209E+000	-5.085493699979929E+001	5.5641446E-002	-1.0941925E+000	0
2.1018597E+001	9.746819774423784E+001	-1.0961680E+000	-5.215229534616287E+001	5.7167679E-002	-1.0961925E+000	0
2.0525839E+001	9.766819773918542E+001	-1.0981094E+000	-5.349888063558365E+001	5.8747623E-002	-1.0981925E+000	0
1.9742126E+001	9.786819773413299E+001	-1.1001383E+000	-5.572542071937164E+001	6.1305668E-002	-1.1001924E+000	0
1.9108011E+001	9.806819772908057E+001	-1.1021038E+000	-5.767758179575968E+001	6.3566685E-002	-1.1021925E+000	0
1.8664429E+001	9.826819772402814E+001	-1.1041423E+000	-5.915757517587554E+001	6.5318383E-002	-1.1041925E+000	0
1.8139679E+001	9.846819771897572E+001	-1.1061305E+000	-6.097850092468371E+001	6.7450181E-002	-1.1061925E+000	0
1.7530266E+001	9.866819771392329E+001	-1.1081542E+000	-6.321376871522040E+001	7.0050605E-002	-1.1081924E+000	0
1.7015970E+001	9.886819770887087E+001	-1.1100986E+000	-6.523863203779646E+001	7.2421312E-002	-1.1101925E+000	0
1.6618387E+001	9.906819770381844E+001	-1.1120999E+000	-6.691984587894243E+001	7.4421555E-002	-1.1121925E+000	0
1.6100937E+001	9.926819769876602E+001	-1.1141169E+000	-6.919578036429380E+001	7.7092186E-002	-1.1141925E+000	0
1.5502343E+001	9.946819769371359E+001	-1.1160902E+000	-7.199493468267298E+001	8.0352843E-002	-1.1161925E+000	0
1.4952529E+001	9.966819768866117E+001	-1.1181494E+000	-7.477995425070787E+001	8.3615161E-002	-1.1181923E+000	0
1.4574251E+001	9.986819768360874E+001	-1.1200929E+000	-7.685423203552659E+001	8.6083874E-002	-1.1201925E+000	0
1.4217065E+001	1.000681976785563E+002	-1.1221335E+000	-7.892863471653990E+001	8.8568464E-002	-1.1221925E+000	0
1.3897899E+001	1.002681976735039E+002	-1.1241283E+000	-8.088477273917243E+001	9.0924866E-002	-1.1241926E+000	0
1.3612610E+001	1.004681976684515E+002	-1.1261818E+000	-8.273077985110478E+001	9.3169905E-002	-1.1261925E+000	0
1.3321413E+001	1.006681976633990E+002	-1.1281776E+000	-8.468904003805039E+001	9.5544279E-002	-1.1281924E+000	0
1.2998002E+001	1.008681976583466E+002	-1.1301230E+000	-8.694590098030733E+001	9.8259561E-002	-1.1301925E+000	0
1.2739307E+001	1.010681976532942E+002	-1.1321424E+000	-8.887001238117955E+001	1.0061351E-001	-1.1321925E+000	0
1.2487393E+001	1.012681976482418E+002	-1.1341779E+000	-9.082583139650978E+001	1.0301265E-001	-1.1341925E+000	0
1.2247848E+001	1.014681976431893E+002	-1.1361688E+000	-9.276477475339379E+001	1.0539645E-001	-1.1361924E+000	0
1.2038042E+001	1.016681976381369E+002	-1.1381782E+000	-9.454845312933776E+001	1.0761299E-001	-1.1381924E+000	0
1.1778647E+001	1.018681976330845E+002	-1.1402185E+000	-9.680385892677759E+001	1.1037755E-001	-1.1401924E+000	0
1.1553858E+001	1.020681976280321E+002	-1.1422198E+000	-9.886046815837585E+001	1.1292038E-001	-1.1421925E+000	0
1.1385166E+001	1.022681976229796E+002	-1.1441754E+000	-1.004970362191841E+002	1.1498624E-001	-1.1441925E+000	0
1.1181846E+001	1.024681976179272E+002	-1.1461840E+000	-1.025040064971737E+002	1.1748845E-001	-1.1461924E+000	0
1.1011129E+001	1.026681976128748E+002	-1.1481992E+000	-1.042762450393367E+002	1.1972990E-001	-1.1481924E+000	0
1.0849740E+001	1.028681976078224E+002	-1.1501889E+000	-1.060107355096173E+002	1.2193237E-001	-1.1501925E+000	0
1.0657147E+001	1.030681976027699E+002	-1.1521906E+000	-1.081143536881254E+002	1.2456834E-001	-1.1521926E+000	0
1.0440493E+001	1.032781975974649E+002	-1.1542878E+000	-1.105587456744057E+002	1.2761661E-001	-1.1542926E+000	0
1.0157847E+001	1.034881975921599E+002	-1.1563416E+000	-1.138372677751138E+002	1.3163476E-001	-1.1563925E+000	0
9.9921932E+000	1.036881975871074E+002	-1.1583859E+000	-1.159290891007236E+002	1.3429062E-001	-1.1583924E+000	0
9.8886566E+000	1.038881975820550E+002	-1.1603812E+000	-1.173446749754233E+002	1.3616456E-001	-1.1603924E+000	0
9.7365150E+000	1.040881975770026E+002	-1.1623452E+000	-1.193800054537198E+002	1.3876078E-001	-1.1623925E+000	0
9.5556440E+000	1.042881975719502E+002	-1.1643695E+000	-1.218514859552016E+002	1.4188015E-001	-1.1643925E+000	0
9.3837633E+000	1.044881975668977E+002	-1.1663896E+000	-1.242986952571907E+002	1.4498070E-001	-1.1663924E+000	0
9.2406454E+000	1.046881975618453E+002	-1.1683569E+000	-1.264367252499064E+002	1.4772321E-001	-1.1683924E+000	0
9.0997734E+000	1.048881975567929E+002	-1.1703448E+000	-1.286125205455185E+002	1.5052100E-001	-1.1703925E+000	0
8.8169127E+000	1.050881975517405E+002	-1.1723753E+000	-1.329689195712954E+002	1.5588948E-001	-1.1723925E+000	0
8.6014547E+000	1.052881975466880E+002	-1.1743772E+000	-1.365323993364977E+002	1.6034053E-001	-1.1743925E+000	0
8.4076395E+000	1.054881975416356E+002	-1.1763623E+000	-1.399158757679045E+002	1.6459176E-001	-1.1763924E+000	0
8.3063917E+000	1.056881975365832E+002	-1.1783333E+000	-1.418586264099928E+002	1.6715674E-001	-1.1783924E+000	0
8.2027655E+000	1.058881975315308E+002	-1.1803280E+000	-1.438939038825953E+002	1.6984200E-001	-1.1803925E+000	0
8.0783987E+000	1.060881975264783E+002	-1.1823450E+000	-1.463588289403594E+002	1.7304663E-001	-1.1823925E+000	0
7.9593964E+000	1.062881975214259E+002	-1.1843517E+000	-1.487991814224085E+002	1.7623056E-001	-1.1843925E+000	0
7.8924785E+000	1.064881975163735E+002	-1.1863346E+000	-1.503120534620048E+002	1.7832039E-001	-1.1863925E+000	0
7.6958470E+000	1.066881975113211E+002	-1.1883857E+000	-1.544190965315109E+002	1.8350945E-001	-1.1883924E+000	0
7.5889564E+000	1.068881975062686E+002	-1.1903414E+000	-1.568517872103225E+002	1.8670717E-001	-1.1903925E+000	0
7.4585619E+000	1.070881975012162E+002	-1.1923634E+000	-1.598650503947895E+002	1.9061723E-001	-1.1923925E+000	0
7.3323655E+000	1.072881974961638E+002	-1.1943448E+000	-1.628866911237201E+002	1.9454287E-001	-1.1943924E+000	0
7.2445974E+000	1.074881974911114E+002	-1.1963907E+000	-1.651424747778451E+002	1.9757493E-001	-1.1963925E+000	0
7.1463733E+000	1.076881974860589E+002	-1.1983938E+000	-1.676925854023357E+002	2.0096175E-001	-1.1983925E+000	0
6.9796205E+000	1.078881974810065E+002	-1.2003671E+000	-1.719817088855916E+002	2.0644118E-001	-1.2003925E+000	0
6.8333960E+000	1.080881974759541E+002	-1.2023747E+000	-1.759556551444550E+002	2.1156463E-001	-1.2023926E+000	0
6.7606091E+000	1.082881974709017E+002	-1.2044193E+000	-1.781524753267813E+002	2.1457027E-001	-1.2043926E+000	0
6.6811504E+000	1.084881974658492E+002	-1.2063910E+000	-1.805663537200612E+002	2.1783362E-001	-1.2063924E+000	0
6.6271143E+000	1.086881974607968E+002	-1.2083769E+000	-1.823383260919386E+002	2.2033341E-001	-1.2083924E+000	0
6.5191345E+000	1.088881974557444E+002	-1.2103856E+000	-1.856666039058146E+002	2.2472818E-001	-1.2103925E+000	0
6.4268241E+000	1.090881974506920E+002	-1.2123835E+000	-1.886442622435611E+002	2.2870919E-001	-1.2123926E+000	0
6.3301382E+000	1.092881974456395E+002	-1.2143986E+000	-1.918439323291213E+002	2.3297501E-001	-1.2143925E+000	0
6.1536517E+000	1.094881974405871E+002	-1.2163692E+000	-1.976662253241411E+002	2.4043509E-001	-1.2163924E+000	0
6.0520730E+000	1.096881974355347E+002	-1.2183642E+000	-2.013135359519736E+002	2.4527322E-001	-1.2183925E+000	0
5.9756889E+000	1.098881974304823E+002	-1.2203757E+000	-2.042234183244423E+002	2.4922928E-001	-1.2203925E+000	0
5.8859863E+000	1.100881974254298E+002	-1.2223791E+000	-2.076761718974913E+002	2.5385901E-001	-1.2223924E+000	0
5.7856350E+000	1.102881974203774E+002	-1.2243458E+000	-2.116182185819634E+002	2.5909388E-001	-1.2243925E+000	0
5.7003150E+000	1.104881974153250E+002	-1.2264078E+000	-2.151473638746493E+002	2.6385841E-001	-1.2263925E+000	0
5.6239390E+000	1.106881974102726E+002	-1.2284175E+000	-2.184265385906720E+002	2.6831898E-001	-1.2283924E+000	0
5.5775609E+000	1.108881974052201E+002	-1.2304083E+000	-2.205997114614024E+002	2.7142772E-001	-1.2303925E+000	0
5.5284429E+000	1.110881974001677E+002	-1.2324035E+000	-2.229205481427601E+002	2.7472806E-001	-1.2323925E+000	0
5.4342461E+000	1.112881973951153E+002	-1.2344273E+000	-2.271570516465208E+002	2.8040886E-001	-1.2343924E+000	0
5.4064236E+000	1.114881973900629E+002	-1.2364844E+000	-2.287065393486794E+002	2.8279206E-001	-1.2363925E+000	0
5.3363328E+000	1.116881973850104E+002	-1.2384135E+000	-2.320719968596823E+002	2.8740108E-001	-1.2383925E+000	0
5.2609558E+000	1.118881973799580E+002	-1.2404268E+000	-2.357797301156188E+002	2.9246750E-001	-1.2403926E+000	0
5.1758065E+000	1.120881973749056E+002	-1.2424273E+000	-2.400451636433336E+002	2.9823866E-001	-1.2423925E+000	0
5.1193266E+000	1.122881973698532E+002	-1.2443808E+000	-2.430750967942668E+002	3.0247799E-001	-1.2443924E+000	0
5.0346193E+000	1.124881973648007E+002	-1.2463835E+000	-2.475626134483182E+002	3.0855796E-001	-1.2463925E+000	0
4.9874649E+000	1.126881973597483E+002	-1.2484155E+000	-2.503106364014473E+002	3.1249169E-001	-1.2483925E+000	0
4.9441175E+000	1.128881973546959E+002	-1.2503848E+000	-2.529035405853178E+002	3.1622675E-001	-1.2503924E+000	0
4.8855786E+000	1.130881973496435E+002	-1.2524453E+000	-2.563555849317518E+002	3.2107136E-001	-1.2523925E+000	0
4.8184571E+000	1.132881973445910E+002	-1.2544754E+000	-2.603479292279192E+002	3.2660007E-001	-1.2543925E+000	0
4.7769499E+000	1.134881973395386E+002	-1.2564813E+000	-2.630300334294639E+002	3.3049232E-001	-1.2563925E+000	0
4.7353759E+000	1.136881973344862E+002	-1.2584119E+000	-2.657469804054477E+002	3.3441916E-001	-1.2583925E+000	0
4.6863537E+000	1.138881973294338E+002	-1.2604164E+000	-2.689545892209419E+002	3.3899477E-001	-1.2603925E+000	0
4.6508641E+000	1.140881973243813E+002	-1.2624205E+000	-2.714378417484331E+002	3.4266871E-001	-1.2623925E+000	0
4.6296277E+000	1.142881973193289E+002	-1.2643777E+000	-2.731057068204123E+002	3.4530878E-001	-1.2643925E+000	0
4.5656838E+000	1.144881973142765E+002	-1.2665104E+000	-2.773977408052292E+002	3.5132712E-001	-1.2663925E+000	0
4.5344362E+000	1.146881973092241E+002	-1.2684288E+000	-2.797324143580554E+002	3.5482064E-001	-1.2683924E+000	0
4.4672489E+000	1.148881973041716E+002	-1.2704977E+000	-2.844027172313522E+002	3.6133298E-001	-1.2703925E+000	0
4.3685799E+000	1.150881972991192E+002	-1.2724520E+000	-2.912736156186807E+002	3.7063169E-001	-1.2723925E+000	0
4.2841592E+000	1.152881972940668E+002	-1.2744412E+000	-2.974775729406449E+002	3.7911770E-001	-1.2743925E+000	0
4.2779856E+000	1.154881972890144E+002	-1.2764665E+000	-2.983802734967526E+002	3.8087243E-001	-1.2763926E+000	0
4.2681084E+000	1.156881972839619E+002	-1.2784785E+000	-2.995421702910435E+002	3.8295823E-001	-1.2783926E+000	0
4.2259545E+000	1.158881972789095E+002	-1.2804878E+000	-3.030055767500471E+002	3.8799495E-001	-1.2803925E+000	0
4.1384964E+000	1.160881972738571E+002	-1.2824637E+000	-3.098863878206876E+002	3.9741802E-001	-1.2823926E+000	0
4.1274180E+000	1.162881972688047E+002	-1.2844540E+000	-3.112003495114725E+002	3.9972252E-001	-1.2843925E+000	0
4.0572357E+000	1.164881972637522E+002	-1.2864994E+000	-3.170876492026714E+002	4.0793306E-001	-1.2863925E+000	0
4.0291142E+000	1.166881972586998E+002	-1.2884855E+000	-3.197937410748200E+002	4.1204962E-001	-1.2883925E+000	0
3.9900324E+000	1.168881972536474E+002	-1.2905161E+000	-3.234349984971298E+002	4.1739810E-001	-1.2903925E+000	0
3.9470186E+000	1.170881972485950E+002	-1.2925031E+000	-3.274631403557555E+002	4.2324713E-001	-1.2923925E+000	0
3.9123614E+000	1.172883972435375E+002	-1.2944919E+000	-3.308722775333667E+002	4.2831147E-001	-1.2943940E+000	0
3.8716915E+000	1.174887972384749E+002	-1.2965511E+000	-3.348797552548745E+002	4.3418872E-001	-1.2963980E+000	0
3.8473232E+000	1.176892972334099E+002	-1.2985531E+000	-3.375211856405376E+002	4.3828920E-001	-1.2984027E+000	0
3.7899549E+000	1.178897972283448E+002	-1.3005093E+000	-3.431463850033542E+002	4.4626507E-001	-1.3004080E+000	0
3.7952125E+000	1.180901972232823E+002	-1.3025320E+000	-3.432039576900825E+002	4.4703412E-001	-1.3024119E+000	0
3.7732248E+000	1.182903972182248E+002	-1.3045446E+000	-3.457373095856219E+002	4.5102972E-001	-1.3044145E+000	0
3.7191210E+000	1.184904972131699E+002	-1.3065681E+000	-3.513110070896657E+002	4.5901176E-001	-1.3064153E+000	0
3.6697824E+000	1.186905972081149E+002	-1.3085110E+000	-3.565636500122855E+002	4.6656746E-001	-1.3084165E+000	0
3.6727397E+000	1.188905972030625E+002	-1.3105694E+000	-3.568369906310872E+002	4.6765965E-001	-1.3104165E+000	0
3.6557705E+000	1.190905971980101E+002	-1.3125643E+000	-3.590390067132957E+002	4.7126177E-001	-1.3124164E+000	0
3.6239851E+000	1.192906971929551E+002	-1.3145278E+000	-3.627298956338227E+002	4.7681850E-001	-1.3144172E+000	0
3.6008015E+000	1.194908971878976E+002	-1.3164836E+000	-3.656084999724781E+002	4.8131761E-001	-1.3164194E+000	0
3.6139207E+000	1.196911971828376E+002	-1.3185662E+000	-3.648575322432280E+002	4.8108882E-001	-1.3184217E+000	0
3.5669110E+000	1.198916971777726E+002	-1.3205626E+000	-3.702258411095054E+002	4.8890641E-001	-1.3204268E+000	0
3.5322924E+000	1.200919971727126E+002	-1.3225623E+000	-3.744203946120069E+002	4.9519432E-001	-1.3224305E+000	0
3.4602888E+000	1.202919971676602E+002	-1.3245661E+000	-3.827906313958893E+002	5.0703150E-001	-1.3244305E+000	0
3.4399414E+000	1.204923971625976E+002	-1.3265839E+000	-3.856414100381935E+002	5.1158565E-001	-1.3264339E+000	0
3.4411774E+000	1.206925971575401E+002	-1.3285784E+000	-3.860824847729582E+002	5.1294082E-001	-1.3284365E+000	0
3.4236448E+000	1.208928971524801E+002	-1.3305507E+000	-3.886357372484417E+002	5.1709956E-001	-1.3304387E+000	0
3.3918536E+000	1.210932971474176E+002	-1.3325520E+000	-3.928683644685334E+002	5.2351749E-001	-1.3324431E+000	0
3.3830090E+000	1.212934971423601E+002	-1.3345621E+000	-3.944896531732478E+002	5.2647090E-001	-1.3344452E+000	0
3.3410413E+000	1.214936971373027E+002	-1.3365577E+000	-4.000422782448150E+002	5.3467959E-001	-1.3364472E+000	0
3.3246353E+000	1.216939971322427E+002	-1.3385775E+000	-4.026238573539868E+002	5.3894323E-001	-1.3384500E+000	0
3.3217218E+000	1.218941971271852E+002	-1.3405757E+000	-4.035785450146027E+002	5.4102761E-001	-1.3404524E+000	0
3.3199081E+000	1.220942971221302E+002	-1.3425574E+000	-4.043959645381291E+002	5.4292482E-001	-1.3424532E+000	0
3.3001583E+000	1.222944971170728E+002	-1.3445817E+000	-4.074294565634191E+002	5.4782218E-001	-1.3444554E+000	0
3.2474599E+000	1.224946971120153E+002	-1.3466208E+000	-4.146689608179304E+002	5.5840182E-001	-1.3464574E+000	0
3.2093782E+000	1.226947971069603E+002	-1.3485994E+000	-4.202058227002781E+002	5.6668931E-001	-1.3484585E+000	0
3.1872301E+000	1.228948971019054E+002	-1.3506434E+000	-4.237671300387510E+002	5.7235825E-001	-1.3504593E+000	0
3.1476059E+000	1.230950970968479E+002	-1.3525641E+000	-4.297120329487211E+002	5.8121306E-001	-1.3524615E+000	0
3.1337478E+000	1.232953970917879E+002	-1.3545852E+000	-4.322572310234073E+002	5.8552921E-001	-1.3544639E+000	0
3.1446035E+000	1.234956970867279E+002	-1.3565780E+000	-4.313987557593837E+002	5.8522606E-001	-1.3564674E+000	0
3.1324871E+000	1.236959970816679E+002	-1.3585674E+000	-4.337024623421466E+002	5.8921403E-001	-1.3584701E+000	0
3.1478815E+000	1.238965970766003E+002	-1.3605694E+000	-4.322174667348050E+002	5.8806187E-001	-1.3604759E+000	0
3.1704092E+000	1.240969970715378E+002	-1.3625969E+000	-4.297858161204040E+002	5.8562481E-001	-1.3624799E+000	0
3.0590234E+000	1.242972970664778E+002	-1.3646337E+000	-4.461011021884774E+002	6.0876459E-001	-1.3644832E+000	0
3.0265741E+000	1.244975970614178E+002	-1.3666338E+000	-4.515447915869127E+002	6.1709636E-001	-1.3664860E+000	0
3.0383520E+000	1.246980970563527E+002	-1.3686861E+000	-4.504698784006852E+002	6.1655188E-001	-1.3684912E+000	0
3.0177739E+000	1.248982970512952E+002	-1.3706756E+000	-4.542009018876761E+002	6.2256205E-001	-1.3704933E+000	0
2.9229238E+000	1.250983970462403E+002	-1.3726872E+000	-4.696281244014117E+002	6.4465255E-001	-1.3724945E+000	0
2.8949692E+000	1.252986970411803E+002	-1.3746637E+000	-4.748457247349625E+002	6.5275317E-001	-1.3744972E+000	0
2.8918784E+000	1.254989970361203E+002	-1.3766823E+000	-4.760512286058920E+002	6.5537131E-001	-1.3765000E+000	0
2.8591168E+000	1.256990970310653E+002	-1.3787169E+000	-4.822177939144349E+002	6.6484183E-001	-1.3785012E+000	0
2.8083005E+000	1.258991970260104E+002	-1.3806660E+000	-4.916375584461803E+002	6.7878729E-001	-1.3805025E+000	0
2.7963545E+000	1.260993970209529E+002	-1.3826438E+000	-4.944451092332311E+002	6.8364149E-001	-1.3825040E+000	0
2.7990463E+000	1.262997970158904E+002	-1.3846869E+000	-4.946995368431599E+002	6.8500400E-001	-1.3845080E+000	0
2.7732556E+000	1.265001970108278E+002	-1.3866680E+000	-5.000144861155459E+002	6.9335407E-001	-1.3865119E+000	0
2.7420022E+000	1.267006970057628E+002	-1.3887088E+000	-5.064579683075171E+002	7.0332265E-001	-1.3885168E+000	0
2.7578783E+000	1.269009970007028E+002	-1.3906654E+000	-5.042519326934435E+002	7.0124573E-001	-1.3905206E+000	0
2.7149355E+000	1.271010969956478E+002	-1.3927100E+000	-5.129808537369208E+002	7.1443355E-001	-1.3925213E+000	0
2.7036948E+000	1.273015969905828E+002	-1.3946849E+000	-5.158440476648516E+002	7.1943992E-001	-1.3945260E+000	0
2.7172930E+000	1.275015969855303E+002	-1.3967143E+000	-5.140094531326667E+002	7.1792436E-001	-1.3965266E+000	0
2.7202425E+000	1.277017969804729E+002	-1.3987393E+000	-5.141965484766115E+002	7.1922696E-001	-1.3985281E+000	0
2.7219181E+000	1.279020969754129E+002	-1.4006883E+000	-5.145960232593561E+002	7.2078860E-001	-1.4005313E+000	0
2.7265396E+000	1.281023969703529E+002	-1.4027280E+000	-5.144718637579000E+002	7.2166407E-001	-1.4025340E+000	0
2.7262132E+000	1.283026969652929E+002	-1.4047271E+000	-5.152667794153026E+002	7.2380918E-001	-1.4045374E+000	0
2.6802232E+000	1.285027969602379E+002	-1.4067217E+000	-5.248524593344646E+002	7.3832136E-001	-1.4065385E+000	0
2.6426911E+000	1.287027969551855E+002	-1.4087709E+000	-5.330819520755686E+002	7.5099033E-001	-1.4085385E+000	0
2.6405406E+000	1.289027969501331E+002	-1.4107379E+000	-5.342609819684735E+002	7.5370222E-001	-1.4105386E+000	0
2.6498511E+000	1.291028969450781E+002	-1.4127464E+000	-5.331418275596079E+002	7.5319421E-001	-1.4125391E+000	0
2.6503379E+000	1.293029969400231E+002	-1.4147224E+000	-5.337894427673627E+002	7.5516391E-001	-1.4145405E+000	0
2.6043749E+000	1.295029969349707E+002	-1.4167147E+000	-5.439749261246252E+002	7.7065724E-001	-1.4165404E+000	0
2.5674965E+000	1.297029969299183E+002	-1.4187233E+000	-5.525706778113255E+002	7.8394490E-001	-1.4185405E+000	0
2.4998994E+000	1.299029969248659E+002	-1.4207653E+000	-5.683289671657858E+002	8.0746204E-001	-1.4205402E+000	0
2.5119636E+000	1.301029969198134E+002	-1.4227169E+000	-5.663763925202029E+002	8.0579323E-001	-1.4225403E+000	0
2.5092452E+000	1.303029969147610E+002	-1.4247488E+000	-5.677997310491355E+002	8.0897200E-001	-1.4245402E+000	0
2.4896636E+000	1.305029969097086E+002	-1.4267638E+000	-5.730748973422592E+002	8.1764251E-001	-1.4265403E+000	0
2.4944036E+000	1.306229969066771E+002	-1.4280434E+000	-5.724989191561381E+002	8.1755328E-001	-1.4277399E+000	0
2.5009110E+000	1.306333969064144E+002	-1.4280977E+000	-5.710310058593750E+002	8.1548810E-001	-1.4280400E+000	1