EC-Lab ASCII FILE
Nb header lines : 63                          

Linear Sweep Voltammetry

Run on channel : 1 (SN 1340)
User : 
Electrode connection : standard
Potential control : Ewe
Ewe ctrl range : min = -5.00 V, max = 5.00 V
Ewe,I filtering : <None>
Safety Limits :
	Do not start on E overload
Channel : Floating
Acquisition started on : 02/18/2026 18:52:29.248
Technique started on : 02/18/2026 18:52:32.086
Loaded Setting File :  NONE
Saved on :
	File : Ni_2_18_02_LSV_C01.mpr
	Directory : C:\Users\volt\Documents\Platalytix\
	Host : 127.0.0.1
Device : SP-200 (SN 0262)
Address : USB
EC-LAB for windows v11.60 (software)
Internet server v11.60 (firmware)
Command interpretor v11.60 (firmware)
Electrode material : Ni
Initial state : 
Electrolyte : KOH (1M)
Comments : 
Cable : standard
Reference electrode : Hg/HgO (0.140 V)
Electrode surface area : 1.000 cm˛
Characteristic mass : 0.001 g
Equivalent Weight : 0.000 g/eq.
Density : 0.000 g/cm3
Volume (V) : 0.001 cmł
Cycle Definition : Charge/Discharge alternance
tR (h:m:s)          0:00:5.0000         
dER/dt (mV/h)       0.0                 
dER (mV)            0                   
dtR (s)             0.0000              
dE/dt               10.000              
dE/dt unit          mV/s                
Ei (V)              -0.200              
vs.                 Ref                 
EL (V)              -2.500              
vs.                 Ref                 
record              <I>                 
dI                  0.000               
unit dI             µA                  
tI (s)              0.0000              
step percent        50                  
N                   10                  
E range min (V)     -5.000              
E range max (V)     5.000               
I Range             Auto                
I Range min         Unset               
I Range max         Unset               
I Range init        Unset               
Bandwidth           8                   

Rwe/Ohm	time/s	Ewe/V	<I>/mA	Pwe/W	control/V	error	
0.0000000E+000	2.838400134787662E+000	-2.1440600E-001	0.000000000000000E+000	0.0000000E+000	0.0000000E+000	0
0.0000000E+000	7.838200008482090E+000	-3.5471874E-001	0.000000000000000E+000	0.0000000E+000	-1.9994888E-001	0
4.6942429E+002	7.998200004440150E+000	-2.0119992E-001	4.286099445819853E-001	-8.6236287E-005	-2.0144866E-001	0
1.7880624E+003	8.108200001661316E+000	-2.0237567E-001	1.131815475991416E-001	-2.2905191E-005	-2.0254871E-001	0
4.2821748E+003	8.328199996103649E+000	-2.0453858E-001	4.776511896810365E-002	-9.7698094E-006	-2.0474869E-001	0
6.2160586E+003	8.548199990545982E+000	-2.0675559E-001	3.326152646945816E-002	-6.8770069E-006	-2.0694873E-001	0
7.8498853E+003	8.748199985493557E+000	-2.0878497E-001	2.659719953653472E-002	-5.5530954E-006	-2.0894872E-001	0
9.4608418E+003	8.948199980441132E+000	-2.1078080E-001	2.227928479520983E-002	-4.6960454E-006	-2.1094871E-001	0
1.1054692E+004	9.148199975388707E+000	-2.1277300E-001	1.924730215235898E-002	-4.0953059E-006	-2.1294872E-001	0
1.2669567E+004	9.348199970336282E+000	-2.1476588E-001	1.695131909132822E-002	-3.6405650E-006	-2.1494868E-001	0
1.4307200E+004	9.548199965283857E+000	-2.1677911E-001	1.515174981129042E-002	-3.2845828E-006	-2.1694872E-001	0
1.5999361E+004	9.748199960231432E+000	-2.1880889E-001	1.367610169927291E-002	-2.9924527E-006	-2.1894872E-001	0
1.7777619E+004	9.948199955179007E+000	-2.2079580E-001	1.241987495272119E-002	-2.7422561E-006	-2.2094868E-001	0
1.9630826E+004	1.014819995012658E+001	-2.2278507E-001	1.134873667589072E-002	-2.5283291E-006	-2.2294872E-001	0
2.1529152E+004	1.034819994507416E+001	-2.2479957E-001	1.044163591444366E-002	-2.3472753E-006	-2.2494872E-001	0
2.3455334E+004	1.054819994002173E+001	-2.2677992E-001	9.668586677261864E-003	-2.1926414E-006	-2.2694872E-001	0
2.5532189E+004	1.074819993496931E+001	-2.2879973E-001	8.961226483078372E-003	-2.0503262E-006	-2.2894870E-001	0
2.7685094E+004	1.094819992991688E+001	-2.3074314E-001	8.334562199849167E-003	-1.9231431E-006	-2.3094873E-001	0
3.0093244E+004	1.114819992486446E+001	-2.3283955E-001	7.737269976095543E-003	-1.8015425E-006	-2.3294869E-001	0
3.2388189E+004	1.134819991981203E+001	-2.3476195E-001	7.248381429268438E-003	-1.7016442E-006	-2.3494869E-001	0
3.4883465E+004	1.154819991475961E+001	-2.3681213E-001	6.788664067741118E-003	-1.6076380E-006	-2.3694873E-001	0
3.7596340E+004	1.174819990970718E+001	-2.3881070E-001	6.351966999155481E-003	-1.5169177E-006	-2.3894869E-001	0
4.0326930E+004	1.194819990465476E+001	-2.4082479E-001	5.971810506883002E-003	-1.4381600E-006	-2.4094871E-001	0
4.3376676E+004	1.214819989960233E+001	-2.4285308E-001	5.598701615354557E-003	-1.3596620E-006	-2.4294871E-001	0
4.6581270E+004	1.234819989454991E+001	-2.4480100E-001	5.255352627479906E-003	-1.2865156E-006	-2.4494870E-001	0
4.9922000E+004	1.254819988949748E+001	-2.4682122E-001	4.944137370792259E-003	-1.2203180E-006	-2.4694870E-001	0
5.3507184E+004	1.274819988444506E+001	-2.4884821E-001	4.650744166043677E-003	-1.1573294E-006	-2.4894871E-001	0
5.7304754E+004	1.294819987939263E+001	-2.5084499E-001	4.377385127787635E-003	-1.0980451E-006	-2.5094867E-001	0
6.1549129E+004	1.314819987434021E+001	-2.5284719E-001	4.108054715653800E-003	-1.0387101E-006	-2.5294870E-001	0
6.5828984E+004	1.334819986928778E+001	-2.5486043E-001	3.871553664530208E-003	-9.8670580E-007	-2.5494871E-001	0
7.0740547E+004	1.354819986423536E+001	-2.5681341E-001	3.630356668191594E-003	-9.3232427E-007	-2.5694871E-001	0
7.4499148E+004	1.374819985918293E+001	-2.5881773E-001	3.474103262642182E-003	-8.9915955E-007	-2.5894871E-001	0
7.9677945E+004	1.394819985413051E+001	-2.6079002E-001	3.273051550369069E-003	-8.5357919E-007	-2.6094872E-001	0
8.5458289E+004	1.414819984907808E+001	-2.6279709E-001	3.075150448645869E-003	-8.0814056E-007	-2.6294869E-001	0
9.2054961E+004	1.434819984402566E+001	-2.6483580E-001	2.876931318098601E-003	-7.6191441E-007	-2.6494873E-001	0
9.8760359E+004	1.454819983897323E+001	-2.6682782E-001	2.701770469678372E-003	-7.2090751E-007	-2.6694870E-001	0
1.0540481E+005	1.474819983392081E+001	-2.6881072E-001	2.550269868210872E-003	-6.8553987E-007	-2.6894873E-001	0
1.1327635E+005	1.494819982886838E+001	-2.7082521E-001	2.390836200157911E-003	-6.4749872E-007	-2.7094871E-001	0
1.2075108E+005	1.514819982381596E+001	-2.7282846E-001	2.259428795253930E-003	-6.1643647E-007	-2.7294871E-001	0
1.2989459E+005	1.534819981876353E+001	-2.7476153E-001	2.115265399221827E-003	-5.8119355E-007	-2.7494869E-001	0
1.3825167E+005	1.554819981371111E+001	-2.7675289E-001	2.001805063114599E-003	-5.5400534E-007	-2.7694869E-001	0
1.5178452E+005	1.574819980865868E+001	-2.7880770E-001	1.836865155606601E-003	-5.1213215E-007	-2.7894872E-001	0
1.6124367E+005	1.594819980360626E+001	-2.8082579E-001	1.741623581184369E-003	-4.8909283E-007	-2.8094870E-001	0
1.7507627E+005	1.614819979855383E+001	-2.8280488E-001	1.615323934624329E-003	-4.5682148E-007	-2.8294873E-001	0
1.9214075E+005	1.634819979350141E+001	-2.8481430E-001	1.482321201740675E-003	-4.2218628E-007	-2.8494871E-001	0
2.0992767E+005	1.654819978844898E+001	-2.8682181E-001	1.366288705245005E-003	-3.9188140E-007	-2.8694871E-001	0
2.2276569E+005	1.674819978339656E+001	-2.8882501E-001	1.296541674104168E-003	-3.7447364E-007	-2.8894868E-001	0
2.4553677E+005	1.694819977834413E+001	-2.9088560E-001	1.184692640192293E-003	-3.4461002E-007	-2.9094872E-001	0
2.7331078E+005	1.714819977329171E+001	-2.9284114E-001	1.071458438017468E-003	-3.1376712E-007	-2.9294869E-001	0
2.9107456E+005	1.734819976823928E+001	-2.9482719E-001	1.012892333374127E-003	-2.9862821E-007	-2.9494870E-001	0
3.3204741E+005	1.754819976318686E+001	-2.9682899E-001	8.939355944529818E-004	-2.6534599E-007	-2.9694870E-001	0
3.7579759E+005	1.774819975813443E+001	-2.9884177E-001	7.952200635954060E-004	-2.3764497E-007	-2.9894871E-001	0
4.1274109E+005	1.794819975308201E+001	-3.0078706E-001	7.287548382753049E-004	-2.1920003E-007	-3.0094871E-001	0
4.7023506E+005	1.814819974802958E+001	-3.0285701E-001	6.440544962060172E-004	-1.9505642E-007	-3.0294874E-001	0
5.6255775E+005	1.834819974297716E+001	-3.0487850E-001	5.419505914930085E-004	-1.6522908E-007	-3.0494869E-001	0
6.3444388E+005	1.854819973792473E+001	-3.0683085E-001	4.836217566705819E-004	-1.4839007E-007	-3.0694872E-001	0
7.7522256E+005	1.874819973287231E+001	-3.0882263E-001	3.983664108012687E-004	-1.2302456E-007	-3.0894870E-001	0
1.0078523E+006	1.894819972781988E+001	-3.1086683E-001	3.084448445226508E-004	-9.5885270E-008	-3.1094870E-001	0
1.2352455E+006	1.914819972276746E+001	-3.1284761E-001	2.532675510331667E-004	-7.9234148E-008	-3.1294870E-001	0
1.7168306E+006	1.934819971771503E+001	-3.1486553E-001	1.833992913800485E-004	-5.7746114E-008	-3.1494871E-001	0
3.9964495E+006	1.954819971266261E+001	-3.1682736E-001	7.927720966288557E-005	-2.5117188E-008	-3.1694871E-001	0
7.2279340E+006	1.974819970761018E+001	-3.1878012E-001	4.410390734373333E-005	-1.4059449E-008	-3.1894872E-001	0
5.9658495E+006	1.994819970255776E+001	-3.2080507E-001	-5.377357648844044E-005	1.7250835E-008	-3.2094872E-001	0
2.7438265E+006	2.014819969750533E+001	-3.2282317E-001	-1.176543702355532E-004	3.7981557E-008	-3.2294869E-001	0
1.7367996E+006	2.034819969245291E+001	-3.2479078E-001	-1.870053290621591E-004	6.0737605E-008	-3.2494873E-001	0
1.2707854E+006	2.054819968740048E+001	-3.2685155E-001	-2.572043534643312E-004	8.4067644E-008	-3.2694870E-001	0
1.0519435E+006	2.074819968234806E+001	-3.2884735E-001	-3.126093360916705E-004	1.0280075E-007	-3.2894871E-001	0
8.7672313E+005	2.094819967729563E+001	-3.3086210E-001	-3.773849545512988E-004	1.2486238E-007	-3.3094871E-001	0
7.6982638E+005	2.114819967224321E+001	-3.3284453E-001	-4.323631196763676E-004	1.4390970E-007	-3.3294871E-001	0
6.9337519E+005	2.134819966719078E+001	-3.3478987E-001	-4.828408454156136E-004	1.6165022E-007	-3.3494872E-001	0
5.9276188E+005	2.154819966213836E+001	-3.3682814E-001	-5.682351901655476E-004	1.9139760E-007	-3.3694872E-001	0
5.3742306E+005	2.174819965708593E+001	-3.3886454E-001	-6.305358771225046E-004	2.1366624E-007	-3.3894873E-001	0
4.9210934E+005	2.194819965203351E+001	-3.4085271E-001	-6.926361192335813E-004	2.3608689E-007	-3.4094870E-001	0
4.6224222E+005	2.214819964698108E+001	-3.4281564E-001	-7.416363588625234E-004	2.5424455E-007	-3.4294873E-001	0
4.2288534E+005	2.234819964192866E+001	-3.4483165E-001	-8.154258799929453E-004	2.8118464E-007	-3.4494871E-001	0
4.0618319E+005	2.254819963687623E+001	-3.4679309E-001	-8.537849242968264E-004	2.9608671E-007	-3.4694868E-001	0
3.8129819E+005	2.274819963182381E+001	-3.4879935E-001	-9.147678804450228E-004	3.1907044E-007	-3.4894872E-001	0
3.5110775E+005	2.294819962677138E+001	-3.5082698E-001	-9.992003124190407E-004	3.5054643E-007	-3.5094869E-001	0
3.3622203E+005	2.314819962171896E+001	-3.5279459E-001	-1.049290559857089E-003	3.7018404E-007	-3.5294873E-001	0
3.1104031E+005	2.334819961666653E+001	-3.5482565E-001	-1.140770584870530E-003	4.0477465E-007	-3.5494870E-001	0
3.0363331E+005	2.354819961161411E+001	-3.5682192E-001	-1.175173818186107E-003	4.1932779E-007	-3.5694870E-001	0
2.9223347E+005	2.374819960656168E+001	-3.5881689E-001	-1.227843209278360E-003	4.4057089E-007	-3.5894874E-001	0
2.7591988E+005	2.394819960150926E+001	-3.6082506E-001	-1.307716810483594E-003	4.7185699E-007	-3.6094871E-001	0
2.7057819E+005	2.414819959645683E+001	-3.6283085E-001	-1.340946331011950E-003	4.8653669E-007	-3.6294875E-001	0
2.6028542E+005	2.434819959140441E+001	-3.6478108E-001	-1.401465634652621E-003	5.1122817E-007	-3.6494872E-001	0
2.4948716E+005	2.454819958635198E+001	-3.6681530E-001	-1.470277251826378E-003	5.3932018E-007	-3.6694875E-001	0
2.3918475E+005	2.474819958129956E+001	-3.6881006E-001	-1.541946358339701E-003	5.6868532E-007	-3.6894873E-001	0
2.3186670E+005	2.494819957624713E+001	-3.7080401E-001	-1.599212010958022E-003	5.9299424E-007	-3.7094870E-001	0
2.1993014E+005	2.514819957119471E+001	-3.7278792E-001	-1.695028848902451E-003	6.3188628E-007	-3.7294874E-001	0
2.1588189E+005	2.534819956614228E+001	-3.7481874E-001	-1.736221328698818E-003	6.5076830E-007	-3.7494871E-001	0
2.1241041E+005	2.554819956108986E+001	-3.7681419E-001	-1.773991136787461E-003	6.6846502E-007	-3.7694871E-001	0
2.0682345E+005	2.574819955603743E+001	-3.7878263E-001	-1.831429835662694E-003	6.9371379E-007	-3.7894872E-001	0
1.9831823E+005	2.594819955098501E+001	-3.8080055E-001	-1.920148909625836E-003	7.3119378E-007	-3.8094872E-001	0
1.9310233E+005	2.614819954593258E+001	-3.8282460E-001	-1.982495957708379E-003	7.5894820E-007	-3.8294870E-001	0
1.8769469E+005	2.634819954088016E+001	-3.8478416E-001	-2.050053519626935E-003	7.8882812E-007	-3.8494873E-001	0
1.8222550E+005	2.654819953582773E+001	-3.8681307E-001	-2.122716529104641E-003	8.2109449E-007	-3.8694870E-001	0
1.7751400E+005	2.674819953077531E+001	-3.8881615E-001	-2.190340703785459E-003	8.5163981E-007	-3.8894871E-001	0
1.7450747E+005	2.694819952572288E+001	-3.9078104E-001	-2.239337002025266E-003	8.7509045E-007	-3.9094871E-001	0
1.7115408E+005	2.714819952067046E+001	-3.9284563E-001	-2.295274815744611E-003	9.0168868E-007	-3.9294875E-001	0
1.6632216E+005	2.734819951561803E+001	-3.9482382E-001	-2.373849754048994E-003	9.3725242E-007	-3.9494872E-001	0
1.6241541E+005	2.754819951056561E+001	-3.9677784E-001	-2.442981534319457E-003	9.6932092E-007	-3.9694875E-001	0
1.5949525E+005	2.774819950551318E+001	-3.9881864E-001	-2.500504758688776E-003	9.9724787E-007	-3.9894870E-001	0
1.5536864E+005	2.794819950046076E+001	-4.0079454E-001	-2.579635883208423E-003	1.0339039E-006	-4.0094873E-001	0
1.5189477E+005	2.814819949540833E+001	-4.0275666E-001	-2.651550535425113E-003	1.0679296E-006	-4.0294874E-001	0
1.4836689E+005	2.834819949035591E+001	-4.0478536E-001	-2.728272879319600E-003	1.1043650E-006	-4.0494877E-001	0
1.4489145E+005	2.854819948530348E+001	-4.0679899E-001	-2.807612015321190E-003	1.1421338E-006	-4.0694872E-001	0
1.4263147E+005	2.874819948025106E+001	-4.0882123E-001	-2.866276560510373E-003	1.1717947E-006	-4.0894875E-001	0
1.4019263E+005	2.894819947519863E+001	-4.1082293E-001	-2.930417406890833E-003	1.2038827E-006	-4.1094872E-001	0
1.3754441E+005	2.914819947014621E+001	-4.1283023E-001	-3.001432445172439E-003	1.2390821E-006	-4.1294870E-001	0
1.3451950E+005	2.934819946509379E+001	-4.1481864E-001	-3.083706444471923E-003	1.2791789E-006	-4.1494873E-001	0
1.3204948E+005	2.954819946004136E+001	-4.1679856E-001	-3.156381551105675E-003	1.3155753E-006	-4.1694877E-001	0
1.2795413E+005	2.974819945498894E+001	-4.1886169E-001	-3.273530011228973E-003	1.3711563E-006	-4.1894874E-001	0
1.2682980E+005	2.994819944993651E+001	-4.2086470E-001	-3.318342504527394E-003	1.3965732E-006	-4.2094874E-001	0
1.2427574E+005	3.014819944488409E+001	-4.2278904E-001	-3.402023906992083E-003	1.4383384E-006	-4.2294875E-001	0
1.2210445E+005	3.034819943983166E+001	-4.2480671E-001	-3.479043625488100E-003	1.4779210E-006	-4.2494875E-001	0
1.1976666E+005	3.054819943477924E+001	-4.2680639E-001	-3.563649645336550E-003	1.5209885E-006	-4.2694873E-001	0
1.1719270E+005	3.074819942972681E+001	-4.2881256E-001	-3.659038371131289E-003	1.5690416E-006	-4.2894870E-001	0
1.1560532E+005	3.094819942467439E+001	-4.3078768E-001	-3.726365472823095E-003	1.6052724E-006	-4.3094873E-001	0
1.1348161E+005	3.114819941962196E+001	-4.3282741E-001	-3.814075353989357E-003	1.6508363E-006	-4.3294877E-001	0
1.1232726E+005	3.134819941456954E+001	-4.3479794E-001	-3.870814295147462E-003	1.6830221E-006	-4.3494874E-001	0
1.0952161E+005	3.154819940951711E+001	-4.3683183E-001	-3.988544576078848E-003	1.7423232E-006	-4.3694872E-001	0
1.0763317E+005	3.174819940446469E+001	-4.3884695E-001	-4.077246254972591E-003	1.7892870E-006	-4.3894875E-001	0
1.0534281E+005	3.194819939941226E+001	-4.4081917E-001	-4.184615730550581E-003	1.8446589E-006	-4.4094869E-001	0
1.0330558E+005	3.214819939435984E+001	-4.4282314E-001	-4.286536446386050E-003	1.8981775E-006	-4.4294873E-001	0
1.0198591E+005	3.234819938930741E+001	-4.4485438E-001	-4.361920193225233E-003	1.9404192E-006	-4.4494876E-001	0
1.0001974E+005	3.254819938425499E+001	-4.4686615E-001	-4.467779347861012E-003	1.9964993E-006	-4.4694877E-001	0
9.8845172E+004	3.274819937920256E+001	-4.4884962E-001	-4.540936132058009E-003	2.0381974E-006	-4.4894871E-001	0
9.7260945E+004	3.294819937415014E+001	-4.5086733E-001	-4.635645957732804E-003	2.0900613E-006	-4.5094875E-001	0
9.5564383E+004	3.314819936909771E+001	-4.5287377E-001	-4.738938679876167E-003	2.1461410E-006	-4.5294878E-001	0
9.4384148E+004	3.334819936404529E+001	-4.5489234E-001	-4.819584174746656E-003	2.1923920E-006	-4.5494872E-001	0
9.2875109E+004	3.354819935899286E+001	-4.5678630E-001	-4.918285697977615E-003	2.2466056E-006	-4.5694873E-001	0
9.0819586E+004	3.374819935394044E+001	-4.5884618E-001	-5.052282064775631E-003	2.3182204E-006	-4.5894876E-001	0
8.9885211E+004	3.394819934888801E+001	-4.6085685E-001	-5.127171180500073E-003	2.3628920E-006	-4.6094874E-001	0
8.8403109E+004	3.414819934383559E+001	-4.6283150E-001	-5.235466115055765E-003	2.4231385E-006	-4.6294874E-001	0
8.6672836E+004	3.434819933878316E+001	-4.6484005E-001	-5.363157391957314E-003	2.4930105E-006	-4.6494877E-001	0
8.5448539E+004	3.454819933373074E+001	-4.6681973E-001	-5.463168179841243E-003	2.5503148E-006	-4.6694875E-001	0
8.4201945E+004	3.474819932867831E+001	-4.6876466E-001	-5.567147904205035E-003	2.6096823E-006	-4.6894872E-001	0
8.2810641E+004	3.494819932362589E+001	-4.7080487E-001	-5.685318694873664E-003	2.6766756E-006	-4.7094876E-001	0
8.1775906E+004	3.514819931857346E+001	-4.7285736E-001	-5.782355688899857E-003	2.7342294E-006	-4.7294879E-001	0
8.0593109E+004	3.534819931352104E+001	-4.7483325E-001	-5.891734831949311E-003	2.7975916E-006	-4.7494873E-001	0
7.9039031E+004	3.554819930846861E+001	-4.7688168E-001	-6.033496175617617E-003	2.8772638E-006	-4.7694874E-001	0
7.8004500E+004	3.574819930341619E+001	-4.7883937E-001	-6.138611841490726E-003	2.9394091E-006	-4.7894874E-001	0
7.6821508E+004	3.594819929836376E+001	-4.8079631E-001	-6.258616086001603E-003	3.0091196E-006	-4.8094875E-001	0
7.5800813E+004	3.614819929331134E+001	-4.8280954E-001	-6.369450544743617E-003	3.0752315E-006	-4.8294875E-001	0
7.4440766E+004	3.634819928825891E+001	-4.8480374E-001	-6.512611016420963E-003	3.1573381E-006	-4.8494872E-001	0
7.3839102E+004	3.654819928320649E+001	-4.8685071E-001	-6.593399876760331E-003	3.2100013E-006	-4.8694876E-001	0
7.2607836E+004	3.674819927815406E+001	-4.8885164E-001	-6.732766698455128E-003	3.2913240E-006	-4.8894873E-001	0
7.1637477E+004	3.694819927310164E+001	-4.9079731E-001	-6.851125247932285E-003	3.3625138E-006	-4.9094871E-001	0
7.0422047E+004	3.714819926804921E+001	-4.9279931E-001	-6.997798471695717E-003	3.4485104E-006	-4.9294874E-001	0
6.9351719E+004	3.734819926299679E+001	-4.9482805E-001	-7.135050908819197E-003	3.5306232E-006	-4.9494874E-001	0
6.8368039E+004	3.754819925794436E+001	-4.9678698E-001	-7.266362933014331E-003	3.6098345E-006	-4.9694872E-001	0
6.7323031E+004	3.774819925289194E+001	-4.9878490E-001	-7.408829665330491E-003	3.6954123E-006	-4.9894875E-001	0
6.6573344E+004	3.794819924783951E+001	-5.0079525E-001	-7.522459163028513E-003	3.7672119E-006	-5.0094873E-001	0
6.5720867E+004	3.814819924278709E+001	-5.0282651E-001	-7.650941161569764E-003	3.8470962E-006	-5.0294870E-001	0
6.4833680E+004	3.834819923773466E+001	-5.0483590E-001	-7.786630333692673E-003	3.9309707E-006	-5.0494874E-001	0
6.4062484E+004	3.854819923268224E+001	-5.0679499E-001	-7.910948070246629E-003	4.0092286E-006	-5.0694877E-001	0
6.3099652E+004	3.874819922762981E+001	-5.0880420E-001	-8.063502332418454E-003	4.1027438E-006	-5.0894874E-001	0
6.2174918E+004	3.894819922257739E+001	-5.1077545E-001	-8.215136755291640E-003	4.1960902E-006	-5.1094872E-001	0
6.1310898E+004	3.914819921752496E+001	-5.1285040E-001	-8.364751249316321E-003	4.2898660E-006	-5.1294875E-001	0
6.0639625E+004	3.934819921247254E+001	-5.1478958E-001	-8.489326719163526E-003	4.3702171E-006	-5.1494873E-001	0
5.9736563E+004	3.954819920742011E+001	-5.1680517E-001	-8.651404858164513E-003	4.4710910E-006	-5.1694876E-001	0
5.8983234E+004	3.974819920236769E+001	-5.1882219E-001	-8.796095967402592E-003	4.5636098E-006	-5.1894873E-001	0
5.8104719E+004	3.994819919731526E+001	-5.2080721E-001	-8.963251407160540E-003	4.6681257E-006	-5.2094877E-001	0
5.7534438E+004	4.014819919226284E+001	-5.2276671E-001	-9.086153195110219E-003	4.7499384E-006	-5.2294880E-001	0
5.6644719E+004	4.034819918721041E+001	-5.2480817E-001	-9.264909051191927E-003	4.8623001E-006	-5.2494872E-001	0
5.5801711E+004	4.054819918215799E+001	-5.2679557E-001	-9.440490986007223E-003	4.9732089E-006	-5.2694875E-001	0
5.5283699E+004	4.074819917710556E+001	-5.2877444E-001	-9.564744423224344E-003	5.0575923E-006	-5.2894878E-001	0
5.4416418E+004	4.094819917205314E+001	-5.3080618E-001	-9.754522813601813E-003	5.1777611E-006	-5.3094870E-001	0
5.3718141E+004	4.114819916700071E+001	-5.3279668E-001	-9.918375658185485E-003	5.2844775E-006	-5.3294873E-001	0
5.3285656E+004	4.134819916194829E+001	-5.3480774E-001	-1.003661728813840E-002	5.3676608E-006	-5.3494877E-001	0
5.2548508E+004	4.154819915689586E+001	-5.3683096E-001	-1.021591276164023E-002	5.4842185E-006	-5.3694880E-001	0
5.1894805E+004	4.174819915184344E+001	-5.3880942E-001	-1.038272338073284E-002	5.5943092E-006	-5.3894871E-001	0
5.1249324E+004	4.194819914679101E+001	-5.4079723E-001	-1.055228038536024E-002	5.7066441E-006	-5.4094875E-001	0
5.0587023E+004	4.214819914173859E+001	-5.4283524E-001	-1.073072110661760E-002	5.8250134E-006	-5.4294878E-001	0
4.9975688E+004	4.234819913668616E+001	-5.4484147E-001	-1.090213056160622E-002	5.9399326E-006	-5.4494870E-001	0
4.9304402E+004	4.254819913163374E+001	-5.4684705E-001	-1.109124211182122E-002	6.0652128E-006	-5.4694873E-001	0
4.8867918E+004	4.274819912658131E+001	-5.4882145E-001	-1.123071063008702E-002	6.1636547E-006	-5.4894882E-001	0
4.8275926E+004	4.294819912152889E+001	-5.5080390E-001	-1.140949445059408E-002	6.2843942E-006	-5.5094874E-001	0
4.7594605E+004	4.314819911647646E+001	-5.5282015E-001	-1.161518468263634E-002	6.4211081E-006	-5.5294877E-001	0
4.7028559E+004	4.334819911142404E+001	-5.5482066E-001	-1.179752627713926E-002	6.5455115E-006	-5.5494875E-001	0
4.6547445E+004	4.354819910637161E+001	-5.5682158E-001	-1.196245160454079E-002	6.6609514E-006	-5.5694878E-001	0
4.5960453E+004	4.374819910131919E+001	-5.5886233E-001	-1.215963442508947E-002	6.7955616E-006	-5.5894876E-001	0
4.5415910E+004	4.394819909626676E+001	-5.6083161E-001	-1.234879153883592E-002	6.9255925E-006	-5.6094873E-001	0
4.4962586E+004	4.414819909121434E+001	-5.6288695E-001	-1.251900784817556E-002	7.0467863E-006	-5.6294876E-001	0
4.4439234E+004	4.434819908616191E+001	-5.6481671E-001	-1.270986567309462E-002	7.1787445E-006	-5.6494868E-001	0
4.4004246E+004	4.454819908110949E+001	-5.6679922E-001	-1.288055807516789E-002	7.3006904E-006	-5.6694877E-001	0
4.3441973E+004	4.474819907605706E+001	-5.6880736E-001	-1.309349726135328E-002	7.4476775E-006	-5.6894881E-001	0
4.2940980E+004	4.494819907100464E+001	-5.7082868E-001	-1.329333093487228E-002	7.5882144E-006	-5.7094878E-001	0
4.2430414E+004	4.514819906595221E+001	-5.7281238E-001	-1.350004266133925E-002	7.7329914E-006	-5.7294875E-001	0
4.1956660E+004	4.534819906089979E+001	-5.7484794E-001	-1.370099324206639E-002	7.8759876E-006	-5.7494873E-001	0
4.1452758E+004	4.554819905584736E+001	-5.7681489E-001	-1.391499492832380E-002	8.0263762E-006	-5.7694882E-001	0
4.1025078E+004	4.574819905079494E+001	-5.7879817E-001	-1.410839973279443E-002	8.1659164E-006	-5.7894868E-001	0
4.0588477E+004	4.594819904574251E+001	-5.8080506E-001	-1.430960525885272E-002	8.3110908E-006	-5.8094871E-001	0
4.0260637E+004	4.614819904069009E+001	-5.8281171E-001	-1.447596929649567E-002	8.4367648E-006	-5.8294880E-001	0
3.9768660E+004	4.634819903563766E+001	-5.8484238E-001	-1.470611263882225E-002	8.6007576E-006	-5.8494872E-001	0
3.9351746E+004	4.654819903058524E+001	-5.8679760E-001	-1.491160254609769E-002	8.7500921E-006	-5.8694875E-001	0
3.8953879E+004	4.674819902553281E+001	-5.8878285E-001	-1.511487033486869E-002	8.8993766E-006	-5.8894873E-001	0
3.8542086E+004	4.694819902048039E+001	-5.9082347E-001	-1.532930768514156E-002	9.0569147E-006	-5.9094876E-001	0
3.8140809E+004	4.714819901542796E+001	-5.9279281E-001	-1.554221996288882E-002	9.2133159E-006	-5.9294873E-001	0
3.7813836E+004	4.734819901037554E+001	-5.9479499E-001	-1.572956001864384E-002	9.3558638E-006	-5.9494877E-001	0
3.7304094E+004	4.754819900532311E+001	-5.9684747E-001	-1.599951612455836E-002	9.5492705E-006	-5.9694880E-001	0
3.7001551E+004	4.774819900027069E+001	-5.9884036E-001	-1.618419593102946E-002	9.6917493E-006	-5.9894872E-001	0
3.6632813E+004	4.794819899521826E+001	-6.0082132E-001	-1.640117884301548E-002	9.8541777E-006	-6.0094875E-001	0
3.6295156E+004	4.814819899016584E+001	-6.0280925E-001	-1.660853240305299E-002	1.0011777E-005	-6.0294878E-001	0
3.5952168E+004	4.834819898511341E+001	-6.0482407E-001	-1.682302044005546E-002	1.0174967E-005	-6.0494876E-001	0
3.5613188E+004	4.854819898006099E+001	-6.0682118E-001	-1.703922695885762E-002	1.0339764E-005	-6.0694873E-001	0
3.5220227E+004	4.874819897500856E+001	-6.0883611E-001	-1.728654782435074E-002	1.0524675E-005	-6.0894871E-001	0
3.4969480E+004	4.894819896995614E+001	-6.1081046E-001	-1.746695868189439E-002	1.0669001E-005	-6.1094880E-001	0
3.4661629E+004	4.914819896490371E+001	-6.1289352E-001	-1.768219083217087E-002	1.0837301E-005	-6.1294872E-001	0
3.4295410E+004	4.934819895985129E+001	-6.1483288E-001	-1.792755496979620E-002	1.1022450E-005	-6.1494869E-001	0
3.3984535E+004	4.954819895479886E+001	-6.1682749E-001	-1.815023954272432E-002	1.1195567E-005	-6.1694878E-001	0
3.3690621E+004	4.974819894974644E+001	-6.1889964E-001	-1.837008762571435E-002	1.1369240E-005	-6.1894870E-001	0
3.3401500E+004	4.994819894469401E+001	-6.2083250E-001	-1.858696565185122E-002	1.1539392E-005	-6.2094873E-001	0
3.3056277E+004	5.014819893964159E+001	-6.2276638E-001	-1.883957918446679E-002	1.1732656E-005	-6.2294871E-001	0
3.2827434E+004	5.034819893458916E+001	-6.2483984E-001	-1.903407493948861E-002	1.1893248E-005	-6.2494874E-001	0
3.2484977E+004	5.054819892953674E+001	-6.2681723E-001	-1.929560304532783E-002	1.2094816E-005	-6.2694877E-001	0
3.2290449E+004	5.074819892448431E+001	-6.2890136E-001	-1.947638986839709E-002	1.2248728E-005	-6.2894875E-001	0
3.1962381E+004	5.094819891943189E+001	-6.3083905E-001	-1.973692345622470E-002	1.2450822E-005	-6.3094878E-001	0
3.1724633E+004	5.114819891437946E+001	-6.3284779E-001	-1.994815111042013E-002	1.2624143E-005	-6.3294876E-001	0
3.1474072E+004	5.134819890932704E+001	-6.3482130E-001	-2.016965819424002E-002	1.2804128E-005	-6.3494873E-001	0
3.1175285E+004	5.154819890427461E+001	-6.3685817E-001	-2.042830218162381E-002	1.3009931E-005	-6.3694876E-001	0
3.0994172E+004	5.174819889922219E+001	-6.3886088E-001	-2.061229013658889E-002	1.3168386E-005	-6.3894880E-001	0
3.0722648E+004	5.194819889416976E+001	-6.4083922E-001	-2.085885365243864E-002	1.3367171E-005	-6.4094877E-001	0
3.0453340E+004	5.214819888911734E+001	-6.4283502E-001	-2.110885062226982E-002	1.3569508E-005	-6.4294875E-001	0
3.0244072E+004	5.234819888406491E+001	-6.4487922E-001	-2.132249956455842E-002	1.3750437E-005	-6.4494878E-001	0
2.9959168E+004	5.254819887901249E+001	-6.4686739E-001	-2.159163399991243E-002	1.3966924E-005	-6.4694875E-001	0
2.9753637E+004	5.274819887396006E+001	-6.4885181E-001	-2.180747975621167E-002	1.4149823E-005	-6.4894873E-001	0
2.9529209E+004	5.294819886890764E+001	-6.5087670E-001	-2.204179192540526E-002	1.4346489E-005	-6.5094876E-001	0
2.9307508E+004	5.314819886385521E+001	-6.5287608E-001	-2.227675188950511E-002	1.4543958E-005	-6.5294880E-001	0
2.9082867E+004	5.334819885880279E+001	-6.5488529E-001	-2.251790679781113E-002	1.4746646E-005	-6.5494871E-001	0
2.8867449E+004	5.354819885375036E+001	-6.5686458E-001	-2.275450789760869E-002	1.4946630E-005	-6.5694875E-001	0
2.8703869E+004	5.374819884869794E+001	-6.5886664E-001	-2.295393138913247E-002	1.5123580E-005	-6.5894878E-001	0
2.8466174E+004	5.394819884364551E+001	-6.6082591E-001	-2.321442663553441E-002	1.5340695E-005	-6.6094875E-001	0
2.8221213E+004	5.414819883859309E+001	-6.6286629E-001	-2.348822824139035E-002	1.5569554E-005	-6.6294873E-001	0
2.8075387E+004	5.434819883354066E+001	-6.6485095E-001	-2.368091867432587E-002	1.5744281E-005	-6.6494876E-001	0
2.7914852E+004	5.454819882848824E+001	-6.6691214E-001	-2.389094367562083E-002	1.5933161E-005	-6.6694880E-001	0
2.7672416E+004	5.474819882343581E+001	-6.6882455E-001	-2.416935895491487E-002	1.6165061E-005	-6.6894871E-001	0
2.7468818E+004	5.494819881838339E+001	-6.7089105E-001	-2.442373175099027E-002	1.6385662E-005	-6.7094874E-001	0
2.7276715E+004	5.514819881333096E+001	-6.7282832E-001	-2.466676511501903E-002	1.6596498E-005	-6.7294878E-001	0
2.7091697E+004	5.534819880827854E+001	-6.7489034E-001	-2.491133538911083E-002	1.6812419E-005	-6.7494875E-001	0
2.6897213E+004	5.554819880322611E+001	-6.7684138E-001	-2.516399661808683E-002	1.7032035E-005	-6.7694879E-001	0
2.6712662E+004	5.574819879817369E+001	-6.7886615E-001	-2.541364550557782E-002	1.7252463E-005	-6.7894876E-001	0
2.6527053E+004	5.594819879312126E+001	-6.8088681E-001	-2.566763781282477E-002	1.7476756E-005	-6.8094879E-001	0
2.6386629E+004	5.614819878806884E+001	-6.8284857E-001	-2.587858326558889E-002	1.7671153E-005	-6.8294871E-001	0
2.6198730E+004	5.634819878301641E+001	-6.8481046E-001	-2.613907021363715E-002	1.7900309E-005	-6.8494874E-001	0
2.6020975E+004	5.654819877796399E+001	-6.8688488E-001	-2.639735371873314E-002	1.8131943E-005	-6.8694884E-001	0
2.5816734E+004	5.674819877291156E+001	-6.8882549E-001	-2.668135614074192E-002	1.8378798E-005	-6.8894869E-001	0
2.5663080E+004	5.694819876785914E+001	-6.9081223E-001	-2.691852372660264E-002	1.8595645E-005	-6.9094872E-001	0
2.5477973E+004	5.714819876280671E+001	-6.9289702E-001	-2.719592387643344E-002	1.8843975E-005	-6.9294882E-001	0
2.5314738E+004	5.734819875775429E+001	-6.9483179E-001	-2.744771849101130E-002	1.9071547E-005	-6.9494873E-001	0
2.5173939E+004	5.754819875270186E+001	-6.9683987E-001	-2.768100258158292E-002	1.9289226E-005	-6.9694871E-001	0
2.5030389E+004	5.774819874764944E+001	-6.9885582E-001	-2.792029351955849E-002	1.9512259E-005	-6.9894880E-001	0
2.4842205E+004	5.794819874259701E+001	-7.0087463E-001	-2.821306041531602E-002	1.9773819E-005	-7.0094889E-001	0
2.4690459E+004	5.814819873754459E+001	-7.0287573E-001	-2.846750478754401E-002	2.0009118E-005	-7.0294875E-001	0
2.4493393E+004	5.834819873249216E+001	-7.0484352E-001	-2.877688384245311E-002	2.0283200E-005	-7.0494872E-001	0
2.4356408E+004	5.854819872743974E+001	-7.0684153E-001	-2.902076148788096E-002	2.0513080E-005	-7.0694882E-001	0
2.4174678E+004	5.874819872238731E+001	-7.0887768E-001	-2.932315040960509E-002	2.0786527E-005	-7.0894873E-001	0
2.4035133E+004	5.894819871733489E+001	-7.1082956E-001	-2.957460404264955E-002	2.1022503E-005	-7.1094877E-001	0
2.3883953E+004	5.914819871228246E+001	-7.1284026E-001	-2.984599029125808E-002	2.1275424E-005	-7.1294880E-001	0
2.3715578E+004	5.934819870723004E+001	-7.1485537E-001	-3.014286159740476E-002	2.1547787E-005	-7.1494877E-001	0
2.3545609E+004	5.954819870217761E+001	-7.1689045E-001	-3.044688437147736E-002	2.1827082E-005	-7.1694875E-001	0
2.3379730E+004	5.974819869712519E+001	-7.1885598E-001	-3.074697328519194E-002	2.2102646E-005	-7.1894872E-001	0
2.3235354E+004	5.994819869207277E+001	-7.2090590E-001	-3.102625132001968E-002	2.2367007E-005	-7.2094887E-001	0
2.3082197E+004	6.014819868702034E+001	-7.2287607E-001	-3.131747281531519E-002	2.2638651E-005	-7.2294879E-001	0
2.2917826E+004	6.034819868196792E+001	-7.2487003E-001	-3.162909239290868E-002	2.2926981E-005	-7.2494876E-001	0
2.2764148E+004	6.054819867691549E+001	-7.2688705E-001	-3.193122196267839E-002	2.3210392E-005	-7.2694880E-001	0
2.2594037E+004	6.074819867186307E+001	-7.2890246E-001	-3.226083392159085E-002	2.3515002E-005	-7.2894871E-001	0
2.2451105E+004	6.094819866681064E+001	-7.3089778E-001	-3.255509171168192E-002	2.3794444E-005	-7.3094881E-001	0
2.2322453E+004	6.114819866175822E+001	-7.3284400E-001	-3.282990415903686E-002	2.4059198E-005	-7.3294878E-001	0
2.2127939E+004	6.134819865670579E+001	-7.3488742E-001	-3.321083732289343E-002	2.4406227E-005	-7.3494887E-001	0
2.1992645E+004	6.154819865165337E+001	-7.3683947E-001	-3.350390470771498E-002	2.4687000E-005	-7.3694873E-001	0
2.1836566E+004	6.174819864660094E+001	-7.3888177E-001	-3.383690393513994E-002	2.5001471E-005	-7.3894870E-001	0
2.1664727E+004	6.194819864154852E+001	-7.4086577E-001	-3.419686762363672E-002	2.5335288E-005	-7.4094880E-001	0
2.1518170E+004	6.214819863649609E+001	-7.4284124E-001	-3.452158083742207E-002	2.5644054E-005	-7.4294877E-001	0
2.1352459E+004	6.234819863144367E+001	-7.4487394E-001	-3.488469116422477E-002	2.5984697E-005	-7.4494874E-001	0
2.1206301E+004	6.254819862639124E+001	-7.4686980E-001	-3.521923975656827E-002	2.6304187E-005	-7.4694878E-001	0
2.1030598E+004	6.274819862133882E+001	-7.4885750E-001	-3.560799738242287E-002	2.6665315E-005	-7.4894881E-001	0
2.0870715E+004	6.294819861628639E+001	-7.5088751E-001	-3.597804403556559E-002	2.7015463E-005	-7.5094873E-001	0
2.0717758E+004	6.314819861123397E+001	-7.5284719E-001	-3.633825475869520E-002	2.7357153E-005	-7.5294876E-001	0
2.0547846E+004	6.334819860618154E+001	-7.5484735E-001	-3.673608210824764E-002	2.7730133E-005	-7.5494885E-001	0
2.0376609E+004	6.354819860112912E+001	-7.5690389E-001	-3.714572371864300E-002	2.8115743E-005	-7.5694877E-001	0
2.0210521E+004	6.374819859607669E+001	-7.5888187E-001	-3.754885135510994E-002	2.8495142E-005	-7.5894874E-001	0
2.0056574E+004	6.394819859102427E+001	-7.6084840E-001	-3.793511421328866E-002	2.8862871E-005	-7.6094878E-001	0
1.9886430E+004	6.414819858597184E+001	-7.6286674E-001	-3.836117020508267E-002	2.9264460E-005	-7.6294881E-001	0
1.9723615E+004	6.434819858091942E+001	-7.6481718E-001	-3.877672217041878E-002	2.9657103E-005	-7.6494879E-001	0
1.9537320E+004	6.454819857586699E+001	-7.6686078E-001	-3.925107148858198E-002	3.0100107E-005	-7.6694876E-001	0
1.9374299E+004	6.474819857081457E+001	-7.6883525E-001	-3.968325634054054E-002	3.0509886E-005	-7.6894885E-001	0
1.9191518E+004	6.494819856576214E+001	-7.7084863E-001	-4.016611319142985E-002	3.0961994E-005	-7.7094883E-001	0
1.9027182E+004	6.514819856070972E+001	-7.7285576E-001	-4.061850905233621E-002	3.1392250E-005	-7.7294874E-001	0
1.8849346E+004	6.534819855565729E+001	-7.7484041E-001	-4.110702126320700E-002	3.1851381E-005	-7.7494878E-001	0
1.8680221E+004	6.554819855060487E+001	-7.7685308E-001	-4.158693142689299E-002	3.2306936E-005	-7.7694875E-001	0
1.8496168E+004	6.574819854555244E+001	-7.7879477E-001	-4.210573750286184E-002	3.2791730E-005	-7.7894872E-001	0
1.8318400E+004	6.594819854050002E+001	-7.8085685E-001	-4.262691306012595E-002	3.3285516E-005	-7.8094876E-001	0
1.8133951E+004	6.614819853544759E+001	-7.8281146E-001	-4.316827926791089E-002	3.3792625E-005	-7.8294891E-001	0
1.7951113E+004	6.634819853039517E+001	-7.8484935E-001	-4.372148461246017E-002	3.4314780E-005	-7.8494877E-001	0
1.7755389E+004	6.654819852534274E+001	-7.8682536E-001	-4.431473437349309E-002	3.4867957E-005	-7.8694886E-001	0
1.7588803E+004	6.674819852029032E+001	-7.8881210E-001	-4.484740008052035E-002	3.5376172E-005	-7.8894883E-001	0
1.7394271E+004	6.694819851523789E+001	-7.9083210E-001	-4.546509156755407E-002	3.5955254E-005	-7.9094881E-001	0
1.7198494E+004	6.714819851018547E+001	-7.9282188E-001	-4.609833047102274E-002	3.6547764E-005	-7.9294878E-001	0
1.7006160E+004	6.734819850513304E+001	-7.9483593E-001	-4.673811967844732E-002	3.7149137E-005	-7.9494882E-001	0
1.6810334E+004	6.754819850008062E+001	-7.9684836E-001	-4.740229084435210E-002	3.7772439E-005	-7.9694885E-001	0
1.6624709E+004	6.774819849502819E+001	-7.9887241E-001	-4.805331793692935E-002	3.8388469E-005	-7.9894876E-001	0
1.6426795E+004	6.794819848997577E+001	-8.0081481E-001	-4.875052157792648E-002	3.9040140E-005	-8.0094874E-001	0
1.6232332E+004	6.814819848492334E+001	-8.0285722E-001	-4.946037301584605E-002	3.9709619E-005	-8.0294889E-001	0
1.6022658E+004	6.834819847987092E+001	-8.0481726E-001	-5.022994686253890E-002	4.0425930E-005	-8.0494887E-001	0
1.5829318E+004	6.854819847481849E+001	-8.0683166E-001	-5.097071236461959E-002	4.1124786E-005	-8.0694878E-001	0
1.5613785E+004	6.874819846976607E+001	-8.0880785E-001	-5.180088300289620E-002	4.1896961E-005	-8.0894881E-001	0
1.5411973E+004	6.894819846471364E+001	-8.1086165E-001	-5.261245183910623E-002	4.2661421E-005	-8.1094885E-001	0
1.5209628E+004	6.914819845966122E+001	-8.1281459E-001	-5.344079240318189E-002	4.3437456E-005	-8.1294870E-001	0
1.4996421E+004	6.934819845460879E+001	-8.1481975E-001	-5.433428029650123E-002	4.4272645E-005	-8.1494880E-001	0
1.4788607E+004	6.954819844955637E+001	-8.1685293E-001	-5.523528378877085E-002	4.5119104E-005	-8.1694889E-001	0
1.4579687E+004	6.974819844450394E+001	-8.1886148E-001	-5.616454488720324E-002	4.5990982E-005	-8.1894875E-001	0
1.4366787E+004	6.994819843945152E+001	-8.2086205E-001	-5.713609173047085E-002	4.6900848E-005	-8.2094884E-001	0
1.4153843E+004	7.014819843439909E+001	-8.2285726E-001	-5.813666892738478E-002	4.7838181E-005	-8.2294881E-001	0
1.3949946E+004	7.034819842934667E+001	-8.2487619E-001	-5.913113669519743E-002	4.8775866E-005	-8.2494879E-001	0
1.3729308E+004	7.054819842429424E+001	-8.2680285E-001	-6.022174249597440E-002	4.9791510E-005	-8.2694876E-001	0
1.3518525E+004	7.074819841924182E+001	-8.2888329E-001	-6.131462325329307E-002	5.0822666E-005	-8.2894880E-001	0
1.3303854E+004	7.094819841418939E+001	-8.3083296E-001	-6.245055113541076E-002	5.1885978E-005	-8.3094889E-001	0
1.3085437E+004	7.114819840913697E+001	-8.3286035E-001	-6.364788239676067E-002	5.3009797E-005	-8.3294880E-001	0
1.2871700E+004	7.134819840408454E+001	-8.3485830E-001	-6.485998489822142E-002	5.4148895E-005	-8.3494872E-001	0
1.2659818E+004	7.154819839903212E+001	-8.3683312E-001	-6.610151237434370E-002	5.5315933E-005	-8.3694887E-001	0
1.2443056E+004	7.174819839397969E+001	-8.3886200E-001	-6.741607854620041E-002	5.6552788E-005	-8.3894885E-001	0
1.2229606E+004	7.194819838892727E+001	-8.4085852E-001	-6.875597520271015E-002	5.7814046E-005	-8.4094876E-001	0
1.2013191E+004	7.214819838387484E+001	-8.4280688E-001	-7.015678292940730E-002	5.9128619E-005	-8.4294885E-001	0
1.1801184E+004	7.234819837882242E+001	-8.4483516E-001	-7.158901691204478E-002	6.0480917E-005	-8.4494883E-001	0
1.1586685E+004	7.254819837376999E+001	-8.4687978E-001	-7.309077579956824E-002	6.1899103E-005	-8.4694880E-001	0
1.1377111E+004	7.274819836871757E+001	-8.4884977E-001	-7.461030589408169E-002	6.3332940E-005	-8.4894878E-001	0
1.1168355E+004	7.294819836366514E+001	-8.5082543E-001	-7.618180000594887E-002	6.4817410E-005	-8.5094887E-001	0
1.0957464E+004	7.314819835861272E+001	-8.5286826E-001	-7.783445557832802E-002	6.6382534E-005	-8.5294873E-001	0
1.0749435E+004	7.334819835356029E+001	-8.5488498E-001	-7.952836861721982E-002	6.7987610E-005	-8.5494882E-001	0
1.0547889E+004	7.354819834850787E+001	-8.5688901E-001	-8.123796341503620E-002	6.9611917E-005	-8.5694879E-001	0
1.0338048E+004	7.374819834345544E+001	-8.5892212E-001	-8.308358701862550E-002	7.1362330E-005	-8.5894877E-001	0
1.0133021E+004	7.394819833840302E+001	-8.6089480E-001	-8.495934439459807E-002	7.3141055E-005	-8.6094886E-001	0
9.9273281E+003	7.414819833335059E+001	-8.6283368E-001	-8.691499341710079E-002	7.4993186E-005	-8.6294878E-001	0
9.7305820E+003	7.434819832829817E+001	-8.6490649E-001	-8.888538251525330E-002	7.6877543E-005	-8.6494893E-001	0
9.5279658E+003	7.454819832324574E+001	-8.6686468E-001	-9.098108579001285E-002	7.8868288E-005	-8.6694878E-001	0
9.3280840E+003	7.474819831819332E+001	-8.6887008E-001	-9.314560639363734E-002	8.0931430E-005	-8.6894870E-001	0
9.1310918E+003	7.494819831314089E+001	-8.7085879E-001	-9.537291031356165E-002	8.3056337E-005	-8.7094885E-001	0
8.9237363E+003	7.515819830783585E+001	-8.7295467E-001	-9.782389310099582E-002	8.5395826E-005	-8.7304884E-001	0
8.7116143E+003	7.536819830253080E+001	-8.7499177E-001	-1.004396828404648E-001	8.7883898E-005	-8.7514883E-001	0
8.5248105E+003	7.556819829747838E+001	-8.7704962E-001	-1.028820087926254E-001	9.0232628E-005	-8.7714881E-001	0
8.3369063E+003	7.576819829242595E+001	-8.7903017E-001	-1.054384079223283E-001	9.2683542E-005	-8.7914878E-001	0
8.1466113E+003	7.596819828737353E+001	-8.8102847E-001	-1.081466187338631E-001	9.5280251E-005	-8.8114887E-001	0
7.9581372E+003	7.616819828232110E+001	-8.8303137E-001	-1.109595535969249E-001	9.7980766E-005	-8.8314879E-001	0
7.7757261E+003	7.636819827726868E+001	-8.8503915E-001	-1.138207723667459E-001	1.0073584E-004	-8.8514894E-001	0
7.5914834E+003	7.656819827221625E+001	-8.8704556E-001	-1.168474600261786E-001	1.0364902E-004	-8.8714880E-001	0
7.4103701E+003	7.676819826716383E+001	-8.8900709E-001	-1.199679737836712E-001	1.0665238E-004	-8.8914871E-001	0
7.2365576E+003	7.696819826211140E+001	-8.9105308E-001	-1.231321727998491E-001	1.0971730E-004	-8.9114887E-001	0
7.0589717E+003	7.716819825705898E+001	-8.9303792E-001	-1.265110492911146E-001	1.1297916E-004	-8.9314884E-001	0
6.8848823E+003	7.736819825200655E+001	-8.9503211E-001	-1.299996256855762E-001	1.1635384E-004	-8.9514881E-001	0
6.7165771E+003	7.756819824695413E+001	-8.9704359E-001	-1.335566528268211E-001	1.1980614E-004	-8.9714885E-001	0
6.5474600E+003	7.776819824190170E+001	-8.9904815E-001	-1.373125044322756E-001	1.2345055E-004	-8.9914888E-001	0
6.3810801E+003	7.796819823684928E+001	-9.0105277E-001	-1.412069379730041E-001	1.2723490E-004	-9.0114880E-001	0
6.2198882E+003	7.816819823179685E+001	-9.0304554E-001	-1.451867809857061E-001	1.3111027E-004	-9.0314877E-001	0
6.0608101E+003	7.836819822674443E+001	-9.0502185E-001	-1.493235818984704E-001	1.3514110E-004	-9.0514886E-001	0
5.9030107E+003	7.856819822169200E+001	-9.0701258E-001	-1.536525376605677E-001	1.3936478E-004	-9.0714884E-001	0
5.7512402E+003	7.876819821663958E+001	-9.0902621E-001	-1.580574200097938E-001	1.4367834E-004	-9.0914875E-001	0
5.6017583E+003	7.896819821158715E+001	-9.1106194E-001	-1.626385724881576E-001	1.4817381E-004	-9.1114891E-001	0
5.4563892E+003	7.916819820653473E+001	-9.1302294E-001	-1.673309792196404E-001	1.5277702E-004	-9.1314876E-001	0
5.3148369E+003	7.936819820148230E+001	-9.1504663E-001	-1.721683340928526E-001	1.5754206E-004	-9.1514885E-001	0
5.1761328E+003	7.956819819642988E+001	-9.1706276E-001	-1.771714107952840E-001	1.6247730E-004	-9.1714883E-001	0
5.0419004E+003	7.976819819137745E+001	-9.1905677E-001	-1.822838017404449E-001	1.6752916E-004	-9.1914892E-001	0
4.9063057E+003	7.996819818632503E+001	-9.2103356E-001	-1.877244643037055E-001	1.7290053E-004	-9.2114890E-001	0
4.7655757E+003	8.016819818127260E+001	-9.2306501E-001	-1.936943421336719E-001	1.7879247E-004	-9.2314881E-001	0
4.6457495E+003	8.036819817622018E+001	-9.2508078E-001	-1.991241197133444E-001	1.8420590E-004	-9.2514884E-001	0
4.5299033E+003	8.056819817116775E+001	-9.2703658E-001	-2.046482130534562E-001	1.8971637E-004	-9.2714882E-001	0
4.4178003E+003	8.076819816611533E+001	-9.2903286E-001	-2.102930825245897E-001	1.9536918E-004	-9.2914879E-001	0
4.3095874E+003	8.096819816106290E+001	-9.3105632E-001	-2.160430315506066E-001	2.0114823E-004	-9.3114883E-001	0
4.2042954E+003	8.116819815601048E+001	-9.3303496E-001	-2.219242150314544E-001	2.0706304E-004	-9.3314886E-001	0
4.1052485E+003	8.136819815095805E+001	-9.3505454E-001	-2.277705150185461E-001	2.1297786E-004	-9.3514884E-001	0
4.0087002E+003	8.156819814590563E+001	-9.3702972E-001	-2.337490097258481E-001	2.1902977E-004	-9.3714875E-001	0
3.9156592E+003	8.176819814085320E+001	-9.3906039E-001	-2.398217881833309E-001	2.2520714E-004	-9.3914884E-001	0
3.8267998E+003	8.196819813580078E+001	-9.4106025E-001	-2.459131086164921E-001	2.3141905E-004	-9.4114882E-001	0
3.7396726E+003	8.216819813074835E+001	-9.4302487E-001	-2.521677581981969E-001	2.3780047E-004	-9.4314879E-001	0
3.6555281E+003	8.236819812569593E+001	-9.4505125E-001	-2.585266028254241E-001	2.4432089E-004	-9.4514889E-001	0
3.5730999E+003	8.256819812064350E+001	-9.4705415E-001	-2.650511325136367E-001	2.5101777E-004	-9.4714886E-001	0
3.4921169E+003	8.276819811559108E+001	-9.4907606E-001	-2.717767070615627E-001	2.5793677E-004	-9.4914883E-001	0
3.4130183E+003	8.296819811053865E+001	-9.5106626E-001	-2.786584169268107E-001	2.6502262E-004	-9.5114881E-001	0
3.3363345E+003	8.316819810548623E+001	-9.5306122E-001	-2.856611704829746E-001	2.7225260E-004	-9.5314890E-001	0
3.2598696E+003	8.336819810043380E+001	-9.5506525E-001	-2.929765225035417E-001	2.7981171E-004	-9.5514888E-001	0
3.1844744E+003	8.356819809538138E+001	-9.5705241E-001	-3.005370214885599E-001	2.8762969E-004	-9.5714879E-001	0
3.1097927E+003	8.376819809032895E+001	-9.5905203E-001	-3.083974032212984E-001	2.9576916E-004	-9.5914882E-001	0
3.0355837E+003	8.396819808527653E+001	-9.6105707E-001	-3.165971078274255E-001	3.0426789E-004	-9.6114892E-001	0
2.9635771E+003	8.416819808022410E+001	-9.6305180E-001	-3.249626246591406E-001	3.1295585E-004	-9.6314877E-001	0
2.8915896E+003	8.436819807517168E+001	-9.6503347E-001	-3.337380562184584E-001	3.2206840E-004	-9.6514881E-001	0
2.8210896E+003	8.456819807011925E+001	-9.6703857E-001	-3.427890307605770E-001	3.3149021E-004	-9.6714884E-001	0
2.7519075E+003	8.476819806506683E+001	-9.6907401E-001	-3.521462923988623E-001	3.4125583E-004	-9.6914881E-001	0
2.6840100E+003	8.496819806001440E+001	-9.7104657E-001	-3.617894869432901E-001	3.5131443E-004	-9.7114879E-001	0
2.6185979E+003	8.516819805496198E+001	-9.7307056E-001	-3.715998260072024E-001	3.6159286E-004	-9.7314882E-001	0
2.5540481E+003	8.536819804990955E+001	-9.7506982E-001	-3.817742468425974E-001	3.7225656E-004	-9.7514880E-001	0
2.4921343E+003	8.556819804485713E+001	-9.7702914E-001	-3.920451266049092E-001	3.8303953E-004	-9.7714877E-001	0
2.4322820E+003	8.576819803980470E+001	-9.7905946E-001	-4.025271162475175E-001	3.9409797E-004	-9.7914886E-001	0
2.3662637E+003	8.596819803475228E+001	-9.8102987E-001	-4.145902615513597E-001	4.0672542E-004	-9.8114884E-001	0
2.3080439E+003	8.616819802969985E+001	-9.8304480E-001	-4.259211666958063E-001	4.1869958E-004	-9.8314881E-001	0
2.2542766E+003	8.636819802464743E+001	-9.8503381E-001	-4.369622715231438E-001	4.3042260E-004	-9.8514879E-001	0
2.2018081E+003	8.656819801959500E+001	-9.8703140E-001	-4.482822091130707E-001	4.4246862E-004	-9.8714888E-001	0
2.1520310E+003	8.676819801454258E+001	-9.8900962E-001	-4.595703440348786E-001	4.5451950E-004	-9.8914891E-001	0
2.1040500E+003	8.696819800949015E+001	-9.9106306E-001	-4.710263789815166E-001	4.6681685E-004	-9.9114883E-001	0
2.0579436E+003	8.716819800443773E+001	-9.9305707E-001	-4.825482468317155E-001	4.7919794E-004	-9.9314880E-001	0
2.0135898E+003	8.736819799938530E+001	-9.9504250E-001	-4.941634492834592E-001	4.9171364E-004	-9.9514890E-001	0
1.9710408E+003	8.756819799433288E+001	-9.9706674E-001	-5.058580032146432E-001	5.0437421E-004	-9.9714875E-001	0
1.9307103E+003	8.776819798928045E+001	-9.9905246E-001	-5.174533047939311E-001	5.1696302E-004	-9.9914879E-001	0
1.8915507E+003	8.796819798422803E+001	-1.0010743E+000	-5.292347514000877E-001	5.2980334E-004	-1.0011488E+000	0
1.8537933E+003	8.816819797917560E+001	-1.0030355E+000	-5.410719409356908E-001	5.4271438E-004	-1.0031488E+000	0
1.8182499E+003	8.836819797412318E+001	-1.0050443E+000	-5.527537017131472E-001	5.5554201E-004	-1.0051489E+000	0
1.7836490E+003	8.856819796907075E+001	-1.0070646E+000	-5.646091561274522E-001	5.6859787E-004	-1.0071489E+000	0
1.7506786E+003	8.876819796401833E+001	-1.0090616E+000	-5.763831160911916E-001	5.8160606E-004	-1.0091488E+000	0
1.7190070E+003	8.896839795896085E+001	-1.0110701E+000	-5.881710506653333E-001	5.9468218E-004	-1.0111504E+000	0
1.6884325E+003	8.916859795390337E+001	-1.0130787E+000	-6.000113623542003E-001	6.0785870E-004	-1.0131528E+000	0
1.6590503E+003	8.936869794884842E+001	-1.0150663E+000	-6.118357382574100E-001	6.2105380E-004	-1.0151536E+000	0
1.6303953E+003	8.956879794379347E+001	-1.0170811E+000	-6.238248950364635E-001	6.3448056E-004	-1.0171548E+000	0
1.5976488E+003	8.976879793874105E+001	-1.0190881E+000	-6.378674529822292E-001	6.5004313E-004	-1.0191548E+000	0
1.5715819E+003	8.996879793368862E+001	-1.0210476E+000	-6.496941461745208E-001	6.6336867E-004	-1.0211549E+000	0
1.5460851E+003	9.016879792863620E+001	-1.0230807E+000	-6.617234396556082E-001	6.7699648E-004	-1.0231549E+000	0
1.5217565E+003	9.036879792358377E+001	-1.0250825E+000	-6.736179510482065E-001	6.9051393E-004	-1.0251548E+000	0
1.4980369E+003	9.056889791852882E+001	-1.0271132E+000	-6.856394442945697E-001	7.0422934E-004	-1.0271556E+000	0
1.4750054E+003	9.076899791347387E+001	-1.0290812E+000	-6.976796286117226E-001	7.1796903E-004	-1.0291568E+000	0
1.4528562E+003	9.096919790841639E+001	-1.0310547E+000	-7.096743213800050E-001	7.3171308E-004	-1.0311583E+000	0
1.4314073E+003	9.116939790335891E+001	-1.0330538E+000	-7.217049474855379E-001	7.4555998E-004	-1.0331607E+000	0
1.4098213E+003	9.136939789830649E+001	-1.0351121E+000	-7.342151479875829E-001	7.5999502E-004	-1.0351608E+000	0
1.3898340E+003	9.156949789325154E+001	-1.0371021E+000	-7.462057489874953E-001	7.7389157E-004	-1.0371616E+000	0
1.3703528E+003	9.176959788819659E+001	-1.0390650E+000	-7.582463221223268E-001	7.8786723E-004	-1.0391629E+000	0
1.3512778E+003	9.196969788314163E+001	-1.0410774E+000	-7.704391751574313E-001	8.0208678E-004	-1.0411637E+000	0
1.3326077E+003	9.216989787808416E+001	-1.0431025E+000	-7.827529160606659E-001	8.1649155E-004	-1.0431657E+000	0
1.3141055E+003	9.237009787302668E+001	-1.0451171E+000	-7.953068692482512E-001	8.3118887E-004	-1.0451677E+000	0
1.2959052E+003	9.257029786796920E+001	-1.0471292E+000	-8.080291527608452E-001	8.4611087E-004	-1.0471698E+000	0
1.2778586E+003	9.277039786291425E+001	-1.0490938E+000	-8.209780026269495E-001	8.6128298E-004	-1.0491709E+000	0
1.2580182E+003	9.297039785786183E+001	-1.0510842E+000	-8.355079141789705E-001	8.7818911E-004	-1.0511709E+000	0
1.2390170E+003	9.317039785280940E+001	-1.0531406E+000	-8.499808059815201E-001	8.9514931E-004	-1.0531708E+000	0
1.2222458E+003	9.337039784775698E+001	-1.0551159E+000	-8.632599474553935E-001	9.1083936E-004	-1.0551708E+000	0
1.2054438E+003	9.357039784270455E+001	-1.0570967E+000	-8.769356638210020E-001	9.2700584E-004	-1.0571709E+000	0
1.1890464E+003	9.377039783765213E+001	-1.0591514E+000	-8.907570092772001E-001	9.4344653E-004	-1.0591710E+000	0
1.1725782E+003	9.397049783259718E+001	-1.0611092E+000	-9.049367531231880E-001	9.6023671E-004	-1.0611715E+000	0
1.1565570E+003	9.417059782754222E+001	-1.0631243E+000	-9.192147570959968E-001	9.7723957E-004	-1.0631728E+000	0
1.1407623E+003	9.437089782248222E+001	-1.0650718E+000	-9.336492107682393E-001	9.9440350E-004	-1.0651754E+000	0
1.1248640E+003	9.457099781742727E+001	-1.0671105E+000	-9.486573856839282E-001	1.0123223E-003	-1.0671767E+000	0
1.1090939E+003	9.477099781237484E+001	-1.0691290E+000	-9.639661940587576E-001	1.0306042E-003	-1.0691769E+000	0
1.0932869E+003	9.497109780731989E+001	-1.0711021E+000	-9.797081815396931E-001	1.0493675E-003	-1.0711777E+000	0
1.0776823E+003	9.517129780226242E+001	-1.0731254E+000	-9.957715569047636E-001	1.0685878E-003	-1.0731796E+000	0
1.0622069E+003	9.537149779720494E+001	-1.0751323E+000	-1.012168418504029E+000	1.0882149E-003	-1.0751816E+000	0
1.0468802E+003	9.557169779214746E+001	-1.0771259E+000	-1.028891210451428E+000	1.1082453E-003	-1.0771836E+000	0
1.0277974E+003	9.578179778683989E+001	-1.0792387E+000	-1.050050004675358E+000	1.1332545E-003	-1.0792849E+000	0
1.0098617E+003	9.599209778152726E+001	-1.0812979E+000	-1.070738556579522E+000	1.1577873E-003	-1.0813875E+000	0
9.9488538E+002	9.619229777646979E+001	-1.0832984E+000	-1.088867567281559E+000	1.1795686E-003	-1.0833896E+000	0
9.7995911E+002	9.639239777141484E+001	-1.0852854E+000	-1.107480302900754E+000	1.2019322E-003	-1.0853908E+000	0
9.6477692E+002	9.659259776635736E+001	-1.0873011E+000	-1.126997447434013E+000	1.2253856E-003	-1.0873923E+000	0
9.4914868E+002	9.679279776129988E+001	-1.0892745E+000	-1.147633217781982E+000	1.2500876E-003	-1.0893948E+000	0
9.3415771E+002	9.699289775624493E+001	-1.0912681E+000	-1.168183962778439E+000	1.2748019E-003	-1.0913956E+000	0
9.1919928E+002	9.719299775118998E+001	-1.0932953E+000	-1.189399680895665E+000	1.3003651E-003	-1.0933968E+000	0
9.0309113E+002	9.739309774613503E+001	-1.0952876E+000	-1.212820659188518E+000	1.3283874E-003	-1.0953976E+000	0
8.8817480E+002	9.759329774107755E+001	-1.0972672E+000	-1.235417978517015E+000	1.3555835E-003	-1.0973996E+000	0
8.7099609E+002	9.779349773602007E+001	-1.0992872E+000	-1.262103460451421E+000	1.3874142E-003	-1.0994016E+000	0
8.5661914E+002	9.799379773096007E+001	-1.1012800E+000	-1.285612136891427E+000	1.4158189E-003	-1.1014043E+000	0
8.4188092E+002	9.819399772590259E+001	-1.1033157E+000	-1.310536530646004E+000	1.4459356E-003	-1.1034068E+000	0
8.2733978E+002	9.839399772085017E+001	-1.1052876E+000	-1.335953553272688E+000	1.4766129E-003	-1.1054069E+000	0
8.1301849E+002	9.859409771579521E+001	-1.1073093E+000	-1.361973145053330E+000	1.5081256E-003	-1.1074077E+000	0
7.9843164E+002	9.879429771073774E+001	-1.1093091E+000	-1.389360139224067E+000	1.5412298E-003	-1.1094097E+000	0
7.8388599E+002	9.899439770568279E+001	-1.1113088E+000	-1.417691884093550E+000	1.5754935E-003	-1.1114107E+000	0
7.6936151E+002	9.919459770062531E+001	-1.1133084E+000	-1.447054974920298E+000	1.6110186E-003	-1.1134124E+000	0
7.5201636E+002	9.939489769556531E+001	-1.1153135E+000	-1.483097493072020E+000	1.6541186E-003	-1.1154157E+000	0
7.3691040E+002	9.959509769050783E+001	-1.1172901E+000	-1.516181767822044E+000	1.6940150E-003	-1.1174177E+000	0
7.2211981E+002	9.979529768545035E+001	-1.1192921E+000	-1.550008907370596E+000	1.7349127E-003	-1.1194197E+000	0
7.0722095E+002	9.999539768039540E+001	-1.1213191E+000	-1.585528608352419E+000	1.7778834E-003	-1.1214207E+000	0
6.9281879E+002	1.001955976753379E+002	-1.1233361E+000	-1.621399509595708E+000	1.8213766E-003	-1.1234225E+000	0
6.7859296E+002	1.003957976702804E+002	-1.1252806E+000	-1.658255633803044E+000	1.8660029E-003	-1.1254247E+000	0
6.6185095E+002	1.005959976652230E+002	-1.1273198E+000	-1.703283542647040E+000	1.9201452E-003	-1.1274263E+000	0
6.4737836E+002	1.007961976601655E+002	-1.1293297E+000	-1.744466266225256E+000	1.9700776E-003	-1.1294289E+000	0
6.3294281E+002	1.009962976551105E+002	-1.1313277E+000	-1.787409191105132E+000	2.0221455E-003	-1.1314297E+000	0
6.1878168E+002	1.011964976500531E+002	-1.1333237E+000	-1.831540449143997E+000	2.0757280E-003	-1.1334317E+000	0
6.0435156E+002	1.013966976449956E+002	-1.1352999E+000	-1.878542119376306E+000	2.1327087E-003	-1.1354337E+000	0
5.8827118E+002	1.015969976399356E+002	-1.1373254E+000	-1.933335148041195E+000	2.1988312E-003	-1.1374363E+000	0
5.7326086E+002	1.017971976348781E+002	-1.1393135E+000	-1.987425882597364E+000	2.2643011E-003	-1.1394389E+000	0
5.5879596E+002	1.019971976298257E+002	-1.1413530E+000	-2.042522020181842E+000	2.3312387E-003	-1.1414388E+000	0
5.4425452E+002	1.021972976247707E+002	-1.1433612E+000	-2.100784078141682E+000	2.4019550E-003	-1.1434397E+000	0
5.2838800E+002	1.023973976197158E+002	-1.1453270E+000	-2.167587033475073E+000	2.4825959E-003	-1.1454408E+000	0
5.1464734E+002	1.025973976146634E+002	-1.1473324E+000	-2.229356547331864E+000	2.5578130E-003	-1.1474408E+000	0
5.0106613E+002	1.027973976096109E+002	-1.1493493E+000	-2.293807723861423E+000	2.6363863E-003	-1.1494408E+000	0
4.8499628E+002	1.029974976045560E+002	-1.1513755E+000	-2.373988345814734E+000	2.7333521E-003	-1.1514418E+000	0
4.7021008E+002	1.031976975994985E+002	-1.1533178E+000	-2.452771348799928E+000	2.8288248E-003	-1.1534436E+000	0
4.5629736E+002	1.033977975944435E+002	-1.1553622E+000	-2.532038022550736E+000	2.9254211E-003	-1.1554449E+000	0
4.4130847E+002	1.035977975893911E+002	-1.1573461E+000	-2.622533262924804E+000	3.0351786E-003	-1.1574448E+000	0
4.2710687E+002	1.037977975843387E+002	-1.1593521E+000	-2.714430802111032E+000	3.1469809E-003	-1.1594447E+000	0
4.1181003E+002	1.039977975792863E+002	-1.1613613E+000	-2.820138493548583E+000	3.2751998E-003	-1.1614449E+000	0
3.9845599E+002	1.041979975742288E+002	-1.1633461E+000	-2.919634964498670E+000	3.3965458E-003	-1.1634464E+000	0
3.8482327E+002	1.043982975691688E+002	-1.1653231E+000	-3.028203375308308E+000	3.5288355E-003	-1.1654496E+000	0
3.7235992E+002	1.045985975641088E+002	-1.1673223E+000	-3.134930025424254E+000	3.6594737E-003	-1.1674527E+000	0
3.5950067E+002	1.047985975590564E+002	-1.1693517E+000	-3.252710728283091E+000	3.8035628E-003	-1.1694529E+000	0
3.4745966E+002	1.049985975540039E+002	-1.1713626E+000	-3.371219270150952E+000	3.9489204E-003	-1.1714528E+000	0
3.3387347E+002	1.051985975489515E+002	-1.1733509E+000	-3.514357895098314E+000	4.1235751E-003	-1.1734529E+000	0
3.2141211E+002	1.053986975438966E+002	-1.1753354E+000	-3.656786238049612E+000	4.2979503E-003	-1.1754537E+000	0
3.0964105E+002	1.055988975388391E+002	-1.1773375E+000	-3.802265735115085E+000	4.4765500E-003	-1.1774557E+000	0
2.9759656E+002	1.057989975337841E+002	-1.1793540E+000	-3.962928934635208E+000	4.6736961E-003	-1.1794568E+000	0
2.8613040E+002	1.059990975287292E+002	-1.1813433E+000	-4.128688363250410E+000	4.8773983E-003	-1.1814575E+000	0
2.7488647E+002	1.061991975236742E+002	-1.1833594E+000	-4.304902181738925E+000	5.0942465E-003	-1.1834588E+000	0
2.6349323E+002	1.063994975186142E+002	-1.1853380E+000	-4.498552341892253E+000	5.3323051E-003	-1.1854615E+000	0
2.5233377E+002	1.065998975135517E+002	-1.1873448E+000	-4.705453371155393E+000	5.5869957E-003	-1.1874652E+000	0
2.4208836E+002	1.068002975084892E+002	-1.1893811E+000	-4.913003984744883E+000	5.8434340E-003	-1.1894697E+000	0
2.3215912E+002	1.070005975034292E+002	-1.1913658E+000	-5.131678015242983E+000	6.1137057E-003	-1.1914723E+000	0
2.2184134E+002	1.072009974983666E+002	-1.1933590E+000	-5.379335549004594E+000	6.4194784E-003	-1.1934762E+000	0
2.1201888E+002	1.074011974933092E+002	-1.1953530E+000	-5.637955736174611E+000	6.7393477E-003	-1.1954787E+000	0
2.0303271E+002	1.076011974882567E+002	-1.1974038E+000	-5.897590477991031E+000	7.0617972E-003	-1.1974788E+000	0
1.9430444E+002	1.078011974832043E+002	-1.1993576E+000	-6.172569127174711E+000	7.4031181E-003	-1.1994789E+000	0
1.8526994E+002	1.080012974781494E+002	-1.2013786E+000	-6.484476269712786E+000	7.7903108E-003	-1.2014798E+000	0
1.7676364E+002	1.082015974730894E+002	-1.2033494E+000	-6.807674621084942E+000	8.1920112E-003	-1.2034824E+000	0
1.6885526E+002	1.084017974680319E+002	-1.2053714E+000	-7.138489100668181E+000	8.6045302E-003	-1.2054847E+000	0
1.6057800E+002	1.086018974629769E+002	-1.2073816E+000	-7.518972686233596E+000	9.0782689E-003	-1.2074858E+000	0
1.5303047E+002	1.088019974579220E+002	-1.2093940E+000	-7.902961530112322E+000	9.5577938E-003	-1.2094868E+000	0
1.4618727E+002	1.090020974528670E+002	-1.2113692E+000	-8.286420163606124E+000	1.0037914E-002	-1.2114877E+000	0
1.3948747E+002	1.092021974478121E+002	-1.2134016E+000	-8.699000118743783E+000	1.0555380E-002	-1.2134888E+000	0
1.3306731E+002	1.094023974427546E+002	-1.2153896E+000	-9.133645847560103E+000	1.1100939E-002	-1.2154907E+000	0
1.2701463E+002	1.096023974377022E+002	-1.2173579E+000	-9.584390492598729E+000	1.1667633E-002	-1.2174907E+000	0
1.2095311E+002	1.098024974326472E+002	-1.2194031E+000	-1.008161858636151E+001	1.2293558E-002	-1.2194916E+000	0
1.1506318E+002	1.100025974275923E+002	-1.2214286E+000	-1.061528696454303E+001	1.2965815E-002	-1.2214929E+000	0
1.0884084E+002	1.102125974222872E+002	-1.2234894E+000	-1.124108759073573E+001	1.3753352E-002	-1.2235929E+000	0
1.0364578E+002	1.104225974169822E+002	-1.2255882E+000	-1.182477611661500E+001	1.4492306E-002	-1.2256929E+000	0
9.8856804E+001	1.106225974119297E+002	-1.2276067E+000	-1.241802943921959E+001	1.5244456E-002	-1.2276928E+000	0
9.3984344E+001	1.108226974068748E+002	-1.2296258E+000	-1.308330485092088E+001	1.6087569E-002	-1.2296935E+000	0
8.9240891E+001	1.110227974018198E+002	-1.2316351E+000	-1.380124125648254E+001	1.6998094E-002	-1.2316948E+000	0
8.5012787E+001	1.112227973967674E+002	-1.2336154E+000	-1.451093937520808E+001	1.7900918E-002	-1.2336949E+000	0
8.0945908E+001	1.114228973917125E+002	-1.2355751E+000	-1.526420647778866E+001	1.8860074E-002	-1.2356956E+000	0
7.7148109E+001	1.116229973866575E+002	-1.2376306E+000	-1.604226694828798E+001	1.9854400E-002	-1.2376968E+000	0
7.3541153E+001	1.118230973816026E+002	-1.2396297E+000	-1.685627309597891E+001	2.0895537E-002	-1.2396976E+000	0
7.0102165E+001	1.120231973765476E+002	-1.2416170E+000	-1.771153444389637E+001	2.1990942E-002	-1.2416989E+000	0
6.6885948E+001	1.122231973714952E+002	-1.2436222E+000	-1.859317617378545E+001	2.3122886E-002	-1.2436988E+000	0
6.3829350E+001	1.124231973664428E+002	-1.2456150E+000	-1.951476858654260E+001	2.4307888E-002	-1.2456988E+000	0
6.0810818E+001	1.126231973613903E+002	-1.2476685E+000	-2.051721361475470E+001	2.5598681E-002	-1.2476989E+000	0
5.8054417E+001	1.128231973563379E+002	-1.2496195E+000	-2.152496888469948E+001	2.6898021E-002	-1.2496988E+000	0
5.5497433E+001	1.130232973512830E+002	-1.2516510E+000	-2.255331494427850E+001	2.8228881E-002	-1.2516997E+000	0
5.2979622E+001	1.132233973462280E+002	-1.2536883E+000	-2.366359527338123E+001	2.9666774E-002	-1.2537009E+000	0
5.0664177E+001	1.134233973411756E+002	-1.2556652E+000	-2.478408288536698E+001	3.1120511E-002	-1.2557008E+000	0
4.8333084E+001	1.136233973361232E+002	-1.2576399E+000	-2.602026881084976E+001	3.2724127E-002	-1.2577008E+000	0
4.6290359E+001	1.138233973310707E+002	-1.2596334E+000	-2.721157249760995E+001	3.4276605E-002	-1.2597008E+000	0
4.4381741E+001	1.140233973260183E+002	-1.2616355E+000	-2.842690625266425E+001	3.5864394E-002	-1.2617009E+000	0
4.2496834E+001	1.142233973209659E+002	-1.2636312E+000	-2.973471501408784E+001	3.7573714E-002	-1.2637008E+000	0
4.0687862E+001	1.144234973159109E+002	-1.2656617E+000	-3.110661492806416E+001	3.9370451E-002	-1.2657017E+000	0
3.8960361E+001	1.146235973108560E+002	-1.2676275E+000	-3.253633844663224E+001	4.1243955E-002	-1.2677028E+000	0
3.7320194E+001	1.148237973057985E+002	-1.2696358E+000	-3.402007404989126E+001	4.3193106E-002	-1.2697047E+000	0
3.5822071E+001	1.150239973007410E+002	-1.2716423E+000	-3.549885122752249E+001	4.5141842E-002	-1.2717067E+000	0
3.4356300E+001	1.152239972956886E+002	-1.2736742E+000	-3.707251058603356E+001	4.7218300E-002	-1.2737068E+000	0
3.2983543E+001	1.154240972906337E+002	-1.2757130E+000	-3.867725427479820E+001	4.9341075E-002	-1.2757076E+000	0
3.1675034E+001	1.156243972855737E+002	-1.2776659E+000	-4.033668484959193E+001	5.1536806E-002	-1.2777107E+000	0
3.0363361E+001	1.158246972805136E+002	-1.2796710E+000	-4.214523353046911E+001	5.3932030E-002	-1.2797135E+000	0
2.9106417E+001	1.160247972754587E+002	-1.2817054E+000	-4.403514884794119E+001	5.6440089E-002	-1.2817148E+000	0
2.8028843E+001	1.162249972704012E+002	-1.2836672E+000	-4.579808179962356E+001	5.8789495E-002	-1.2837167E+000	0
2.7038038E+001	1.164251972653437E+002	-1.2857012E+000	-4.755157098697691E+001	6.1137110E-002	-1.2857188E+000	0
2.6017694E+001	1.166251972602913E+002	-1.2877159E+000	-4.949385145299834E+001	6.3734017E-002	-1.2877190E+000	0
2.5030458E+001	1.168251972552389E+002	-1.2896801E+000	-5.152443208445766E+001	6.6450037E-002	-1.2897189E+000	0
2.4058176E+001	1.170251972501865E+002	-1.2916864E+000	-5.369012280602567E+001	6.9350801E-002	-1.2917188E+000	0
2.3257254E+001	1.172251972451340E+002	-1.2937235E+000	-5.562666463203175E+001	7.1965523E-002	-1.2937188E+000	0
2.2420383E+001	1.174251972400816E+002	-1.2956592E+000	-5.778933873522578E+001	7.4875288E-002	-1.2957188E+000	0
2.1664507E+001	1.176252972350267E+002	-1.2976669E+000	-5.989828810946221E+001	7.7728026E-002	-1.2977197E+000	0
2.0918236E+001	1.178254972299692E+002	-1.2996596E+000	-6.213046040748941E+001	8.0748446E-002	-1.2997217E+000	0
2.0201637E+001	1.180255972249142E+002	-1.3016855E+000	-6.443465232741028E+001	8.3873652E-002	-1.3017229E+000	0
1.9530729E+001	1.182256972198593E+002	-1.3036803E+000	-6.675021213713342E+001	8.7020934E-002	-1.3037237E+000	0
1.8943251E+001	1.184258972148018E+002	-1.3057055E+000	-6.892721414086350E+001	8.9998648E-002	-1.3057257E+000	0
1.8384401E+001	1.186260972097443E+002	-1.3077104E+000	-7.113152257864078E+001	9.3019433E-002	-1.3077278E+000	0
1.7843281E+001	1.188261972046894E+002	-1.3096904E+000	-7.339964061907835E+001	9.6130803E-002	-1.3097289E+000	0
1.7285425E+001	1.190261971996370E+002	-1.3117347E+000	-7.588674424673150E+001	9.9543273E-002	-1.3117288E+000	0
1.6724445E+001	1.192261971945845E+002	-1.3136938E+000	-7.854931401665772E+001	1.0318974E-001	-1.3137288E+000	0
1.6323111E+001	1.194263971895271E+002	-1.3157308E+000	-8.060539887752657E+001	1.0605501E-001	-1.3157307E+000	0
1.5823169E+001	1.196263971844746E+002	-1.3177035E+000	-8.327683906219977E+001	1.0973418E-001	-1.3177308E+000	0
1.5380089E+001	1.198263971794222E+002	-1.3197145E+000	-8.580669177200252E+001	1.1324034E-001	-1.3197309E+000	0
1.5023869E+001	1.200263971743698E+002	-1.3217427E+000	-8.797618750433810E+001	1.1628188E-001	-1.3217309E+000	0
1.4739663E+001	1.202264971693148E+002	-1.3236806E+000	-8.980399604429476E+001	1.1887181E-001	-1.3237317E+000	0
1.4208314E+001	1.204265971642599E+002	-1.3256869E+000	-9.330360831587268E+001	1.2369137E-001	-1.3257327E+000	0
1.3832200E+001	1.206267971592024E+002	-1.3277484E+000	-9.598967570907075E+001	1.2745014E-001	-1.3277344E+000	0
1.3435140E+001	1.208269971541449E+002	-1.3297410E+000	-9.897485323503739E+001	1.3161092E-001	-1.3297368E+000	0
1.2988278E+001	1.210269971490925E+002	-1.3317268E+000	-1.025329705268623E+002	1.3654590E-001	-1.3317368E+000	0
1.2561661E+001	1.212269971440401E+002	-1.3337582E+000	-1.061768999661988E+002	1.4161432E-001	-1.3337369E+000	0
1.2149655E+001	1.214370971387325E+002	-1.3358254E+000	-1.099475978630628E+002	1.4687079E-001	-1.3358375E+000	0
1.1763172E+001	1.216473971334199E+002	-1.3379157E+000	-1.137376544280712E+002	1.5217139E-001	-1.3379407E+000	0
1.1473495E+001	1.218473971283674E+002	-1.3399107E+000	-1.167831295753010E+002	1.5647897E-001	-1.3399409E+000	0
1.1143510E+001	1.220474971233125E+002	-1.3419328E+000	-1.204228084300657E+002	1.6159931E-001	-1.3419416E+000	0
1.0925161E+001	1.222475971182575E+002	-1.3439208E+000	-1.230115307096444E+002	1.6531776E-001	-1.3439428E+000	0
1.0720469E+001	1.224477971132001E+002	-1.3459039E+000	-1.255452379139429E+002	1.6897182E-001	-1.3459444E+000	0
1.0504403E+001	1.226480971081401E+002	-1.3479463E+000	-1.283220250692509E+002	1.7297120E-001	-1.3479477E+000	0
1.0303827E+001	1.228481971030851E+002	-1.3499360E+000	-1.310130607795281E+002	1.7685924E-001	-1.3499488E+000	0
1.0014725E+001	1.230482970980302E+002	-1.3519392E+000	-1.349951479049752E+002	1.8250524E-001	-1.3519497E+000	0
9.8339472E+000	1.232484970929727E+002	-1.3539479E+000	-1.376810133079965E+002	1.8641292E-001	-1.3539517E+000	0
9.6831703E+000	1.234485970879177E+002	-1.3559374E+000	-1.400303170091718E+002	1.8987234E-001	-1.3559529E+000	0
9.4678040E+000	1.236487970828603E+002	-1.3579471E+000	-1.434278830900953E+002	1.9476748E-001	-1.3579544E+000	0
9.2559624E+000	1.238489970778028E+002	-1.3599179E+000	-1.469234514420264E+002	1.9980383E-001	-1.3599569E+000	0
9.0696249E+000	1.240490970727478E+002	-1.3619434E+000	-1.501653413290587E+002	2.0451669E-001	-1.3619577E+000	0
8.8733234E+000	1.242491970676929E+002	-1.3639586E+000	-1.537145083929134E+002	2.0966023E-001	-1.3639588E+000	0
8.6825628E+000	1.244491970626405E+002	-1.3659482E+000	-1.573208485839052E+002	2.1489213E-001	-1.3659588E+000	0
8.3727798E+000	1.246492970575855E+002	-1.3680005E+000	-1.633866555130251E+002	2.2351302E-001	-1.3679596E+000	0
8.1684361E+000	1.248494970525280E+002	-1.3699676E+000	-1.677147948821025E+002	2.2976384E-001	-1.3699617E+000	0
7.9701600E+000	1.250495970474731E+002	-1.3720142E+000	-1.721438646770662E+002	2.3618382E-001	-1.3719629E+000	0
7.9150233E+000	1.252495970424206E+002	-1.3739337E+000	-1.735855447872973E+002	2.3849502E-001	-1.3739629E+000	0
7.8042274E+000	1.254496970373657E+002	-1.3759719E+000	-1.763110967246777E+002	2.4259911E-001	-1.3759637E+000	0
7.5967941E+000	1.256498970323082E+002	-1.3779764E+000	-1.813891970804525E+002	2.4995004E-001	-1.3779657E+000	0
7.3314042E+000	1.258500970272507E+002	-1.3799700E+000	-1.882272422417832E+002	2.5974795E-001	-1.3799677E+000	0
7.2180495E+000	1.260501970221958E+002	-1.3819448E+000	-1.914568188920316E+002	2.6458275E-001	-1.3819689E+000	0
7.0813375E+000	1.262501970171434E+002	-1.3839949E+000	-1.954425890645753E+002	2.7049154E-001	-1.3839688E+000	0
7.0249629E+000	1.264501970120909E+002	-1.3859524E+000	-1.972896311526397E+002	2.7343404E-001	-1.3859688E+000	0
6.7795258E+000	1.266501970070385E+002	-1.3879851E+000	-2.047318826402925E+002	2.8416482E-001	-1.3879689E+000	0
6.6463947E+000	1.268501970019861E+002	-1.3899910E+000	-2.091345923028039E+002	2.9069522E-001	-1.3899689E+000	0
6.6398273E+000	1.270501969969337E+002	-1.3919967E+000	-2.096435224031375E+002	2.9182309E-001	-1.3919690E+000	0
6.5433502E+000	1.272501969918812E+002	-1.3939698E+000	-2.130360958678930E+002	2.9696587E-001	-1.3939688E+000	0
6.4130526E+000	1.274501969868288E+002	-1.3959795E+000	-2.176778614299365E+002	3.0387384E-001	-1.3959689E+000	0
6.3448067E+000	1.276501969817764E+002	-1.3979630E+000	-2.203318583949085E+002	3.0801579E-001	-1.3979690E+000	0
6.2949104E+000	1.278501969767240E+002	-1.4000024E+000	-2.224022626768701E+002	3.1136370E-001	-1.3999689E+000	0
6.2535539E+000	1.280502969716690E+002	-1.4019661E+000	-2.241871061868612E+002	3.1430271E-001	-1.4019697E+000	0
6.1324821E+000	1.282503969666141E+002	-1.4039755E+000	-2.289408234555165E+002	3.2142732E-001	-1.4039708E+000	0
5.9491725E+000	1.284503969615616E+002	-1.4060010E+000	-2.363355533811778E+002	3.3228803E-001	-1.4059709E+000	0
5.8835692E+000	1.286503969565092E+002	-1.4080443E+000	-2.393180445565122E+002	3.3697042E-001	-1.4079709E+000	0
5.6718178E+000	1.288504969514543E+002	-1.4100302E+000	-2.486028905514857E+002	3.5053760E-001	-1.4099716E+000	0
5.6500888E+000	1.290505969463993E+002	-1.4120213E+000	-2.499113495690485E+002	3.5288015E-001	-1.4119728E+000	0
5.6182327E+000	1.292506969413444E+002	-1.4139987E+000	-2.516803423743266E+002	3.5587567E-001	-1.4139737E+000	0
5.4462266E+000	1.294308969367921E+002	-1.4157883E+000	-2.599576628189952E+002	3.6804500E-001	-1.4157753E+000	0
5.3501925E+000	1.295812969329927E+002	-1.4173155E+000	-2.649092470626192E+002	3.7545997E-001	-1.4172789E+000	0
5.3059201E+000	1.297416969289407E+002	-1.4189570E+000	-2.674290043475066E+002	3.7947026E-001	-1.4188831E+000	0
5.2562337E+000	1.298722969256414E+002	-1.4202129E+000	-2.701959186015411E+002	3.8373572E-001	-1.4201888E+000	0
5.1693296E+000	1.300328969215843E+002	-1.4218633E+000	-2.750575886260519E+002	3.9109430E-001	-1.4217952E+000	0
5.0575395E+000	1.302135969170195E+002	-1.4236680E+000	-2.814942039836976E+002	4.0075430E-001	-1.4236021E+000	0
5.0611372E+000	1.303838969127173E+002	-1.4253808E+000	-2.816325190368489E+002	4.0143359E-001	-1.4253052E+000	0
5.0750709E+000	1.305243969091680E+002	-1.4267967E+000	-2.811382644190753E+002	4.0112713E-001	-1.4267099E+000	0
5.0402741E+000	1.306648969056187E+002	-1.4281751E+000	-2.833526701280061E+002	4.0467721E-001	-1.4281154E+000	0
5.0260873E+000	1.308152969018192E+002	-1.4297009E+000	-2.844560466661906E+002	4.0668705E-001	-1.4296196E+000	0
4.9824467E+000	1.309857968975120E+002	-1.4314121E+000	-2.872910065536380E+002	4.1123182E-001	-1.4313240E+000	0
4.9874077E+000	1.311362968937101E+002	-1.4328973E+000	-2.873030292130925E+002	4.1167575E-001	-1.4328294E+000	0
4.9561353E+000	1.312867968899081E+002	-1.4343947E+000	-2.894179908237893E+002	4.1513965E-001	-1.4343339E+000	0
4.8745909E+000	1.314371968861087E+002	-1.4358724E+000	-2.945626531062800E+002	4.2295438E-001	-1.4358374E+000	0
4.8252025E+000	1.315776968825594E+002	-1.4373149E+000	-2.978765897701337E+002	4.2814246E-001	-1.4372431E+000	0
4.7481189E+000	1.317480968782547E+002	-1.4390153E+000	-3.030706121499088E+002	4.3612325E-001	-1.4389472E+000	0
4.7753334E+000	1.319083968742052E+002	-1.4406202E+000	-3.016794906455889E+002	4.3460557E-001	-1.4405495E+000	0
4.7594113E+000	1.320687968701532E+002	-1.4421867E+000	-3.030178804833063E+002	4.3700835E-001	-1.4421542E+000	0
4.7283311E+000	1.322293968660961E+002	-1.4438033E+000	-3.053515827917954E+002	4.4086763E-001	-1.4437602E+000	0
4.6557260E+000	1.324097968615388E+002	-1.4456242E+000	-3.105045718985943E+002	4.4887292E-001	-1.4455642E+000	0
4.6560822E+000	1.325803968572291E+002	-1.4473107E+000	-3.108430354024367E+002	4.4988644E-001	-1.4472702E+000	0
4.5790396E+000	1.327208968536797E+002	-1.4487364E+000	-3.163843422691325E+002	4.5835751E-001	-1.4486748E+000	0
4.4983211E+000	1.328610968501380E+002	-1.4501886E+000	-3.223844101642981E+002	4.6751821E-001	-1.4500773E+000	0
4.4569049E+000	1.330216968460809E+002	-1.4517493E+000	-3.257303822508416E+002	4.7287887E-001	-1.4516830E+000	0
4.4566989E+000	1.331921968417737E+002	-1.4534652E+000	-3.261304639865189E+002	4.7401929E-001	-1.4533881E+000	0
4.4411602E+000	1.333727968372114E+002	-1.4552423E+000	-3.276716327740610E+002	4.7684160E-001	-1.4551944E+000	0
4.4327455E+000	1.335530968326566E+002	-1.4570754E+000	-3.287071870445002E+002	4.7895116E-001	-1.4569973E+000	0
4.3034687E+000	1.337136968285995E+002	-1.4586748E+000	-3.389532877674692E+002	4.9442261E-001	-1.4586029E+000	0
4.2343321E+000	1.338841968242923E+002	-1.4603927E+000	-3.448933037797897E+002	5.0367969E-001	-1.4603080E+000	0
4.2610087E+000	1.340544968199902E+002	-1.4620465E+000	-3.431221575505215E+002	5.0166053E-001	-1.4620110E+000	0
4.1914878E+000	1.342149968159356E+002	-1.4637326E+000	-3.492155062172296E+002	5.1115811E-001	-1.4636158E+000	0
4.1181874E+000	1.343655968121311E+002	-1.4652479E+000	-3.557992281942561E+002	5.2133405E-001	-1.4651220E+000	0
4.0614929E+000	1.345261968080740E+002	-1.4668102E+000	-3.611505096769747E+002	5.2973926E-001	-1.4667283E+000	0
3.9915917E+000	1.346965968037694E+002	-1.4685274E+000	-3.679052133129190E+002	5.4027891E-001	-1.4684322E+000	0
3.9316425E+000	1.348770967992095E+002	-1.4703314E+000	-3.739738396040343E+002	5.4986548E-001	-1.4702370E+000	0
3.8546805E+000	1.350475967949023E+002	-1.4720343E+000	-3.818823195250188E+002	5.6214386E-001	-1.4719419E+000	0
3.8263109E+000	1.351782967916006E+002	-1.4733375E+000	-3.850543170236920E+002	5.6731498E-001	-1.4732490E+000	0
3.8063035E+000	1.353388967875435E+002	-1.4749309E+000	-3.874969147327836E+002	5.7153118E-001	-1.4748552E+000	0
3.8030779E+000	1.355193967829837E+002	-1.4767581E+000	-3.883060329951352E+002	5.7343411E-001	-1.4766601E+000	0
3.7873342E+000	1.356896967786815E+002	-1.4784772E+000	-3.903741085935658E+002	5.7715923E-001	-1.4783632E+000	0
3.7894111E+000	1.358699967741268E+002	-1.4802610E+000	-3.906308852146681E+002	5.7823563E-001	-1.4801664E+000	0
3.7758198E+000	1.360305967700697E+002	-1.4819006E+000	-3.924712226018137E+002	5.8160335E-001	-1.4817717E+000	0
3.7611320E+000	1.361812967662627E+002	-1.4834397E+000	-3.944130829630481E+002	5.8508801E-001	-1.4832790E+000	0
3.7769070E+000	1.363415967622132E+002	-1.4849972E+000	-3.931781192285780E+002	5.8386838E-001	-1.4848818E+000	0
3.7006750E+000	1.364620967591691E+002	-1.4862125E+000	-4.016057877289459E+002	5.9687155E-001	-1.4860868E+000	0
3.6742589E+000	1.366224967551170E+002	-1.4878170E+000	-4.049298171676091E+002	6.0246146E-001	-1.4876912E+000	0
3.7020624E+000	1.367929967508098E+002	-1.4895442E+000	-4.023552345091721E+002	5.9932590E-001	-1.4893961E+000	0
3.6134503E+000	1.369436967470028E+002	-1.4910758E+000	-4.126459948581042E+002	6.1528641E-001	-1.4909029E+000	0
3.5841753E+000	1.370743967437011E+002	-1.4923544E+000	-4.163731405142664E+002	6.2137628E-001	-1.4922097E+000	0
3.6201081E+000	1.372250967398941E+002	-1.4938676E+000	-4.126582993978163E+002	6.1645687E-001	-1.4937172E+000	0
3.5792365E+000	1.373755967360921E+002	-1.4953792E+000	-4.177927974022132E+002	6.2475866E-001	-1.4952215E+000	0
3.5789137E+000	1.374959967330506E+002	-1.4965163E+000	-4.181482115650979E+002	6.2576562E-001	-1.4964260E+000	0
3.5738950E+000	1.376562967290010E+002	-1.4981759E+000	-4.191997316524435E+002	6.2803489E-001	-1.4980291E+000	0
3.5126271E+000	1.378268967246913E+002	-1.4999292E+000	-4.270106419813728E+002	6.4048570E-001	-1.4997350E+000	0
3.5225875E+000	1.379775967208843E+002	-1.5014106E+000	-4.262237793221543E+002	6.3993692E-001	-1.5012418E+000	0
3.5538013E+000	1.380979967178428E+002	-1.5026054E+000	-4.228163992315949E+002	6.3532621E-001	-1.5024458E+000	0
3.5592153E+000	1.382184967147987E+002	-1.5038199E+000	-4.225144708312455E+002	6.3538569E-001	-1.5036509E+000	0
3.4932473E+000	1.383487967115070E+002	-1.5050722E+000	-4.308518976347392E+002	6.4846325E-001	-1.5049541E+000	0
3.4736781E+000	1.384892967079577E+002	-1.5064944E+000	-4.336885522843049E+002	6.5334940E-001	-1.5063590E+000	0
3.4751949E+000	1.386296967044109E+002	-1.5079181E+000	-4.339089309852820E+002	6.5429914E-001	-1.5077629E+000	0
3.4843454E+000	1.387899967003614E+002	-1.5095092E+000	-4.332260347524225E+002	6.5395868E-001	-1.5093660E+000	0
3.4580536E+000	1.389602966960592E+002	-1.5111933E+000	-4.370069086115736E+002	6.6040188E-001	-1.5110689E+000	0
3.4658852E+000	1.391007966925099E+002	-1.5125602E+000	-4.364138267262588E+002	6.6010219E-001	-1.5124736E+000	0
3.4407635E+000	1.392613966884528E+002	-1.5142049E+000	-4.400781574365024E+002	6.6636848E-001	-1.5140798E+000	0
3.4426737E+000	1.394117966846534E+002	-1.5157431E+000	-4.402808170652220E+002	6.6735262E-001	-1.5155834E+000	0
3.4349337E+000	1.395322966816093E+002	-1.5169517E+000	-4.416247330673259E+002	6.6992337E-001	-1.5167890E+000	0
3.4178333E+000	1.396728966780574E+002	-1.5183384E+000	-4.442400365145259E+002	6.7450672E-001	-1.5181947E+000	0
3.3605359E+000	1.398235966742504E+002	-1.5198437E+000	-4.522623059597254E+002	6.8736804E-001	-1.5197020E+000	0
3.3379102E+000	1.399940966699432E+002	-1.5215763E+000	-4.558469871585501E+002	6.9360596E-001	-1.5214070E+000	0
3.3225219E+000	1.401548966658811E+002	-1.5231973E+000	-4.584461386984033E+002	6.9830394E-001	-1.5230149E+000	0
3.2945838E+000	1.403053966620791E+002	-1.5247099E+000	-4.627928705483127E+002	7.0562488E-001	-1.5245203E+000	0
3.2565978E+000	1.404258966590351E+002	-1.5258639E+000	-4.685454092930000E+002	7.1493649E-001	-1.5257250E+000	0
3.2121699E+000	1.405463966559910E+002	-1.5270977E+000	-4.754100150949835E+002	7.2599757E-001	-1.5269295E+000	0
3.1988146E+000	1.406872966524315E+002	-1.5285364E+000	-4.778446567458941E+002	7.3040295E-001	-1.5283389E+000	0
3.1134784E+000	1.408376966486321E+002	-1.5300107E+000	-4.914152413129486E+002	7.5187057E-001	-1.5298427E+000	0
3.0203171E+000	1.409682966453329E+002	-1.5313354E+000	-5.070114388288002E+002	7.7640456E-001	-1.5311493E+000	0
2.9864342E+000	1.411084966417911E+002	-1.5326923E+000	-5.132181576836847E+002	7.8660554E-001	-1.5325511E+000	0
2.9469123E+000	1.412488966382443E+002	-1.5340971E+000	-5.205777981685042E+002	7.9861689E-001	-1.5339552E+000	0
2.9562030E+000	1.414092966341923E+002	-1.5357589E+000	-5.195038700488731E+002	7.9783267E-001	-1.5355592E+000	0
2.9408832E+000	1.415695966301428E+002	-1.5373591E+000	-5.227542138478111E+002	8.0366093E-001	-1.5371624E+000	0
2.9620593E+000	1.417298966260933E+002	-1.5389532E+000	-5.195551751630010E+002	7.9957110E-001	-1.5387650E+000	0
2.9819174E+000	1.418805966222862E+002	-1.5404207E+000	-5.165872942444648E+002	7.9576176E-001	-1.5402720E+000	0
2.9767718E+000	1.420707966174814E+002	-1.5423528E+000	-5.181293200927530E+002	7.9913819E-001	-1.5421746E+000	0
2.9837203E+000	1.422707966124290E+002	-1.5443304E+000	-5.175855140599538E+002	7.9932302E-001	-1.5441746E+000	0
2.9538784E+000	1.424507966078818E+002	-1.5461377E+000	-5.234263362315382E+002	8.0928916E-001	-1.5459743E+000	0
2.9729061E+000	1.426208966035847E+002	-1.5478604E+000	-5.206556562215119E+002	8.0590224E-001	-1.5476754E+000	0
2.9961295E+000	1.428009965990350E+002	-1.5496548E+000	-5.172189154133866E+002	8.0151081E-001	-1.5494764E+000	0
2.9626322E+000	1.429510965952431E+002	-1.5511436E+000	-5.235694490667984E+002	8.1213140E-001	-1.5509772E+000	0
2.9377024E+000	1.431209965909511E+002	-1.5528505E+000	-5.285935294556548E+002	8.2082671E-001	-1.5526763E+000	0
2.9471326E+000	1.433009965864039E+002	-1.5546395E+000	-5.275091606728179E+002	8.2008654E-001	-1.5544764E+000	0
2.9252994E+000	1.434909965816041E+002	-1.5565422E+000	-5.320966827712632E+002	8.2823092E-001	-1.5563766E+000	0
2.9713032E+000	1.436809965768043E+002	-1.5584359E+000	-5.244957708866914E+002	8.1739306E-001	-1.5582764E+000	0
2.9746037E+000	1.438410965727599E+002	-1.5600636E+000	-5.244609849879271E+002	8.1819248E-001	-1.5598774E+000	0
2.9019432E+000	1.440210965682127E+002	-1.5618730E+000	-5.382162391472421E+002	8.4062541E-001	-1.5616776E+000	0
2.9346650E+000	1.441909965639206E+002	-1.5635636E+000	-5.327911761604209E+002	8.3305287E-001	-1.5633762E+000	0
2.9593585E+000	1.443409965601313E+002	-1.5650332E+000	-5.288420322855955E+002	8.2765532E-001	-1.5648762E+000	0
2.9774764E+000	1.444810965565921E+002	-1.5664737E+000	-5.261078422848186E+002	8.2413411E-001	-1.5662774E+000	0
2.9681368E+000	1.446311965528002E+002	-1.5679501E+000	-5.282607307583285E+002	8.2828647E-001	-1.5677783E+000	0
2.9466169E+000	1.448012965485032E+002	-1.5696512E+000	-5.326960602755426E+002	8.3614701E-001	-1.5694795E+000	0
2.9210768E+000	1.449714965442035E+002	-1.5713606E+000	-5.379388395130773E+002	8.4529591E-001	-1.5711818E+000	0
2.8382936E+000	1.451513965396589E+002	-1.5731865E+000	-5.542719330880118E+002	8.7197316E-001	-1.5729803E+000	0
2.8072045E+000	1.453213965353643E+002	-1.5749698E+000	-5.610455955325892E+002	8.8362986E-001	-1.5746807E+000	0
2.8413162E+000	1.454913965310698E+002	-1.5765604E+000	-5.548697575721908E+002	8.7478566E-001	-1.5763803E+000	0
2.7754974E+000	1.456713965265226E+002	-1.5784374E+000	-5.687043376282472E+002	8.9766425E-001	-1.5781807E+000	0
2.7776251E+000	1.458415965222230E+002	-1.5801375E+000	-5.688807806203931E+002	8.9890987E-001	-1.5798825E+000	0
2.7754016E+000	1.460115965179284E+002	-1.5818332E+000	-5.699475003900898E+002	9.0156192E-001	-1.5815823E+000	0
2.7892215E+000	1.461017965156498E+002	-1.5827205E+000	-5.674416894435089E+002	8.9810163E-001	-1.5824834E+000	0
2.7938037E+000	1.461301965149323E+002	-1.5831094E+000	-5.666501697358635E+002	8.9706922E-001	-1.5828843E+000	1