EC-Lab ASCII FILE
Nb header lines : 61                          

Linear Sweep Voltammetry

Run on channel : 1 (SN 1340)
User : 
Electrode connection : standard
Potential control : Ewe
Ewe ctrl range : min = -5.00 V, max = 5.00 V
Ewe,I filtering : 50 kHz
Channel : Grounded
Acquisition started on : 02/23/2026 18:16:25.905
Technique started on : 02/23/2026 18:16:28.587
Loaded Setting File :  NONE
Saved on :
	File : Ni_magnet_2_23_02_LSV_C01.mpr
	Directory : C:\Users\volt\Documents\Platalytix\
	Host : 127.0.0.1
Device : SP-200 (SN 0262)
Address : USB
EC-LAB for windows v11.60 (software)
Internet server v11.60 (firmware)
Command interpretor v11.60 (firmware)
Electrode material : Ni_mag
Initial state : 
Electrolyte : KOH (1M)
Comments : 
Cable : standard
Reference electrode : Hg/HgO (0.140 V)
Electrode surface area : 1.000 cm˛
Characteristic mass : 0.001 g
Equivalent Weight : 0.000 g/eq.
Density : 0.000 g/cm3
Volume (V) : 0.001 cmł
Cycle Definition : Charge/Discharge alternance
tR (h:m:s)          0:00:5.0000         
dER/dt (mV/h)       0.0                 
dER (mV)            0                   
dtR (s)             0.0000              
dE/dt               10.000              
dE/dt unit          mV/s                
Ei (V)              -0.200              
vs.                 Ref                 
EL (V)              -2.500              
vs.                 Ref                 
record              <I>                 
dI                  0.000               
unit dI             µA                  
tI (s)              0.0000              
step percent        50                  
N                   10                  
E range min (V)     -5.000              
E range max (V)     5.000               
I Range             Auto                
I Range min         Unset               
I Range max         Unset               
I Range init        Unset               
Bandwidth           8                   

Rwe/Ohm	time/s	Ewe/V	<I>/mA	Pwe/W	control/V	error	
0.0000000E+000	2.682400127378060E+000	-1.9413918E-001	0.000000000000000E+000	0.0000000E+000	0.0000000E+000	0
0.0000000E+000	7.682200001072488E+000	-3.4424403E-001	0.000000000000000E+000	0.0000000E+000	-1.9985040E-001	0
6.9323322E+002	7.822199997535790E+000	-2.0099483E-001	2.899382668169768E-001	-5.8276095E-005	-2.0115018E-001	0
2.0769758E+003	7.942199994504335E+000	-2.0213585E-001	9.732219205969606E-002	-1.9672303E-005	-2.0235023E-001	0
4.7803779E+003	8.172199988694047E+000	-2.0444648E-001	4.276785073855571E-002	-8.7437365E-006	-2.0465022E-001	0
7.1066885E+003	8.392199983136379E+000	-2.0664905E-001	2.907810670739708E-002	-6.0089633E-006	-2.0685023E-001	0
9.1521895E+003	8.592199978083954E+000	-2.0867549E-001	2.280060854521870E-002	-4.7579283E-006	-2.0885022E-001	0
1.1197033E+004	8.792199973031529E+000	-2.1066752E-001	1.881458463971958E-002	-3.9636220E-006	-2.1085022E-001	0
1.3269188E+004	8.992199967979104E+000	-2.1265236E-001	1.602602559455950E-002	-3.4079721E-006	-2.1285023E-001	0
1.5391097E+004	9.192199962926679E+000	-2.1466774E-001	1.394752742323491E-002	-2.9940841E-006	-2.1485022E-001	0
1.7534480E+004	9.392199957874254E+000	-2.1666256E-001	1.235637206671586E-002	-2.6771631E-006	-2.1685022E-001	0
1.9811979E+004	9.592199952821829E+000	-2.1866094E-001	1.103680419357858E-002	-2.4133180E-006	-2.1885023E-001	0
2.2136629E+004	9.792199947769404E+000	-2.2065721E-001	9.967968008882777E-003	-2.1995040E-006	-2.2085023E-001	0
2.4571682E+004	9.992199942716979E+000	-2.2266859E-001	9.062000714129492E-003	-2.0178229E-006	-2.2285022E-001	0
2.7184443E+004	1.019219993766455E+001	-2.2466108E-001	8.264325429128958E-003	-1.8566723E-006	-2.2485024E-001	0
2.9796355E+004	1.039219993261213E+001	-2.2666413E-001	7.607109189287475E-003	-1.7242587E-006	-2.2685023E-001	0
3.2596051E+004	1.059219992755970E+001	-2.2864364E-001	7.014458356245673E-003	-1.6038113E-006	-2.2885022E-001	0
3.5512992E+004	1.079219992250728E+001	-2.3066178E-001	6.495137838989931E-003	-1.4981800E-006	-2.3085023E-001	0
3.8624707E+004	1.099219991745485E+001	-2.3266441E-001	6.023719405244338E-003	-1.4015051E-006	-2.3285022E-001	0
4.1870645E+004	1.119219991240243E+001	-2.3466729E-001	5.604577985798886E-003	-1.3152111E-006	-2.3485023E-001	0
4.5397125E+004	1.139219990735000E+001	-2.3667227E-001	5.213375561994714E-003	-1.2338614E-006	-2.3685023E-001	0
4.9012551E+004	1.159219990229758E+001	-2.3867196E-001	4.869608991601715E-003	-1.1622391E-006	-2.3885024E-001	0
5.2839000E+004	1.179219989724515E+001	-2.4065952E-001	4.554581386809305E-003	-1.0961033E-006	-2.4085023E-001	0
5.6915734E+004	1.199219989219273E+001	-2.4267745E-001	4.263802449804470E-003	-1.0347287E-006	-2.4285023E-001	0
6.1214785E+004	1.219219988714030E+001	-2.4466950E-001	3.996902050841383E-003	-9.7791997E-007	-2.4485023E-001	0
6.5608125E+004	1.239219988208788E+001	-2.4666451E-001	3.759664048625808E-003	-9.2737571E-007	-2.4685021E-001	0
7.0834141E+004	1.259219987703545E+001	-2.4867457E-001	3.510659886873851E-003	-8.7301186E-007	-2.4885024E-001	0
7.5574570E+004	1.279219987198303E+001	-2.5065538E-001	3.316662963421678E-003	-8.3133943E-007	-2.5085020E-001	0
8.1247102E+004	1.299219986693060E+001	-2.5265127E-001	3.109665012298320E-003	-7.8566080E-007	-2.5285020E-001	0
8.7630297E+004	1.319219986187818E+001	-2.5468984E-001	2.906413204417466E-003	-7.4023393E-007	-2.5485018E-001	0
9.3723156E+004	1.339219985682576E+001	-2.5665915E-001	2.738481650849368E-003	-7.0285637E-007	-2.5685018E-001	0
1.0148510E+005	1.359219985177333E+001	-2.5864655E-001	2.548615973316216E-003	-6.5919073E-007	-2.5885022E-001	0
1.0652720E+005	1.379219984672091E+001	-2.6063436E-001	2.446646111455850E-003	-6.3768005E-007	-2.6085019E-001	0
1.1595452E+005	1.399219984166848E+001	-2.6263192E-001	2.264956191610837E-003	-5.9484978E-007	-2.6285022E-001	0
1.2428770E+005	1.419219983661606E+001	-2.6464266E-001	2.129274616998290E-003	-5.6349688E-007	-2.6485023E-001	0
1.3292138E+005	1.439219983156363E+001	-2.6663914E-001	2.005991504278973E-003	-5.3487588E-007	-2.6685026E-001	0
1.4401658E+005	1.459219982651121E+001	-2.6864898E-001	1.865403136271982E-003	-5.0113863E-007	-2.6885021E-001	0
1.5360428E+005	1.479219982145878E+001	-2.7065161E-001	1.762005689312521E-003	-4.7688968E-007	-2.7085021E-001	0
1.6417319E+005	1.499219981640636E+001	-2.7264413E-001	1.660710485175264E-003	-4.5278296E-007	-2.7285022E-001	0
1.7424539E+005	1.519219981135393E+001	-2.7463549E-001	1.576142116284325E-003	-4.3286457E-007	-2.7485022E-001	0
1.9268336E+005	1.539219980630151E+001	-2.7663624E-001	1.435703904129493E-003	-3.9716772E-007	-2.7685022E-001	0
2.0855214E+005	1.559219980124908E+001	-2.7864948E-001	1.336114261093806E-003	-3.7230754E-007	-2.7885023E-001	0
2.2192306E+005	1.579219979619666E+001	-2.8064641E-001	1.264611296150554E-003	-3.5490862E-007	-2.8085020E-001	0
2.3979511E+005	1.599219979114423E+001	-2.8263295E-001	1.178643467210708E-003	-3.3312347E-007	-2.8285024E-001	0
2.6770766E+005	1.619219978609181E+001	-2.8467676E-001	1.063386659350522E-003	-3.0272147E-007	-2.8485021E-001	0
2.9287744E+005	1.639219978103938E+001	-2.8664100E-001	9.787062783382797E-004	-2.8053734E-007	-2.8685024E-001	0
3.1432841E+005	1.659219977598696E+001	-2.8864682E-001	9.182969470604967E-004	-2.6506348E-007	-2.8885022E-001	0
3.5308838E+005	1.679219977093453E+001	-2.9065013E-001	8.231653792448185E-004	-2.3925313E-007	-2.9085022E-001	0
3.8534722E+005	1.699219976588211E+001	-2.9265660E-001	7.594621007732030E-004	-2.2226159E-007	-2.9285023E-001	0
4.3643106E+005	1.719219976082968E+001	-2.9464737E-001	6.751292382915528E-004	-1.9892505E-007	-2.9485023E-001	0
4.7619584E+005	1.739219975577726E+001	-2.9664961E-001	6.229571472245003E-004	-1.8479999E-007	-2.9685023E-001	0
5.2922544E+005	1.759219975072483E+001	-2.9865393E-001	5.643226882848622E-004	-1.6853718E-007	-2.9885024E-001	0
5.9805331E+005	1.779219974567241E+001	-3.0066231E-001	5.027349848581338E-004	-1.5115346E-007	-3.0085024E-001	0
7.0758663E+005	1.799219974061998E+001	-3.0265415E-001	4.277273360664118E-004	-1.2945345E-007	-3.0285022E-001	0
8.3053269E+005	1.819219973556756E+001	-3.0466655E-001	3.668327091683190E-004	-1.1176166E-007	-3.0485022E-001	0
1.0212064E+006	1.839219973051513E+001	-3.0665010E-001	3.002822137986574E-004	-9.2081571E-008	-3.0685022E-001	0
1.3251661E+006	1.859219972546271E+001	-3.0866462E-001	2.329252233803985E-004	-7.1895776E-008	-3.0885023E-001	0
1.7500755E+006	1.879219972041028E+001	-3.1066623E-001	1.775159062232460E-004	-5.5148199E-008	-3.1085020E-001	0
2.6403350E+006	1.899219971535786E+001	-3.1266272E-001	1.184178262691921E-004	-3.7024840E-008	-3.1285021E-001	0
3.8624100E+006	1.919219971030543E+001	-3.1464902E-001	8.146442405219641E-005	-2.5632701E-008	-3.1485021E-001	0
1.3862434E+007	1.939219970525301E+001	-3.1665313E-001	2.284253491431924E-005	-7.2331603E-009	-3.1685022E-001	0
7.6614780E+006	1.959219970020058E+001	-3.1865579E-001	-4.159194686318801E-005	1.3253515E-008	-3.1885025E-001	0
3.9391610E+006	1.979219969514816E+001	-3.2064909E-001	-8.140034887438015E-005	2.6100947E-008	-3.2085025E-001	0
2.3919433E+006	1.999219969009573E+001	-3.2266214E-001	-1.348953971811416E-004	4.3525638E-008	-3.2285023E-001	0
1.7174871E+006	2.019219968504331E+001	-3.2465482E-001	-1.890289646277517E-004	6.1369164E-008	-3.2485023E-001	0
1.3557469E+006	2.039219967999088E+001	-3.2664368E-001	-2.409326470251172E-004	7.8699124E-008	-3.2685024E-001	0
1.0701410E+006	2.059219967493846E+001	-3.2865798E-001	-3.071165084360696E-004	1.0093629E-007	-3.2885021E-001	0
9.8659531E+005	2.079219966988603E+001	-3.3063942E-001	-3.351317668895777E-004	1.1080778E-007	-3.3085021E-001	0
7.9110681E+005	2.099219966483361E+001	-3.3265501E-001	-4.204931853075849E-004	1.3987916E-007	-3.3285022E-001	0
7.6399088E+005	2.119219965978118E+001	-3.3464831E-001	-4.380265939092584E-004	1.4658487E-007	-3.3485022E-001	0
7.0222500E+005	2.139219965472876E+001	-3.3666030E-001	-4.794194093203745E-004	1.6140147E-007	-3.3685023E-001	0
6.3276469E+005	2.159219964967633E+001	-3.3865002E-001	-5.351910755473522E-004	1.8124247E-007	-3.3885023E-001	0
5.9001969E+005	2.179219964462391E+001	-3.4065077E-001	-5.773549395843222E-004	1.9667640E-007	-3.4085020E-001	0
5.3756556E+005	2.199219963957148E+001	-3.4265789E-001	-6.374253334624951E-004	2.1841882E-007	-3.4285024E-001	0
4.9586319E+005	2.219219963451906E+001	-3.4467259E-001	-6.950961364095547E-004	2.3958057E-007	-3.4485021E-001	0
4.7864306E+005	2.239219962946663E+001	-3.4666446E-001	-7.242650856886315E-004	2.5107695E-007	-3.4685022E-001	0
4.5488941E+005	2.259219962441421E+001	-3.4865162E-001	-7.664535837421278E-004	2.6722529E-007	-3.4885025E-001	0
4.2303800E+005	2.279219961936178E+001	-3.5068119E-001	-8.289590561393698E-004	2.9070034E-007	-3.5085022E-001	0
4.1246572E+005	2.299219961430936E+001	-3.5267475E-001	-8.550401541249232E-004	3.0155107E-007	-3.5285023E-001	0
3.8336134E+005	2.319219960925693E+001	-3.5466126E-001	-9.251356998277466E-004	3.2810979E-007	-3.5485023E-001	0
3.6971706E+005	2.339219960420451E+001	-3.5664248E-001	-9.646362711114875E-004	3.4403027E-007	-3.5685027E-001	0
3.5739231E+005	2.359219959915208E+001	-3.5866505E-001	-1.003561210770275E-003	3.5994233E-007	-3.5885024E-001	0
3.3812828E+005	2.379219959409966E+001	-3.6063823E-001	-1.066572237651598E-003	3.8464671E-007	-3.6085024E-001	0
3.2285409E+005	2.399219958904723E+001	-3.6265764E-001	-1.123286438326763E-003	4.0736842E-007	-3.6285025E-001	0
3.1792000E+005	2.419219958399481E+001	-3.6465010E-001	-1.146986928247978E-003	4.1824890E-007	-3.6485025E-001	0
3.0197550E+005	2.439219957894238E+001	-3.6663961E-001	-1.214136918913519E-003	4.4515070E-007	-3.6685023E-001	0
2.9428847E+005	2.459219957388996E+001	-3.6864355E-001	-1.252660512493869E-003	4.6178522E-007	-3.6885026E-001	0
2.8744300E+005	2.479219956883753E+001	-3.7064108E-001	-1.289442027589759E-003	4.7792020E-007	-3.7085024E-001	0
2.7404269E+005	2.499219956378511E+001	-3.7263861E-001	-1.359783034005115E-003	5.0670764E-007	-3.7285021E-001	0
2.6601153E+005	2.519219955873268E+001	-3.7466013E-001	-1.408435684054347E-003	5.2768468E-007	-3.7485021E-001	0
2.6256866E+005	2.539219955368026E+001	-3.7662739E-001	-1.434395843838306E-003	5.4023275E-007	-3.7685025E-001	0
2.5096633E+005	2.559219954862783E+001	-3.7865824E-001	-1.508800957268137E-003	5.7131990E-007	-3.7885022E-001	0
2.4529400E+005	2.579219954357541E+001	-3.8064221E-001	-1.551779494104694E-003	5.9067276E-007	-3.8085026E-001	0
2.3972253E+005	2.599219953852298E+001	-3.8265717E-001	-1.596250328072239E-003	6.1081664E-007	-3.8285023E-001	0
2.3238744E+005	2.619219953347056E+001	-3.8463902E-001	-1.655162726503411E-003	6.3664015E-007	-3.8485020E-001	0
2.2580783E+005	2.639219952841813E+001	-3.8665909E-001	-1.712336919714012E-003	6.6209066E-007	-3.8685024E-001	0
2.1929030E+005	2.659219952336571E+001	-3.8866445E-001	-1.772374094973099E-003	6.8885879E-007	-3.8885027E-001	0
2.1552775E+005	2.679219951831328E+001	-3.9063951E-001	-1.812478914991075E-003	7.0802588E-007	-3.9085025E-001	0
2.1257319E+005	2.699219951326086E+001	-3.9266363E-001	-1.847192586114585E-003	7.2532532E-007	-3.9285022E-001	0
2.0409727E+005	2.719219950820843E+001	-3.9465231E-001	-1.933648249842671E-003	7.6311875E-007	-3.9485025E-001	0
2.0264694E+005	2.739219950315601E+001	-3.9664540E-001	-1.957322460573305E-003	7.7636292E-007	-3.9685023E-001	0
1.9634142E+005	2.759219949810358E+001	-3.9864269E-001	-2.030354522847236E-003	8.0938599E-007	-3.9885026E-001	0
1.9200936E+005	2.779219949305116E+001	-4.0064433E-001	-2.086587552638665E-003	8.3597945E-007	-4.0085027E-001	0
1.8605009E+005	2.799219948799873E+001	-4.0265736E-001	-2.164241691655223E-003	8.7144787E-007	-4.0285027E-001	0
1.8521961E+005	2.819219948294631E+001	-4.0463665E-001	-2.184631782500348E-003	8.8398207E-007	-4.0485021E-001	0
1.7979772E+005	2.839219947789388E+001	-4.0665761E-001	-2.261750580034957E-003	9.1975807E-007	-4.0685025E-001	0
1.7587173E+005	2.859219947284146E+001	-4.0866232E-001	-2.323638447466664E-003	9.4958347E-007	-4.0885028E-001	0
1.7126906E+005	2.879219946778903E+001	-4.1065988E-001	-2.397746997303326E-003	9.8465853E-007	-4.1085026E-001	0
1.6847767E+005	2.899219946273661E+001	-4.1269034E-001	-2.449525461799842E-003	1.0108955E-006	-4.1285023E-001	0
1.6558042E+005	2.919219945768418E+001	-4.1469893E-001	-2.504516662354662E-003	1.0386203E-006	-4.1485026E-001	0
1.6249092E+005	2.939219945263176E+001	-4.1668013E-001	-2.564328539024451E-003	1.0685047E-006	-4.1685024E-001	0
1.5988327E+005	2.959219944757933E+001	-4.1870192E-001	-2.618797601937740E-003	1.0964956E-006	-4.1885024E-001	0
1.5601084E+005	2.979219944252691E+001	-4.2068800E-001	-2.696530478946434E-003	1.1343981E-006	-4.2085025E-001	0
1.5316619E+005	2.999219943747448E+001	-4.2269593E-001	-2.759720879367867E-003	1.1665228E-006	-4.2285028E-001	0
1.4977973E+005	3.019219943242206E+001	-4.2469332E-001	-2.835452369497556E-003	1.2041977E-006	-4.2485023E-001	0
1.4692933E+005	3.039219942736963E+001	-4.2668366E-001	-2.904006221104365E-003	1.2390921E-006	-4.2685026E-001	0
1.4436444E+005	3.059219942231721E+001	-4.2866957E-001	-2.969357091550717E-003	1.2728731E-006	-4.2885029E-001	0
1.4179098E+005	3.079219941726478E+001	-4.3067965E-001	-3.037426342024589E-003	1.3081577E-006	-4.3085024E-001	0
1.3927945E+005	3.099219941221236E+001	-4.3268120E-001	-3.106568774897150E-003	1.3441539E-006	-4.3285024E-001	0
1.3675131E+005	3.119219940715993E+001	-4.3467623E-001	-3.178588973307847E-003	1.3816571E-006	-4.3485028E-001	0
1.3420550E+005	3.139219940210751E+001	-4.3667501E-001	-3.253778732491833E-003	1.4208439E-006	-4.3685025E-001	0
1.3141270E+005	3.159219939705508E+001	-4.3867517E-001	-3.338148968152779E-003	1.4643631E-006	-4.3885025E-001	0
1.2934528E+005	3.179219939200266E+001	-4.4068262E-001	-3.407025008880498E-003	1.5014167E-006	-4.4085026E-001	0
1.2688538E+005	3.199219938695023E+001	-4.4267619E-001	-3.488788036559623E-003	1.5444034E-006	-4.4285026E-001	0
1.2465480E+005	3.219219938189781E+001	-4.4469035E-001	-3.567374626778037E-003	1.5863770E-006	-4.4485024E-001	0
1.2259694E+005	3.239219937684538E+001	-4.4669801E-001	-3.643631050653559E-003	1.6276027E-006	-4.4685027E-001	0
1.2054127E+005	3.259219937179296E+001	-4.4868821E-001	-3.722278638309937E-003	1.6701425E-006	-4.4885027E-001	0
1.1859026E+005	3.279219936674053E+001	-4.5071265E-001	-3.800587399502113E-003	1.7129728E-006	-4.5085028E-001	0
1.1718300E+005	3.299219936168811E+001	-4.5266399E-001	-3.862880930377635E-003	1.7485871E-006	-4.5285025E-001	0
1.1565821E+005	3.319219935663568E+001	-4.5468554E-001	-3.931286300263528E-003	1.7874991E-006	-4.5485026E-001	0
1.1355612E+005	3.339219935158326E+001	-4.5669392E-001	-4.021746461433329E-003	1.8367072E-006	-4.5685026E-001	0
1.1137038E+005	3.359219934653083E+001	-4.5869401E-001	-4.118635448589675E-003	1.8891934E-006	-4.5885026E-001	0
1.0948088E+005	3.379219934147841E+001	-4.6068326E-001	-4.207887738397188E-003	1.9385034E-006	-4.6085027E-001	0
1.0748537E+005	3.399219933642598E+001	-4.6269438E-001	-4.304719564277637E-003	1.9917695E-006	-4.6285027E-001	0
1.0587016E+005	3.419219933137356E+001	-4.6468115E-001	-4.389160634702211E-003	2.0395603E-006	-4.6485028E-001	0
1.0511659E+005	3.439219932632113E+001	-4.6667278E-001	-4.439572943915684E-003	2.0718278E-006	-4.6685022E-001	0
1.0321679E+005	3.459219932126871E+001	-4.6866837E-001	-4.540621656194586E-003	2.1280457E-006	-4.6885026E-001	0
1.0123005E+005	3.479219931621628E+001	-4.7067681E-001	-4.649575763604287E-003	2.1884475E-006	-4.7085029E-001	0
9.9340961E+004	3.499219931116386E+001	-4.7268260E-001	-4.758184256229835E-003	2.2491108E-006	-4.7285026E-001	0
9.8368891E+004	3.519219930611143E+001	-4.7466001E-001	-4.825306039092599E-003	2.2903798E-006	-4.7485024E-001	0
9.6710953E+004	3.539219930105901E+001	-4.7667369E-001	-4.928849203062788E-003	2.3494526E-006	-4.7685027E-001	0
9.5783570E+004	3.559219929600658E+001	-4.7865072E-001	-4.997210992569317E-003	2.3919185E-006	-4.7885025E-001	0
9.3846305E+004	3.579219929095416E+001	-4.8065859E-001	-5.121763840226907E-003	2.4618198E-006	-4.8085025E-001	0
9.2317070E+004	3.599219928590173E+001	-4.8268059E-001	-5.228508701802723E-003	2.5236995E-006	-4.8285028E-001	0
9.1031133E+004	3.619219928084931E+001	-4.8467687E-001	-5.324298074837754E-003	2.5805641E-006	-4.8485026E-001	0
9.0220633E+004	3.639219927579688E+001	-4.8665386E-001	-5.394041933087089E-003	2.6250314E-006	-4.8685023E-001	0
8.8625180E+004	3.659219927074446E+001	-4.8867899E-001	-5.513997007897356E-003	2.6945745E-006	-4.8885027E-001	0
8.7039008E+004	3.679219926569203E+001	-4.9069738E-001	-5.637672017736295E-003	2.7663909E-006	-4.9085030E-001	0
8.6039078E+004	3.699219926063961E+001	-4.9267346E-001	-5.726159337151482E-003	2.8211268E-006	-4.9285024E-001	0
8.4641375E+004	3.719219925558718E+001	-4.9467355E-001	-5.844346879318313E-003	2.8910438E-006	-4.9485025E-001	0
8.3479445E+004	3.739219925053476E+001	-4.9666560E-001	-5.949555411191739E-003	2.9549394E-006	-4.9685028E-001	0
8.2391398E+004	3.759219924548233E+001	-4.9866471E-001	-6.052387745417664E-003	3.0181122E-006	-4.9885026E-001	0
8.1361859E+004	3.779219924042991E+001	-5.0067115E-001	-6.153634575389921E-003	3.0809472E-006	-5.0085020E-001	0
8.0283633E+004	3.799219923537748E+001	-5.0266165E-001	-6.261072280080771E-003	3.1472009E-006	-5.0285023E-001	0
7.9196813E+004	3.819219923032506E+001	-5.0468922E-001	-6.372594929449693E-003	3.2161799E-006	-5.0485027E-001	0
7.7672805E+004	3.839219922527263E+001	-5.0667465E-001	-6.523192110679990E-003	3.3051360E-006	-5.0685024E-001	0
7.6860000E+004	3.859219922022021E+001	-5.0870043E-001	-6.618532942475497E-003	3.3668505E-006	-5.0885022E-001	0
7.6145102E+004	3.879219921516778E+001	-5.1069689E-001	-6.706891125324139E-003	3.4251884E-006	-5.1085025E-001	0
7.4957250E+004	3.899219921011536E+001	-5.1268786E-001	-6.839736631072041E-003	3.5066500E-006	-5.1285028E-001	0
7.4028266E+004	3.919219920506293E+001	-5.1468420E-001	-6.952536023246206E-003	3.5783605E-006	-5.1485026E-001	0
7.3095180E+004	3.939219920001051E+001	-5.1669425E-001	-7.068786523811710E-003	3.6524013E-006	-5.1685023E-001	0
7.1902641E+004	3.959219919495808E+001	-5.1867205E-001	-7.213532964249172E-003	3.7414579E-006	-5.1885027E-001	0
7.1023344E+004	3.979219918990566E+001	-5.2067983E-001	-7.331108466192518E-003	3.8171602E-006	-5.2085024E-001	0
7.0054148E+004	3.999219918485323E+001	-5.2266312E-001	-7.460844680778315E-003	3.8995086E-006	-5.2285028E-001	0
6.9280648E+004	4.019219917980081E+001	-5.2466160E-001	-7.572989204231634E-003	3.9732568E-006	-5.2485031E-001	0
6.8367234E+004	4.039219917474838E+001	-5.2669007E-001	-7.703837561246873E-003	4.0575346E-006	-5.2685028E-001	0
6.7473281E+004	4.059219916969596E+001	-5.2868301E-001	-7.835442189281897E-003	4.1424651E-006	-5.2885026E-001	0
6.6691281E+004	4.079219916464353E+001	-5.3067732E-001	-7.957221767450645E-003	4.2227171E-006	-5.3085023E-001	0
6.5915813E+004	4.099219915959111E+001	-5.3268129E-001	-8.081236801861482E-003	4.3047235E-006	-5.3285033E-001	0
6.5301148E+004	4.119219915453868E+001	-5.3467500E-001	-8.187834359217092E-003	4.3778305E-006	-5.3485024E-001	0
6.4473840E+004	4.139219914948626E+001	-5.3668410E-001	-8.324059633928245E-003	4.4673902E-006	-5.3685021E-001	0
6.3595836E+004	4.159219914443383E+001	-5.3867292E-001	-8.470254640576408E-003	4.5626966E-006	-5.3885031E-001	0
6.2838922E+004	4.179219913938141E+001	-5.4069805E-001	-8.604508560006191E-003	4.6524410E-006	-5.4085022E-001	0
6.2126109E+004	4.199219913432898E+001	-5.4268581E-001	-8.735229049837243E-003	4.7404847E-006	-5.4285026E-001	0
6.1306309E+004	4.219219912927656E+001	-5.4469615E-001	-8.884830202758445E-003	4.8395327E-006	-5.4485023E-001	0
6.0540938E+004	4.239219912422413E+001	-5.4669136E-001	-9.030110333663924E-003	4.9366831E-006	-5.4685032E-001	0
5.9968297E+004	4.259219911917171E+001	-5.4868782E-001	-9.149631719889501E-003	5.0202916E-006	-5.4885024E-001	0
5.9398699E+004	4.279219911411928E+001	-5.5068326E-001	-9.270964965740078E-003	5.1053653E-006	-5.5085027E-001	0
5.8631238E+004	4.299219910906686E+001	-5.5268508E-001	-9.426460705397655E-003	5.2098644E-006	-5.5285031E-001	0
5.8015938E+004	4.319219910401443E+001	-5.5469340E-001	-9.561051901463141E-003	5.3034523E-006	-5.5485028E-001	0
5.7272828E+004	4.339219909896201E+001	-5.5668569E-001	-9.719891497937101E-003	5.4109246E-006	-5.5685025E-001	0
5.6743789E+004	4.359219909390958E+001	-5.5867815E-001	-9.845626392059090E-003	5.5005362E-006	-5.5885029E-001	0
5.6150133E+004	4.379219908885716E+001	-5.6069356E-001	-9.985614347637506E-003	5.5988698E-006	-5.6085026E-001	0
5.5555707E+004	4.399219908380474E+001	-5.6268471E-001	-1.012829706541898E-002	5.6990380E-006	-5.6285030E-001	0
5.4799441E+004	4.419219907875231E+001	-5.6469220E-001	-1.030470707700343E-002	5.8189876E-006	-5.6485027E-001	0
5.4269512E+004	4.439219907369989E+001	-5.6668597E-001	-1.044206890605428E-002	5.9173740E-006	-5.6685030E-001	0
5.3677035E+004	4.459219906864746E+001	-5.6865853E-001	-1.059407523331385E-002	6.0244111E-006	-5.6885028E-001	0
5.3158938E+004	4.479219906359504E+001	-5.7067347E-001	-1.073523075867586E-002	6.1263113E-006	-5.7085025E-001	0
5.2624418E+004	4.499219905854261E+001	-5.7265812E-001	-1.088198499819804E-002	6.2316572E-006	-5.7285029E-001	0
5.2034867E+004	4.519219905349019E+001	-5.7465667E-001	-1.104368459086976E-002	6.3463272E-006	-5.7485026E-001	0
5.1501004E+004	4.539219904843776E+001	-5.7665581E-001	-1.119698201460063E-002	6.4568048E-006	-5.7685024E-001	0
5.0972367E+004	4.559219904338534E+001	-5.7867855E-001	-1.135278968238158E-002	6.5696158E-006	-5.7885027E-001	0
5.0337664E+004	4.579219903833291E+001	-5.8066744E-001	-1.153544638049316E-002	6.6982579E-006	-5.8085030E-001	0
4.9959453E+004	4.599219903328049E+001	-5.8265519E-001	-1.166256145711952E-002	6.7952519E-006	-5.8285022E-001	0
4.9514352E+004	4.619219902822806E+001	-5.8465594E-001	-1.180780778184705E-002	6.9035050E-006	-5.8485025E-001	0
4.8910566E+004	4.639219902317564E+001	-5.8665842E-001	-1.199451241631155E-002	7.0366818E-006	-5.8685029E-001	0
4.8403457E+004	4.659219901812321E+001	-5.8866680E-001	-1.216166880402275E-002	7.1591708E-006	-5.8885026E-001	0
4.8035688E+004	4.679219901307079E+001	-5.9064776E-001	-1.229601999525139E-002	7.2626167E-006	-5.9085023E-001	0
4.7583863E+004	4.699219900801836E+001	-5.9266567E-001	-1.245518169978788E-002	7.3817587E-006	-5.9285027E-001	0
4.7054699E+004	4.719219900296594E+001	-5.9466326E-001	-1.263770189393908E-002	7.5151770E-006	-5.9485030E-001	0
4.6684930E+004	4.739219899791351E+001	-5.9665060E-001	-1.278036881830596E-002	7.6254146E-006	-5.9685028E-001	0
4.6258379E+004	4.759219899286109E+001	-5.9867340E-001	-1.294194480278604E-002	7.7479981E-006	-5.9885025E-001	0
4.5728262E+004	4.779219898780866E+001	-6.0067677E-001	-1.313578870235638E-002	7.8903631E-006	-6.0085028E-001	0
4.5297941E+004	4.799219898275624E+001	-6.0267109E-001	-1.330460192368507E-002	8.0182990E-006	-6.0285032E-001	0
4.4934387E+004	4.819219897770381E+001	-6.0467184E-001	-1.345677277093857E-002	8.1369317E-006	-6.0485023E-001	0
4.4565387E+004	4.839219897265139E+001	-6.0665601E-001	-1.361271705612535E-002	8.2582364E-006	-6.0685027E-001	0
4.4057715E+004	4.859219896759896E+001	-6.0866779E-001	-1.381523702850633E-002	8.4088897E-006	-6.0885030E-001	0
4.3707664E+004	4.879219896254654E+001	-6.1066067E-001	-1.397147837391677E-002	8.5318325E-006	-6.1085021E-001	0
4.3286969E+004	4.899219895749411E+001	-6.1267543E-001	-1.415380802113242E-002	8.6716900E-006	-6.1285025E-001	0
4.2924406E+004	4.919219895244169E+001	-6.1467445E-001	-1.431992870152027E-002	8.8020943E-006	-6.1485028E-001	0
4.2564898E+004	4.939219894738926E+001	-6.1668372E-001	-1.448808093169859E-002	8.9345640E-006	-6.1685026E-001	0
4.2257957E+004	4.959219894233684E+001	-6.1869401E-001	-1.464088764617141E-002	9.0582298E-006	-6.1885023E-001	0
4.1800035E+004	4.979219893728441E+001	-6.2068915E-001	-1.484901051363291E-002	9.2166201E-006	-6.2085027E-001	0
4.1522387E+004	4.999219893223199E+001	-6.2268662E-001	-1.499640685044200E-002	9.3380622E-006	-6.2285030E-001	0
4.1189469E+004	5.019219892717956E+001	-6.2469494E-001	-1.516637578065434E-002	9.4743582E-006	-6.2485027E-001	0
4.0785961E+004	5.039219892212714E+001	-6.2668294E-001	-1.536516329342752E-002	9.6290860E-006	-6.2685025E-001	0
4.0466406E+004	5.059219891707471E+001	-6.2868774E-001	-1.553604058454622E-002	9.7673183E-006	-6.2885034E-001	0
4.0205598E+004	5.079219891202229E+001	-6.3069057E-001	-1.568663615760840E-002	9.8934133E-006	-6.3085026E-001	0
3.9844109E+004	5.099219890696986E+001	-6.3269937E-001	-1.587936984754723E-002	1.0046867E-005	-6.3285029E-001	0
3.9546320E+004	5.119219890191744E+001	-6.3467485E-001	-1.604889736834450E-002	1.0185831E-005	-6.3485026E-001	0
3.9195809E+004	5.139219889686501E+001	-6.3667351E-001	-1.624340731032878E-002	1.0341747E-005	-6.3685030E-001	0
3.8940445E+004	5.159219889181259E+001	-6.3867545E-001	-1.640133891355505E-002	1.0475133E-005	-6.3885027E-001	0
3.8658160E+004	5.179219888676016E+001	-6.4068687E-001	-1.657313430592600E-002	1.0618190E-005	-6.4085025E-001	0
3.8361715E+004	5.199219888170774E+001	-6.4267457E-001	-1.675301953047287E-002	1.0766739E-005	-6.4285034E-001	0
3.8049270E+004	5.219219887665531E+001	-6.4469510E-001	-1.694369139445442E-002	1.0923515E-005	-6.4485025E-001	0
3.7746574E+004	5.239219887160289E+001	-6.4670646E-001	-1.713285097047745E-002	1.1079926E-005	-6.4685023E-001	0
3.7469672E+004	5.259219886655046E+001	-6.4870524E-001	-1.731280841146091E-002	1.1230910E-005	-6.4885032E-001	0
3.7232438E+004	5.279219886149804E+001	-6.5069002E-001	-1.747642848413664E-002	1.1371738E-005	-6.5085024E-001	0
3.6952391E+004	5.299219885644561E+001	-6.5271795E-001	-1.766375427333899E-002	1.1529450E-005	-6.5285027E-001	0
3.6695414E+004	5.319219885139319E+001	-6.5469772E-001	-1.784140389698261E-002	1.1680726E-005	-6.5485024E-001	0
3.6442121E+004	5.339219884634076E+001	-6.5668762E-001	-1.802001538097246E-002	1.1833521E-005	-6.5685034E-001	0
3.6152273E+004	5.359219884128834E+001	-6.5870875E-001	-1.822039629071370E-002	1.2001935E-005	-6.5885025E-001	0
3.5926488E+004	5.379219883623591E+001	-6.6069740E-001	-1.839025865141046E-002	1.2150396E-005	-6.6085023E-001	0
3.5703160E+004	5.399219883118349E+001	-6.6269028E-001	-1.856111032944255E-002	1.2300267E-005	-6.6285032E-001	0
3.5431770E+004	5.419219882613106E+001	-6.6469270E-001	-1.875979417305157E-002	1.2469498E-005	-6.6485023E-001	0
3.5215754E+004	5.439219882107864E+001	-6.6669178E-001	-1.893163411117782E-002	1.2621565E-005	-6.6685027E-001	0
3.4961227E+004	5.459219881602621E+001	-6.6867936E-001	-1.912631260750124E-002	1.2789370E-005	-6.6885024E-001	0
3.4737051E+004	5.479219881097379E+001	-6.7068094E-001	-1.930736628774971E-002	1.2949083E-005	-6.7085028E-001	0
3.4548043E+004	5.499219880592136E+001	-6.7265916E-001	-1.947025410197951E-002	1.3096845E-005	-6.7285031E-001	0
3.4322203E+004	5.519219880086894E+001	-6.7465484E-001	-1.965651434411708E-002	1.3261362E-005	-6.7485029E-001	0
3.4122762E+004	5.539219879581651E+001	-6.7666638E-001	-1.983035232223962E-002	1.3418533E-005	-6.7685032E-001	0
3.3852523E+004	5.559219879076409E+001	-6.7867500E-001	-2.004798873295466E-002	1.3606069E-005	-6.7885029E-001	0
3.3643934E+004	5.579219878571166E+001	-6.8066674E-001	-2.023148592249990E-002	1.3770899E-005	-6.8085021E-001	0
3.3430586E+004	5.599219878065924E+001	-6.8266690E-001	-2.042042893619450E-002	1.3940351E-005	-6.8285030E-001	0
3.3202371E+004	5.619219877560681E+001	-6.8467867E-001	-2.062137943442779E-002	1.4119018E-005	-6.8485028E-001	0
3.2997121E+004	5.639219877055439E+001	-6.8667775E-001	-2.081023320284314E-002	1.4289924E-005	-6.8685025E-001	0
3.2822023E+004	5.659219876550196E+001	-6.8866932E-001	-2.098192888958272E-002	1.4449611E-005	-6.8885022E-001	0
3.2642891E+004	5.679219876044954E+001	-6.9069469E-001	-2.115911489105499E-002	1.4614488E-005	-6.9085032E-001	0
3.2449354E+004	5.699219875539711E+001	-6.9267100E-001	-2.134621906138602E-002	1.4785907E-005	-6.9285029E-001	0
3.2227887E+004	5.719219875034469E+001	-6.9468790E-001	-2.155549095982118E-002	1.4974339E-005	-6.9485021E-001	0
3.2010361E+004	5.739219874529226E+001	-6.9667637E-001	-2.176408968322596E-002	1.5162527E-005	-6.9685030E-001	0
3.1817354E+004	5.759219874023984E+001	-6.9869095E-001	-2.195943068911466E-002	1.5342855E-005	-6.9885027E-001	0
3.1642959E+004	5.779219873518741E+001	-7.0066494E-001	-2.214283884113322E-002	1.5514710E-005	-7.0085025E-001	0
3.1440598E+004	5.799219873013499E+001	-7.0268005E-001	-2.234944912379014E-002	1.5704512E-005	-7.0285028E-001	0
3.1313297E+004	5.819219872508256E+001	-7.0467526E-001	-2.250402673084800E-002	1.5858031E-005	-7.0485032E-001	0
3.1090080E+004	5.839219872003014E+001	-7.0666862E-001	-2.272971340242875E-002	1.6062375E-005	-7.0685029E-001	0
3.0878230E+004	5.859219871497771E+001	-7.0865643E-001	-2.295003309365484E-002	1.6263688E-005	-7.0885026E-001	0
3.0690547E+004	5.879219870992529E+001	-7.1065509E-001	-2.315550380758097E-002	1.6455577E-005	-7.1085036E-001	0
3.0508648E+004	5.899219870487286E+001	-7.1265018E-001	-2.335895539502680E-002	1.6646763E-005	-7.1285027E-001	0
3.0307396E+004	5.919219869982044E+001	-7.1466190E-001	-2.358044456250230E-002	1.6852046E-005	-7.1485025E-001	0
3.0152191E+004	5.939219869476801E+001	-7.1666592E-001	-2.376828707483759E-002	1.7033921E-005	-7.1685028E-001	0
2.9945721E+004	5.959219868971559E+001	-7.1868533E-001	-2.399960021956138E-002	1.7248161E-005	-7.1885031E-001	0
2.9766959E+004	5.979219868466316E+001	-7.2066337E-001	-2.421017734295856E-002	1.7447388E-005	-7.2085029E-001	0
2.9599066E+004	5.999219867961074E+001	-7.2267872E-001	-2.441559189876703E-002	1.7644628E-005	-7.2285026E-001	0
2.9424174E+004	6.019219867455831E+001	-7.2467208E-001	-2.462845943052983E-002	1.7847557E-005	-7.2485036E-001	0
2.9266688E+004	6.039219866950589E+001	-7.2665411E-001	-2.482871091296335E-002	1.8041885E-005	-7.2685033E-001	0
2.9068801E+004	6.059219866445346E+001	-7.2866690E-001	-2.506697438963501E-002	1.8265475E-005	-7.2885031E-001	0
2.8867084E+004	6.079219865940104E+001	-7.3068124E-001	-2.531191665634877E-002	1.8494942E-005	-7.3085028E-001	0
2.8699693E+004	6.099219865434861E+001	-7.3266995E-001	-2.552884315481618E-002	1.8704217E-005	-7.3285037E-001	0
2.8509520E+004	6.119219864929619E+001	-7.3468333E-001	-2.576975583029129E-002	1.8932611E-005	-7.3485023E-001	0
2.8357061E+004	6.139219864424376E+001	-7.3666573E-001	-2.597821097955097E-002	1.9137258E-005	-7.3685032E-001	0
2.8185500E+004	6.159219863919134E+001	-7.3868060E-001	-2.620782319624229E-002	1.9359211E-005	-7.3885030E-001	0
2.7999887E+004	6.179219863413891E+001	-7.4067521E-001	-2.645279251011570E-002	1.9592928E-005	-7.4085027E-001	0
2.7841793E+004	6.199219862908649E+001	-7.4267280E-001	-2.667474755996206E-002	1.9810610E-005	-7.4285024E-001	0
2.7659488E+004	6.219219862403406E+001	-7.4469107E-001	-2.692353044839285E-002	2.0049712E-005	-7.4485034E-001	0
2.7464760E+004	6.239219861898164E+001	-7.4669504E-001	-2.718738742624638E-002	2.0300688E-005	-7.4685031E-001	0
2.7286566E+004	6.259219861392921E+001	-7.4868882E-001	-2.743800108578653E-002	2.0542524E-005	-7.4885023E-001	0
2.7116771E+004	6.279219860887679E+001	-7.5069374E-001	-2.768374331292328E-002	2.0782012E-005	-7.5085026E-001	0
2.6935525E+004	6.299219860382436E+001	-7.5267708E-001	-2.794365707944341E-002	2.1032551E-005	-7.5285035E-001	0
2.6740990E+004	6.319219859877194E+001	-7.5469774E-001	-2.822250604118459E-002	2.1299462E-005	-7.5485027E-001	0
2.6577182E+004	6.339219859371951E+001	-7.5667959E-001	-2.847102459080840E-002	2.1543443E-005	-7.5685030E-001	0
2.6378021E+004	6.359219858866709E+001	-7.5869948E-001	-2.876256121974019E-002	2.1822139E-005	-7.5885034E-001	0
2.6200459E+004	6.379219858361466E+001	-7.6069218E-001	-2.903354473178665E-002	2.2085591E-005	-7.6085031E-001	0
2.6010426E+004	6.399219857856224E+001	-7.6268995E-001	-2.932247118031830E-002	2.2363954E-005	-7.6285028E-001	0
2.5828016E+004	6.419219857350981E+001	-7.6468790E-001	-2.960691543754251E-002	2.2640050E-005	-7.6485026E-001	0
2.5637371E+004	6.439219856845739E+001	-7.6670438E-001	-2.990573420545165E-002	2.2928858E-005	-7.6685035E-001	0
2.5462605E+004	6.459219856340496E+001	-7.6869297E-001	-3.018909426566513E-002	2.3206145E-005	-7.6885021E-001	0
2.5287895E+004	6.479219855835254E+001	-7.7069902E-001	-3.047699421219724E-002	2.3488590E-005	-7.7085030E-001	0
2.5091891E+004	6.499219855330011E+001	-7.7268022E-001	-3.079402072105959E-002	2.3793931E-005	-7.7285039E-001	0
2.4893943E+004	6.519219854824769E+001	-7.7467757E-001	-3.111911898102959E-002	2.4107283E-005	-7.7485025E-001	0
2.4716322E+004	6.539219854319526E+001	-7.7668363E-001	-3.142391580321707E-002	2.4406441E-005	-7.7685022E-001	0
2.4522695E+004	6.559219853814284E+001	-7.7867293E-001	-3.175315536324197E-002	2.4725323E-005	-7.7885032E-001	0
2.4299424E+004	6.579219853309041E+001	-7.8067428E-001	-3.212727648559796E-002	2.5080939E-005	-7.8085029E-001	0
2.4117414E+004	6.599219852803799E+001	-7.8268337E-001	-3.245303883004003E-002	2.5400454E-005	-7.8285038E-001	0
2.3927615E+004	6.619219852298556E+001	-7.8467345E-001	-3.279363355533868E-002	2.5732294E-005	-7.8485030E-001	0
2.3705129E+004	6.639219851793314E+001	-7.8667122E-001	-3.318569817038598E-002	2.6106234E-005	-7.8685039E-001	0
2.3499314E+004	6.659219851288071E+001	-7.8867471E-001	-3.356160605542761E-002	2.6469190E-005	-7.8885031E-001	0
2.3303646E+004	6.679219850782829E+001	-7.9066271E-001	-3.392871077486066E-002	2.6826167E-005	-7.9085022E-001	0
2.3092514E+004	6.699219850277586E+001	-7.9266733E-001	-3.432572738488171E-002	2.7208882E-005	-7.9285038E-001	0
2.2887896E+004	6.719219849772344E+001	-7.9466385E-001	-3.471982801494622E-002	2.7590591E-005	-7.9485035E-001	0
2.2672295E+004	6.739219849267101E+001	-7.9665887E-001	-3.513798911690424E-002	2.7992990E-005	-7.9685032E-001	0
2.2440762E+004	6.759219848761859E+001	-7.9866481E-001	-3.558991573114267E-002	2.8424412E-005	-7.9885030E-001	0
2.2240586E+004	6.779219848256616E+001	-8.0065984E-001	-3.599994268918801E-002	2.8823708E-005	-8.0085033E-001	0
2.2034805E+004	6.799219847751374E+001	-8.0266172E-001	-3.642699410853778E-002	2.9238554E-005	-8.0285031E-001	0
2.1809268E+004	6.819219847246131E+001	-8.0464268E-001	-3.689453065819837E-002	2.9686915E-005	-8.0485028E-001	0
2.1571895E+004	6.839219846740889E+001	-8.0668032E-001	-3.739496958632083E-002	3.0165786E-005	-8.0685037E-001	0
2.1352527E+004	6.859219846235646E+001	-8.0867165E-001	-3.787240856501373E-002	3.0626343E-005	-8.0885035E-001	0
2.1119510E+004	6.879219845730404E+001	-8.1067252E-001	-3.838500831896013E-002	3.1117670E-005	-8.1085032E-001	0
2.0885674E+004	6.899219845225161E+001	-8.1268448E-001	-3.891109801985149E-002	3.1622447E-005	-8.1285030E-001	0
2.0654324E+004	6.919219844719919E+001	-8.1469458E-001	-3.944426371801488E-002	3.2135027E-005	-8.1485027E-001	0
2.0420955E+004	6.939219844214676E+001	-8.1667656E-001	-3.999208290681089E-002	3.2660595E-005	-8.1685036E-001	0
2.0181330E+004	6.959219843709434E+001	-8.1867856E-001	-4.056613406962595E-002	3.3210625E-005	-8.1885028E-001	0
1.9943660E+004	6.979219843204191E+001	-8.2068193E-001	-4.115001561253195E-002	3.3771074E-005	-8.2085037E-001	0
1.9692098E+004	6.999219842698949E+001	-8.2268804E-001	-4.177757380044514E-002	3.4369910E-005	-8.2285041E-001	0
1.9435334E+004	7.019219842193706E+001	-8.2469249E-001	-4.243263948783740E-002	3.4993878E-005	-8.2485026E-001	0
1.9198234E+004	7.039219841688464E+001	-8.2666850E-001	-4.305960895977234E-002	3.5596022E-005	-8.2685035E-001	0
1.8953119E+004	7.059219841183221E+001	-8.2868147E-001	-4.372269826911634E-002	3.6232192E-005	-8.2885033E-001	0
1.8698637E+004	7.079219840677979E+001	-8.3068031E-001	-4.442464695296244E-002	3.6902678E-005	-8.3085030E-001	0
1.8438596E+004	7.099219840172736E+001	-8.3266801E-001	-4.515896889126647E-002	3.7602429E-005	-8.3285028E-001	0
1.8184258E+004	7.119219839667494E+001	-8.3467942E-001	-4.590120796238806E-002	3.8312795E-005	-8.3485037E-001	0
1.7930746E+004	7.139219839162251E+001	-8.3669442E-001	-4.666255512528239E-002	3.9042301E-005	-8.3685035E-001	0
1.7667563E+004	7.159219838657009E+001	-8.3867544E-001	-4.746978912083311E-002	3.9811745E-005	-8.3885032E-001	0
1.7400135E+004	7.179219838151766E+001	-8.4068823E-001	-4.831504221195715E-002	4.0617888E-005	-8.4085035E-001	0
1.7142527E+004	7.199219837646524E+001	-8.4267819E-001	-4.915717235331341E-002	4.1423678E-005	-8.4285033E-001	0
1.6876898E+004	7.219219837141281E+001	-8.4468657E-001	-5.004986904481268E-002	4.2276453E-005	-8.4485030E-001	0
1.6610375E+004	7.239219836636039E+001	-8.4670448E-001	-5.097443584665290E-002	4.3160282E-005	-8.4685028E-001	0
1.6350071E+004	7.259219836130796E+001	-8.4868586E-001	-5.190716448763733E-002	4.4052878E-005	-8.4885037E-001	0
1.6078378E+004	7.279219835625554E+001	-8.5069323E-001	-5.290914478800479E-002	4.5009452E-005	-8.5085034E-001	0
1.5810019E+004	7.299219835120311E+001	-8.5269731E-001	-5.393398529058011E-002	4.5989364E-005	-8.5285032E-001	0
1.5543438E+004	7.319219834615069E+001	-8.5468483E-001	-5.498685991885699E-002	4.6996436E-005	-8.5485041E-001	0
1.5280497E+004	7.339219834109826E+001	-8.5669613E-001	-5.606467830800721E-002	4.8030393E-005	-8.5685039E-001	0
1.4999037E+004	7.359219833604584E+001	-8.5867429E-001	-5.724862766401451E-002	4.9157923E-005	-8.5885024E-001	0
1.4731483E+004	7.379219833099341E+001	-8.6068434E-001	-5.842482374691715E-002	5.0285329E-005	-8.6085033E-001	0
1.4460168E+004	7.399219832594099E+001	-8.6268681E-001	-5.965952994671497E-002	5.1467490E-005	-8.6285043E-001	0
1.4192633E+004	7.419219832088856E+001	-8.6468136E-001	-6.092466126447404E-002	5.2680418E-005	-8.6485028E-001	0
1.3918921E+004	7.439219831583614E+001	-8.6668676E-001	-6.226680868795198E-002	5.3965818E-005	-8.6685032E-001	0
1.3646710E+004	7.459219831078372E+001	-8.6869049E-001	-6.365567242014958E-002	5.5297078E-005	-8.6885035E-001	0
1.3382235E+004	7.479219830573129E+001	-8.7069952E-001	-6.506383170472985E-002	5.6651046E-005	-8.7085032E-001	0
1.3111695E+004	7.499219830067887E+001	-8.7268883E-001	-6.655804846328078E-002	5.8084464E-005	-8.7285030E-001	0
1.2843401E+004	7.519219829562644E+001	-8.7468821E-001	-6.810409462400402E-002	5.9569848E-005	-8.7485033E-001	0
1.2576046E+004	7.539219829057402E+001	-8.7667686E-001	-6.971005577427247E-002	6.1113191E-005	-8.7685037E-001	0
1.2311976E+004	7.559219828552159E+001	-8.7867594E-001	-7.136758557698208E-002	6.2708983E-005	-8.7885028E-001	0
1.2043512E+004	7.579219828046917E+001	-8.8067353E-001	-7.312431295144739E-002	6.4398650E-005	-8.8085026E-001	0
1.1777854E+004	7.599219827541674E+001	-8.8267833E-001	-7.494390107239346E-002	6.6151355E-005	-8.8285041E-001	0
1.1515104E+004	7.619219827036432E+001	-8.8466287E-001	-7.682630632235310E-002	6.7965382E-005	-8.8485032E-001	0
1.1248803E+004	7.639219826531189E+001	-8.8669419E-001	-7.882565139030462E-002	6.9894246E-005	-8.8685030E-001	0
1.0987901E+004	7.659219826025947E+001	-8.8867670E-001	-8.087774402939235E-002	7.1874165E-005	-8.8885039E-001	0
1.0730646E+004	7.679219825520704E+001	-8.9068455E-001	-8.300381377888466E-002	7.3930212E-005	-8.9085037E-001	0
1.0472013E+004	7.699219825015462E+001	-8.9266050E-001	-8.524249256863015E-002	7.6092605E-005	-8.9285022E-001	0
1.0212321E+004	7.719219824510219E+001	-8.9468640E-001	-8.760852727916557E-002	7.8382160E-005	-8.9485031E-001	0
9.9613320E+003	7.739219824004977E+001	-8.9666742E-001	-9.001480936877404E-002	8.0713347E-005	-8.9685041E-001	0
9.7068496E+003	7.759219823499734E+001	-8.9867431E-001	-9.258146210977003E-002	8.3200583E-005	-8.9885026E-001	0
9.4566104E+003	7.779219822994492E+001	-9.0067351E-001	-9.524274642300487E-002	8.5782616E-005	-9.0085036E-001	0
9.1956133E+003	7.800219822463987E+001	-9.0276140E-001	-9.817304798943649E-002	8.8626839E-005	-9.0295035E-001	0
8.9253750E+003	7.821219821933482E+001	-9.0485388E-001	-1.013799290195987E-001	9.1734022E-005	-9.0505034E-001	0
8.6878291E+003	7.841219821428240E+001	-9.0685940E-001	-1.043827424053936E-001	9.4660470E-005	-9.0705031E-001	0
8.4511475E+003	7.861219820922997E+001	-9.0884256E-001	-1.075407349823415E-001	9.7737597E-005	-9.0905041E-001	0
8.1789194E+003	7.881219820417755E+001	-9.1083926E-001	-1.113642552495846E-001	1.0143493E-004	-9.1105044E-001	0
7.9541733E+003	7.901219819912512E+001	-9.1284436E-001	-1.147629422855792E-001	1.0476071E-004	-9.1305035E-001	0
7.7266011E+003	7.921219819407270E+001	-9.1485685E-001	-1.184035294378794E-001	1.0832228E-004	-9.1505033E-001	0
7.5049897E+003	7.941219818902027E+001	-9.1684765E-001	-1.221650754029773E-001	1.1200676E-004	-9.1705042E-001	0
7.2879058E+003	7.961219818396785E+001	-9.1884774E-001	-1.260784292221913E-001	1.1584688E-004	-9.1905028E-001	0
7.0760146E+003	7.981219817891542E+001	-9.2085713E-001	-1.301378206520964E-001	1.1983834E-004	-9.2105031E-001	0
6.8642305E+003	8.001219817386300E+001	-9.2284793E-001	-1.344430290686296E-001	1.2407047E-004	-9.2305034E-001	0
6.6609077E+003	8.021219816881057E+001	-9.2484719E-001	-1.388470202487999E-001	1.2841227E-004	-9.2505032E-001	0
6.4601914E+003	8.041219816375815E+001	-9.2685282E-001	-1.434714147966778E-001	1.3297689E-004	-9.2705029E-001	0
6.2664424E+003	8.061219815870572E+001	-9.2884171E-001	-1.482247291523500E-001	1.3767731E-004	-9.2905033E-001	0
6.0758828E+003	8.081219815365330E+001	-9.3085903E-001	-1.532055631463680E-001	1.4261279E-004	-9.3105030E-001	0
5.8900884E+003	8.101219814860087E+001	-9.3285567E-001	-1.583771982004281E-001	1.4774306E-004	-9.3305027E-001	0
5.7120757E+003	8.121219814354845E+001	-9.3485177E-001	-1.636623575789280E-001	1.5300004E-004	-9.3505037E-001	0
5.5351387E+003	8.141219813849602E+001	-9.3685502E-001	-1.692559301975674E-001	1.5856826E-004	-9.3705040E-001	0
5.3664546E+003	8.161219813344360E+001	-9.3884730E-001	-1.749473972628295E-001	1.6424889E-004	-9.3905032E-001	0
5.2031265E+003	8.181219812839117E+001	-9.4085652E-001	-1.808252251916089E-001	1.7013059E-004	-9.4105035E-001	0
5.0453506E+003	8.201219812333875E+001	-9.4284564E-001	-1.868741491232953E-001	1.7619348E-004	-9.4305038E-001	0
4.8928311E+003	8.221219811828632E+001	-9.4485962E-001	-1.931110187486458E-001	1.8246280E-004	-9.4505042E-001	0
4.7455288E+003	8.241219811323390E+001	-9.4685125E-001	-1.995249195552331E-001	1.8892041E-004	-9.4705033E-001	0
4.6027559E+003	8.261219810818147E+001	-9.4884962E-001	-2.061481550800495E-001	1.9560360E-004	-9.4905031E-001	0
4.4644360E+003	8.281219810312905E+001	-9.5085889E-001	-2.129852263185108E-001	2.0251890E-004	-9.5105040E-001	0
4.3328545E+003	8.301219809807662E+001	-9.5285541E-001	-2.199140125252059E-001	2.0954626E-004	-9.5305026E-001	0
4.2042197E+003	8.321219809302420E+001	-9.5486021E-001	-2.271194732357269E-001	2.1686735E-004	-9.5505029E-001	0
4.0799771E+003	8.341219808797177E+001	-9.5686305E-001	-2.345265735092817E-001	2.2440981E-004	-9.5705032E-001	0
3.9588733E+003	8.361219808291935E+001	-9.5884806E-001	-2.422022552582128E-001	2.3223516E-004	-9.5905030E-001	0
3.8234844E+003	8.381219807786692E+001	-9.6085566E-001	-2.513036650464002E-001	2.4146655E-004	-9.6105039E-001	0
3.7059866E+003	8.401219807281450E+001	-9.6284670E-001	-2.598084753438363E-001	2.5015575E-004	-9.6305037E-001	0
3.5936589E+003	8.421219806776207E+001	-9.6487236E-001	-2.684930206747405E-001	2.5906149E-004	-9.6505034E-001	0
3.4827068E+003	8.441219806270965E+001	-9.6685469E-001	-2.776158700682347E-001	2.6841421E-004	-9.6705031E-001	0
3.3735095E+003	8.461219805765722E+001	-9.6887374E-001	-2.872005307818846E-001	2.7826105E-004	-9.6905035E-001	0
3.2660393E+003	8.481219805260480E+001	-9.7086811E-001	-2.972616212180648E-001	2.8860182E-004	-9.7105038E-001	0
3.1601936E+003	8.501219804755237E+001	-9.7287291E-001	-3.078523057971205E-001	2.9950117E-004	-9.7305036E-001	0
3.0570190E+003	8.521219804249995E+001	-9.7486806E-001	-3.188949826948526E-001	3.1088054E-004	-9.7505027E-001	0
2.9555115E+003	8.541219803744752E+001	-9.7685373E-001	-3.305193571090825E-001	3.2286908E-004	-9.7705036E-001	0
2.8561726E+003	8.561219803239510E+001	-9.7886050E-001	-3.427175662444402E-001	3.3547269E-004	-9.7905040E-001	0
2.7582056E+003	8.581219802734267E+001	-9.8086846E-001	-3.556183230347267E-001	3.4881479E-004	-9.8105031E-001	0
2.6641494E+003	8.601219802229025E+001	-9.8285192E-001	-3.689177127876029E-001	3.6259147E-004	-9.8305029E-001	0
2.5702229E+003	8.621219801723782E+001	-9.8484504E-001	-3.831749718779900E-001	3.7736798E-004	-9.8505038E-001	0
2.4717732E+003	8.641219801218540E+001	-9.8686045E-001	-3.992520196958864E-001	3.9400603E-004	-9.8705035E-001	0
2.3872522E+003	8.661219800713297E+001	-9.8885852E-001	-4.142245742367781E-001	4.0960949E-004	-9.8905027E-001	0
2.3054368E+003	8.681219800208055E+001	-9.9084842E-001	-4.297877204078593E-001	4.2585449E-004	-9.9105042E-001	0
2.2269636E+003	8.701219799702812E+001	-9.9285358E-001	-4.458328589095881E-001	4.4264676E-004	-9.9305028E-001	0
2.1517085E+003	8.721219799197570E+001	-9.9487603E-001	-4.623656079401179E-001	4.5999646E-004	-9.9505037E-001	0
2.0803149E+003	8.741219798692327E+001	-9.9687046E-001	-4.791920990545879E-001	4.7769246E-004	-9.9705034E-001	0
2.0118778E+003	8.761219798187085E+001	-9.9887764E-001	-4.964902232403174E-001	4.9593300E-004	-9.9905032E-001	0
1.9467056E+003	8.781219797681842E+001	-1.0008725E+000	-5.141365621450147E-001	5.1458512E-004	-1.0010504E+000	0
1.8787719E+003	8.801219797176600E+001	-1.0028700E+000	-5.337901816971575E-001	5.3532212E-004	-1.0030503E+000	0
1.8197491E+003	8.821219796671357E+001	-1.0048735E+000	-5.522044247941298E-001	5.5489561E-004	-1.0050503E+000	0
1.7645054E+003	8.841219796166115E+001	-1.0068803E+000	-5.706303114253094E-001	5.7455641E-004	-1.0070503E+000	0
1.7123944E+003	8.861219795660872E+001	-1.0088601E+000	-5.891517274580096E-001	5.9437170E-004	-1.0090503E+000	0
1.6632924E+003	8.881219795155630E+001	-1.0108643E+000	-6.077490048673067E-001	6.1435177E-004	-1.0110503E+000	0
1.6163768E+003	8.901219794650387E+001	-1.0128785E+000	-6.266351360151899E-001	6.3470530E-004	-1.0130504E+000	0
1.5723422E+003	8.921219794145145E+001	-1.0148715E+000	-6.454520655918401E-001	6.5505091E-004	-1.0150503E+000	0
1.5277456E+003	8.941219793639902E+001	-1.0168713E+000	-6.656025229972276E-001	6.7683210E-004	-1.0170503E+000	0
1.4856395E+003	8.961219793134660E+001	-1.0188730E+000	-6.858143922482167E-001	6.9875777E-004	-1.0190504E+000	0
1.4484834E+003	8.981219792629418E+001	-1.0208716E+000	-7.047865577253276E-001	7.1949663E-004	-1.0210503E+000	0
1.4131586E+003	9.001219792124175E+001	-1.0228826E+000	-7.238271885093210E-001	7.4039021E-004	-1.0230503E+000	0
1.3798112E+003	9.021219791618933E+001	-1.0248785E+000	-7.427672178245845E-001	7.6124613E-004	-1.0250503E+000	0
1.3480776E+003	9.041219791113690E+001	-1.0268778E+000	-7.617348665181485E-001	7.8220858E-004	-1.0270503E+000	0
1.3185848E+003	9.061219790608448E+001	-1.0288714E+000	-7.802846037535662E-001	8.0281252E-004	-1.0290504E+000	0
1.2889651E+003	9.081219790103205E+001	-1.0308589E+000	-7.997570550681621E-001	8.2443666E-004	-1.0310503E+000	0
1.2590730E+003	9.101219789597963E+001	-1.0328695E+000	-8.203412106771744E-001	8.4730540E-004	-1.0330503E+000	0
1.2337863E+003	9.121219789092720E+001	-1.0348670E+000	-8.387734041614703E-001	8.6801895E-004	-1.0350503E+000	0
1.2095612E+003	9.141219788587478E+001	-1.0368819E+000	-8.572380820082302E-001	8.8885467E-004	-1.0370504E+000	0
1.1867205E+003	9.161219788082235E+001	-1.0388685E+000	-8.754113205621952E-001	9.0943731E-004	-1.0390503E+000	0
1.1649316E+003	9.181219787576993E+001	-1.0408690E+000	-8.935022067168816E-001	9.3001872E-004	-1.0410504E+000	0
1.1442771E+003	9.201219787071750E+001	-1.0428753E+000	-9.113835184296404E-001	9.5045933E-004	-1.0430504E+000	0
1.1243287E+003	9.221219786566508E+001	-1.0448773E+000	-9.293343765057145E-001	9.7104040E-004	-1.0450504E+000	0
1.1017828E+003	9.241219786061265E+001	-1.0468771E+000	-9.501664994913845E-001	9.9470757E-004	-1.0470504E+000	0
1.0834974E+003	9.261219785556023E+001	-1.0488853E+000	-9.680552136093858E-001	1.0153790E-003	-1.0490503E+000	0
1.0659132E+003	9.281219785050780E+001	-1.0508859E+000	-9.859019222156178E-001	1.0360704E-003	-1.0510504E+000	0
1.0491046E+003	9.301219784545538E+001	-1.0528818E+000	-1.003600471059611E+000	1.0566727E-003	-1.0530504E+000	0
1.0330211E+003	9.321219784040295E+001	-1.0548857E+000	-1.021165712257160E+000	1.0772132E-003	-1.0550504E+000	0
1.0170717E+003	9.341219783535053E+001	-1.0568937E+000	-1.039153567906003E+000	1.0982748E-003	-1.0570503E+000	0
1.0016532E+003	9.361219783029810E+001	-1.0588924E+000	-1.057144670005966E+000	1.1194025E-003	-1.0590503E+000	0
9.8147760E+002	9.382219782499305E+001	-1.0609564E+000	-1.080978649842855E+000	1.1468711E-003	-1.0611504E+000	0
9.6538916E+002	9.403219781968801E+001	-1.0630472E+000	-1.101159206576759E+000	1.1705842E-003	-1.0632504E+000	0
9.5210120E+002	9.423219781463558E+001	-1.0650446E+000	-1.118625484246444E+000	1.1913860E-003	-1.0652504E+000	0
9.3903082E+002	9.443219780958316E+001	-1.0670470E+000	-1.136327961928583E+000	1.2125153E-003	-1.0672504E+000	0
9.2599408E+002	9.463219780453073E+001	-1.0690453E+000	-1.154483927984020E+000	1.2341957E-003	-1.0692503E+000	0
9.1320740E+002	9.483219779947831E+001	-1.0710466E+000	-1.172840499435287E+000	1.2561668E-003	-1.0712504E+000	0
9.0056696E+002	9.503219779442588E+001	-1.0730491E+000	-1.191526161764415E+000	1.2785661E-003	-1.0732504E+000	0
8.8643817E+002	9.523219778937346E+001	-1.0750650E+000	-1.212791879743737E+000	1.3038301E-003	-1.0752504E+000	0
8.7331586E+002	9.543219778432103E+001	-1.0770332E+000	-1.233268775806135E+000	1.3282713E-003	-1.0772504E+000	0
8.6129114E+002	9.563219777926861E+001	-1.0790337E+000	-1.252809544091795E+000	1.3518238E-003	-1.0792503E+000	0
8.4947980E+002	9.583219777421618E+001	-1.0810322E+000	-1.272581352896634E+000	1.3757014E-003	-1.0812504E+000	0
8.3752954E+002	9.603219776916376E+001	-1.0830451E+000	-1.293142641660108E+000	1.4005319E-003	-1.0832504E+000	0
8.2570532E+002	9.623219776411133E+001	-1.0850362E+000	-1.314071930759077E+000	1.4258155E-003	-1.0852503E+000	0
8.1406262E+002	9.643219775905891E+001	-1.0870303E+000	-1.335315323124332E+000	1.4515282E-003	-1.0872504E+000	0
7.9975104E+002	9.663219775400648E+001	-1.0890509E+000	-1.361737383677370E+000	1.4830013E-003	-1.0892503E+000	0
7.8785284E+002	9.683219774895406E+001	-1.0910439E+000	-1.384832162722573E+000	1.5109128E-003	-1.0912504E+000	0
7.7613599E+002	9.703219774390163E+001	-1.0930287E+000	-1.408295279575713E+000	1.5393071E-003	-1.0932504E+000	0
7.6438306E+002	9.723219773884921E+001	-1.0950408E+000	-1.432581179790082E+000	1.5687349E-003	-1.0952504E+000	0
7.5256848E+002	9.743219773379678E+001	-1.0970428E+000	-1.457731580577130E+000	1.5991939E-003	-1.0972502E+000	0
7.4031647E+002	9.763219772874436E+001	-1.0990171E+000	-1.484523491819896E+000	1.6315167E-003	-1.0992504E+000	0
7.2631769E+002	9.783219772369193E+001	-1.1010381E+000	-1.515918106085655E+000	1.6690836E-003	-1.1012504E+000	0
7.1438043E+002	9.803219771863951E+001	-1.1030532E+000	-1.544069753195283E+000	1.7031911E-003	-1.1032503E+000	0
7.0252197E+002	9.823219771358708E+001	-1.1050459E+000	-1.572969931416436E+000	1.7382040E-003	-1.1052504E+000	0
6.9048395E+002	9.843219770853466E+001	-1.1070416E+000	-1.603283576903827E+000	1.7749016E-003	-1.1072503E+000	0
6.7701672E+002	9.863219770348223E+001	-1.1090480E+000	-1.638139736084710E+000	1.8167756E-003	-1.1092504E+000	0
6.6388452E+002	9.883219769842981E+001	-1.1110425E+000	-1.673547883710222E+000	1.8593828E-003	-1.1112504E+000	0
6.5147168E+002	9.903219769337738E+001	-1.1130426E+000	-1.708504981093128E+000	1.9016388E-003	-1.1132503E+000	0
6.3902966E+002	9.923219768832496E+001	-1.1150340E+000	-1.744886140822688E+000	1.9456074E-003	-1.1152503E+000	0
6.2469452E+002	9.943219768327253E+001	-1.1170413E+000	-1.788140190161269E+000	1.9974266E-003	-1.1172503E+000	0
6.1196222E+002	9.963219767822011E+001	-1.1190435E+000	-1.828615214295533E+000	2.0462999E-003	-1.1192503E+000	0
5.9947382E+002	9.983219767316768E+001	-1.1210426E+000	-1.870044338595035E+000	2.0963994E-003	-1.1212504E+000	0
5.8591968E+002	1.000321976681153E+002	-1.1230513E+000	-1.916732591498729E+000	2.1525889E-003	-1.1232504E+000	0
5.7240588E+002	1.002321976630628E+002	-1.1250538E+000	-1.965482455127100E+000	2.2112734E-003	-1.1252503E+000	0
5.5983948E+002	1.004321976580104E+002	-1.1270404E+000	-2.013149178943792E+000	2.2689004E-003	-1.1272503E+000	0
5.4588440E+002	1.006321976529580E+002	-1.1290601E+000	-2.068313615510661E+000	2.3352504E-003	-1.1292504E+000	0
5.3291382E+002	1.008321976479056E+002	-1.1310393E+000	-2.122368122326408E+000	2.4004816E-003	-1.1312504E+000	0
5.1983978E+002	1.010321976428531E+002	-1.1330543E+000	-2.179622118401426E+000	2.4696302E-003	-1.1332504E+000	0
5.0580936E+002	1.012321976378007E+002	-1.1350440E+000	-2.244015376246175E+000	2.5470562E-003	-1.1352503E+000	0
4.9323096E+002	1.014321976327483E+002	-1.1370474E+000	-2.305304222180595E+000	2.6212402E-003	-1.1372503E+000	0
4.7888510E+002	1.016321976276959E+002	-1.1390468E+000	-2.378538775656892E+000	2.7092670E-003	-1.1392504E+000	0
4.6613177E+002	1.018321976226434E+002	-1.1410409E+000	-2.447893390343308E+000	2.7931465E-003	-1.1412504E+000	0
4.5226569E+002	1.020321976175910E+002	-1.1430472E+000	-2.527379928887427E+000	2.8889147E-003	-1.1432503E+000	0
4.3892926E+002	1.022321976125386E+002	-1.1450498E+000	-2.608734353869949E+000	2.9871308E-003	-1.1452503E+000	0
4.2585745E+002	1.024321976074862E+002	-1.1470475E+000	-2.693501160342812E+000	3.0895739E-003	-1.1472503E+000	0
4.1197864E+002	1.026321976024337E+002	-1.1490510E+000	-2.789103143981521E+000	3.2048216E-003	-1.1492504E+000	0
3.9920209E+002	1.028321975973813E+002	-1.1510636E+000	-2.883410679324266E+000	3.3189890E-003	-1.1512504E+000	0
3.8639990E+002	1.030321975923289E+002	-1.1530540E+000	-2.984094947086561E+000	3.4408227E-003	-1.1532503E+000	0
3.7341226E+002	1.032321975872765E+002	-1.1550472E+000	-3.093222307206013E+000	3.5728177E-003	-1.1552503E+000	0
3.6084250E+002	1.034321975822240E+002	-1.1570648E+000	-3.206564769283993E+000	3.7102031E-003	-1.1572504E+000	0
3.4860223E+002	1.036321975771716E+002	-1.1590606E+000	-3.324880023763583E+000	3.8537374E-003	-1.1592504E+000	0
3.3634299E+002	1.038321975721192E+002	-1.1610619E+000	-3.452017396924987E+000	4.0080058E-003	-1.1612504E+000	0
3.2412778E+002	1.040321975670668E+002	-1.1630542E+000	-3.588258564100514E+000	4.1733393E-003	-1.1632503E+000	0
3.1223816E+002	1.042321975620143E+002	-1.1650732E+000	-3.731360719351269E+000	4.3473081E-003	-1.1652503E+000	0
3.0039517E+002	1.044321975569619E+002	-1.1670371E+000	-3.885006265136127E+000	4.5339465E-003	-1.1672503E+000	0
2.8883472E+002	1.046321975519095E+002	-1.1690527E+000	-4.047479987854040E+000	4.7317175E-003	-1.1692504E+000	0
2.7749918E+002	1.048321975468571E+002	-1.1710529E+000	-4.220023193901380E+000	4.9418705E-003	-1.1712505E+000	0
2.6633545E+002	1.050321975418046E+002	-1.1730549E+000	-4.404426477629862E+000	5.1666340E-003	-1.1732503E+000	0
2.5590559E+002	1.052321975367522E+002	-1.1750432E+000	-4.591705826911504E+000	5.3954530E-003	-1.1752503E+000	0
2.4511137E+002	1.054321975316998E+002	-1.1770416E+000	-4.802068738744103E+000	5.6522349E-003	-1.1772504E+000	0
2.3477489E+002	1.056321975266474E+002	-1.1790636E+000	-5.022102690709389E+000	5.9213783E-003	-1.1792504E+000	0
2.2507249E+002	1.058321975215949E+002	-1.1810434E+000	-5.247391115172924E+000	6.1973967E-003	-1.1812503E+000	0
2.1532304E+002	1.060321975165425E+002	-1.1830331E+000	-5.494224221629338E+000	6.4998493E-003	-1.1832503E+000	0
2.0588402E+002	1.062321975114901E+002	-1.1850520E+000	-5.755920572616077E+000	6.8210652E-003	-1.1852503E+000	0
1.9707477E+002	1.064321975064377E+002	-1.1870499E+000	-6.023347654377773E+000	7.1500139E-003	-1.1872503E+000	0
1.8856972E+002	1.066321975013852E+002	-1.1890436E+000	-6.305591656304792E+000	7.4976236E-003	-1.1892503E+000	0
1.7989159E+002	1.068321974963328E+002	-1.1910818E+000	-6.621108817067551E+000	7.8862822E-003	-1.1912504E+000	0
1.7179225E+002	1.070321974912804E+002	-1.1930561E+000	-6.944760911926927E+000	8.2854899E-003	-1.1932503E+000	0
1.6366013E+002	1.072321974862280E+002	-1.1950641E+000	-7.302109096461152E+000	8.7264879E-003	-1.1952503E+000	0
1.5618184E+002	1.074321974811755E+002	-1.1970609E+000	-7.664533289381723E+000	9.1749132E-003	-1.1972504E+000	0
1.4909250E+002	1.076321974761231E+002	-1.1990700E+000	-8.042456453822368E+000	9.6434681E-003	-1.1992505E+000	0
1.4222618E+002	1.078321974710707E+002	-1.2010466E+000	-8.444623312847483E+000	1.0142386E-002	-1.2012503E+000	0
1.3542375E+002	1.080321974660183E+002	-1.2030836E+000	-8.883845443560730E+000	1.0688009E-002	-1.2032503E+000	0
1.2925856E+002	1.082321974609658E+002	-1.2050390E+000	-9.322701579724338E+000	1.1234219E-002	-1.2052504E+000	0
1.2308736E+002	1.084321974559134E+002	-1.2070639E+000	-9.806562637458327E+000	1.1837148E-002	-1.2072504E+000	0
1.1733335E+002	1.086321974508610E+002	-1.2090675E+000	-1.030455044891829E+001	1.2458896E-002	-1.2092503E+000	0
1.1140887E+002	1.088421974455559E+002	-1.2111497E+000	-1.087121439004432E+001	1.3166668E-002	-1.2113504E+000	0
1.0537763E+002	1.090521974402509E+002	-1.2132266E+000	-1.151313179082609E+001	1.3968037E-002	-1.2134503E+000	0
1.0023998E+002	1.092521974351985E+002	-1.2152562E+000	-1.212346787071553E+001	1.4733120E-002	-1.2154503E+000	0
9.5693260E+001	1.094521974301460E+002	-1.2172664E+000	-1.272050318047570E+001	1.5484242E-002	-1.2174504E+000	0
9.1136047E+001	1.096521974250936E+002	-1.2192612E+000	-1.337847326131635E+001	1.6311852E-002	-1.2194505E+000	0
8.6911964E+001	1.098521974200412E+002	-1.2212662E+000	-1.405176056864040E+001	1.7160939E-002	-1.2214503E+000	0
8.2841293E+001	1.100521974149888E+002	-1.2232770E+000	-1.476651227312024E+001	1.8063534E-002	-1.2234503E+000	0
7.9180290E+001	1.102521974099363E+002	-1.2252582E+000	-1.547428301280864E+001	1.8959993E-002	-1.2254503E+000	0
7.5497414E+001	1.104521974048839E+002	-1.2272663E+000	-1.625573965900338E+001	1.9950122E-002	-1.2274504E+000	0
7.2185196E+001	1.106521973998315E+002	-1.2292720E+000	-1.702941898545440E+001	2.0933788E-002	-1.2294503E+000	0
6.8931282E+001	1.108521973947791E+002	-1.2312845E+000	-1.786249182513505E+001	2.1993808E-002	-1.2314503E+000	0
6.5847778E+001	1.110521973897266E+002	-1.2332519E+000	-1.872883018736400E+001	2.3097366E-002	-1.2334504E+000	0
6.2907154E+001	1.112521973846742E+002	-1.2352813E+000	-1.963657975359024E+001	2.4256701E-002	-1.2354503E+000	0
6.0065224E+001	1.114521973796218E+002	-1.2372706E+000	-2.059878412409432E+001	2.5486270E-002	-1.2374504E+000	0
5.7376919E+001	1.116521973745694E+002	-1.2392702E+000	-2.159875810876179E+001	2.6766697E-002	-1.2394503E+000	0
5.4758049E+001	1.118521973695169E+002	-1.2412801E+000	-2.266844899719260E+001	2.8137894E-002	-1.2414503E+000	0
5.2456749E+001	1.120521973644645E+002	-1.2432710E+000	-2.370087805586334E+001	2.9466614E-002	-1.2434504E+000	0
5.0219257E+001	1.122521973594121E+002	-1.2452583E+000	-2.479643156874471E+001	3.0877963E-002	-1.2454504E+000	0
4.8151676E+001	1.124521973543597E+002	-1.2472612E+000	-2.590275710537298E+001	3.2307502E-002	-1.2474504E+000	0
4.6016785E+001	1.126521973493072E+002	-1.2492803E+000	-2.714836102196956E+001	3.3915915E-002	-1.2494504E+000	0
4.4258846E+001	1.128521973442548E+002	-1.2512730E+000	-2.827170456645177E+001	3.5375621E-002	-1.2514504E+000	0
4.2452503E+001	1.130521973392024E+002	-1.2532711E+000	-2.952172378915236E+001	3.6998723E-002	-1.2534503E+000	0
4.0843643E+001	1.132521973341500E+002	-1.2552580E+000	-3.073325274482613E+001	3.8578160E-002	-1.2554504E+000	0
3.9202160E+001	1.134521973290975E+002	-1.2572621E+000	-3.207124588873387E+001	4.0321961E-002	-1.2574505E+000	0
3.7701550E+001	1.136521973240451E+002	-1.2592835E+000	-3.340137457036641E+001	4.2061802E-002	-1.2594504E+000	0
3.6280704E+001	1.138521973189927E+002	-1.2612839E+000	-3.476459054368422E+001	4.3848019E-002	-1.2614504E+000	0
3.5012268E+001	1.140521973139403E+002	-1.2632838E+000	-3.608117601957980E+001	4.5580767E-002	-1.2634504E+000	0
3.3775261E+001	1.142521973088878E+002	-1.2652836E+000	-3.746184648029407E+001	4.7399860E-002	-1.2654504E+000	0
3.2488903E+001	1.144521973038354E+002	-1.2672936E+000	-3.900696489708218E+001	4.9433276E-002	-1.2674505E+000	0
3.1358582E+001	1.146521972987830E+002	-1.2692847E+000	-4.047647051908535E+001	5.1376164E-002	-1.2694504E+000	0
3.0343992E+001	1.148521972937306E+002	-1.2712847E+000	-4.189576376052136E+001	5.3261444E-002	-1.2714504E+000	0
2.9390156E+001	1.150521972886781E+002	-1.2733091E+000	-4.332434125957579E+001	5.5165280E-002	-1.2734504E+000	0
2.8416801E+001	1.152521972836257E+002	-1.2752829E+000	-4.487777609511579E+001	5.7231858E-002	-1.2754502E+000	0
2.7518433E+001	1.154521972785733E+002	-1.2772725E+000	-4.641515928817739E+001	5.9284806E-002	-1.2774503E+000	0
2.6626041E+001	1.156521972735209E+002	-1.2792869E+000	-4.804645217897678E+001	6.1465196E-002	-1.2794504E+000	0
2.5658003E+001	1.158521972684684E+002	-1.2812799E+000	-4.993685421895009E+001	6.3983090E-002	-1.2814503E+000	0
2.4886999E+001	1.160521972634160E+002	-1.2833076E+000	-5.156538052948170E+001	6.6174239E-002	-1.2834504E+000	0
2.4064350E+001	1.162521972583636E+002	-1.2852937E+000	-5.341069731798831E+001	6.8648435E-002	-1.2854503E+000	0
2.3015739E+001	1.164521972533112E+002	-1.2873112E+000	-5.593177496224587E+001	7.2001599E-002	-1.2874504E+000	0
2.2409866E+001	1.166521972482587E+002	-1.2892958E+000	-5.753250617775541E+001	7.4176416E-002	-1.2894504E+000	0
2.1886702E+001	1.168521972432063E+002	-1.2912972E+000	-5.899916966431817E+001	7.6185465E-002	-1.2914504E+000	0
2.1326235E+001	1.170521972381539E+002	-1.2933069E+000	-6.064394265237604E+001	7.8431234E-002	-1.2934504E+000	0
2.0687763E+001	1.172521972331015E+002	-1.2953030E+000	-6.261203409538797E+001	8.1101552E-002	-1.2954503E+000	0
1.9933235E+001	1.174521972280490E+002	-1.2973026E+000	-6.508239192324709E+001	8.4431559E-002	-1.2974503E+000	0
1.9183371E+001	1.176521972229966E+002	-1.2992945E+000	-6.773024779166221E+001	8.8001534E-002	-1.2994504E+000	0
1.8572163E+001	1.178521972179442E+002	-1.3012913E+000	-7.006676348104475E+001	9.1177270E-002	-1.3014504E+000	0
1.8065380E+001	1.180521972128918E+002	-1.3033016E+000	-7.214360148079527E+001	9.4024867E-002	-1.3034503E+000	0
1.7550379E+001	1.182521972078393E+002	-1.3053030E+000	-7.437463156382250E+001	9.7081430E-002	-1.3054503E+000	0
1.7080246E+001	1.184521972027869E+002	-1.3072958E+000	-7.653846535498838E+001	1.0005841E-001	-1.3074504E+000	0
1.6536600E+001	1.186521971977345E+002	-1.3092885E+000	-7.917519269562604E+001	1.0366317E-001	-1.3094504E+000	0
1.6087341E+001	1.188521971926821E+002	-1.3112873E+000	-8.151050652397976E+001	1.0688369E-001	-1.3114504E+000	0
1.5603369E+001	1.190521971876296E+002	-1.3133155E+000	-8.416871658258123E+001	1.1054008E-001	-1.3134503E+000	0
1.5355465E+001	1.192521971825772E+002	-1.3153135E+000	-8.565767643348937E+001	1.1266670E-001	-1.3154503E+000	0
1.4991041E+001	1.194521971775248E+002	-1.3173028E+000	-8.787267132086538E+001	1.1575492E-001	-1.3174504E+000	0
1.4645501E+001	1.196521971724724E+002	-1.3193161E+000	-9.008337385908533E+001	1.1884845E-001	-1.3194504E+000	0
1.4243864E+001	1.198521971674199E+002	-1.3213247E+000	-9.276448425900617E+001	1.2257200E-001	-1.3214505E+000	0
1.3805259E+001	1.200521971623675E+002	-1.3233134E+000	-9.585574674552254E+001	1.2684719E-001	-1.3234503E+000	0
1.3481736E+001	1.202521971573151E+002	-1.3253123E+000	-9.830427035182538E+001	1.3028385E-001	-1.3254504E+000	0
1.3232672E+001	1.204521971522627E+002	-1.3273244E+000	-1.003066048578885E+002	1.3313940E-001	-1.3274504E+000	0
1.2757605E+001	1.206521971472102E+002	-1.3293283E+000	-1.041988974158187E+002	1.3851455E-001	-1.3294505E+000	0
1.2318144E+001	1.208521971421578E+002	-1.3313136E+000	-1.080774541593195E+002	1.4388499E-001	-1.3314503E+000	0
1.1882602E+001	1.210621971368528E+002	-1.3333706E+000	-1.122120052026239E+002	1.4962019E-001	-1.3335505E+000	0
1.1680909E+001	1.212721971315477E+002	-1.3354690E+000	-1.143292046425831E+002	1.5268311E-001	-1.3356503E+000	0
1.1548010E+001	1.214721971264953E+002	-1.3374683E+000	-1.158180786887536E+002	1.5490301E-001	-1.3376504E+000	0
1.1428172E+001	1.216721971214429E+002	-1.3394752E+000	-1.172081741010788E+002	1.5699744E-001	-1.3396504E+000	0
1.1190486E+001	1.218721971163905E+002	-1.3414651E+000	-1.198754995317954E+002	1.6080880E-001	-1.3416504E+000	0
1.0910342E+001	1.220721971113380E+002	-1.3434740E+000	-1.231376621620454E+002	1.6543224E-001	-1.3436503E+000	0
1.0672850E+001	1.222721971062856E+002	-1.3454841E+000	-1.260660674134076E+002	1.6961989E-001	-1.3456504E+000	0
1.0171600E+001	1.224721971012332E+002	-1.3474988E+000	-1.324765744522856E+002	1.7851202E-001	-1.3476504E+000	0
9.9911604E+000	1.226721970961808E+002	-1.3495018E+000	-1.350695843631725E+002	1.8227665E-001	-1.3496505E+000	0
9.9107676E+000	1.228721970911283E+002	-1.3514974E+000	-1.363665776004055E+002	1.8429908E-001	-1.3516504E+000	0
9.8060713E+000	1.230721970860759E+002	-1.3535000E+000	-1.380267346537843E+002	1.8681918E-001	-1.3536503E+000	0
9.6502352E+000	1.232721970810235E+002	-1.3554873E+000	-1.404615936722619E+002	1.9039391E-001	-1.3556503E+000	0
9.4626112E+000	1.234721970759711E+002	-1.3575109E+000	-1.434604918691848E+002	1.9474919E-001	-1.3576504E+000	0
9.2535877E+000	1.236721970709186E+002	-1.3594929E+000	-1.469152254420351E+002	1.9973020E-001	-1.3596504E+000	0
9.0477114E+000	1.238721970658662E+002	-1.3615022E+000	-1.504802880146601E+002	2.0487924E-001	-1.3616503E+000	0
8.9498148E+000	1.240721970608138E+002	-1.3635056E+000	-1.523501433612534E+002	2.0773028E-001	-1.3636503E+000	0
8.8746958E+000	1.242721970557614E+002	-1.3655137E+000	-1.538659646840861E+002	2.1010607E-001	-1.3656503E+000	0
8.8652668E+000	1.244721970507089E+002	-1.3675147E+000	-1.542553305539418E+002	2.1094644E-001	-1.3676504E+000	0
8.8438549E+000	1.246721970456565E+002	-1.3695011E+000	-1.548534058800087E+002	2.1207191E-001	-1.3696504E+000	0
8.6287518E+000	1.248721970406041E+002	-1.3714942E+000	-1.589446852612657E+002	2.1799171E-001	-1.3716503E+000	0
8.5094585E+000	1.250721970355517E+002	-1.3734889E+000	-1.614073202280233E+002	2.2169116E-001	-1.3736504E+000	0
8.3134651E+000	1.252721970304992E+002	-1.3755091E+000	-1.654555816747711E+002	2.2758566E-001	-1.3756503E+000	0
8.1359739E+000	1.254721970254468E+002	-1.3775120E+000	-1.693112491328693E+002	2.3322828E-001	-1.3776504E+000	0
7.9715834E+000	1.256721970203944E+002	-1.3795202E+000	-1.730547232368372E+002	2.3873249E-001	-1.3796504E+000	0
7.8395925E+000	1.258721970153420E+002	-1.3815194E+000	-1.762233718712041E+002	2.4345601E-001	-1.3816503E+000	0
7.6593618E+000	1.260722970102870E+002	-1.3835404E+000	-1.806339024794338E+002	2.4991430E-001	-1.3836511E+000	0
7.5267253E+000	1.262725970052270E+002	-1.3855327E+000	-1.840817488668135E+002	2.5505129E-001	-1.3856539E+000	0
7.1706891E+000	1.264730970001619E+002	-1.3875380E+000	-1.935013363770649E+002	2.6849046E-001	-1.3876587E+000	0
6.9839268E+000	1.266735969950969E+002	-1.3895575E+000	-1.989650720546775E+002	2.7647340E-001	-1.3896638E+000	0
6.9633489E+000	1.268737969900394E+002	-1.3915616E+000	-1.998408642182819E+002	2.7809086E-001	-1.3916664E+000	0
6.9586148E+000	1.270738969849845E+002	-1.3935369E+000	-2.002606800423981E+002	2.7907065E-001	-1.3936672E+000	0
6.8431344E+000	1.272739969799295E+002	-1.3955497E+000	-2.039342749783787E+002	2.8460041E-001	-1.3956684E+000	0
6.7868953E+000	1.274740969748746E+002	-1.3975616E+000	-2.059205977087086E+002	2.8778672E-001	-1.3976692E+000	0
6.6421514E+000	1.276742969698171E+002	-1.3995637E+000	-2.107093952917213E+002	2.9490122E-001	-1.3996712E+000	0
6.3704948E+000	1.278746969647545E+002	-1.4015654E+000	-2.200088769374584E+002	3.0835685E-001	-1.4016747E+000	0
6.4258385E+000	1.280751969596895E+002	-1.4035660E+000	-2.184253486468670E+002	3.0657440E-001	-1.4036800E+000	0
6.4456697E+000	1.282751969546371E+002	-1.4055657E+000	-2.180635649280159E+002	3.0650267E-001	-1.4056803E+000	0
6.4203277E+000	1.284752969495821E+002	-1.4075681E+000	-2.192361802266855E+002	3.0858985E-001	-1.4076812E+000	0
6.2544422E+000	1.286753969445272E+002	-1.4095604E+000	-2.253694825702246E+002	3.1767190E-001	-1.4096824E+000	0
6.1902118E+000	1.288754969394722E+002	-1.4115795E+000	-2.280341155930789E+002	3.2188827E-001	-1.4116831E+000	0
6.2714553E+000	1.290756969344147E+002	-1.4135941E+000	-2.254012939752888E+002	3.1862596E-001	-1.4136852E+000	0
6.1564751E+000	1.292758969293573E+002	-1.4155681E+000	-2.299315996509586E+002	3.2548383E-001	-1.4156872E+000	0
5.9383073E+000	1.294760969242998E+002	-1.4175891E+000	-2.387193907304979E+002	3.3840600E-001	-1.4176892E+000	0
5.8666697E+000	1.296761969192448E+002	-1.4195821E+000	-2.419741041914408E+002	3.4350210E-001	-1.4196904E+000	0
5.8902006E+000	1.298762969141899E+002	-1.4215909E+000	-2.413484672856275E+002	3.4309879E-001	-1.4216912E+000	0
5.8293748E+000	1.300765969091299E+002	-1.4235995E+000	-2.442113556239765E+002	3.4765917E-001	-1.4236938E+000	0
5.8576074E+000	1.302768969040699E+002	-1.4256083E+000	-2.433772369779558E+002	3.4696060E-001	-1.4256971E+000	0
5.6031671E+000	1.304770968990124E+002	-1.4275899E+000	-2.547826795491505E+002	3.6372519E-001	-1.4276992E+000	0
5.4773088E+000	1.306772968939549E+002	-1.4296074E+000	-2.610054363894510E+002	3.7313530E-001	-1.4297013E+000	0
5.4145298E+000	1.308774968888974E+002	-1.4315969E+000	-2.643991158093381E+002	3.7851295E-001	-1.4317032E+000	0
5.4338250E+000	1.310776968838400E+002	-1.4336075E+000	-2.638302510973972E+002	3.7822902E-001	-1.4337052E+000	0
5.4336433E+000	1.312778968787825E+002	-1.4356154E+000	-2.642086196003113E+002	3.7930197E-001	-1.4357072E+000	0
5.3976030E+000	1.314781968737225E+002	-1.4376163E+000	-2.663434732875489E+002	3.8289973E-001	-1.4377098E+000	0
5.2805519E+000	1.316785968686600E+002	-1.4396333E+000	-2.726293253104905E+002	3.9248624E-001	-1.4397137E+000	0
5.2386127E+000	1.318789968635974E+002	-1.4416362E+000	-2.751942763128310E+002	3.9673004E-001	-1.4417180E+000	0
5.2257733E+000	1.320793968585349E+002	-1.4436586E+000	-2.762574054075221E+002	3.9882138E-001	-1.4437220E+000	0
5.1870599E+000	1.322796968534749E+002	-1.4456400E+000	-2.787012270041141E+002	4.0290162E-001	-1.4457252E+000	0
5.0301046E+000	1.324800968484124E+002	-1.4476774E+000	-2.878026361371667E+002	4.1664538E-001	-1.4477285E+000	0
4.8520594E+000	1.326806968433448E+002	-1.4496778E+000	-2.987757815484606E+002	4.3312863E-001	-1.4497350E+000	0
4.8127747E+000	1.328808968382873E+002	-1.4516795E+000	-3.016304591328455E+002	4.3787074E-001	-1.4517370E+000	0
4.8482099E+000	1.330809968332323E+002	-1.4536753E+000	-2.998375188044670E+002	4.3586639E-001	-1.4537383E+000	0
4.7516522E+000	1.332810968281774E+002	-1.4556899E+000	-3.063544820470006E+002	4.4595712E-001	-1.4557393E+000	0
4.7244916E+000	1.334814968231149E+002	-1.4576752E+000	-3.085358789741604E+002	4.4974512E-001	-1.4577432E+000	0
4.7318439E+000	1.336815968180599E+002	-1.4596919E+000	-3.084826700335998E+002	4.5028964E-001	-1.4597443E+000	0
4.5497127E+000	1.338817968130024E+002	-1.4616748E+000	-3.212674865776116E+002	4.6958858E-001	-1.4617459E+000	0
4.5731034E+000	1.340819968079450E+002	-1.4636781E+000	-3.200623182634099E+002	4.6846822E-001	-1.4637483E+000	0
4.6251693E+000	1.342822968028850E+002	-1.4657018E+000	-3.168969154030458E+002	4.6447638E-001	-1.4657508E+000	0
4.6294308E+000	1.344823967978300E+002	-1.4676954E+000	-3.170358004061811E+002	4.6531197E-001	-1.4677525E+000	0
4.6449394E+000	1.346824967927751E+002	-1.4696900E+000	-3.164067178862342E+002	4.6501979E-001	-1.4697533E+000	0
4.5680237E+000	1.348829967877100E+002	-1.4716959E+000	-3.221734549203597E+002	4.7414136E-001	-1.4717579E+000	0
4.4323101E+000	1.350832967826500E+002	-1.4736938E+000	-3.324889004925526E+002	4.8998684E-001	-1.4737613E+000	0
4.3996229E+000	1.352833967775950E+002	-1.4756939E+000	-3.354137254031605E+002	4.9496800E-001	-1.4757622E+000	0
4.4381905E+000	1.354833967725426E+002	-1.4776802E+000	-3.329465554814760E+002	4.9198854E-001	-1.4777623E+000	0
4.3707132E+000	1.356836967674826E+002	-1.4796981E+000	-3.385484248637081E+002	5.0094944E-001	-1.4797652E+000	0
4.2306728E+000	1.358839967624226E+002	-1.4817121E+000	-3.502308590277780E+002	5.1894128E-001	-1.4817679E+000	0
4.1822953E+000	1.360842967573626E+002	-1.4837195E+000	-3.547619934907252E+002	5.2636725E-001	-1.4837711E+000	0
4.1449113E+000	1.362843967523077E+002	-1.4857088E+000	-3.584416336872691E+002	5.3253990E-001	-1.4857720E+000	0
4.1411953E+000	1.364843967472552E+002	-1.4876963E+000	-3.592432042011587E+002	5.3444481E-001	-1.4877721E+000	0
4.1114135E+000	1.366843967422028E+002	-1.4897088E+000	-3.623349333220319E+002	5.3977352E-001	-1.4897722E+000	0
4.1720400E+000	1.368843967371504E+002	-1.4917059E+000	-3.575483275389761E+002	5.3335696E-001	-1.4917721E+000	0
4.1268497E+000	1.370843967320980E+002	-1.4937094E+000	-3.619490902202197E+002	5.4064679E-001	-1.4937721E+000	0
4.0506225E+000	1.372843967270455E+002	-1.4957151E+000	-3.692556144191024E+002	5.5230123E-001	-1.4957722E+000	0
4.0721278E+000	1.374843967219931E+002	-1.4977210E+000	-3.677981067147102E+002	5.5085891E-001	-1.4977721E+000	0
4.0851870E+000	1.376843967169407E+002	-1.4997073E+000	-3.671086274101608E+002	5.5055553E-001	-1.4997721E+000	0
3.9526215E+000	1.378843967118883E+002	-1.5017549E+000	-3.799389579842145E+002	5.7057518E-001	-1.5017720E+000	0
3.9471002E+000	1.380843967068358E+002	-1.5037470E+000	-3.809751333682179E+002	5.7289022E-001	-1.5037721E+000	0
3.9073458E+000	1.382843967017834E+002	-1.5057404E+000	-3.853614337384861E+002	5.8025426E-001	-1.5057722E+000	0
3.9546182E+000	1.384843966967310E+002	-1.5077643E+000	-3.812667191650321E+002	5.7486033E-001	-1.5077723E+000	0
4.0121412E+000	1.386843966916786E+002	-1.5097563E+000	-3.762969187825192E+002	5.6811666E-001	-1.5097721E+000	0
3.8388343E+000	1.388843966866261E+002	-1.5117602E+000	-3.938071061088922E+002	5.9534192E-001	-1.5117722E+000	0
3.7799234E+000	1.390843966815737E+002	-1.5137689E+000	-4.004760860456117E+002	6.0622823E-001	-1.5137721E+000	0
3.7809215E+000	1.392843966765213E+002	-1.5157769E+000	-4.009014524234935E+002	6.0767716E-001	-1.5157722E+000	0
3.8640463E+000	1.394843966714689E+002	-1.5177797E+000	-3.927954235336401E+002	5.9617692E-001	-1.5177722E+000	0
3.8302586E+000	1.396843966664164E+002	-1.5197746E+000	-3.967811788636827E+002	6.0301793E-001	-1.5197721E+000	0
3.6963971E+000	1.398843966613640E+002	-1.5217551E+000	-4.116860454023008E+002	6.2648535E-001	-1.5217721E+000	0
3.6058278E+000	1.400843966563116E+002	-1.5237545E+000	-4.225810390697334E+002	6.4390975E-001	-1.5237721E+000	0
3.5227959E+000	1.402843966512592E+002	-1.5257633E+000	-4.331114624654892E+002	6.6082555E-001	-1.5257722E+000	0
3.6255019E+000	1.404843966462067E+002	-1.5277451E+000	-4.213886044690403E+002	6.4377439E-001	-1.5277722E+000	0
3.5952797E+000	1.406843966411543E+002	-1.5297608E+000	-4.254914655101529E+002	6.5090019E-001	-1.5297722E+000	0
3.5398140E+000	1.408843966361019E+002	-1.5317572E+000	-4.327225140162882E+002	6.6282582E-001	-1.5317721E+000	0
3.4956279E+000	1.410843966310495E+002	-1.5337605E+000	-4.387654067015706E+002	6.7296106E-001	-1.5337722E+000	0
3.5143847E+000	1.412843966259970E+002	-1.5357572E+000	-4.369917739297252E+002	6.7111325E-001	-1.5357721E+000	0
3.5517437E+000	1.414843966209446E+002	-1.5377417E+000	-4.329539985699994E+002	6.6577142E-001	-1.5377722E+000	0
3.5372441E+000	1.416843966158922E+002	-1.5397631E+000	-4.353002165926282E+002	6.7025924E-001	-1.5397723E+000	0
3.4206023E+000	1.418843966108398E+002	-1.5418966E+000	-4.507675559893760E+002	6.9503695E-001	-1.5417721E+000	0
3.3583789E+000	1.420843966057873E+002	-1.5443845E+000	-4.598601024048130E+002	7.1020079E-001	-1.5437722E+000	0
3.4198003E+000	1.422843966007349E+002	-1.5463800E+000	-4.521843078855472E+002	6.9924879E-001	-1.5457723E+000	0
3.3896985E+000	1.424843965956825E+002	-1.5483515E+000	-4.567814839897246E+002	7.0725828E-001	-1.5477722E+000	0
3.3993533E+000	1.426843965906301E+002	-1.5503670E+000	-4.560770368597687E+002	7.0708680E-001	-1.5497720E+000	0
3.4039221E+000	1.428843965855776E+002	-1.5523647E+000	-4.560517902331021E+002	7.0795870E-001	-1.5517721E+000	0
3.4183669E+000	1.430843965805252E+002	-1.5543563E+000	-4.547072743482860E+002	7.0677716E-001	-1.5537720E+000	0
3.3756304E+000	1.432843965754728E+002	-1.5563514E+000	-4.610550390490062E+002	7.1756369E-001	-1.5557723E+000	0
3.4062138E+000	1.434843965704204E+002	-1.5583472E+000	-4.575013161700326E+002	7.1294588E-001	-1.5577722E+000	0
3.4339011E+000	1.436843965653679E+002	-1.5603380E+000	-4.543922439194588E+002	7.0900548E-001	-1.5597720E+000	0
3.4828448E+000	1.438843965603155E+002	-1.5623429E+000	-4.485823883480498E+002	7.0083952E-001	-1.5617721E+000	0
3.4612753E+000	1.440843965552631E+002	-1.5643637E+000	-4.519616459135023E+002	7.0703238E-001	-1.5637722E+000	0
3.2329912E+000	1.442843965502107E+002	-1.5663970E+000	-4.845039416851632E+002	7.5892550E-001	-1.5657723E+000	0
3.1288180E+000	1.444843965451582E+002	-1.5683985E+000	-5.012750784210048E+002	7.8619909E-001	-1.5677722E+000	0
3.0746796E+000	1.446843965401058E+002	-1.5704166E+000	-5.107577948278322E+002	8.0210251E-001	-1.5697721E+000	0
3.1267545E+000	1.448843965350534E+002	-1.5723988E+000	-5.028852657482485E+002	7.9073620E-001	-1.5717721E+000	0
3.1724944E+000	1.450843965300010E+002	-1.5744010E+000	-4.962659728467615E+002	7.8132164E-001	-1.5737722E+000	0
3.1726785E+000	1.452843965249485E+002	-1.5764012E+000	-4.968676331708230E+002	7.8326273E-001	-1.5757723E+000	0
3.1931474E+000	1.454843965198961E+002	-1.5783904E+000	-4.943054964796484E+002	7.8020704E-001	-1.5777721E+000	0
3.2362926E+000	1.456843965148437E+002	-1.5803893E+000	-4.883332597814742E+002	7.7175665E-001	-1.5797721E+000	0
3.1977940E+000	1.458843965097913E+002	-1.5824071E+000	-4.948433723925482E+002	7.8304368E-001	-1.5817721E+000	0
3.2254214E+000	1.460843965047388E+002	-1.5843954E+000	-4.912212187751877E+002	7.7828866E-001	-1.5837722E+000	0
3.2200203E+000	1.462843964996864E+002	-1.5863765E+000	-4.926604214752624E+002	7.8154492E-001	-1.5857723E+000	0
3.1846941E+000	1.464843964946340E+002	-1.5883926E+000	-4.987582955176581E+002	7.9222399E-001	-1.5877721E+000	0
3.2125847E+000	1.466843964895816E+002	-1.5903976E+000	-4.950523472394543E+002	7.8733009E-001	-1.5897721E+000	0
3.0745704E+000	1.468843964845291E+002	-1.5923921E+000	-5.179234218035181E+002	8.2473713E-001	-1.5917722E+000	0
3.0882032E+000	1.470843964794767E+002	-1.5943929E+000	-5.162849606148493E+002	8.2316107E-001	-1.5937722E+000	0
3.1238065E+000	1.472843964744243E+002	-1.5963824E+000	-5.110375387965939E+002	8.1581134E-001	-1.5957723E+000	0
3.1623721E+000	1.474843964693719E+002	-1.5983752E+000	-5.054355401192643E+002	8.0787563E-001	-1.5977724E+000	0
3.0671139E+000	1.476843964643194E+002	-1.6003915E+000	-5.217906984688216E+002	8.3506942E-001	-1.5997722E+000	0
2.9934278E+000	1.478843964592670E+002	-1.6024173E+000	-5.353118689098064E+002	8.5779303E-001	-1.6017722E+000	0
3.0174420E+000	1.480843964542146E+002	-1.6044035E+000	-5.317097868973433E+002	8.5307705E-001	-1.6037722E+000	0
2.9803536E+000	1.482843964491622E+002	-1.6064181E+000	-5.390025441911475E+002	8.6586344E-001	-1.6057723E+000	0
3.0122392E+000	1.484843964441097E+002	-1.6084208E+000	-5.339618481443581E+002	8.5883534E-001	-1.6077722E+000	0
3.0312231E+000	1.486843964390573E+002	-1.6104087E+000	-5.312735802700208E+002	8.5556757E-001	-1.6097722E+000	0
3.0265887E+000	1.488843964340049E+002	-1.6124033E+000	-5.327460883436806E+002	8.5900152E-001	-1.6117722E+000	0
3.0566015E+000	1.490843964289525E+002	-1.6144032E+000	-5.281693615080785E+002	8.5267836E-001	-1.6137723E+000	0
3.0716813E+000	1.492843964239000E+002	-1.6164175E+000	-5.262321855237960E+002	8.5061091E-001	-1.6157721E+000	0
3.0157146E+000	1.494843964188476E+002	-1.6184211E+000	-5.366625552145015E+002	8.6854601E-001	-1.6177722E+000	0
2.9227834E+000	1.496843964137952E+002	-1.6204171E+000	-5.544088946751199E+002	8.9837366E-001	-1.6197722E+000	0
2.9596691E+000	1.498843964087428E+002	-1.6224114E+000	-5.481732128904528E+002	8.8936245E-001	-1.6217722E+000	0
2.9787662E+000	1.500843964036903E+002	-1.6244009E+000	-5.453267234447578E+002	8.8582921E-001	-1.6237723E+000	0
2.9745729E+000	1.502843963986379E+002	-1.6263989E+000	-5.467672195261548E+002	8.8926160E-001	-1.6257721E+000	0
2.9603264E+000	1.504843963935855E+002	-1.6283956E+000	-5.500729510681422E+002	8.9573634E-001	-1.6277722E+000	0
2.9518316E+000	1.506843963885331E+002	-1.6304116E+000	-5.523389726625810E+002	9.0053988E-001	-1.6297723E+000	0
2.9081950E+000	1.508843963834806E+002	-1.6324128E+000	-5.613147774564441E+002	9.1629744E-001	-1.6317722E+000	0
2.8406606E+000	1.510843963784282E+002	-1.6344385E+000	-5.753726772645682E+002	9.4041127E-001	-1.6337723E+000	0
2.8805623E+000	1.512843963733758E+002	-1.6364306E+000	-5.680941799449274E+002	9.2964673E-001	-1.6357721E+000	0
2.8338997E+000	1.514843963683234E+002	-1.6384416E+000	-5.781579386912235E+002	9.4727802E-001	-1.6377722E+000	0
2.8265088E+000	1.516243963647867E+002	-1.6398472E+000	-5.801670012311897E+002	9.5138520E-001	-1.6391720E+000	0
2.8411093E+000	1.516601963638823E+002	-1.6403245E+000	-5.773535366716060E+002	9.4704711E-001	-1.6396719E+000	1