EC-Lab ASCII FILE
Nb header lines : 63                          

Linear Sweep Voltammetry

Run on channel : 1 (SN 1340)
User : 
Electrode connection : standard
Potential control : Ewe
Ewe ctrl range : min = -5.00 V, max = 5.00 V
Ewe,I filtering : <None>
Safety Limits :
	Do not start on E overload
Channel : Floating
Acquisition started on : 02/17/2026 15:43:54.172
Technique started on : 02/17/2026 15:43:56.855
Loaded Setting File :  NONE
Saved on :
	File : Pd40_2-17_02_LSV_C01.mpr
	Directory : C:\Users\volt\Documents\Platalytix\
	Host : 127.0.0.1
Device : SP-200 (SN 0262)
Address : USB
EC-LAB for windows v11.60 (software)
Internet server v11.60 (firmware)
Command interpretor v11.60 (firmware)
Electrode material : Pt22.5Pd22.5Ni22.5Co22.5Cr10
Initial state : 
Electrolyte : KOH (1M)
Comments : 
Cable : standard
Reference electrode : Hg/HgO (0.140 V)
Electrode surface area : 1.000 cm˛
Characteristic mass : 0.001 g
Equivalent Weight : 0.000 g/eq.
Density : 0.000 g/cm3
Volume (V) : 0.001 cmł
Cycle Definition : Charge/Discharge alternance
tR (h:m:s)          0:00:5.0000         
dER/dt (mV/h)       0.0                 
dER (mV)            0                   
dtR (s)             0.0000              
dE/dt               10.000              
dE/dt unit          mV/s                
Ei (V)              -0.200              
vs.                 Ref                 
EL (V)              -2.500              
vs.                 Ref                 
record              <I>                 
dI                  0.000               
unit dI             µA                  
tI (s)              0.0000              
step percent        50                  
N                   10                  
E range min (V)     -5.000              
E range max (V)     5.000               
I Range             Auto                
I Range min         Unset               
I Range max         Unset               
I Range init        Unset               
Bandwidth           8                   

Rwe/Ohm	time/s	Ewe/V	<I>/mA	Pwe/W	control/V	error	
0.0000000E+000	2.683400127425557E+000	-1.6545036E-001	0.000000000000000E+000	0.0000000E+000	0.0000000E+000	0
0.0000000E+000	7.683200001119985E+000	-1.8772895E-002	0.000000000000000E+000	0.0000000E+000	-1.9982107E-001	0
1.6897994E+004	7.883199996067560E+000	-2.0147517E-001	-1.192302325056518E-002	2.4021931E-006	-2.0172085E-001	0
1.9806569E+003	8.003199993036105E+000	-2.0268884E-001	-1.023341553133668E-001	2.0741991E-005	-2.0292091E-001	0
2.0636514E+003	8.213199987731059E+000	-2.0477399E-001	-9.922897104435741E-002	2.0319512E-005	-2.0502083E-001	0
2.2603201E+003	8.413199982678634E+000	-2.0682514E-001	-9.150258621122787E-002	1.8925035E-005	-2.0702073E-001	0
2.4285923E+003	8.613199977626209E+000	-2.0883189E-001	-8.598886223197355E-002	1.7957216E-005	-2.0902063E-001	0
2.5777700E+003	8.813199972573784E+000	-2.1080855E-001	-8.177942127705273E-002	1.7239801E-005	-2.1102050E-001	0
2.7104333E+003	9.013199967521359E+000	-2.1284078E-001	-7.852647648416777E-002	1.6713637E-005	-2.1302037E-001	0
2.8311040E+003	9.213199962468934E+000	-2.1481191E-001	-7.587566722370243E-002	1.6298996E-005	-2.1502025E-001	0
2.9417778E+003	9.413199957416509E+000	-2.1682721E-001	-7.370618473877810E-002	1.5981506E-005	-2.1702015E-001	0
3.0425437E+003	9.613199952364084E+000	-2.1879748E-001	-7.191268164852471E-002	1.5734313E-005	-2.1902005E-001	0
3.1375781E+003	9.813199947311659E+000	-2.2081527E-001	-7.037761735639037E-002	1.5540452E-005	-2.2101992E-001	0
3.2352996E+003	1.001319994225923E+001	-2.2280850E-001	-6.886796680777488E-002	1.5344369E-005	-2.2301979E-001	0
3.3206743E+003	1.021319993720681E+001	-2.2475287E-001	-6.768290057848048E-002	1.5211926E-005	-2.2501969E-001	0
3.4079919E+003	1.041319993215438E+001	-2.2682224E-001	-6.655597833118299E-002	1.5096376E-005	-2.2701958E-001	0
3.4914839E+003	1.061319992710196E+001	-2.2882390E-001	-6.553772030938876E-002	1.4996597E-005	-2.2901948E-001	0
3.5710737E+003	1.081319992204953E+001	-2.3080163E-001	-6.463087504769760E-002	1.4916911E-005	-2.3101938E-001	0
3.6472620E+003	1.101319991699711E+001	-2.3283364E-001	-6.383792402290339E-002	1.4863616E-005	-2.3301925E-001	0
3.7271506E+003	1.121309991194721E+001	-2.3484573E-001	-6.300945598278071E-002	1.4797502E-005	-2.3501870E-001	0
3.8028928E+003	1.141299990689731E+001	-2.3682833E-001	-6.227583580707385E-002	1.4748682E-005	-2.3701900E-001	0
3.8774551E+003	1.161299990184489E+001	-2.3882939E-001	-6.159436575806532E-002	1.4710545E-005	-2.3901890E-001	0
3.9483691E+003	1.181299989679246E+001	-2.4083593E-001	-6.099630668685396E-002	1.4690103E-005	-2.4101880E-001	0
4.0158389E+003	1.201299989174004E+001	-2.4286053E-001	-6.047566376611702E-002	1.4687152E-005	-2.4301867E-001	0
4.0922581E+003	1.221299988668761E+001	-2.4479458E-001	-5.981895077367505E-002	1.4643355E-005	-2.4501856E-001	0
4.1609971E+003	1.241299988163519E+001	-2.4679665E-001	-5.931190090505267E-002	1.4637979E-005	-2.4701843E-001	0
4.2291563E+003	1.261299987658276E+001	-2.4883145E-001	-5.883713927100942E-002	1.4640531E-005	-2.4901833E-001	0
4.2952681E+003	1.281299987153034E+001	-2.5085244E-001	-5.840204165490315E-002	1.4650294E-005	-2.5101826E-001	0
4.3639170E+003	1.301299986647791E+001	-2.5280768E-001	-5.793136800111365E-002	1.4645495E-005	-2.5301811E-001	0
4.4301646E+003	1.321299986142549E+001	-2.5479960E-001	-5.751470694067118E-002	1.4654725E-005	-2.5501800E-001	0
4.4965762E+003	1.341299985637306E+001	-2.5683120E-001	-5.711705496433328E-002	1.4669442E-005	-2.5701788E-001	0
4.5592344E+003	1.361299985132064E+001	-2.5879875E-001	-5.676364399811618E-002	1.4690360E-005	-2.5901777E-001	0
4.6240894E+003	1.381299984626821E+001	-2.6082823E-001	-5.640640021449650E-002	1.4712381E-005	-2.6101768E-001	0
4.6900664E+003	1.401299984121579E+001	-2.6281354E-001	-5.603620982433233E-002	1.4727075E-005	-2.6301754E-001	0
4.7510938E+003	1.421299983616336E+001	-2.6480716E-001	-5.573604182792147E-002	1.4759303E-005	-2.6501742E-001	0
4.8147393E+003	1.441299983111094E+001	-2.6677981E-001	-5.540898291641239E-002	1.4781998E-005	-2.6701733E-001	0
4.8822627E+003	1.461299982605851E+001	-2.6880270E-001	-5.505699073566372E-002	1.4799468E-005	-2.6901722E-001	0
4.9380376E+003	1.481289982100861E+001	-2.7080604E-001	-5.484082439201354E-002	1.4851226E-005	-2.7101800E-001	0
5.0013203E+003	1.501279981595872E+001	-2.7280545E-001	-5.454668579908195E-002	1.4880633E-005	-2.7301699E-001	0
5.0601621E+003	1.521279981090629E+001	-2.7482304E-001	-5.431111419548074E-002	1.4925946E-005	-2.7501687E-001	0
5.1210820E+003	1.541279980585387E+001	-2.7676806E-001	-5.404483914679413E-002	1.4957885E-005	-2.7701676E-001	0
5.1827759E+003	1.561279980080144E+001	-2.7880988E-001	-5.379547064494594E-002	1.4998708E-005	-2.7901664E-001	0
5.2480762E+003	1.581279979574902E+001	-2.8077397E-001	-5.350036163922077E-002	1.5021509E-005	-2.8101653E-001	0
5.2980635E+003	1.601279979069659E+001	-2.8276759E-001	-5.337187613977237E-002	1.5091837E-005	-2.8301641E-001	0
5.3578408E+003	1.621279978564417E+001	-2.8483844E-001	-5.316291627201730E-002	1.5142842E-005	-2.8501630E-001	0
5.4155928E+003	1.641279978059174E+001	-2.8676292E-001	-5.295134326464182E-002	1.5184482E-005	-2.8701618E-001	0
5.4722544E+003	1.661279977553932E+001	-2.8883991E-001	-5.278261485794655E-002	1.5245726E-005	-2.8901607E-001	0
5.5348159E+003	1.681279977048689E+001	-2.9080066E-001	-5.254025877054214E-002	1.5278742E-005	-2.9101595E-001	0
5.5901533E+003	1.701279976543447E+001	-2.9281145E-001	-5.237986069159944E-002	1.5337424E-005	-2.9301584E-001	0
5.6410020E+003	1.721279976038204E+001	-2.9478642E-001	-5.225781333535605E-002	1.5404894E-005	-2.9501572E-001	0
5.7008066E+003	1.741279975532962E+001	-2.9679936E-001	-5.206269531060959E-002	1.5452175E-005	-2.9701558E-001	0
5.7507153E+003	1.761279975027719E+001	-2.9881269E-001	-5.196095757078711E-002	1.5526593E-005	-2.9901549E-001	0
5.8091865E+003	1.781279974522477E+001	-3.0079845E-001	-5.177978646060843E-002	1.5575279E-005	-3.0101538E-001	0
5.8583936E+003	1.801279974017234E+001	-3.0278000E-001	-5.168310982014684E-002	1.5648611E-005	-3.0301526E-001	0
5.9170977E+003	1.821269973512244E+001	-3.0478850E-001	-5.150979510659393E-002	1.5699594E-005	-3.0501494E-001	0
5.9726235E+003	1.841259973007254E+001	-3.0678675E-001	-5.136549175566996E-002	1.5758253E-005	-3.0701506E-001	0
6.0188130E+003	1.861259972502012E+001	-3.0880052E-001	-5.130588373564227E-002	1.5843283E-005	-3.0901492E-001	0
6.0753540E+003	1.881259971996769E+001	-3.1077844E-001	-5.115396319677357E-002	1.5897549E-005	-3.1101480E-001	0
6.1174243E+003	1.901259971491527E+001	-3.1280625E-001	-5.113365272452808E-002	1.5994927E-005	-3.1301472E-001	0
6.1768110E+003	1.921259970986284E+001	-3.1480071E-001	-5.096492591174645E-002	1.6043794E-005	-3.1501457E-001	0
6.2186514E+003	1.941259970481042E+001	-3.1680748E-001	-5.094472445809473E-002	1.6139669E-005	-3.1701449E-001	0
6.2737729E+003	1.961259969975799E+001	-3.1882721E-001	-5.081905451626453E-002	1.6202497E-005	-3.1901434E-001	0
6.3237241E+003	1.981259969470557E+001	-3.2080829E-001	-5.073090997057828E-002	1.6274897E-005	-3.2101423E-001	0
6.3664229E+003	2.001259968965314E+001	-3.2279512E-001	-5.070274519415219E-002	1.6366599E-005	-3.2301411E-001	0
6.4132598E+003	2.021259968460072E+001	-3.2480466E-001	-5.064579959147841E-002	1.6449992E-005	-3.2501400E-001	0
6.4634370E+003	2.041259967954829E+001	-3.2680720E-001	-5.056244751719374E-002	1.6524173E-005	-3.2701388E-001	0
6.5119009E+003	2.061259967449587E+001	-3.2880998E-001	-5.049370227554750E-002	1.6602833E-005	-3.2901376E-001	0
6.5563589E+003	2.081259966944344E+001	-3.3079785E-001	-5.045450461052724E-002	1.6690241E-005	-3.3101365E-001	0
6.6005630E+003	2.101259966439102E+001	-3.3281100E-001	-5.042160908710591E-002	1.6780867E-005	-3.3301353E-001	0
6.6400815E+003	2.121259965933859E+001	-3.3480754E-001	-5.042220212364990E-002	1.6881733E-005	-3.3501342E-001	0
6.6844067E+003	2.141259965428617E+001	-3.3679503E-001	-5.038517853192337E-002	1.6969478E-005	-3.3701330E-001	0
6.7261177E+003	2.161259964923374E+001	-3.3881584E-001	-5.037316380548046E-002	1.7067227E-005	-3.3901319E-001	0
6.7685122E+003	2.181249964418384E+001	-3.4081024E-001	-5.035231140191410E-002	1.7160583E-005	-3.4101397E-001	0
6.8096523E+003	2.201239963913395E+001	-3.4280601E-001	-5.034119307692850E-002	1.7257264E-005	-3.4301296E-001	0
6.8512871E+003	2.221239963408152E+001	-3.4479201E-001	-5.032514449253325E-002	1.7351707E-005	-3.4501284E-001	0
6.8911260E+003	2.241239962902910E+001	-3.4680027E-001	-5.032563341418272E-002	1.7452943E-005	-3.4701273E-001	0
6.9270693E+003	2.261239962397667E+001	-3.4881490E-001	-5.035533670646436E-002	1.7564693E-005	-3.4901264E-001	0
6.9635142E+003	2.281239961892425E+001	-3.5078582E-001	-5.037482675585192E-002	1.7670774E-005	-3.5101253E-001	0
7.0088311E+003	2.301239961387182E+001	-3.5279918E-001	-5.033638081756175E-002	1.7758633E-005	-3.5301244E-001	0
7.0397837E+003	2.321239960881940E+001	-3.5476822E-001	-5.039475961797402E-002	1.7878459E-005	-3.5501230E-001	0
7.0770903E+003	2.341239960376697E+001	-3.5681528E-001	-5.041835826236629E-002	1.7990040E-005	-3.5701218E-001	0
7.1174419E+003	2.361239959871455E+001	-3.5881785E-001	-5.041387928396357E-002	1.8089400E-005	-3.5901207E-001	0
7.1431177E+003	2.381239959366212E+001	-3.6078149E-001	-5.050756674061374E-002	1.8222196E-005	-3.6101195E-001	0
7.1755278E+003	2.401239958860970E+001	-3.6276835E-001	-5.055632901403329E-002	1.8340235E-005	-3.6301187E-001	0
7.2112280E+003	2.421239958355727E+001	-3.6479363E-001	-5.058689241227810E-002	1.8453777E-005	-3.6501172E-001	0
7.2371577E+003	2.441239957850485E+001	-3.6678189E-001	-5.068037900841382E-002	1.8588646E-005	-3.6701161E-001	0
7.2727896E+003	2.461239957345242E+001	-3.6880419E-001	-5.071014149881077E-002	1.8702112E-005	-3.6901149E-001	0
7.3005737E+003	2.481239956840000E+001	-3.7078232E-001	-5.078810512652099E-002	1.8831332E-005	-3.7101138E-001	0
7.3321299E+003	2.501239956334757E+001	-3.7278378E-001	-5.084249392455929E-002	1.8953257E-005	-3.7301129E-001	0
7.3574063E+003	2.521229955829767E+001	-3.7477702E-001	-5.093874233862739E-002	1.9090670E-005	-3.7501094E-001	0
7.3934751E+003	2.541219955324777E+001	-3.7677887E-001	-5.096099893995404E-002	1.9201028E-005	-3.7701103E-001	0
7.4161206E+003	2.561219954819535E+001	-3.7880751E-001	-5.107893277109632E-002	1.9349083E-005	-3.7901092E-001	0
7.4429248E+003	2.581219954314292E+001	-3.8078862E-001	-5.116115263219712E-002	1.9481586E-005	-3.8101080E-001	0
7.4660098E+003	2.601219953809050E+001	-3.8279456E-001	-5.127163761128550E-002	1.9626505E-005	-3.8301072E-001	0
7.4938184E+003	2.621219953303807E+001	-3.8480258E-001	-5.134933453281307E-002	1.9759356E-005	-3.8501057E-001	0
7.5138047E+003	2.641219952798565E+001	-3.8678667E-001	-5.147680533255805E-002	1.9910542E-005	-3.8701046E-001	0
7.5359927E+003	2.661219952293322E+001	-3.8876799E-001	-5.158815803977757E-002	2.0055824E-005	-3.8901034E-001	0
7.5615449E+003	2.681219951788080E+001	-3.9078683E-001	-5.168081918053447E-002	2.0196183E-005	-3.9101022E-001	0
7.5800420E+003	2.701219951282837E+001	-3.9282018E-001	-5.182295703158066E-002	2.0357103E-005	-3.9301014E-001	0
7.6047510E+003	2.721219950777595E+001	-3.9481488E-001	-5.191687101238476E-002	2.0497553E-005	-3.9500999E-001	0
7.6242129E+003	2.741219950272352E+001	-3.9680931E-001	-5.204593653731526E-002	2.0652313E-005	-3.9700994E-001	0
7.6533145E+003	2.761219949767110E+001	-3.9880702E-001	-5.210906080637645E-002	2.0781459E-005	-3.9900979E-001	0
7.6627158E+003	2.781219949261867E+001	-4.0079466E-001	-5.230451790064716E-002	2.0963371E-005	-4.0100971E-001	0
7.6832480E+003	2.801219948756625E+001	-4.0279654E-001	-5.242529357973535E-002	2.1116726E-005	-4.0300956E-001	0
7.6998218E+003	2.821219948251382E+001	-4.0480569E-001	-5.257338369180736E-002	2.1282005E-005	-4.0500942E-001	0
7.7204146E+003	2.841219947746140E+001	-4.0684107E-001	-5.269678939258482E-002	2.1439218E-005	-4.0700936E-001	0
7.7331694E+003	2.861219947240897E+001	-4.0883729E-001	-5.286801016051113E-002	2.1614414E-005	-4.0900922E-001	0
7.7554102E+003	2.881199946736160E+001	-4.1077864E-001	-5.296672187331652E-002	2.1757598E-005	-4.1100913E-001	0
7.7605151E+003	2.901199946230918E+001	-4.1287351E-001	-5.320181848656569E-002	2.1965621E-005	-4.1300899E-001	0
7.7781816E+003	2.921199945725675E+001	-4.1479138E-001	-5.332754990835675E-002	2.2119808E-005	-4.1500884E-001	0
7.7932129E+003	2.941199945220433E+001	-4.1685018E-001	-5.348887213383308E-002	2.2296847E-005	-4.1700879E-001	0
7.8087446E+003	2.961199944715190E+001	-4.1885716E-001	-5.363949877421159E-002	2.2467288E-005	-4.1900864E-001	0
7.8192671E+003	2.981199944209948E+001	-4.2081296E-001	-5.381744275927580E-002	2.2647078E-005	-4.2100856E-001	0
7.8482974E+003	3.001199943704705E+001	-4.2287153E-001	-5.388067046691414E-002	2.2784601E-005	-4.2300841E-001	0
7.8550420E+003	3.021199943199463E+001	-4.2481020E-001	-5.408121441235392E-002	2.2974251E-005	-4.2500827E-001	0
7.8702827E+003	3.041199942694220E+001	-4.2686433E-001	-5.423748319442712E-002	2.3152046E-005	-4.2700821E-001	0
7.8804922E+003	3.061199942188978E+001	-4.2882860E-001	-5.441647371416594E-002	2.3335340E-005	-4.2900807E-001	0
7.8937866E+003	3.081199941683735E+001	-4.3087387E-001	-5.458392695388659E-002	2.3518787E-005	-4.3100798E-001	0
7.9214268E+003	3.101199941178493E+001	-4.3285301E-001	-5.464331458096724E-002	2.3652523E-005	-4.3300784E-001	0
7.9271943E+003	3.121199940673250E+001	-4.3485659E-001	-5.485630641763162E-002	2.3854627E-005	-4.3500772E-001	0
7.9433535E+003	3.141199940168008E+001	-4.3684831E-001	-5.499545265360828E-002	2.4024670E-005	-4.3700764E-001	0
7.9470454E+003	3.161199939662765E+001	-4.3884233E-001	-5.522081474963636E-002	2.4233232E-005	-4.3900749E-001	0
7.9549619E+003	3.181199939157523E+001	-4.4087675E-001	-5.542160307116339E-002	2.4434097E-005	-4.4100741E-001	0
7.9761045E+003	3.201199938652280E+001	-4.4285634E-001	-5.552288732077515E-002	2.4588662E-005	-4.4300726E-001	0
7.9895825E+003	3.221189938147290E+001	-4.4483808E-001	-5.567726126957755E-002	2.4767365E-005	-4.4500652E-001	0
8.0041685E+003	3.241179937642301E+001	-4.4684175E-001	-5.582612942663490E-002	2.4945446E-005	-4.4700706E-001	0
8.0223857E+003	3.261179937137058E+001	-4.4887581E-001	-5.595290749608339E-002	2.5115907E-005	-4.4900692E-001	0
8.0341587E+003	3.281179936631816E+001	-4.5084107E-001	-5.611552915096607E-002	2.5299185E-005	-4.5100686E-001	0
8.0459619E+003	3.301179936126573E+001	-4.5282319E-001	-5.627955989004052E-002	2.5484689E-005	-4.5300668E-001	0
8.0666592E+003	3.321179935621331E+001	-4.5482570E-001	-5.638340273196230E-002	2.5644620E-005	-4.5500663E-001	0
8.0846812E+003	3.341179935116088E+001	-4.5683718E-001	-5.650651897990100E-002	2.5814279E-005	-4.5700648E-001	0
8.1013398E+003	3.361179934610846E+001	-4.5885178E-001	-5.663899939017325E-002	2.5988906E-005	-4.5900634E-001	0
8.1187363E+003	3.381179934105603E+001	-4.6083692E-001	-5.676214775395776E-002	2.6158094E-005	-4.6100628E-001	0
8.1328252E+003	3.401179933600361E+001	-4.6285534E-001	-5.691199913745548E-002	2.6342022E-005	-4.6300611E-001	0
8.1609976E+003	3.421179933095118E+001	-4.6483564E-001	-5.695818971458189E-002	2.6476197E-005	-4.6500605E-001	0
8.1751128E+003	3.441179932589876E+001	-4.6683624E-001	-5.710456300476174E-002	2.6658479E-005	-4.6700591E-001	0
8.1947451E+003	3.461179932084633E+001	-4.6884876E-001	-5.721334089280072E-002	2.6824404E-005	-4.6900576E-001	0
8.2175449E+003	3.481179931579391E+001	-4.7084936E-001	-5.729805504852503E-002	2.6978752E-005	-4.7100571E-001	0
8.2392939E+003	3.501179931074148E+001	-4.7285151E-001	-5.738981046963079E-002	2.7136859E-005	-4.7300556E-001	0
8.2541211E+003	3.521179930568906E+001	-4.7480160E-001	-5.752297170679860E-002	2.7311999E-005	-4.7500551E-001	0
8.2845928E+003	3.541179930063663E+001	-4.7682345E-001	-5.755544883830477E-002	2.7443788E-005	-4.7700533E-001	0
8.3077441E+003	3.561179929558421E+001	-4.7881711E-001	-5.763502975359824E-002	2.7596638E-005	-4.7900522E-001	0
8.3374727E+003	3.581169929053431E+001	-4.8082343E-001	-5.767016774734612E-002	2.7729167E-005	-4.8100558E-001	0
8.3654824E+003	3.601159928548441E+001	-4.8282576E-001	-5.771642792315257E-002	2.7866978E-005	-4.8300499E-001	0
8.3947842E+003	3.621159928043198E+001	-4.8486879E-001	-5.775834153651294E-002	2.8005217E-005	-4.8500493E-001	0
8.4121113E+003	3.641159927537956E+001	-4.8683295E-001	-5.787285972996914E-002	2.8174414E-005	-4.8700476E-001	0
8.4397295E+003	3.661159927032713E+001	-4.8885345E-001	-5.792287879574887E-002	2.8315799E-005	-4.8900467E-001	0
8.4853682E+003	3.681159926527471E+001	-4.9083379E-001	-5.784472401988788E-002	2.8392145E-005	-4.9100456E-001	0
8.5133223E+003	3.701159926022228E+001	-4.9283227E-001	-5.788953360455240E-002	2.8529830E-005	-4.9300441E-001	0
8.5516357E+003	3.721159925516986E+001	-4.9485728E-001	-5.786697469681257E-002	2.8635894E-005	-4.9500436E-001	0
8.5860508E+003	3.741159925011743E+001	-4.9681079E-001	-5.786254968232304E-002	2.8746739E-005	-4.9700418E-001	0
8.6117178E+003	3.761159924506501E+001	-4.9882498E-001	-5.792398207299332E-002	2.8893930E-005	-4.9900410E-001	0
8.6561172E+003	3.781159924001258E+001	-5.0087023E-001	-5.786315371998295E-002	2.8981931E-005	-5.0100398E-001	0
8.6890059E+003	3.801159923496016E+001	-5.0283074E-001	-5.786976594553944E-002	2.9098697E-005	-5.0300384E-001	0
8.7340938E+003	3.821159922990773E+001	-5.0480819E-001	-5.779743025896644E-002	2.9176615E-005	-5.0500375E-001	0
8.7734619E+003	3.841159922485531E+001	-5.0680023E-001	-5.776513640635783E-002	2.9275385E-005	-5.0700361E-001	0
8.8157275E+003	3.861159921980288E+001	-5.0889456E-001	-5.772575607117858E-002	2.9376324E-005	-5.0900352E-001	0
8.8520537E+003	3.881159921475046E+001	-5.1085377E-001	-5.771019862903493E-002	2.9481473E-005	-5.1100343E-001	0
8.9045859E+003	3.901159920969803E+001	-5.1285952E-001	-5.759498722114254E-002	2.9538138E-005	-5.1300329E-001	0
8.9437930E+003	3.921149920464813E+001	-5.1483786E-001	-5.756370814391482E-002	2.9635976E-005	-5.1500368E-001	0
8.9886660E+003	3.941139919959824E+001	-5.1685780E-001	-5.750105982010689E-002	2.9719871E-005	-5.1700306E-001	0
9.0365176E+003	3.961139919454581E+001	-5.1881808E-001	-5.741349805638496E-002	2.9787161E-005	-5.1900297E-001	0
9.0876221E+003	3.981139918949339E+001	-5.2084678E-001	-5.731386946759220E-002	2.9851744E-005	-5.2100283E-001	0
9.1405430E+003	4.001139918444096E+001	-5.2281874E-001	-5.719777774815438E-002	2.9904071E-005	-5.2300268E-001	0
9.1864326E+003	4.021139917938854E+001	-5.2486682E-001	-5.713500210998446E-002	2.9988267E-005	-5.2500260E-001	0
9.2381758E+003	4.041139917433611E+001	-5.2685410E-001	-5.703009974133316E-002	3.0046542E-005	-5.2700245E-001	0
9.2926240E+003	4.061139916928369E+001	-5.2884334E-001	-5.691001037306798E-002	3.0096480E-005	-5.2900237E-001	0
9.3476289E+003	4.081139916423126E+001	-5.3082931E-001	-5.678759166461916E-002	3.0144518E-005	-5.3100228E-001	0
9.4021533E+003	4.101139915917884E+001	-5.3283376E-001	-5.667146149327995E-002	3.0196468E-005	-5.3300214E-001	0
9.4500605E+003	4.121139915412641E+001	-5.3484285E-001	-5.659676305981357E-002	3.0270374E-005	-5.3500205E-001	0
9.5112461E+003	4.141139914907399E+001	-5.3685194E-001	-5.644391193751519E-002	3.0302024E-005	-5.3700191E-001	0
9.5698223E+003	4.161139914402156E+001	-5.3884280E-001	-5.630645882327731E-002	3.0340330E-005	-5.3900182E-001	0
9.6202764E+003	4.181139913896914E+001	-5.4082882E-001	-5.621759781282376E-002	3.0404097E-005	-5.4100168E-001	0
9.6792998E+003	4.201139913391671E+001	-5.4282856E-001	-5.608138681839192E-002	3.0442578E-005	-5.4300153E-001	0
9.7513398E+003	4.221139912886429E+001	-5.4486823E-001	-5.587624010836884E-002	3.0445188E-005	-5.4500145E-001	0
9.8037627E+003	4.241139912381186E+001	-5.4683512E-001	-5.577808479480695E-002	3.0501416E-005	-5.4700130E-001	0
9.8645566E+003	4.261129911876196E+001	-5.4883778E-001	-5.563734958395861E-002	3.0535881E-005	-5.4900056E-001	0
9.9230967E+003	4.281119911371206E+001	-5.5085874E-001	-5.551278361598699E-002	3.0579700E-005	-5.5100113E-001	0
9.9837813E+003	4.301119910865964E+001	-5.5285740E-001	-5.537555174260078E-002	3.0614785E-005	-5.5300093E-001	0
1.0042373E+004	4.321119910360721E+001	-5.5487663E-001	-5.525353479055495E-002	3.0658895E-005	-5.5500090E-001	0
1.0114353E+004	4.341119909855479E+001	-5.5683631E-001	-5.505407113970462E-002	3.0656105E-005	-5.5700076E-001	0
1.0182702E+004	4.361119909350236E+001	-5.5885673E-001	-5.488294822189205E-002	3.0671705E-005	-5.5900067E-001	0
1.0235650E+004	4.381119908844994E+001	-5.6084633E-001	-5.479342204121596E-002	3.0730691E-005	-5.6100053E-001	0
1.0304396E+004	4.401119908339751E+001	-5.6287706E-001	-5.462494889557235E-002	3.0747131E-005	-5.6300044E-001	0
1.0375820E+004	4.421119907834509E+001	-5.6485009E-001	-5.443907662372927E-002	3.0749918E-005	-5.6500036E-001	0
1.0421322E+004	4.441119907329266E+001	-5.6683350E-001	-5.439170339628374E-002	3.0831041E-005	-5.6700021E-001	0
1.0501305E+004	4.461119906824024E+001	-5.6885833E-001	-5.417025136991571E-002	3.0815198E-005	-5.6900007E-001	0
1.0573856E+004	4.481119906318781E+001	-5.7084727E-001	-5.398666831588711E-002	3.0818141E-005	-5.7099998E-001	0
1.0637745E+004	4.501119905813539E+001	-5.7283920E-001	-5.384968290508829E-002	3.0847208E-005	-5.7299984E-001	0
1.0700292E+004	4.521119905308296E+001	-5.7487267E-001	-5.372495177125897E-002	3.0885007E-005	-5.7499975E-001	0
1.0767031E+004	4.541119904803054E+001	-5.7685918E-001	-5.357643920461505E-002	3.0906060E-005	-5.7699960E-001	0
1.0837736E+004	4.561119904297811E+001	-5.7879061E-001	-5.340511998417241E-002	3.0910382E-005	-5.7899952E-001	0
1.0910687E+004	4.581119903792569E+001	-5.8084345E-001	-5.323619627691534E-002	3.0921896E-005	-5.8099937E-001	0
1.0973425E+004	4.601119903287326E+001	-5.8279926E-001	-5.311006144726083E-002	3.0952506E-005	-5.8299923E-001	0
1.1032767E+004	4.621109902782337E+001	-5.8484340E-001	-5.300967598786943E-002	3.1002361E-005	-5.8499968E-001	0
1.1093557E+004	4.641099902277347E+001	-5.8687562E-001	-5.290238440032546E-002	3.1047119E-005	-5.8699900E-001	0
1.1174938E+004	4.661099901772104E+001	-5.8886963E-001	-5.269556030812661E-002	3.1030817E-005	-5.8899891E-001	0
1.1226276E+004	4.681099901266862E+001	-5.9087521E-001	-5.263323292015809E-002	3.1099673E-005	-5.9099883E-001	0
1.1287058E+004	4.701099900761619E+001	-5.9286624E-001	-5.252619883438353E-002	3.1141011E-005	-5.9299868E-001	0
1.1359911E+004	4.721099900256377E+001	-5.9485114E-001	-5.236406375383695E-002	3.1148822E-005	-5.9499860E-001	0
1.1427036E+004	4.741099899751134E+001	-5.9681785E-001	-5.222857934253833E-002	3.1170948E-005	-5.9699845E-001	0
1.1483276E+004	4.761099899245892E+001	-5.9884667E-001	-5.214946212610228E-002	3.1229531E-005	-5.9899837E-001	0
1.1562354E+004	4.781099898740649E+001	-6.0087466E-001	-5.196819759751153E-002	3.1226373E-005	-6.0099822E-001	0
1.1614413E+004	4.801099898235407E+001	-6.0286343E-001	-5.190649146188797E-002	3.1292526E-005	-6.0299814E-001	0
1.1682054E+004	4.821099897730164E+001	-6.0481668E-001	-5.177314772667629E-002	3.1313262E-005	-6.0499805E-001	0
1.1745833E+004	4.841099897224922E+001	-6.0685086E-001	-5.166520285282838E-002	3.1353073E-005	-6.0699791E-001	0
1.1814011E+004	4.861099896719679E+001	-6.0884827E-001	-5.153611924366219E-002	3.1377676E-005	-6.0899782E-001	0
1.1868730E+004	4.881099896214437E+001	-6.1084557E-001	-5.146679853916969E-002	3.1438267E-005	-6.1099774E-001	0
1.1929342E+004	4.901099895709194E+001	-6.1282730E-001	-5.137142524241441E-002	3.1481813E-005	-6.1299753E-001	0
1.1979309E+004	4.921099895203952E+001	-6.1486614E-001	-5.132734855001297E-002	3.1559448E-005	-6.1499745E-001	0
1.2042011E+004	4.941099894698709E+001	-6.1686552E-001	-5.122612075470473E-002	3.1599626E-005	-6.1699730E-001	0
1.2093190E+004	4.961089894193719E+001	-6.1885583E-001	-5.117391158822593E-002	3.1669275E-005	-6.1899656E-001	0
1.2159788E+004	4.981079893688730E+001	-6.2082165E-001	-5.105530362008170E-002	3.1696240E-005	-6.2099707E-001	0
1.2238412E+004	5.001079893183487E+001	-6.2286419E-001	-5.089419860394928E-002	3.1700172E-005	-6.2299699E-001	0
1.2276502E+004	5.021079892678245E+001	-6.2487370E-001	-5.089998014309283E-002	3.1806059E-005	-6.2499690E-001	0
1.2340373E+004	5.041079892173002E+001	-6.2686896E-001	-5.079822020358105E-002	3.1843829E-005	-6.2699676E-001	0
1.2381522E+004	5.061079891667760E+001	-6.2884456E-001	-5.078895140519524E-002	3.1938354E-005	-6.2899673E-001	0
1.2435707E+004	5.081079891162517E+001	-6.3085109E-001	-5.072900937509028E-002	3.2002452E-005	-6.3099658E-001	0
1.2498879E+004	5.101079890657275E+001	-6.3286680E-001	-5.063388610782449E-002	3.2044507E-005	-6.3299644E-001	0
1.2540958E+004	5.121079890152032E+001	-6.3485974E-001	-5.062290589333573E-002	3.2138443E-005	-6.3499629E-001	0
1.2612410E+004	5.141079889646790E+001	-6.3683051E-001	-5.049237324286016E-002	3.2155083E-005	-6.3699621E-001	0
1.2647938E+004	5.161079889141547E+001	-6.3886017E-001	-5.051101235062494E-002	3.2269472E-005	-6.3899618E-001	0
1.2703017E+004	5.181079888636305E+001	-6.4085448E-001	-5.044899789126511E-002	3.2330467E-005	-6.4099598E-001	0
1.2748890E+004	5.201079888131062E+001	-6.4287442E-001	-5.042591488069093E-002	3.2417531E-005	-6.4299583E-001	0
1.2794383E+004	5.221079887625820E+001	-6.4487296E-001	-5.040281753176079E-002	3.2503413E-005	-6.4499575E-001	0
1.2858328E+004	5.241079887120577E+001	-6.4683717E-001	-5.030492213691951E-002	3.2539094E-005	-6.4699566E-001	0
1.2889734E+004	5.261079886615335E+001	-6.4887309E-001	-5.034030079598739E-002	3.2664466E-005	-6.4899558E-001	0
1.2929901E+004	5.281079886110092E+001	-6.5085274E-001	-5.033702128450679E-002	3.2761989E-005	-6.5099543E-001	0
1.2994218E+004	5.301079885604850E+001	-6.5286011E-001	-5.024235442865721E-002	3.2801228E-005	-6.5299529E-001	0
1.3018877E+004	5.321069885099860E+001	-6.5488666E-001	-5.030285441113702E-002	3.2942669E-005	-6.5499568E-001	0
1.3069062E+004	5.341059884594870E+001	-6.5688491E-001	-5.026259108725317E-002	3.3016739E-005	-6.5699506E-001	0
1.3110490E+004	5.361059884089627E+001	-6.5885031E-001	-5.025367618563759E-002	3.3109649E-005	-6.5899497E-001	0
1.3136934E+004	5.381059883584385E+001	-6.6087240E-001	-5.030644448556421E-002	3.3246142E-005	-6.6099483E-001	0
1.3190586E+004	5.401059883079142E+001	-6.6285282E-001	-5.025196088955249E-002	3.3309654E-005	-6.6299468E-001	0
1.3215731E+004	5.421059882573900E+001	-6.6485190E-001	-5.030761243059592E-002	3.3447111E-005	-6.6499460E-001	0
1.3267216E+004	5.441059882068657E+001	-6.6687638E-001	-5.026498141322611E-002	3.3520530E-005	-6.6699451E-001	0
1.3298791E+004	5.461059881563415E+001	-6.6883051E-001	-5.029257891758809E-002	3.3637210E-005	-6.6899443E-001	0
1.3328607E+004	5.481059881058172E+001	-6.7086023E-001	-5.033235758006593E-002	3.3765977E-005	-6.7099428E-001	0
1.3365103E+004	5.501059880552930E+001	-6.7282432E-001	-5.034187581081817E-002	3.3871238E-005	-6.7299414E-001	0
1.3408978E+004	5.521059880047687E+001	-6.7483771E-001	-5.032730448828449E-002	3.3962762E-005	-6.7499405E-001	0
1.3451896E+004	5.541059879542445E+001	-6.7683876E-001	-5.031548821855156E-002	3.4055472E-005	-6.7699391E-001	0
1.3480609E+004	5.561059879037202E+001	-6.7879885E-001	-5.035372331787036E-002	3.4180051E-005	-6.7899382E-001	0
1.3500751E+004	5.581059878531960E+001	-6.8083638E-001	-5.042951809540130E-002	3.4334251E-005	-6.8099368E-001	0
1.3538795E+004	5.601059878026717E+001	-6.8285525E-001	-5.043693054404086E-002	3.4441124E-005	-6.8299359E-001	0
1.3578215E+004	5.621059877521475E+001	-6.8480790E-001	-5.043431163064338E-002	3.4537814E-005	-6.8499351E-001	0
1.3583366E+004	5.641059877016232E+001	-6.8681890E-001	-5.056323240407645E-002	3.4727782E-005	-6.8699336E-001	0
1.3627914E+004	5.661049876511242E+001	-6.8883693E-001	-5.054602920477302E-002	3.4817971E-005	-6.8899262E-001	0
1.3652247E+004	5.681039876006253E+001	-6.9085413E-001	-5.060369293986833E-002	3.4959772E-005	-6.9099313E-001	0
1.3669680E+004	5.701039875501010E+001	-6.9278896E-001	-5.068070183892459E-002	3.5111032E-005	-6.9299299E-001	0
1.3691303E+004	5.721039874995768E+001	-6.9482762E-001	-5.074956370390893E-002	3.5262197E-005	-6.9499296E-001	0
1.3735324E+004	5.741039874490525E+001	-6.9683057E-001	-5.073273383701826E-002	3.5352121E-005	-6.9699275E-001	0
1.3738577E+004	5.761039873985283E+001	-6.9880193E-001	-5.086421303117383E-002	3.5544010E-005	-6.9899267E-001	0
1.3756666E+004	5.781039873480040E+001	-7.0080465E-001	-5.094291233402717E-002	3.5701029E-005	-7.0099258E-001	0
1.3782143E+004	5.801039872974798E+001	-7.0284986E-001	-5.099714021018942E-002	3.5843332E-005	-7.0299250E-001	0
1.3798597E+004	5.821039872469555E+001	-7.0487505E-001	-5.108309683839762E-002	3.6007201E-005	-7.0499235E-001	0
1.3801875E+004	5.841039871964313E+001	-7.0687735E-001	-5.121603798355623E-002	3.6203459E-005	-7.0699221E-001	0
1.3811575E+004	5.861039871459070E+001	-7.0882493E-001	-5.132107685326426E-002	3.6377660E-005	-7.0899212E-001	0
1.3844365E+004	5.881039870953828E+001	-7.1085912E-001	-5.134645662515480E-002	3.6500096E-005	-7.1099198E-001	0
1.3855469E+004	5.901039870448585E+001	-7.1282470E-001	-5.144717384925912E-002	3.6672816E-005	-7.1299189E-001	0
1.3854294E+004	5.921039869943343E+001	-7.1485329E-001	-5.159796003564818E-002	3.6884972E-005	-7.1499181E-001	0
1.3877963E+004	5.941039869438100E+001	-7.1681958E-001	-5.165164125291299E-002	3.7024907E-005	-7.1699160E-001	0
1.3890351E+004	5.961039868932858E+001	-7.1885633E-001	-5.175220834084959E-002	3.7202404E-005	-7.1899152E-001	0
1.3888400E+004	5.981039868427615E+001	-7.2081792E-001	-5.190071666216201E-002	3.7410966E-005	-7.2099143E-001	0
1.3896232E+004	6.001039867922373E+001	-7.2282642E-001	-5.201599948676272E-002	3.7598540E-005	-7.2299135E-001	0
1.3934089E+004	6.021029867417383E+001	-7.2483343E-001	-5.201871724491830E-002	3.7704904E-005	-7.2499186E-001	0
1.3919346E+004	6.041019866912393E+001	-7.2683144E-001	-5.221735473242850E-002	3.7953214E-005	-7.2699106E-001	0
1.3923432E+004	6.061019866407150E+001	-7.2883415E-001	-5.234586938797503E-002	3.8151458E-005	-7.2899103E-001	0
1.3941057E+004	6.081019865901908E+001	-7.3085600E-001	-5.242471935126125E-002	3.8314920E-005	-7.3099083E-001	0
1.3926914E+004	6.101019865396665E+001	-7.3282313E-001	-5.261920411942218E-002	3.8560571E-005	-7.3299074E-001	0
1.3931804E+004	6.121019864891423E+001	-7.3482329E-001	-5.274430527816421E-002	3.8757742E-005	-7.3499066E-001	0
1.3918667E+004	6.141019864386180E+001	-7.3681718E-001	-5.293733753420238E-002	3.9005139E-005	-7.3699045E-001	0
1.3918945E+004	6.161019863880938E+001	-7.3882371E-001	-5.308043709882182E-002	3.9217084E-005	-7.3899037E-001	0
1.3890932E+004	6.181019863375695E+001	-7.4085855E-001	-5.333397333729839E-002	3.9512932E-005	-7.4099028E-001	0
1.3888495E+004	6.201019862870453E+001	-7.4284130E-001	-5.348609198442311E-002	3.9731680E-005	-7.4299020E-001	0
1.3881566E+004	6.221019862365210E+001	-7.4487484E-001	-5.365927815975807E-002	3.9969447E-005	-7.4499005E-001	0
1.3850876E+004	6.241019861859968E+001	-7.4685514E-001	-5.392114810863088E-002	4.0271287E-005	-7.4698991E-001	0
1.3847153E+004	6.261019861354725E+001	-7.4885201E-001	-5.407985373370577E-002	4.0497809E-005	-7.4898988E-001	0
1.3822401E+004	6.281019860849483E+001	-7.5082493E-001	-5.431942761318176E-002	4.0784380E-005	-7.5098968E-001	0
1.3768596E+004	6.301019860344240E+001	-7.5287098E-001	-5.468030324598522E-002	4.1167212E-005	-7.5298959E-001	0
1.3729269E+004	6.321019859838998E+001	-7.5481236E-001	-5.497833689761325E-002	4.1498330E-005	-7.5498950E-001	0
1.3714373E+004	6.341019859333755E+001	-7.5682127E-001	-5.518453345367980E-002	4.1764830E-005	-7.5698930E-001	0
1.3703188E+004	6.361009858828766E+001	-7.5886625E-001	-5.537880723104638E-002	4.2025109E-005	-7.5898880E-001	0
1.3634529E+004	6.380999858323776E+001	-7.6080209E-001	-5.579965782791041E-002	4.2452495E-005	-7.6098913E-001	0
1.3608990E+004	6.400999857818533E+001	-7.6284838E-001	-5.605473675946676E-002	4.2761265E-005	-7.6298904E-001	0
1.3530921E+004	6.420999857313291E+001	-7.6479536E-001	-5.652204658329274E-002	4.3227799E-005	-7.6498890E-001	0
1.3499566E+004	6.440999856808048E+001	-7.6687020E-001	-5.680702326453957E-002	4.3563614E-005	-7.6698875E-001	0
1.3444763E+004	6.460999856302806E+001	-7.6885724E-001	-5.718637366415913E-002	4.3968157E-005	-7.6898873E-001	0
1.3392530E+004	6.480999855797563E+001	-7.7083904E-001	-5.755738699555291E-002	4.4367480E-005	-7.7098852E-001	0
1.3323186E+004	6.500999855292321E+001	-7.7279764E-001	-5.800396817907405E-002	4.4825330E-005	-7.7298844E-001	0
1.3255559E+004	6.520999854787078E+001	-7.7481842E-001	-5.845233962909191E-002	4.5289951E-005	-7.7498835E-001	0
1.3176007E+004	6.540999854281836E+001	-7.7681518E-001	-5.895679659693776E-002	4.5798533E-005	-7.7698815E-001	0
1.3104480E+004	6.560999853776593E+001	-7.7882516E-001	-5.943197499149688E-002	4.6287118E-005	-7.7898806E-001	0
1.3008899E+004	6.580999853271351E+001	-7.8083724E-001	-6.002331382485182E-002	4.6868437E-005	-7.8098798E-001	0
1.2915373E+004	6.600999852766108E+001	-7.8280932E-001	-6.061066424552308E-002	4.7446592E-005	-7.8298789E-001	0
1.2837528E+004	6.620999852260866E+001	-7.8482437E-001	-6.113516314001632E-002	4.7980368E-005	-7.8498787E-001	0
1.2749382E+004	6.640999851755623E+001	-7.8683847E-001	-6.171581382407099E-002	4.8560378E-005	-7.8698766E-001	0
1.2634997E+004	6.660999851250381E+001	-7.8881449E-001	-6.243092045261878E-002	4.9246413E-005	-7.8898758E-001	0
1.2522491E+004	6.680999850745138E+001	-7.9080504E-001	-6.315077784948464E-002	4.9939954E-005	-7.9098737E-001	0
1.2388316E+004	6.700999850239896E+001	-7.9280096E-001	-6.399586242296307E-002	5.0735980E-005	-7.9298741E-001	0
1.2289447E+004	6.720989849734906E+001	-7.9482198E-001	-6.467516167926801E-002	5.1405241E-005	-7.9498792E-001	0
1.2160329E+004	6.740979849229916E+001	-7.9682088E-001	-6.552625966338566E-002	5.2212690E-005	-7.9698712E-001	0
1.2047819E+004	6.760979848724674E+001	-7.9886961E-001	-6.630823502999217E-002	5.2971634E-005	-7.9898703E-001	0
1.1904938E+004	6.780979848219431E+001	-8.0081868E-001	-6.726777717912491E-002	5.3869291E-005	-8.0098683E-001	0
1.1786947E+004	6.800979847714189E+001	-8.0283988E-001	-6.811261920801132E-002	5.4683525E-005	-8.0298674E-001	0
1.1658575E+004	6.820979847208946E+001	-8.0478108E-001	-6.902911266694223E-002	5.5553322E-005	-8.0498672E-001	0
1.1499931E+004	6.840979846703704E+001	-8.0681974E-001	-7.015866116470632E-002	5.6605393E-005	-8.0698651E-001	0
1.1353815E+004	6.860979846198461E+001	-8.0882514E-001	-7.123818112771640E-002	5.7619232E-005	-8.0898643E-001	0
1.1213174E+004	6.880979845693219E+001	-8.1082159E-001	-7.230973336264879E-002	5.8630292E-005	-8.1098622E-001	0
1.1062052E+004	6.900979845187976E+001	-8.1283748E-001	-7.347981142864279E-002	5.9727146E-005	-8.1298625E-001	0
1.0916418E+004	6.920979844682734E+001	-8.1479931E-001	-7.463980297919137E-002	6.0816459E-005	-8.1498605E-001	0
1.0760917E+004	6.940979844177491E+001	-8.1683171E-001	-7.590725897893724E-002	6.2003455E-005	-8.1698602E-001	0
1.0616883E+004	6.960979843672249E+001	-8.1881976E-001	-7.712431319317720E-002	6.3150910E-005	-8.1898588E-001	0
1.0468893E+004	6.980979843167006E+001	-8.2083398E-001	-7.840695269796519E-002	6.4359090E-005	-8.2098567E-001	0
1.0313335E+004	7.000979842661764E+001	-8.2285517E-001	-7.978555679431121E-002	6.5651955E-005	-8.2298559E-001	0
1.0153620E+004	7.020979842156521E+001	-8.2481420E-001	-8.123350650908390E-002	6.7002547E-005	-8.2498556E-001	0
1.0016666E+004	7.040979841651279E+001	-8.2680351E-001	-8.254278205544163E-002	6.8246663E-005	-8.2698536E-001	0
9.8913672E+003	7.060979841146036E+001	-8.2884175E-001	-8.379445794986695E-002	6.9452348E-005	-8.2898527E-001	0
9.7427539E+003	7.080959840641299E+001	-8.3081704E-001	-8.527538025588399E-002	7.0848240E-005	-8.3098507E-001	0
9.6090068E+003	7.100959840136056E+001	-8.3280975E-001	-8.666969785443568E-002	7.2179369E-005	-8.3298510E-001	0
9.4651914E+003	7.120959839630814E+001	-8.3482182E-001	-8.819914460414457E-002	7.3630574E-005	-8.3498490E-001	0
9.3128535E+003	7.140959839125571E+001	-8.3685094E-001	-8.985977330775130E-002	7.5199234E-005	-8.3698487E-001	0
9.1692979E+003	7.160959838620329E+001	-8.3882773E-001	-9.148221721401750E-002	7.6737822E-005	-8.3898473E-001	0
9.0128252E+003	7.180959838115086E+001	-8.4079033E-001	-9.328821331026063E-002	7.8435827E-005	-8.4098458E-001	0
8.8547061E+003	7.200959837609844E+001	-8.4282094E-001	-9.518339244707974E-002	8.0222555E-005	-8.4298450E-001	0
8.6771797E+003	7.220959837104601E+001	-8.4476769E-001	-9.735509938805387E-002	8.2242441E-005	-8.4498435E-001	0
8.4614316E+003	7.240959836599359E+001	-8.4681040E-001	-1.000788568956208E-001	8.4747815E-005	-8.4698421E-001	0
8.2225664E+003	7.260959836094116E+001	-8.4883130E-001	-1.032319227064584E-001	8.7626489E-005	-8.4898412E-001	0
7.9687964E+003	7.280959835588874E+001	-8.5081285E-001	-1.067680469798580E-001	9.0839625E-005	-8.5098469E-001	0
7.6635581E+003	7.300959835083631E+001	-8.5279608E-001	-1.112793881452463E-001	9.4898627E-005	-8.5298502E-001	0
7.3306089E+003	7.320959834578389E+001	-8.5483778E-001	-1.166121094707238E-001	9.9684439E-005	-8.5498500E-001	0
6.9819248E+003	7.340959834073146E+001	-8.5683042E-001	-1.227212306808956E-001	1.0515128E-004	-8.5698497E-001	0
6.6330244E+003	7.360959833567904E+001	-8.5886854E-001	-1.294837039251244E-001	1.1120948E-004	-8.5898507E-001	0
6.3237207E+003	7.380959833062661E+001	-8.6082602E-001	-1.361265049385681E-001	1.1718124E-004	-8.6098492E-001	0
6.0774917E+003	7.400959832557419E+001	-8.6285877E-001	-1.419761300661400E-001	1.2250534E-004	-8.6298501E-001	0
5.9055283E+003	7.420959832052176E+001	-8.6482579E-001	-1.464434225352953E-001	1.2664805E-004	-8.6498499E-001	0
5.8222236E+003	7.440959831546934E+001	-8.6686891E-001	-1.488896629830101E-001	1.2906782E-004	-8.6698496E-001	0
5.8343730E+003	7.460959831041691E+001	-8.6880535E-001	-1.489115171683548E-001	1.2937513E-004	-8.6898506E-001	0
5.9071938E+003	7.480959830536449E+001	-8.7083435E-001	-1.474192999947450E-001	1.2837780E-004	-8.7098497E-001	0
6.0277407E+003	7.500959830031206E+001	-8.7287241E-001	-1.448092145017447E-001	1.2639997E-004	-8.7298512E-001	0
6.1522354E+003	7.520959829525964E+001	-8.7482804E-001	-1.421967770190498E-001	1.2439773E-004	-8.7498498E-001	0
6.2872480E+003	7.540959829020721E+001	-8.7681228E-001	-1.394588320744128E-001	1.2227922E-004	-8.7698489E-001	0
6.3962441E+003	7.560959828515479E+001	-8.7882107E-001	-1.373964272916757E-001	1.2074687E-004	-8.7898505E-001	0
6.4978687E+003	7.580959828010236E+001	-8.8080812E-001	-1.355533925098393E-001	1.1939653E-004	-8.8098502E-001	0
6.5676338E+003	7.600959827504994E+001	-8.8282740E-001	-1.344209282380231E-001	1.1867048E-004	-8.8298500E-001	0
6.5988760E+003	7.620959826999751E+001	-8.8483787E-001	-1.340891751418491E-001	1.1864718E-004	-8.8498503E-001	0
6.5877749E+003	7.640959826494509E+001	-8.8681585E-001	-1.346153796612457E-001	1.1937905E-004	-8.8698500E-001	0
6.5192222E+003	7.660959825989266E+001	-8.8878709E-001	-1.363333056547815E-001	1.2117128E-004	-8.8898498E-001	0
6.4074399E+003	7.680959825484024E+001	-8.9081699E-001	-1.390285347060391E-001	1.2384898E-004	-8.9098495E-001	0
6.2581226E+003	7.700959824978781E+001	-8.9276946E-001	-1.426577109098012E-001	1.2736044E-004	-8.9298505E-001	0
6.0564771E+003	7.720959824473539E+001	-8.9482558E-001	-1.477468800857720E-001	1.3220769E-004	-8.9498502E-001	0
5.8158564E+003	7.740959823968296E+001	-8.9682513E-001	-1.542034566353860E-001	1.3829353E-004	-8.9698499E-001	0
5.5637368E+003	7.760959823463054E+001	-8.9883363E-001	-1.615521448005470E-001	1.4520850E-004	-8.9898503E-001	0
5.3002197E+003	7.780959822957811E+001	-9.0080094E-001	-1.699553893672093E-001	1.5309597E-004	-9.0098494E-001	0
5.0175850E+003	7.800959822452569E+001	-9.0281266E-001	-1.799297164301985E-001	1.6244283E-004	-9.0298504E-001	0
4.7336504E+003	7.820959821947326E+001	-9.0482575E-001	-1.911475720452120E-001	1.7295525E-004	-9.0498501E-001	0
4.4429512E+003	7.840959821442084E+001	-9.0682280E-001	-2.041037171496223E-001	1.8508591E-004	-9.0698510E-001	0
4.0549583E+003	7.860959820936841E+001	-9.0879250E-001	-2.241188337996833E-001	2.0367751E-004	-9.0898508E-001	0
3.8194407E+003	7.880959820431599E+001	-9.1082478E-001	-2.384707266211401E-001	2.1720504E-004	-9.1098499E-001	0
3.5570232E+003	7.900959819926356E+001	-9.1282171E-001	-2.566251737697058E-001	2.3425304E-004	-9.1298503E-001	0
3.2988647E+003	7.920959819421114E+001	-9.1482508E-001	-2.773151130324687E-001	2.5369483E-004	-9.1498512E-001	0
3.0472036E+003	7.940959818915871E+001	-9.1680861E-001	-3.008688289330026E-001	2.7583912E-004	-9.1698498E-001	0
2.7386411E+003	7.960959818410629E+001	-9.1883242E-001	-3.355066825164803E-001	3.0827441E-004	-9.1898501E-001	0
2.5394507E+003	7.980959817905386E+001	-9.2084986E-001	-3.626177429375748E-001	3.3391648E-004	-9.2098504E-001	0
2.3383352E+003	8.000959817400144E+001	-9.2284322E-001	-3.946582210163632E-001	3.6420766E-004	-9.2298502E-001	0
2.1121433E+003	8.020959816894901E+001	-9.2483652E-001	-4.378663677629318E-001	4.0495480E-004	-9.2498499E-001	0
1.9433258E+003	8.040959816389659E+001	-9.2684966E-001	-4.769399098823874E-001	4.4205159E-004	-9.2698503E-001	0
1.7730621E+003	8.060959815884416E+001	-9.2882085E-001	-5.238512633347243E-001	4.8656398E-004	-9.2898500E-001	0
1.6149270E+003	8.080959815379174E+001	-9.3086463E-001	-5.764128103632622E-001	5.3656229E-004	-9.3098497E-001	0
1.4813397E+003	8.100959814873931E+001	-9.3285608E-001	-6.297380968151161E-001	5.8745500E-004	-9.3298507E-001	0
1.3525938E+003	8.120959814368689E+001	-9.3486339E-001	-6.911634927628185E-001	6.4614345E-004	-9.3498504E-001	0
1.2373965E+003	8.140959813863446E+001	-9.3684214E-001	-7.571075224568915E-001	7.0929021E-004	-9.3698502E-001	0
1.1432476E+003	8.160959813358204E+001	-9.3884254E-001	-8.212067201361890E-001	7.7098381E-004	-9.3898499E-001	0
1.0463828E+003	8.180959812852961E+001	-9.4083458E-001	-8.991303725206112E-001	8.4593293E-004	-9.4098508E-001	0
9.6489648E+002	8.200959812347719E+001	-9.4284099E-001	-9.771420902861880E-001	9.2128961E-004	-9.4298512E-001	0
8.9189282E+002	8.221959811817214E+001	-9.4493449E-001	-1.059470900878003E+000	1.0011306E-003	-9.4508511E-001	0
8.2340021E+002	8.242959811286710E+001	-9.4700783E-001	-1.150118555848291E+000	1.0891713E-003	-9.4718504E-001	0
7.6661938E+002	8.262959810781467E+001	-9.4902343E-001	-1.237932939859535E+000	1.1748273E-003	-9.4918501E-001	0
7.1441174E+002	8.282959810276225E+001	-9.5103073E-001	-1.331208139336971E+000	1.2660199E-003	-9.5118499E-001	0
6.6730042E+002	8.302959809770982E+001	-9.5304281E-001	-1.428206492257630E+000	1.3611419E-003	-9.5318508E-001	0
6.2595679E+002	8.322959809265740E+001	-9.5504695E-001	-1.525739459781285E+000	1.4571528E-003	-9.5518494E-001	0
5.8909943E+002	8.342959808760497E+001	-9.5702839E-001	-1.624561689760274E+000	1.5547517E-003	-9.5718503E-001	0
5.5510895E+002	8.362959808255255E+001	-9.5904410E-001	-1.727668245464493E+000	1.6569101E-003	-9.5918500E-001	0
5.2478900E+002	8.382959807750012E+001	-9.6104831E-001	-1.831304164413293E+000	1.7599717E-003	-9.6118510E-001	0
4.9734125E+002	8.402959807244770E+001	-9.6304256E-001	-1.936381829433693E+000	1.8648182E-003	-9.6318507E-001	0
4.7234964E+002	8.422959806739527E+001	-9.6502542E-001	-2.043032008825115E+000	1.9715778E-003	-9.6518499E-001	0
4.4922046E+002	8.442959806234285E+001	-9.6700722E-001	-2.152633949083668E+000	2.0816126E-003	-9.6718502E-001	0
4.2855573E+002	8.462959805729042E+001	-9.6902019E-001	-2.261129896150152E+000	2.1910805E-003	-9.6918511E-001	0
4.0956329E+002	8.482959805223800E+001	-9.7104335E-001	-2.370923797205062E+000	2.3022697E-003	-9.7118497E-001	0
3.9240323E+002	8.502959804718557E+001	-9.7300363E-001	-2.479601458813192E+000	2.4126612E-003	-9.7318500E-001	0
3.7633640E+002	8.522959804213315E+001	-9.7503489E-001	-2.590859903651979E+000	2.5261787E-003	-9.7518504E-001	0
3.6160809E+002	8.542959803708072E+001	-9.7701621E-001	-2.701864978894076E+000	2.6397659E-003	-9.7718501E-001	0
3.4772662E+002	8.562959803202830E+001	-9.7899956E-001	-2.815428727726681E+000	2.7563034E-003	-9.7918504E-001	0
3.3489969E+002	8.582959802697587E+001	-9.8103482E-001	-2.929339319078963E+000	2.8737839E-003	-9.8118502E-001	0
3.2297125E+002	8.602959802192345E+001	-9.8306042E-001	-3.043801504670888E+000	2.9922407E-003	-9.8318499E-001	0
3.1186850E+002	8.622959801687102E+001	-9.8502183E-001	-3.158452316932802E+000	3.1111445E-003	-9.8518497E-001	0
3.0177097E+002	8.642959801181860E+001	-9.8703140E-001	-3.270796374534001E+000	3.2283787E-003	-9.8718506E-001	0
2.9203262E+002	8.662959800676617E+001	-9.8900729E-001	-3.386633089847038E+000	3.3494048E-003	-9.8918504E-001	0
2.8278485E+002	8.682959800171375E+001	-9.9103749E-001	-3.504563542450372E+000	3.4731538E-003	-9.9118501E-001	0
2.7439178E+002	8.702959799666132E+001	-9.9303722E-001	-3.619048506595931E+000	3.5938499E-003	-9.9318498E-001	0
2.6621149E+002	8.722959799160890E+001	-9.9504286E-001	-3.737790700867599E+000	3.7192618E-003	-9.9518496E-001	0
2.5859290E+002	8.742959798655647E+001	-9.9702626E-001	-3.855582575543949E+000	3.8441170E-003	-9.9718493E-001	0
2.5158238E+002	8.762959798150405E+001	-9.9902892E-001	-3.970981282103885E+000	3.9671250E-003	-9.9918497E-001	0
2.4467715E+002	8.782959797645162E+001	-1.0010309E+000	-4.091231681490967E+000	4.0954496E-003	-1.0011851E+000	0
2.3823932E+002	8.802959797139920E+001	-1.0030248E+000	-4.210156581197765E+000	4.2228918E-003	-1.0031850E+000	0
2.3194658E+002	8.822959796634677E+001	-1.0050253E+000	-4.333003129919909E+000	4.3547777E-003	-1.0051849E+000	0
2.2614766E+002	8.842959796129435E+001	-1.0070591E+000	-4.453104081101145E+000	4.4845389E-003	-1.0071850E+000	0
2.2055365E+002	8.862959795624192E+001	-1.0090387E+000	-4.575026032842199E+000	4.6163783E-003	-1.0091851E+000	0
2.1511075E+002	8.882959795118950E+001	-1.0110561E+000	-4.700165242260811E+000	4.7521307E-003	-1.0111849E+000	0
2.1016071E+002	8.902959794613707E+001	-1.0130413E+000	-4.820317261579884E+000	4.8831804E-003	-1.0131849E+000	0
2.0520290E+002	8.922959794108465E+001	-1.0150757E+000	-4.946692798312014E+000	5.0212676E-003	-1.0151850E+000	0
2.0039322E+002	8.942959793603222E+001	-1.0170437E+000	-5.075240065079690E+000	5.1617408E-003	-1.0171850E+000	0
1.9581985E+002	8.962959793097980E+001	-1.0190920E+000	-5.204231856732960E+000	5.3035910E-003	-1.0191851E+000	0
1.9141443E+002	8.982959792592737E+001	-1.0210220E+000	-5.334091110699802E+000	5.4462240E-003	-1.0211849E+000	0
1.8720876E+002	9.002959792087495E+001	-1.0230707E+000	-5.464865823586806E+000	5.5909441E-003	-1.0231849E+000	0
1.8316499E+002	9.022959791582252E+001	-1.0250844E+000	-5.596508194056781E+000	5.7368930E-003	-1.0251850E+000	0
1.7923218E+002	9.042959791077010E+001	-1.0270607E+000	-5.730336988053381E+000	5.8854041E-003	-1.0271850E+000	0
1.7541956E+002	9.062959790571767E+001	-1.0290625E+000	-5.866293038133854E+000	6.0367822E-003	-1.0291851E+000	0
1.7171236E+002	9.082959790066525E+001	-1.0310631E+000	-6.004594751800564E+000	6.1911158E-003	-1.0311850E+000	0
1.6815863E+002	9.102959789561282E+001	-1.0330577E+000	-6.143352121283691E+000	6.3464371E-003	-1.0331850E+000	0
1.6466809E+002	9.122959789056040E+001	-1.0350565E+000	-6.285713414249756E+000	6.5060682E-003	-1.0351850E+000	0
1.6132001E+002	9.142959788550797E+001	-1.0370269E+000	-6.428383397947890E+000	6.6664065E-003	-1.0371851E+000	0
1.5798534E+002	9.162959788045555E+001	-1.0390707E+000	-6.577007392163715E+000	6.8339757E-003	-1.0391849E+000	0
1.5478627E+002	9.182959787540312E+001	-1.0411074E+000	-6.726096488923943E+000	7.0025888E-003	-1.0411850E+000	0
1.5171922E+002	9.202959787035070E+001	-1.0430323E+000	-6.874753728880648E+000	7.1705901E-003	-1.0431850E+000	0
1.4863350E+002	9.222959786529827E+001	-1.0450532E+000	-7.031075060232432E+000	7.3478478E-003	-1.0451850E+000	0
1.4566255E+002	9.242959786024585E+001	-1.0470518E+000	-7.188201615194046E+000	7.5264191E-003	-1.0471851E+000	0
1.4273122E+002	9.262959785519342E+001	-1.0490440E+000	-7.349786447221746E+000	7.7102496E-003	-1.0491850E+000	0
1.3991664E+002	9.282959785014100E+001	-1.0510592E+000	-7.512038483708849E+000	7.8955973E-003	-1.0511850E+000	0
1.3717592E+002	9.302959784508857E+001	-1.0530566E+000	-7.676686845466371E+000	8.0839861E-003	-1.0531850E+000	0
1.3441843E+002	9.322959784003615E+001	-1.0550455E+000	-7.848965003309331E+000	8.2810149E-003	-1.0551850E+000	0
1.3174559E+002	9.342959783498372E+001	-1.0570341E+000	-8.023298490750278E+000	8.4809000E-003	-1.0571851E+000	0
1.2915923E+002	9.362959782993130E+001	-1.0590378E+000	-8.199474428921882E+000	8.6835530E-003	-1.0591850E+000	0
1.2652319E+002	9.382959782487887E+001	-1.0610398E+000	-8.386129435498166E+000	8.8980170E-003	-1.0611850E+000	0
1.2404823E+002	9.402959781982645E+001	-1.0630116E+000	-8.569341713609067E+000	9.1093099E-003	-1.0631850E+000	0
1.2159966E+002	9.422959781477402E+001	-1.0650403E+000	-8.758579969676418E+000	9.3282415E-003	-1.0651851E+000	0
1.1917031E+002	9.442959780972160E+001	-1.0670271E+000	-8.953799480956690E+000	9.5539466E-003	-1.0671850E+000	0
1.1678208E+002	9.462959780466917E+001	-1.0690330E+000	-9.154084343218216E+000	9.7860182E-003	-1.0691851E+000	0
1.1449634E+002	9.482959779961675E+001	-1.0710315E+000	-9.354285473996597E+000	1.0018734E-002	-1.0711851E+000	0
1.1221223E+002	9.502959779456432E+001	-1.0730634E+000	-9.562802289416181E+000	1.0261493E-002	-1.0731850E+000	0
1.0998133E+002	9.522959778951190E+001	-1.0750569E+000	-9.774903391967307E+000	1.0508577E-002	-1.0751851E+000	0
1.0773885E+002	9.542959778445947E+001	-1.0770426E+000	-9.996789841289690E+000	1.0766968E-002	-1.0771850E+000	0
1.0556281E+002	9.562959777940705E+001	-1.0790681E+000	-1.022204718155928E+001	1.1030285E-002	-1.0791851E+000	0
1.0340007E+002	9.582959777435462E+001	-1.0810466E+000	-1.045498864349322E+001	1.1302330E-002	-1.0811850E+000	0
1.0129234E+002	9.602959776930220E+001	-1.0830581E+000	-1.069239976535845E+001	1.1580491E-002	-1.0831850E+000	0
9.8814949E+001	9.623959776399715E+001	-1.0851347E+000	-1.098148370427745E+001	1.1916390E-002	-1.0852851E+000	0
9.6597298E+001	9.644959775869211E+001	-1.0872520E+000	-1.125551190769590E+001	1.2237578E-002	-1.0873851E+000	0
9.4614380E+001	9.664959775363968E+001	-1.0892041E+000	-1.151203546022612E+001	1.2538956E-002	-1.0893850E+000	0
9.2649918E+001	9.684959774858726E+001	-1.0912173E+000	-1.177785440238696E+001	1.2852198E-002	-1.0913850E+000	0
9.0802856E+001	9.704959774353483E+001	-1.0932393E+000	-1.203970208155863E+001	1.3162276E-002	-1.0933850E+000	0
8.8956604E+001	9.724959773848241E+001	-1.0952296E+000	-1.231195379405065E+001	1.3484417E-002	-1.0953851E+000	0
8.7176262E+001	9.744959773342998E+001	-1.0972006E+000	-1.258600225409410E+001	1.3809370E-002	-1.0973850E+000	0
8.5431824E+001	9.764959772837756E+001	-1.0992420E+000	-1.286689053803622E+001	1.4143826E-002	-1.0993851E+000	0
8.3743347E+001	9.784959772332513E+001	-1.1012394E+000	-1.315017175309509E+001	1.4481488E-002	-1.1013850E+000	0
8.2096848E+001	9.804959771827271E+001	-1.1032256E+000	-1.343809883489087E+001	1.4825255E-002	-1.1033850E+000	0
8.0438499E+001	9.824959771322028E+001	-1.1052626E+000	-1.374046848623121E+001	1.5186827E-002	-1.1053851E+000	0
7.8805191E+001	9.844959770816786E+001	-1.1072145E+000	-1.405001871412847E+001	1.5556384E-002	-1.1073850E+000	0
7.7226357E+001	9.864959770311543E+001	-1.1091987E+000	-1.436295461505983E+001	1.5931370E-002	-1.1093850E+000	0
7.5673080E+001	9.884959769806301E+001	-1.1112190E+000	-1.468446983582845E+001	1.6317662E-002	-1.1113850E+000	0
7.4126709E+001	9.904959769301058E+001	-1.1132427E+000	-1.501810599968272E+001	1.6718797E-002	-1.1133850E+000	0
7.2637993E+001	9.924959768795816E+001	-1.1152135E+000	-1.535303340774541E+001	1.7121911E-002	-1.1153849E+000	0
7.1145981E+001	9.944959768290573E+001	-1.1172198E+000	-1.570320362690626E+001	1.7543931E-002	-1.1173850E+000	0
6.9745049E+001	9.964959767785331E+001	-1.1192230E+000	-1.604734656883753E+001	1.7960560E-002	-1.1193850E+000	0
6.8293785E+001	9.984959767280088E+001	-1.1212270E+000	-1.641770200691528E+001	1.8407971E-002	-1.1213850E+000	0
6.6840492E+001	1.000495976677485E+002	-1.1232232E+000	-1.680453138408205E+001	1.8875239E-002	-1.1233850E+000	0
6.5447227E+001	1.002495976626960E+002	-1.1252170E+000	-1.719273762597513E+001	1.9345559E-002	-1.1253850E+000	0
6.4053688E+001	1.004495976576436E+002	-1.1272248E+000	-1.759812511243516E+001	1.9837042E-002	-1.1273851E+000	0
6.2692570E+001	1.006495976525912E+002	-1.1291986E+000	-1.801168060302734E+001	2.0338764E-002	-1.1293850E+000	0
6.1369316E+001	1.008495976475388E+002	-1.1312170E+000	-1.843294170492084E+001	2.0851657E-002	-1.1313850E+000	0
6.0045074E+001	1.010495976424863E+002	-1.1332558E+000	-1.887341854537161E+001	2.1388412E-002	-1.1333849E+000	0
5.8781548E+001	1.012495976374339E+002	-1.1352324E+000	-1.931273524020537E+001	2.1924444E-002	-1.1353850E+000	0
5.7514969E+001	1.014495976323815E+002	-1.1372211E+000	-1.977261128474257E+001	2.2485830E-002	-1.1373850E+000	0
5.6296021E+001	1.016495976273291E+002	-1.1392294E+000	-2.023641159948028E+001	2.3053916E-002	-1.1393850E+000	0
5.5094772E+001	1.018495976222766E+002	-1.1412258E+000	-2.071386686285067E+001	2.3639200E-002	-1.1413851E+000	0
5.3902481E+001	1.020495976172242E+002	-1.1431948E+000	-2.120857466078132E+001	2.4245532E-002	-1.1433849E+000	0
5.2783821E+001	1.022495976121718E+002	-1.1452074E+000	-2.169618221975514E+001	2.4846628E-002	-1.1453850E+000	0
5.1676426E+001	1.024495976071194E+002	-1.1472203E+000	-2.220006938856478E+001	2.5468370E-002	-1.1473850E+000	0
5.0588631E+001	1.026495976020669E+002	-1.1492244E+000	-2.271704910928702E+001	2.6106987E-002	-1.1493851E+000	0
4.9530922E+001	1.028495975970145E+002	-1.1512284E+000	-2.324262007956051E+001	2.6757564E-002	-1.1513851E+000	0
4.8471684E+001	1.030495975919621E+002	-1.1532084E+000	-2.379138184120858E+001	2.7436420E-002	-1.1533850E+000	0
4.7402466E+001	1.032495975869097E+002	-1.1552119E+000	-2.437029130699420E+001	2.8152851E-002	-1.1553850E+000	0
4.6351116E+001	1.034495975818572E+002	-1.1572598E+000	-2.496724842762455E+001	2.8893594E-002	-1.1573851E+000	0
4.5297516E+001	1.036495975768048E+002	-1.1592413E+000	-2.559171934949563E+001	2.9666979E-002	-1.1593851E+000	0
4.4292725E+001	1.038495975717524E+002	-1.1612368E+000	-2.621732473211216E+001	3.0444521E-002	-1.1613851E+000	0
4.3279385E+001	1.040495975667000E+002	-1.1632464E+000	-2.687760840603016E+001	3.1265281E-002	-1.1633850E+000	0
4.2300888E+001	1.042495975616475E+002	-1.1652206E+000	-2.754600803489865E+001	3.2097176E-002	-1.1653850E+000	0
4.1334381E+001	1.044495975565951E+002	-1.1672286E+000	-2.823868463098859E+001	3.2961000E-002	-1.1673851E+000	0
4.0367668E+001	1.046495975515427E+002	-1.1692369E+000	-2.896468833703841E+001	3.3866581E-002	-1.1693851E+000	0
3.9471775E+001	1.048495975464903E+002	-1.1712309E+000	-2.967261707755711E+001	3.4753487E-002	-1.1713849E+000	0
3.8591358E+001	1.050495975414378E+002	-1.1732706E+000	-3.040241613598916E+001	3.5670262E-002	-1.1733850E+000	0
3.7737953E+001	1.052495975363854E+002	-1.1752814E+000	-3.114322220900704E+001	3.6602050E-002	-1.1753850E+000	0
3.6883072E+001	1.054495975313330E+002	-1.1772598E+000	-3.191870420968439E+001	3.7576608E-002	-1.1773851E+000	0
3.6059143E+001	1.056495975262806E+002	-1.1792562E+000	-3.270338821600356E+001	3.8565673E-002	-1.1793851E+000	0
3.5242832E+001	1.058495975212281E+002	-1.1812766E+000	-3.351820635525269E+001	3.9594270E-002	-1.1813850E+000	0
3.4486988E+001	1.060495975161757E+002	-1.1832629E+000	-3.431041753913794E+001	4.0598247E-002	-1.1833849E+000	0
3.3684345E+001	1.062495975111233E+002	-1.1852312E+000	-3.518640963290568E+001	4.1704033E-002	-1.1853850E+000	0
3.2938946E+001	1.064495975060709E+002	-1.1873015E+000	-3.604552410789631E+001	4.2796906E-002	-1.1873851E+000	0
3.2197132E+001	1.066495975010184E+002	-1.1892942E+000	-3.693789223856930E+001	4.3930020E-002	-1.1893849E+000	0
3.1481363E+001	1.068495974959660E+002	-1.1912812E+000	-3.784083845555915E+001	4.5079079E-002	-1.1913850E+000	0
3.0772768E+001	1.070495974909136E+002	-1.1933162E+000	-3.877831995784561E+001	4.6274800E-002	-1.1933850E+000	0
3.0067162E+001	1.072495974858612E+002	-1.1953048E+000	-3.975449263725147E+001	4.7518734E-002	-1.1953851E+000	0
2.9423529E+001	1.074495974808087E+002	-1.1972994E+000	-4.069190301943797E+001	4.8720390E-002	-1.1973851E+000	0
2.8771509E+001	1.076495974757563E+002	-1.1993134E+000	-4.168406209788884E+001	4.9992256E-002	-1.1993849E+000	0
2.8158873E+001	1.078495974707039E+002	-1.2012587E+000	-4.266004221131209E+001	5.1245745E-002	-1.2013850E+000	0
2.7529255E+001	1.080495974656515E+002	-1.2033124E+000	-4.371031454901572E+001	5.2597165E-002	-1.2033850E+000	0
2.6933493E+001	1.082495974605990E+002	-1.2052943E+000	-4.475076034982726E+001	5.3937834E-002	-1.2053850E+000	0
2.6346273E+001	1.084495974555466E+002	-1.2072804E+000	-4.582357409832953E+001	5.5321902E-002	-1.2073851E+000	0
2.5766159E+001	1.086495974504942E+002	-1.2092785E+000	-4.693281947701423E+001	5.6754846E-002	-1.2093850E+000	0
2.5229637E+001	1.088495974454418E+002	-1.2113098E+000	-4.801138388813234E+001	5.8156658E-002	-1.2113850E+000	0
2.4675407E+001	1.090495974403893E+002	-1.2132764E+000	-4.916945825601647E+001	5.9656143E-002	-1.2133850E+000	0
2.4159601E+001	1.092495974353369E+002	-1.2152963E+000	-5.030282843410328E+001	6.1132841E-002	-1.2153851E+000	0
2.3693819E+001	1.094495974302845E+002	-1.2173139E+000	-5.137685280430060E+001	6.2541753E-002	-1.2173851E+000	0
2.3164227E+001	1.096495974252321E+002	-1.2193010E+000	-5.263723947185497E+001	6.4180635E-002	-1.2193850E+000	0
2.2678713E+001	1.098495974201796E+002	-1.2212857E+000	-5.385163167058198E+001	6.5768227E-002	-1.2213850E+000	0
2.2217714E+001	1.100495974151272E+002	-1.2232955E+000	-5.505946223589854E+001	6.7353986E-002	-1.2233850E+000	0
2.1742109E+001	1.102495974100748E+002	-1.2253033E+000	-5.635622799585738E+001	6.9053471E-002	-1.2253851E+000	0
2.1271988E+001	1.104495974050224E+002	-1.2272843E+000	-5.769485652798130E+001	7.0807993E-002	-1.2273850E+000	0
2.0830421E+001	1.106495973999699E+002	-1.2292647E+000	-5.901295632245615E+001	7.2542548E-002	-1.2293850E+000	0
2.0337486E+001	1.108495973949175E+002	-1.2312872E+000	-6.054274567833340E+001	7.4545510E-002	-1.2313850E+000	0
1.9949711E+001	1.110495973898651E+002	-1.2332944E+000	-6.182016547196554E+001	7.6242462E-002	-1.2333850E+000	0
1.9526627E+001	1.112495973848127E+002	-1.2353091E+000	-6.326280518940507E+001	7.8149118E-002	-1.2353851E+000	0
1.9119265E+001	1.114495973797602E+002	-1.2373155E+000	-6.471564691731692E+001	8.0073677E-002	-1.2373850E+000	0
1.8724173E+001	1.116495973747078E+002	-1.2393012E+000	-6.618723349398209E+001	8.2025915E-002	-1.2393850E+000	0
1.8348093E+001	1.118495973696554E+002	-1.2413198E+000	-6.765388580460666E+001	8.3980106E-002	-1.2413851E+000	0
1.7986837E+001	1.120495973646030E+002	-1.2433006E+000	-6.912280314092990E+001	8.5940421E-002	-1.2433851E+000	0
1.7597776E+001	1.122495973595505E+002	-1.2453086E+000	-7.076511646236145E+001	8.8124409E-002	-1.2453851E+000	0
1.7227415E+001	1.124495973544981E+002	-1.2473421E+000	-7.240448146936842E+001	9.0313159E-002	-1.2473850E+000	0
1.6860924E+001	1.126495973494457E+002	-1.2492924E+000	-7.409394846805887E+001	9.2565008E-002	-1.2493851E+000	0
1.6521238E+001	1.128495973443933E+002	-1.2512927E+000	-7.573843238250981E+001	9.4770946E-002	-1.2513850E+000	0
1.6233868E+001	1.130495973393408E+002	-1.2532851E+000	-7.720187904883414E+001	9.6755959E-002	-1.2533849E+000	0
1.5955806E+001	1.132495973342884E+002	-1.2552933E+000	-7.867313328675914E+001	9.8757856E-002	-1.2553852E+000	0
1.5647156E+001	1.134495973292360E+002	-1.2573177E+000	-8.035439165973878E+001	1.0103100E-001	-1.2573851E+000	0
1.5307302E+001	1.136495973241836E+002	-1.2593153E+000	-8.226892190671560E+001	1.0360251E-001	-1.2593851E+000	0
1.4979062E+001	1.138495973191311E+002	-1.2612907E+000	-8.420358071738110E+001	1.0620519E-001	-1.2613851E+000	0
1.4694471E+001	1.140495973140787E+002	-1.2633020E+000	-8.597124522235114E+001	1.0860764E-001	-1.2633851E+000	0
1.4410645E+001	1.142495973090263E+002	-1.2653042E+000	-8.780343541320485E+001	1.1109806E-001	-1.2653852E+000	0
1.4154463E+001	1.144495973039739E+002	-1.2672890E+000	-8.953282537536006E+001	1.1346397E-001	-1.2673850E+000	0
1.3848396E+001	1.146495972989214E+002	-1.2692944E+000	-9.165641455152922E+001	1.1633897E-001	-1.2693850E+000	0
1.3592643E+001	1.148495972938690E+002	-1.2713022E+000	-9.352869796212326E+001	1.1890324E-001	-1.2713850E+000	0
1.3401508E+001	1.150495972888166E+002	-1.2733223E+000	-9.501336240984688E+001	1.2098264E-001	-1.2733849E+000	0
1.3133785E+001	1.152495972837642E+002	-1.2752823E+000	-9.709936923396890E+001	1.2382910E-001	-1.2753850E+000	0
1.2888975E+001	1.154495972787117E+002	-1.2773173E+000	-9.910153657995397E+001	1.2658411E-001	-1.2773851E+000	0
1.2616094E+001	1.156495972736593E+002	-1.2793075E+000	-1.014028206704156E+002	1.2972538E-001	-1.2793850E+000	0
1.2402198E+001	1.158495972686069E+002	-1.2812988E+000	-1.033122293868032E+002	1.3237382E-001	-1.2813849E+000	0
1.2203905E+001	1.160495972635545E+002	-1.2833200E+000	-1.051564994853100E+002	1.3494943E-001	-1.2833850E+000	0
1.2033211E+001	1.162495972585020E+002	-1.2853229E+000	-1.068146260460485E+002	1.3729128E-001	-1.2853850E+000	0
1.1842320E+001	1.164495972534496E+002	-1.2872937E+000	-1.087028261128469E+002	1.3993245E-001	-1.2873850E+000	0
1.1482742E+001	1.166695972478919E+002	-1.2894511E+000	-1.122947054439123E+002	1.4479853E-001	-1.2895850E+000	0
1.1204619E+001	1.168695972428395E+002	-1.2914852E+000	-1.152636405259302E+002	1.4886129E-001	-1.2915850E+000	0
1.1011498E+001	1.170695972377871E+002	-1.2934831E+000	-1.174665832876348E+002	1.5194105E-001	-1.2935849E+000	0
1.0843329E+001	1.172695972327347E+002	-1.2954733E+000	-1.194719143021938E+002	1.5477268E-001	-1.2955850E+000	0
1.0700133E+001	1.174695972276822E+002	-1.2974905E+000	-1.212592829209063E+002	1.5733276E-001	-1.2975850E+000	0
1.0532042E+001	1.176695972226298E+002	-1.2994829E+000	-1.233837700787585E+002	1.6033511E-001	-1.2995850E+000	0
1.0365890E+001	1.178695972175774E+002	-1.3014768E+000	-1.255537998995278E+002	1.6340536E-001	-1.3015850E+000	0
1.0174504E+001	1.180695972125250E+002	-1.3034739E+000	-1.281117880868803E+002	1.6699038E-001	-1.3035851E+000	0
1.0032019E+001	1.182695972074725E+002	-1.3055099E+000	-1.301343207153875E+002	1.6989164E-001	-1.3055850E+000	0
9.8389797E+000	1.184695972024201E+002	-1.3075024E+000	-1.328900328601571E+002	1.7375404E-001	-1.3075850E+000	0
9.7144737E+000	1.186695971973677E+002	-1.3095194E+000	-1.348008572520048E+002	1.7652434E-001	-1.3095851E+000	0
9.6165247E+000	1.188695971923153E+002	-1.3114969E+000	-1.363794989726441E+002	1.7886129E-001	-1.3115851E+000	0
9.4943085E+000	1.190695971872628E+002	-1.3134860E+000	-1.383445637026070E+002	1.8171364E-001	-1.3135850E+000	0
9.3111725E+000	1.192695971822104E+002	-1.3154993E+000	-1.412818157343098E+002	1.8585613E-001	-1.3155850E+000	0
9.1772280E+000	1.194695971771580E+002	-1.3174473E+000	-1.435561341914995E+002	1.8912764E-001	-1.3175850E+000	0
8.9969921E+000	1.196695971721056E+002	-1.3194454E+000	-1.466540488991332E+002	1.9350201E-001	-1.3195851E+000	0
8.8901567E+000	1.198695971670531E+002	-1.3214788E+000	-1.486451701696230E+002	1.9643144E-001	-1.3215851E+000	0
8.7911386E+000	1.200695971620007E+002	-1.3235168E+000	-1.505512496414099E+002	1.9925712E-001	-1.3235850E+000	0
8.6676416E+000	1.202695971569483E+002	-1.3254498E+000	-1.529193149261735E+002	2.0268688E-001	-1.3255851E+000	0
8.5264807E+000	1.204695971518959E+002	-1.3274580E+000	-1.556865082922430E+002	2.0666730E-001	-1.3275851E+000	0
8.4117975E+000	1.206695971468434E+002	-1.3294870E+000	-1.580502826297097E+002	2.1012579E-001	-1.3295851E+000	0
8.2961016E+000	1.208695971417910E+002	-1.3314673E+000	-1.604931347116046E+002	2.1369135E-001	-1.3315850E+000	0
8.2225790E+000	1.210696971367361E+002	-1.3335378E+000	-1.621799887380780E+002	2.1627314E-001	-1.3335859E+000	0
8.1687765E+000	1.212698971316786E+002	-1.3355184E+000	-1.634906161746612E+002	2.1834472E-001	-1.3355879E+000	0
8.0778112E+000	1.214702971266161E+002	-1.3375263E+000	-1.655802886773688E+002	2.2146800E-001	-1.3375913E+000	0
7.9661531E+000	1.216707971215510E+002	-1.3395125E+000	-1.681504800053801E+002	2.2523966E-001	-1.3395965E+000	0
7.8888721E+000	1.218712971164859E+002	-1.3415092E+000	-1.700508246640059E+002	2.2812475E-001	-1.3416017E+000	0
7.7805915E+000	1.220716971114234E+002	-1.3435348E+000	-1.726777232310974E+002	2.3199853E-001	-1.3436053E+000	0
7.6914177E+000	1.222721971063584E+002	-1.3455350E+000	-1.749397911379040E+002	2.3538762E-001	-1.3456105E+000	0
7.6151724E+000	1.224727971012908E+002	-1.3475311E+000	-1.769534589525633E+002	2.3845029E-001	-1.3476164E+000	0
7.5119505E+000	1.226729970962333E+002	-1.3495681E+000	-1.796561504751116E+002	2.4245821E-001	-1.3496190E+000	0
7.4055085E+000	1.228732970911733E+002	-1.3515497E+000	-1.825059977041586E+002	2.4666594E-001	-1.3516213E+000	0
7.3301277E+000	1.230737970861082E+002	-1.3535178E+000	-1.846513263402371E+002	2.4992885E-001	-1.3536266E+000	0
7.2516847E+000	1.232742970810432E+002	-1.3555449E+000	-1.869282769230563E+002	2.5338969E-001	-1.3556318E+000	0
7.1804152E+000	1.234746970759807E+002	-1.3575541E+000	-1.890634555200363E+002	2.5666386E-001	-1.3576354E+000	0
7.1557884E+000	1.236750970709181E+002	-1.3595545E+000	-1.899936703511069E+002	2.5830674E-001	-1.3596399E+000	0
7.0025325E+000	1.238754970658556E+002	-1.3615725E+000	-1.944400065481814E+002	2.6474416E-001	-1.3616433E+000	0
6.8354015E+000	1.240758970607931E+002	-1.3635681E+000	-1.994861678270340E+002	2.7201298E-001	-1.3636478E+000	0
6.7752290E+000	1.242760970557356E+002	-1.3656205E+000	-2.015607888754510E+002	2.7525553E-001	-1.3656498E+000	0
6.7264462E+000	1.244764970506731E+002	-1.3675859E+000	-2.033147808069061E+002	2.7805042E-001	-1.3676537E+000	0
6.6585155E+000	1.246765970456181E+002	-1.3695800E+000	-2.056884957852008E+002	2.8170687E-001	-1.3696550E+000	0
6.6069283E+000	1.248769970405556E+002	-1.3716035E+000	-2.076007751033931E+002	2.8474596E-001	-1.3716586E+000	0
6.5434403E+000	1.250772970354956E+002	-1.3735690E+000	-2.099154165840987E+002	2.8833330E-001	-1.3736619E+000	0
6.4379001E+000	1.252775970304356E+002	-1.3755797E+000	-2.136690069543000E+002	2.9391876E-001	-1.3756645E+000	0
6.3393407E+000	1.254778970253756E+002	-1.3776052E+000	-2.173104914912838E+002	2.9936805E-001	-1.3776678E+000	0
6.3122168E+000	1.256779970203206E+002	-1.3796026E+000	-2.185607083031709E+002	3.0152690E-001	-1.3796688E+000	0
6.2764645E+000	1.258780970152657E+002	-1.3816098E+000	-2.201254901790917E+002	3.0412754E-001	-1.3816698E+000	0
6.1591630E+000	1.260782970102082E+002	-1.3835734E+000	-2.246365940252690E+002	3.1080121E-001	-1.3836716E+000	0
6.1340652E+000	1.262783970051532E+002	-1.3855884E+000	-2.258842074379086E+002	3.1298253E-001	-1.3856730E+000	0
6.1340117E+000	1.264783970001008E+002	-1.3875865E+000	-2.262119026638215E+002	3.1388858E-001	-1.3876730E+000	0
6.1383324E+000	1.266783969950484E+002	-1.3895978E+000	-2.263803326591619E+002	3.1457761E-001	-1.3896730E+000	0
6.0754905E+000	1.268783969899960E+002	-1.3916141E+000	-2.290537760749703E+002	3.1875446E-001	-1.3916731E+000	0
6.0030079E+000	1.270786969849360E+002	-1.3936063E+000	-2.321513279577730E+002	3.2352754E-001	-1.3936754E+000	0
5.9514275E+000	1.272792969798684E+002	-1.3956251E+000	-2.345025797179738E+002	3.2727769E-001	-1.3956814E+000	0
5.8171530E+000	1.274796969748058E+002	-1.3976727E+000	-2.402674665581285E+002	3.3581528E-001	-1.3976859E+000	0
5.7885900E+000	1.276797969697509E+002	-1.3996303E+000	-2.417912350479432E+002	3.3841833E-001	-1.3996871E+000	0
5.7703547E+000	1.278799969646934E+002	-1.4016224E+000	-2.429005536812560E+002	3.4045485E-001	-1.4016887E+000	0
5.6747365E+000	1.280803969596309E+002	-1.4036787E+000	-2.473557519904625E+002	3.4720799E-001	-1.4036926E+000	0
5.6487532E+000	1.282808969545658E+002	-1.4056569E+000	-2.488437532997336E+002	3.4978893E-001	-1.4056978E+000	0
5.6200938E+000	1.284813969495008E+002	-1.4076471E+000	-2.504668364726331E+002	3.5256892E-001	-1.4077027E+000	0
5.5579557E+000	1.286818969444357E+002	-1.4096829E+000	-2.536333386080937E+002	3.5754257E-001	-1.4097074E+000	0
5.4969625E+000	1.288824969393681E+002	-1.4116690E+000	-2.568089274880958E+002	3.6252922E-001	-1.4117136E+000	0
5.4717350E+000	1.290826969343107E+002	-1.4136715E+000	-2.583589144281902E+002	3.6523464E-001	-1.4137158E+000	0
5.4422498E+000	1.292829969292507E+002	-1.4157071E+000	-2.601326861296734E+002	3.6827171E-001	-1.4157186E+000	0
5.2884812E+000	1.294833969241881E+002	-1.4176883E+000	-2.680709526804274E+002	3.8004103E-001	-1.4177225E+000	0
5.2121916E+000	1.296836969191281E+002	-1.4196831E+000	-2.723773780622869E+002	3.8668957E-001	-1.4197255E+000	0
5.1882553E+000	1.298839969140681E+002	-1.4216802E+000	-2.740189277080995E+002	3.8956729E-001	-1.4217286E+000	0
5.1566687E+000	1.300843969090056E+002	-1.4237310E+000	-2.760950956358449E+002	3.9308515E-001	-1.4237331E+000	0
5.1107287E+000	1.302845969039481E+002	-1.4257005E+000	-2.789622872823584E+002	3.9771667E-001	-1.4257351E+000	0
5.0519238E+000	1.304846968988932E+002	-1.4276748E+000	-2.826002195430343E+002	4.0346122E-001	-1.4277359E+000	0
4.9873819E+000	1.306848968938357E+002	-1.4296870E+000	-2.866608306427620E+002	4.0983528E-001	-1.4297379E+000	0
5.0328283E+000	1.308851968887757E+002	-1.4317143E+000	-2.844751018955112E+002	4.0728706E-001	-1.4317406E+000	0
5.0270123E+000	1.310855968837132E+002	-1.4336895E+000	-2.851971390351268E+002	4.0888414E-001	-1.4337447E+000	0
4.9896517E+000	1.312859968786506E+002	-1.4357053E+000	-2.877365799555055E+002	4.1310492E-001	-1.4357486E+000	0
4.9311447E+000	1.314864968735856E+002	-1.4377214E+000	-2.915593536038921E+002	4.1918111E-001	-1.4377534E+000	0
4.9317050E+000	1.316868968685230E+002	-1.4397259E+000	-2.919326701940527E+002	4.2030302E-001	-1.4397579E+000	0
4.9542232E+000	1.318871968634630E+002	-1.4417342E+000	-2.910111632124376E+002	4.1956073E-001	-1.4417608E+000	0
4.8872404E+000	1.320871968584106E+002	-1.4437137E+000	-2.954046877517185E+002	4.2647979E-001	-1.4437609E+000	0
4.8288331E+000	1.322871968533582E+002	-1.4457078E+000	-2.993907164489339E+002	4.3283150E-001	-1.4457610E+000	0
4.7882128E+000	1.324871968483058E+002	-1.4477323E+000	-3.023533887906406E+002	4.3772677E-001	-1.4477608E+000	0
4.7777743E+000	1.326871968432533E+002	-1.4497000E+000	-3.034258021594715E+002	4.3987638E-001	-1.4497608E+000	0
4.7372689E+000	1.328871968382009E+002	-1.4517248E+000	-3.064476039631290E+002	4.4487756E-001	-1.4517608E+000	0
4.6952734E+000	1.330871968331485E+002	-1.4537622E+000	-3.096224630425045E+002	4.5011744E-001	-1.4537609E+000	0
4.6730576E+000	1.332871968280961E+002	-1.4557797E+000	-3.115261501390098E+002	4.5351344E-001	-1.4557608E+000	0
4.5754485E+000	1.334871968230436E+002	-1.4577454E+000	-3.186016636759796E+002	4.6444011E-001	-1.4577608E+000	0
4.5558805E+000	1.336871968179912E+002	-1.4597427E+000	-3.204084736808909E+002	4.6771392E-001	-1.4597609E+000	0
4.5374455E+000	1.338871968129388E+002	-1.4617627E+000	-3.221554256837118E+002	4.7091478E-001	-1.4617609E+000	0
4.3939862E+000	1.340871968078864E+002	-1.4637532E+000	-3.331264945309177E+002	4.8761499E-001	-1.4637609E+000	0
4.3415103E+000	1.342871968028339E+002	-1.4657582E+000	-3.376148053404947E+002	4.9486166E-001	-1.4657608E+000	0
4.3441877E+000	1.344871967977815E+002	-1.4677640E+000	-3.378684492478842E+002	4.9591115E-001	-1.4677609E+000	0
4.3916640E+000	1.346871967927291E+002	-1.4697652E+000	-3.346715912332338E+002	4.9188864E-001	-1.4697608E+000	0
4.4113131E+000	1.348871967876767E+002	-1.4717376E+000	-3.336280295875895E+002	4.9101293E-001	-1.4717609E+000	0
4.3671947E+000	1.350871967826242E+002	-1.4737376E+000	-3.374563529345460E+002	4.9732211E-001	-1.4737608E+000	0
4.3203521E+000	1.352871967775718E+002	-1.4757383E+000	-3.415782478704480E+002	5.0408012E-001	-1.4757606E+000	0
4.2983022E+000	1.354871967725194E+002	-1.4777409E+000	-3.437964212845786E+002	5.0804204E-001	-1.4777609E+000	0
4.2421012E+000	1.356871967674670E+002	-1.4797579E+000	-3.488266513893641E+002	5.1617897E-001	-1.4797608E+000	0
4.1649075E+000	1.358871967624145E+002	-1.4817438E+000	-3.557687126968463E+002	5.2715808E-001	-1.4817609E+000	0
4.1128883E+000	1.360871967573621E+002	-1.4837697E+000	-3.607609694712291E+002	5.3528619E-001	-1.4837610E+000	0
4.0738297E+000	1.362871967523097E+002	-1.4857697E+000	-3.647108223043597E+002	5.4187632E-001	-1.4857608E+000	0
4.0583220E+000	1.364871967472573E+002	-1.4877747E+000	-3.665985018304154E+002	5.4541600E-001	-1.4877609E+000	0
3.9262433E+000	1.366871967422048E+002	-1.4901979E+000	-3.795480241905261E+002	5.6560165E-001	-1.4897608E+000	0
3.9048903E+000	1.368871967371524E+002	-1.4922906E+000	-3.821594255430090E+002	5.7029295E-001	-1.4917608E+000	0
3.9110067E+000	1.370871967321000E+002	-1.4942740E+000	-3.820688972840762E+002	5.7091564E-001	-1.4937609E+000	0
3.9470875E+000	1.372871967270476E+002	-1.4962643E+000	-3.790806140618533E+002	5.6720483E-001	-1.4957608E+000	0
3.9592953E+000	1.374871967219951E+002	-1.4982696E+000	-3.784182320030377E+002	5.6697249E-001	-1.4977609E+000	0
3.9358904E+000	1.376871967169427E+002	-1.5003045E+000	-3.811855209095406E+002	5.7189435E-001	-1.4997607E+000	0
3.8616626E+000	1.378871967118903E+002	-1.5023323E+000	-3.890376866290903E+002	5.8446389E-001	-1.5017608E+000	0
3.8775935E+000	1.380871967068379E+002	-1.5042899E+000	-3.879441854602360E+002	5.8358049E-001	-1.5037607E+000	0
3.8826504E+000	1.382871967017854E+002	-1.5063372E+000	-3.879662034062858E+002	5.8440793E-001	-1.5057608E+000	0
3.8384707E+000	1.384871966967330E+002	-1.5083518E+000	-3.929564346218322E+002	5.9271657E-001	-1.5077608E+000	0
3.8457229E+000	1.386871966916806E+002	-1.5102954E+000	-3.927208021060146E+002	5.9312439E-001	-1.5097607E+000	0
3.8224075E+000	1.388871966866282E+002	-1.5123178E+000	-3.956453554473491E+002	5.9834152E-001	-1.5117608E+000	0
3.7489858E+000	1.390871966815757E+002	-1.5143102E+000	-4.039253206101660E+002	6.1166823E-001	-1.5137609E+000	0
3.8138463E+000	1.392871966765233E+002	-1.5162994E+000	-3.975774737031543E+002	6.0284644E-001	-1.5157608E+000	0
3.7831476E+000	1.394871966714709E+002	-1.5183123E+000	-4.013357305980867E+002	6.0935301E-001	-1.5177608E+000	0
3.7635450E+000	1.396871966664185E+002	-1.5203179E+000	-4.039590026916030E+002	6.1414611E-001	-1.5197607E+000	0
3.7575374E+000	1.398871966613660E+002	-1.5223409E+000	-4.051432401523034E+002	6.1676610E-001	-1.5217608E+000	0
3.7651672E+000	1.400871966563136E+002	-1.5243075E+000	-4.048445586941934E+002	6.1710757E-001	-1.5237609E+000	0
3.7111261E+000	1.402871966512612E+002	-1.5263057E+000	-4.112783145991029E+002	6.2773645E-001	-1.5257608E+000	0
3.6331019E+000	1.404871966462088E+002	-1.5283184E+000	-4.206648740444061E+002	6.4290988E-001	-1.5277607E+000	0
3.6010807E+000	1.406871966411563E+002	-1.5303149E+000	-4.249599043701246E+002	6.5032250E-001	-1.5297608E+000	0
3.5173874E+000	1.408871966361039E+002	-1.5323308E+000	-4.356445698035286E+002	6.6755158E-001	-1.5317608E+000	0
3.3922558E+000	1.410871966310515E+002	-1.5343394E+000	-4.523065228494661E+002	6.9399172E-001	-1.5337608E+000	0
3.4124351E+000	1.412871966259991E+002	-1.5363591E+000	-4.502236779098348E+002	6.9170523E-001	-1.5357609E+000	0
3.4667783E+000	1.414871966209466E+002	-1.5383914E+000	-4.437524551209945E+002	6.8266493E-001	-1.5377607E+000	0
3.4958606E+000	1.416871966158942E+002	-1.5403335E+000	-4.406164135489580E+002	6.7869622E-001	-1.5397608E+000	0
3.3696568E+000	1.418871966108418E+002	-1.5423783E+000	-4.577256491870842E+002	7.0598608E-001	-1.5417609E+000	0
3.3472860E+000	1.420871966057894E+002	-1.5443574E+000	-4.613759942303423E+002	7.1252942E-001	-1.5437609E+000	0
3.3639829E+000	1.422871966007369E+002	-1.5463442E+000	-4.596765854201913E+002	7.1081823E-001	-1.5457609E+000	0
3.3688536E+000	1.424871965956845E+002	-1.5483712E+000	-4.596136899589128E+002	7.1165258E-001	-1.5477608E+000	0
3.4301784E+000	1.426871965906321E+002	-1.5503726E+000	-4.519801521690515E+002	7.0073766E-001	-1.5497608E+000	0
3.4352677E+000	1.428871965855797E+002	-1.5523213E+000	-4.518778187801490E+002	7.0145959E-001	-1.5517607E+000	0
3.4230211E+000	1.430871965805272E+002	-1.5543044E+000	-4.540738377776561E+002	7.0576894E-001	-1.5537608E+000	0
3.3603511E+000	1.432871965754748E+002	-1.5563418E+000	-4.631485446013030E+002	7.2081745E-001	-1.5557609E+000	0
3.2985563E+000	1.434871965704224E+002	-1.5583524E+000	-4.724346557366348E+002	7.3621964E-001	-1.5577607E+000	0
3.2729273E+000	1.436871965653700E+002	-1.5603522E+000	-4.767451457285276E+002	7.4389035E-001	-1.5597608E+000	0
3.2933028E+000	1.438871965603175E+002	-1.5624014E+000	-4.744177762245645E+002	7.4123102E-001	-1.5617609E+000	0
3.3220682E+000	1.440871965552651E+002	-1.5643415E+000	-4.708938741965067E+002	7.3663884E-001	-1.5637610E+000	0
3.3811250E+000	1.442871965502127E+002	-1.5663202E+000	-4.632541592569823E+002	7.2560436E-001	-1.5657609E+000	0
3.3179822E+000	1.444871965451603E+002	-1.5683787E+000	-4.726904947406306E+002	7.4135768E-001	-1.5677609E+000	0
3.3080988E+000	1.446871965401078E+002	-1.5703763E+000	-4.747065764965650E+002	7.4546796E-001	-1.5697608E+000	0
3.2093675E+000	1.448871965350554E+002	-1.5723982E+000	-4.899402055372711E+002	7.7038109E-001	-1.5717609E+000	0
3.1923029E+000	1.450871965300030E+002	-1.5743638E+000	-4.931749393047940E+002	7.7643681E-001	-1.5737610E+000	0
3.2085950E+000	1.452871965249506E+002	-1.5763578E+000	-4.912922441132214E+002	7.7445239E-001	-1.5757608E+000	0
3.2065578E+000	1.454871965198981E+002	-1.5784010E+000	-4.922415668288586E+002	7.7695459E-001	-1.5777607E+000	0
3.1227033E+000	1.456871965148457E+002	-1.5804272E+000	-5.061086384563482E+002	7.9986787E-001	-1.5797608E+000	0
3.0619981E+000	1.458871965097933E+002	-1.5824158E+000	-5.167918822273368E+002	8.1777966E-001	-1.5817609E+000	0
3.0697381E+000	1.460871965047409E+002	-1.5843627E+000	-5.161231082258848E+002	8.1772619E-001	-1.5837610E+000	0
3.0888407E+000	1.462871964996884E+002	-1.5863750E+000	-5.135826550049042E+002	8.1473470E-001	-1.5857608E+000	0
3.1025336E+000	1.464871964946360E+002	-1.5883561E+000	-5.119545191420975E+002	8.1316608E-001	-1.5877608E+000	0
3.0664864E+000	1.466871964895836E+002	-1.5904356E+000	-5.186508143029246E+002	8.2488072E-001	-1.5897608E+000	0
3.0970666E+000	1.468871964845312E+002	-1.5924071E+000	-5.141662432482444E+002	8.1876200E-001	-1.5917609E+000	0
3.0739434E+000	1.470871964794787E+002	-1.5943528E+000	-5.186669714791424E+002	8.2693815E-001	-1.5937610E+000	0
3.0445621E+000	1.472871964744263E+002	-1.5963993E+000	-5.243444830057555E+002	8.3706319E-001	-1.5957608E+000	0
3.0368562E+000	1.474871964693739E+002	-1.5984187E+000	-5.263399497570645E+002	8.4131163E-001	-1.5977608E+000	0
3.0346031E+000	1.476871964643215E+002	-1.6004007E+000	-5.273838495743241E+002	8.4402549E-001	-1.5997608E+000	0
3.0169542E+000	1.478871964592690E+002	-1.6024046E+000	-5.311332352393861E+002	8.5109031E-001	-1.6017609E+000	0
3.0721116E+000	1.480871964542166E+002	-1.6043539E+000	-5.222316356235092E+002	8.3784437E-001	-1.6037610E+000	0
3.0509281E+000	1.482871964491642E+002	-1.6064279E+000	-5.265374555695871E+002	8.4584445E-001	-1.6057608E+000	0
3.0133398E+000	1.484871964441118E+002	-1.6084179E+000	-5.337658542451400E+002	8.5851854E-001	-1.6077608E+000	0
3.0215273E+000	1.486871964390593E+002	-1.6103702E+000	-5.329656229430038E+002	8.5827196E-001	-1.6097609E+000	0
2.9548445E+000	1.488871964340069E+002	-1.6123927E+000	-5.456776633359932E+002	8.7984663E-001	-1.6117609E+000	0
2.9394045E+000	1.490871964289545E+002	-1.6144582E+000	-5.492467105069650E+002	8.8673586E-001	-1.6137609E+000	0
2.9716344E+000	1.492871964239021E+002	-1.6164385E+000	-5.439560429147050E+002	8.7927151E-001	-1.6157608E+000	0
2.9266665E+000	1.494871964188496E+002	-1.6184453E+000	-5.529995555445203E+002	8.9499950E-001	-1.6177609E+000	0
2.8895113E+000	1.496871964137972E+002	-1.6204536E+000	-5.608054154540923E+002	9.0875918E-001	-1.6197609E+000	0
2.8746531E+000	1.498871964087448E+002	-1.6224737E+000	-5.644067992861299E+002	9.1573519E-001	-1.6217608E+000	0
2.9049537E+000	1.500871964036924E+002	-1.6244276E+000	-5.591922521137030E+002	9.0836728E-001	-1.6237609E+000	0
2.9413919E+000	1.502871963986399E+002	-1.6264266E+000	-5.529445400367804E+002	8.9932370E-001	-1.6257609E+000	0
2.9578850E+000	1.504871963935875E+002	-1.6284785E+000	-5.505550466827249E+002	8.9656705E-001	-1.6277609E+000	0
2.9140775E+000	1.506871963885351E+002	-1.6304550E+000	-5.595098355351693E+002	9.1225564E-001	-1.6297609E+000	0
2.8874941E+000	1.508871963834827E+002	-1.6324474E+000	-5.653508775715363E+002	9.2290556E-001	-1.6317610E+000	0
2.8574069E+000	1.510871963784302E+002	-1.6344388E+000	-5.720007191266586E+002	9.3490016E-001	-1.6337608E+000	0
2.8554020E+000	1.512871963733778E+002	-1.6364291E+000	-5.730993479860608E+002	9.3783641E-001	-1.6357609E+000	0
2.8541489E+000	1.514571963690832E+002	-1.6381484E+000	-5.739533905950557E+002	9.4022083E-001	-1.6374607E+000	0
2.8674161E+000	1.515259963673452E+002	-1.6389470E+000	-5.715762745250358E+002	9.3678325E-001	-1.6382606E+000	1