EC-Lab ASCII FILE
Nb header lines : 61                          

Linear Sweep Voltammetry

Run on channel : 1 (SN 1340)
User : 
Electrode connection : standard
Potential control : Ewe
Ewe ctrl range : min = -5.00 V, max = 5.00 V
Ewe,I filtering : <None>
Channel : Grounded
Acquisition started on : 02/17/2026 14:51:42.772
Technique started on : 02/17/2026 14:51:45.453
Loaded Setting File :  NONE
Saved on :
	File : Pt40_2-17_02_LSV_C01.mpr
	Directory : C:\Users\volt\Documents\Platalytix\
	Host : 127.0.0.1
Device : SP-200 (SN 0262)
Address : USB
EC-LAB for windows v11.60 (software)
Internet server v11.60 (firmware)
Command interpretor v11.60 (firmware)
Electrode material : Pt40Pd20Ni20Co20
Initial state : 
Electrolyte : KOH (1M)
Comments : 
Cable : standard
Reference electrode : Hg/HgO (0.140 V)
Electrode surface area : 1.000 cm˛
Characteristic mass : 0.001 g
Equivalent Weight : 0.000 g/eq.
Density : 0.000 g/cm3
Volume (V) : 0.001 cmł
Cycle Definition : Charge/Discharge alternance
tR (h:m:s)          0:00:5.0000         
dER/dt (mV/h)       0.0                 
dER (mV)            0                   
dtR (s)             0.0000              
dE/dt               10.000              
dE/dt unit          mV/s                
Ei (V)              -0.200              
vs.                 Ref                 
EL (V)              -2.500              
vs.                 Ref                 
record              <I>                 
dI                  0.000               
unit dI             µA                  
tI (s)              0.0000              
step percent        50                  
N                   10                  
E range min (V)     -5.000              
E range max (V)     5.000               
I Range             Auto                
I Range min         Unset               
I Range max         Unset               
I Range init        Unset               
Bandwidth           8                   

Rwe/Ohm	time/s	Ewe/V	<I>/mA	Pwe/W	control/V	error	
0.0000000E+000	2.681400127330562E+000	-1.5507504E-001	0.000000000000000E+000	0.0000000E+000	0.0000000E+000	0
0.0000000E+000	7.681200001024990E+000	-2.3040188E-002	0.000000000000000E+000	0.0000000E+000	-1.9996549E-001	0
9.9032041E+003	7.881199995972565E+000	-2.0164044E-001	-2.036113208931062E-002	4.1056278E-006	-2.0186527E-001	0
1.6515789E+003	8.001199992941110E+000	-2.0283593E-001	-1.228133485291387E-001	2.4910960E-005	-2.0306532E-001	0
1.7467380E+003	8.211199987636064E+000	-2.0494324E-001	-1.173291179803440E-001	2.4045810E-005	-2.0516528E-001	0
1.9341569E+003	8.411199982583639E+000	-2.0694089E-001	-1.069928160034412E-001	2.2141188E-005	-2.0716521E-001	0
2.1003577E+003	8.611199977531214E+000	-2.0895490E-001	-9.948538931280926E-002	2.0787960E-005	-2.0916514E-001	0
2.2483564E+003	8.811199972478789E+000	-2.1096231E-001	-9.382956459075033E-002	1.9794501E-005	-2.1116504E-001	0
2.3802891E+003	9.011199967426364E+000	-2.1297523E-001	-8.947452540084844E-002	1.9055859E-005	-2.1316494E-001	0
2.5040789E+003	9.211199962373939E+000	-2.1499199E-001	-8.585671527530891E-002	1.8458506E-005	-2.1516484E-001	0
2.6160930E+003	9.411199957321514E+000	-2.1697544E-001	-8.293872987566403E-002	1.7995668E-005	-2.1716475E-001	0
2.7222188E+003	9.611199952269089E+000	-2.1897498E-001	-8.043988727829327E-002	1.7614322E-005	-2.1916465E-001	0
2.8221758E+003	9.811199947216664E+000	-2.2097050E-001	-7.829792187770912E-002	1.7301531E-005	-2.2116457E-001	0
2.9163193E+003	1.001119994216424E+001	-2.2298619E-001	-7.646151539519025E-002	1.7049862E-005	-2.2316448E-001	0
3.0068003E+003	1.021119993711181E+001	-2.2499318E-001	-7.482810909680326E-002	1.6835815E-005	-2.2516441E-001	0
3.0934824E+003	1.041119993205939E+001	-2.2695093E-001	-7.336421853486819E-002	1.6650078E-005	-2.2716431E-001	0
3.1797041E+003	1.061119992700696E+001	-2.2896495E-001	-7.200825947617727E-002	1.6487367E-005	-2.2916423E-001	0
3.2630718E+003	1.081119992195454E+001	-2.3097533E-001	-7.078462999626578E-002	1.6349502E-005	-2.3116413E-001	0
3.3446992E+003	1.101119991690211E+001	-2.3297787E-001	-6.965584803558467E-002	1.6228270E-005	-2.3316406E-001	0
3.4238914E+003	1.121119991184969E+001	-2.3500904E-001	-6.863799897896850E-002	1.6130551E-005	-2.3516396E-001	0
3.4990388E+003	1.141119990679726E+001	-2.3696829E-001	-6.772382582364661E-002	1.6048400E-005	-2.3716387E-001	0
3.5739585E+003	1.161119990174484E+001	-2.3897250E-001	-6.686493647950031E-002	1.5978881E-005	-2.3916379E-001	0
3.6500037E+003	1.181119989669241E+001	-2.4099544E-001	-6.602607923243098E-002	1.5911985E-005	-2.4116370E-001	0
3.7218242E+003	1.201119989163999E+001	-2.4293219E-001	-6.527234078437760E-002	1.5856753E-005	-2.4316360E-001	0
3.7924619E+003	1.221109988659009E+001	-2.4496169E-001	-6.459173432415743E-002	1.5822501E-005	-2.4516374E-001	0
3.8645913E+003	1.241099988154019E+001	-2.4695019E-001	-6.390072535850155E-002	1.5780297E-005	-2.4716343E-001	0
3.9312126E+003	1.261099987648777E+001	-2.4896419E-001	-6.333012662430959E-002	1.5766933E-005	-2.4916333E-001	0
4.0050342E+003	1.281099987143534E+001	-2.5097159E-001	-6.266403023751188E-002	1.5726891E-005	-2.5116324E-001	0
4.0735251E+003	1.301099986638292E+001	-2.5298771E-001	-6.210535134309203E-002	1.5711890E-005	-2.5316316E-001	0
4.1367690E+003	1.321099986133049E+001	-2.5494868E-001	-6.162990380528388E-002	1.5712463E-005	-2.5516307E-001	0
4.2043345E+003	1.341099985627807E+001	-2.5699577E-001	-6.112638357794442E-002	1.5709222E-005	-2.5716299E-001	0
4.2705264E+003	1.361099985122564E+001	-2.5897473E-001	-6.064234537287905E-002	1.5704834E-005	-2.5916287E-001	0
4.3356968E+003	1.381099984617322E+001	-2.6097918E-001	-6.019313414866234E-002	1.5709154E-005	-2.6116282E-001	0
4.3994370E+003	1.401099984112079E+001	-2.6298150E-001	-5.977617222298351E-002	1.5720028E-005	-2.6316273E-001	0
4.4631714E+003	1.421099983606837E+001	-2.6494563E-001	-5.936263475457293E-002	1.5727870E-005	-2.6516262E-001	0
4.5264736E+003	1.441099983101594E+001	-2.6695052E-001	-5.897538209082720E-002	1.5743508E-005	-2.6716253E-001	0
4.5895786E+003	1.461099982596352E+001	-2.6899296E-001	-5.860951273858339E-002	1.5765547E-005	-2.6916245E-001	0
4.6525122E+003	1.481099982091109E+001	-2.7095556E-001	-5.823855093614846E-002	1.5780059E-005	-2.7116236E-001	0
4.7109448E+003	1.501099981585867E+001	-2.7295047E-001	-5.793964581578864E-002	1.5814654E-005	-2.7316228E-001	0
4.7705273E+003	1.521099981080624E+001	-2.7496868E-001	-5.763905684520687E-002	1.5848935E-005	-2.7516219E-001	0
4.8328979E+003	1.541099980575382E+001	-2.7695087E-001	-5.730534390157793E-002	1.5870764E-005	-2.7716208E-001	0
4.8883252E+003	1.561099980070139E+001	-2.7895400E-001	-5.706535325788961E-002	1.5918609E-005	-2.7916199E-001	0
4.9475679E+003	1.581099979564897E+001	-2.8097224E-001	-5.678997407065467E-002	1.5956406E-005	-2.8116190E-001	0
5.0095117E+003	1.601099979059654E+001	-2.8295994E-001	-5.648453210590321E-002	1.5982860E-005	-2.8316182E-001	0
5.0679302E+003	1.621099978554412E+001	-2.8491536E-001	-5.621927708087493E-002	1.6017735E-005	-2.8516176E-001	0
5.1273740E+003	1.641099978049169E+001	-2.8694487E-001	-5.596332086140365E-002	1.6058388E-005	-2.8716165E-001	0
5.1788750E+003	1.661089977544179E+001	-2.8894013E-001	-5.579206763950814E-002	1.6120568E-005	-2.8916091E-001	0
5.2340288E+003	1.681089977038937E+001	-2.9096699E-001	-5.559139852958350E-002	1.6175261E-005	-2.9116237E-001	0
5.2918735E+003	1.701079976533947E+001	-2.9297453E-001	-5.536310198345151E-002	1.6219979E-005	-2.9316136E-001	0
5.3436265E+003	1.721079976028705E+001	-2.9495710E-001	-5.519792597736695E-002	1.6281021E-005	-2.9516131E-001	0
5.4023042E+003	1.741079975523462E+001	-2.9695603E-001	-5.496840081768961E-002	1.6323198E-005	-2.9716119E-001	0
5.4547129E+003	1.761079975018220E+001	-2.9895881E-001	-5.480743141247207E-002	1.6385164E-005	-2.9916111E-001	0
5.5088975E+003	1.781079974512977E+001	-3.0097088E-001	-5.463359479596022E-002	1.6443120E-005	-3.0116102E-001	0
5.5575161E+003	1.801079974007735E+001	-3.0296090E-001	-5.451372309372493E-002	1.6515527E-005	-3.0316094E-001	0
5.6101841E+003	1.821079973502492E+001	-3.0495280E-001	-5.435700308164040E-002	1.6576319E-005	-3.0516085E-001	0
5.6659424E+003	1.841079972997250E+001	-3.0697334E-001	-5.417869265018085E-002	1.6631415E-005	-3.0716076E-001	0
5.7143008E+003	1.861079972492007E+001	-3.0899879E-001	-5.407464713208754E-002	1.6709000E-005	-3.0916065E-001	0
5.7615234E+003	1.881079971986765E+001	-3.1093746E-001	-5.396792656676577E-002	1.6780650E-005	-3.1116056E-001	0
5.8123745E+003	1.901079971481522E+001	-3.1296995E-001	-5.384545636209181E-002	1.6852009E-005	-3.1316051E-001	0
5.8548896E+003	1.921079970976280E+001	-3.1498584E-001	-5.379876608658329E-002	1.6945849E-005	-3.1516039E-001	0
5.9096582E+003	1.941079970471037E+001	-3.1696761E-001	-5.363552241434083E-002	1.7000722E-005	-3.1716031E-001	0
5.9556909E+003	1.961079969965795E+001	-3.1897011E-001	-5.355719858812195E-002	1.7083146E-005	-3.1916025E-001	0
6.0029614E+003	1.981079969460552E+001	-3.2097054E-001	-5.346869717007849E-002	1.7161876E-005	-3.2116011E-001	0
6.0482554E+003	2.001079968955310E+001	-3.2298219E-001	-5.340088387928055E-002	1.7247534E-005	-3.2316005E-001	0
6.0949492E+003	2.021079968450067E+001	-3.2498002E-001	-5.331955971449709E-002	1.7327791E-005	-3.2515994E-001	0
6.1394180E+003	2.041079967944825E+001	-3.2699230E-001	-5.326112624904011E-002	1.7415978E-005	-3.2715988E-001	0
6.1812104E+003	2.061079967439582E+001	-3.2895032E-001	-5.321778178103109E-002	1.7506007E-005	-3.2915977E-001	0
6.2269624E+003	2.081079966934340E+001	-3.3094943E-001	-5.314781337864560E-002	1.7589238E-005	-3.3115968E-001	0
6.2614067E+003	2.101079966429097E+001	-3.3291185E-001	-5.316885866915327E-002	1.7700542E-005	-3.3315960E-001	0
6.3072739E+003	2.121069965924107E+001	-3.3496305E-001	-5.310741946950082E-002	1.7789023E-005	-3.3515996E-001	0
6.3490049E+003	2.141059965419117E+001	-3.3697042E-001	-5.307452530809198E-002	1.7884546E-005	-3.3715943E-001	0
6.3914868E+003	2.161059964913875E+001	-3.3893389E-001	-5.302895953595776E-002	1.7973311E-005	-3.3915934E-001	0
6.4297456E+003	2.181059964408632E+001	-3.4093601E-001	-5.302480460976633E-002	1.8078064E-005	-3.4115922E-001	0
6.4689746E+003	2.201059963903390E+001	-3.4296358E-001	-5.301668317809005E-002	1.8182791E-005	-3.4315914E-001	0
6.5031309E+003	2.221059963398147E+001	-3.4499222E-001	-5.305017451037664E-002	1.8301898E-005	-3.4515905E-001	0
6.5412217E+003	2.241059962892905E+001	-3.4696653E-001	-5.304307983649703E-002	1.8404173E-005	-3.4715897E-001	0
6.5756943E+003	2.261059962387662E+001	-3.4900874E-001	-5.307557229681215E-002	1.8523839E-005	-3.4915891E-001	0
6.6149072E+003	2.281059961882420E+001	-3.5095677E-001	-5.305543285741776E-002	1.8620163E-005	-3.5115880E-001	0
6.6442866E+003	2.301059961377177E+001	-3.5299239E-001	-5.312720541219285E-002	1.8753499E-005	-3.5315871E-001	0
6.6833467E+003	2.321059960871935E+001	-3.5498282E-001	-5.311453223118656E-002	1.8854747E-005	-3.5515863E-001	0
6.7104072E+003	2.341059960366692E+001	-3.5699576E-001	-5.320031433144501E-002	1.8992287E-005	-3.5715854E-001	0
6.7495898E+003	2.361059959861450E+001	-3.5897538E-001	-5.318476767606528E-002	1.9092022E-005	-3.5915843E-001	0
6.7844194E+003	2.381059959356207E+001	-3.6095646E-001	-5.320373485382202E-002	1.9204232E-005	-3.6115837E-001	0
6.8122827E+003	2.401059958850965E+001	-3.6298659E-001	-5.328413563761486E-002	1.9341427E-005	-3.6315826E-001	0
6.8443838E+003	2.421059958345722E+001	-3.6494797E-001	-5.332079385101052E-002	1.9459316E-005	-3.6515817E-001	0
6.8735850E+003	2.441059957840480E+001	-3.6695391E-001	-5.338610377207015E-002	1.9590239E-005	-3.6715811E-001	0
6.8986221E+003	2.461059957335237E+001	-3.6895540E-001	-5.348247852410859E-002	1.9732650E-005	-3.6915800E-001	0
6.9317236E+003	2.481059956829995E+001	-3.7094387E-001	-5.351394273725074E-002	1.9850670E-005	-3.7115791E-001	0
6.9603716E+003	2.501059956324752E+001	-3.7296170E-001	-5.358358897963567E-002	1.9984627E-005	-3.7315786E-001	0
6.9832646E+003	2.521059955819510E+001	-3.7496698E-001	-5.369508189525107E-002	2.0133883E-005	-3.7515771E-001	0
7.0079536E+003	2.541059955314267E+001	-3.7699482E-001	-5.379527782685511E-002	2.0280540E-005	-3.7715766E-001	0
7.0339482E+003	2.561049954809278E+001	-3.7898609E-001	-5.387956789978765E-002	2.0419608E-005	-3.7915689E-001	0
7.0620239E+003	2.581039954304288E+001	-3.8090965E-001	-5.393774590566913E-002	2.0545407E-005	-3.8115746E-001	0
7.0775688E+003	2.601039953799045E+001	-3.8296038E-001	-5.410902759497405E-002	2.0721614E-005	-3.8315737E-001	0
7.1059653E+003	2.621039953293803E+001	-3.8496611E-001	-5.417506215415990E-002	2.0855563E-005	-3.8515726E-001	0
7.1260640E+003	2.641039952788560E+001	-3.8695356E-001	-5.430116185595341E-002	2.1012029E-005	-3.8715720E-001	0
7.1519326E+003	2.661039952283318E+001	-3.8895714E-001	-5.438490027283016E-002	2.1153395E-005	-3.8915712E-001	0
7.1752222E+003	2.681039951778075E+001	-3.9095840E-001	-5.448728982969486E-002	2.1302263E-005	-3.9115700E-001	0
7.1941040E+003	2.701039951272833E+001	-3.9295077E-001	-5.462122503393563E-002	2.1463453E-005	-3.9315692E-001	0
7.2131841E+003	2.721039950767590E+001	-3.9496160E-001	-5.475551459110473E-002	2.1626325E-005	-3.9515686E-001	0
7.2402627E+003	2.741039950262348E+001	-3.9694118E-001	-5.482414224482834E-002	2.1761960E-005	-3.9715675E-001	0
7.2604565E+003	2.761039949757105E+001	-3.9895478E-001	-5.494899197445668E-002	2.1922164E-005	-3.9915669E-001	0
7.2659395E+003	2.781039949251863E+001	-4.0093035E-001	-5.517942416999083E-002	2.2123106E-005	-4.0115660E-001	0
7.2898203E+003	2.801039948746620E+001	-4.0295491E-001	-5.527638265960203E-002	2.2273889E-005	-4.0315649E-001	0
7.3092622E+003	2.821039948241378E+001	-4.0493694E-001	-5.540052086723116E-002	2.2433718E-005	-4.0515640E-001	0
7.3306045E+003	2.841039947736135E+001	-4.0697742E-001	-5.551757819553527E-002	2.2594400E-005	-4.0715629E-001	0
7.3489849E+003	2.861039947230893E+001	-4.0897337E-001	-5.565032060997244E-002	2.2759499E-005	-4.0915623E-001	0
7.3593247E+003	2.881039946725650E+001	-4.1098231E-001	-5.584511017825999E-002	2.2951352E-005	-4.1115615E-001	0
7.3766509E+003	2.901039946220408E+001	-4.1305289E-001	-5.599463558935325E-002	2.3128747E-005	-4.1315603E-001	0
7.3935547E+003	2.921039945715165E+001	-4.1498861E-001	-5.612842889941894E-002	2.3292658E-005	-4.1515595E-001	0
7.4235366E+003	2.941039945209923E+001	-4.1701660E-001	-5.617492116170431E-002	2.3425875E-005	-4.1715589E-001	0
7.4331919E+003	2.961039944704680E+001	-4.1899511E-001	-5.636812727095877E-002	2.3617969E-005	-4.1915575E-001	0
7.4552168E+003	2.981039944199438E+001	-4.2102039E-001	-5.647325863725919E-002	2.3776392E-005	-4.2115569E-001	0
7.4628013E+003	3.001039943694195E+001	-4.2298514E-001	-5.667913737632918E-002	2.3974433E-005	-4.2315555E-001	0
7.4848711E+003	3.021029943189205E+001	-4.2500764E-001	-5.678222518089049E-002	2.4132880E-005	-4.2515573E-001	0
7.5074253E+003	3.041019942684215E+001	-4.2700064E-001	-5.687710868517826E-002	2.4286563E-005	-4.2715541E-001	0
7.5273003E+003	3.061019942178973E+001	-4.2898303E-001	-5.699029216878632E-002	2.4447869E-005	-4.2915535E-001	0
7.5363760E+003	3.081019941673731E+001	-4.3098152E-001	-5.718683793902177E-002	2.4646470E-005	-4.3115523E-001	0
7.5548306E+003	3.101019941168488E+001	-4.3300933E-001	-5.731555797917806E-002	2.4818171E-005	-4.3315518E-001	0
7.5735366E+003	3.121019940663246E+001	-4.3502459E-001	-5.744008433660858E-002	2.4987849E-005	-4.3515503E-001	0
7.5933589E+003	3.141019940158003E+001	-4.3699548E-001	-5.754969361166384E-002	2.5148956E-005	-4.3715495E-001	0
7.6088926E+003	3.161019939652761E+001	-4.3900949E-001	-5.769689548169321E-002	2.5329484E-005	-4.3915489E-001	0
7.6321255E+003	3.181019939147518E+001	-4.4100735E-001	-5.778303256632167E-002	2.5482741E-005	-4.4115478E-001	0
7.6464912E+003	3.201019938642276E+001	-4.4306415E-001	-5.794345786321953E-002	2.5672669E-005	-4.4315472E-001	0
7.6724478E+003	3.221019938137033E+001	-4.4503620E-001	-5.800446258253866E-002	2.5814086E-005	-4.4515461E-001	0
7.6919199E+003	3.241019937631791E+001	-4.4702870E-001	-5.811666193589282E-002	2.5979816E-005	-4.4715452E-001	0
7.7108945E+003	3.261019937126548E+001	-4.4900513E-001	-5.822996604847652E-002	2.6145553E-005	-4.4915444E-001	0
7.7368989E+003	3.281019936621306E+001	-4.5103276E-001	-5.829632404427187E-002	2.6293552E-005	-4.5115438E-001	0
7.7612461E+003	3.301019936116063E+001	-4.5299497E-001	-5.836626758815844E-002	2.6439626E-005	-4.5315424E-001	0
7.7880493E+003	3.321019935610821E+001	-4.5498139E-001	-5.842045560857190E-002	2.6580219E-005	-4.5515418E-001	0
7.8109634E+003	3.341019935105578E+001	-4.5698583E-001	-5.850569292472119E-002	2.6736272E-005	-4.5715404E-001	0
7.8281553E+003	3.361019934600336E+001	-4.5899513E-001	-5.863388135127523E-002	2.6912667E-005	-4.5915404E-001	0
7.8554893E+003	3.381019934095093E+001	-4.6097243E-001	-5.868156854371587E-002	2.7050584E-005	-4.6115389E-001	0
7.8832427E+003	3.401019933589851E+001	-4.6294141E-001	-5.872474540217160E-002	2.7186117E-005	-4.6315387E-001	0
7.9178701E+003	3.421019933084608E+001	-4.6496665E-001	-5.872370448605468E-002	2.7304564E-005	-4.6515372E-001	0
7.9478765E+003	3.441019932579366E+001	-4.6696323E-001	-5.875320784544857E-002	2.7435588E-005	-4.6715367E-001	0
7.9732617E+003	3.461009932074376E+001	-4.6900436E-001	-5.882214549301679E-002	2.7587843E-005	-4.6915287E-001	0
8.0007656E+003	3.480999931569386E+001	-4.7102049E-001	-5.887192530375865E-002	2.7729882E-005	-4.7115347E-001	0
8.0433960E+003	3.500999931064143E+001	-4.7299317E-001	-5.880515601711911E-002	2.7814436E-005	-4.7315338E-001	0
8.0701875E+003	3.520999930558901E+001	-4.7498462E-001	-5.885670173336743E-002	2.7956028E-005	-4.7515327E-001	0
8.1045293E+003	3.540999930053658E+001	-4.7695553E-001	-5.885049090097705E-002	2.8069067E-005	-4.7715321E-001	0
8.1269395E+003	3.560999929548416E+001	-4.7895131E-001	-5.893378552469652E-002	2.8226414E-005	-4.7915310E-001	0
8.1636079E+003	3.580999929043173E+001	-4.8095658E-001	-5.891470727299553E-002	2.8335417E-005	-4.8115304E-001	0
8.1994473E+003	3.600999928537931E+001	-4.8297292E-001	-5.890310676969057E-002	2.8448605E-005	-4.8315290E-001	0
8.2384414E+003	3.620999928032688E+001	-4.8500112E-001	-5.887049185893467E-002	2.8552255E-005	-4.8515287E-001	0
8.2861533E+003	3.640999927527446E+001	-4.8698157E-001	-5.877052487218415E-002	2.8620163E-005	-4.8715273E-001	0
8.3328281E+003	3.660999927022203E+001	-4.8900467E-001	-5.868411569406284E-002	2.8696806E-005	-4.8915267E-001	0
8.3803145E+003	3.680999926516961E+001	-4.9100807E-001	-5.859064863141539E-002	2.8768482E-005	-4.9115252E-001	0
8.4338643E+003	3.700999926011718E+001	-4.9301144E-001	-5.845617404463122E-002	2.8819562E-005	-4.9315253E-001	0
8.4797764E+003	3.720999925506476E+001	-4.9503353E-001	-5.837813390592050E-002	2.8899134E-005	-4.9515238E-001	0
8.5346631E+003	3.740999925001233E+001	-4.9699616E-001	-5.823266260482207E-002	2.8941409E-005	-4.9715233E-001	0
8.5953330E+003	3.760999924495991E+001	-4.9904874E-001	-5.806043179908471E-002	2.8974986E-005	-4.9915221E-001	0
8.6409844E+003	3.780999923990748E+001	-5.0099063E-001	-5.797842252353347E-002	2.9046647E-005	-5.0115216E-001	0
8.7048145E+003	3.800999923485506E+001	-5.0302392E-001	-5.778686144144241E-002	2.9068173E-005	-5.0315201E-001	0
8.7566611E+003	3.820999922980263E+001	-5.0501943E-001	-5.767260412812286E-002	2.9125786E-005	-5.0515199E-001	0
8.8217080E+003	3.840999922475021E+001	-5.0700927E-001	-5.747291410200353E-002	2.9139301E-005	-5.0715190E-001	0
8.8788096E+003	3.860999921969778E+001	-5.0897807E-001	-5.732503336275618E-002	2.9177185E-005	-5.0915182E-001	0
8.9295488E+003	3.880999921464536E+001	-5.1097953E-001	-5.722344377027438E-002	2.9240009E-005	-5.1115167E-001	0
8.9989023E+003	3.900999920959293E+001	-5.1300305E-001	-5.700729160660423E-002	2.9244915E-005	-5.1315153E-001	0
9.0423076E+003	3.920989920454304E+001	-5.1497334E-001	-5.695153954643961E-002	2.9328525E-005	-5.1515150E-001	0
9.1116104E+003	3.940979919949314E+001	-5.1697290E-001	-5.673781968811609E-002	2.9331915E-005	-5.1715142E-001	0
9.1721123E+003	3.960979919444071E+001	-5.1898247E-001	-5.658265808333196E-002	2.9365408E-005	-5.1915133E-001	0
9.2303213E+003	3.980979918938829E+001	-5.2096415E-001	-5.644051983525911E-002	2.9403487E-005	-5.2115119E-001	0
9.3112549E+003	4.000979918433586E+001	-5.2298647E-001	-5.616713350357877E-002	2.9374651E-005	-5.2315116E-001	0
9.3920303E+003	4.020979917928344E+001	-5.2495933E-001	-5.589412859389709E-002	2.9342144E-005	-5.2515101E-001	0
9.4469893E+003	4.040979917423101E+001	-5.2699786E-001	-5.578474121225274E-002	2.9398439E-005	-5.2715099E-001	0
9.5116455E+003	4.060979916917859E+001	-5.2901214E-001	-5.561731197098352E-002	2.9422234E-005	-5.2915084E-001	0
9.5881973E+003	4.080979916412616E+001	-5.3094190E-001	-5.537453019735994E-002	2.9400659E-005	-5.3115076E-001	0
9.6637881E+003	4.100979915907374E+001	-5.3298682E-001	-5.515299203738033E-002	2.9395818E-005	-5.3315067E-001	0
9.7393916E+003	4.120979915402131E+001	-5.3501207E-001	-5.493279993365130E-002	2.9389710E-005	-5.3515065E-001	0
9.8157412E+003	4.140979914896889E+001	-5.3698909E-001	-5.470693087714226E-002	2.9377024E-005	-5.3715056E-001	0
9.8931963E+003	4.160979914391646E+001	-5.3906316E-001	-5.448826955886932E-002	2.9372619E-005	-5.3915048E-001	0
9.9636465E+003	4.180979913886404E+001	-5.4101926E-001	-5.429932329636844E-002	2.9376979E-005	-5.4115039E-001	0
1.0033876E+004	4.200979913381161E+001	-5.4301941E-001	-5.411860742131035E-002	2.9387455E-005	-5.4315031E-001	0
1.0119022E+004	4.220979912875919E+001	-5.4498869E-001	-5.385783940549438E-002	2.9351913E-005	-5.4515016E-001	0
1.0187960E+004	4.240979912370676E+001	-5.4701418E-001	-5.369221650342770E-002	2.9370403E-005	-5.4715008E-001	0
1.0259750E+004	4.260979911865434E+001	-5.4900563E-001	-5.351062620147351E-002	2.9377636E-005	-5.4914999E-001	0
1.0349301E+004	4.280979911360191E+001	-5.5101705E-001	-5.324196005757481E-002	2.9337227E-005	-5.5114990E-001	0
1.0432743E+004	4.300979910854949E+001	-5.5302656E-001	-5.300873823732116E-002	2.9315241E-005	-5.5314982E-001	0
1.0507603E+004	4.320979910349706E+001	-5.5501348E-001	-5.282018425433049E-002	2.9315914E-005	-5.5514967E-001	0
1.0586470E+004	4.340979909844464E+001	-5.5698264E-001	-5.261268665805008E-002	2.9304352E-005	-5.5714965E-001	0
1.0677728E+004	4.360969909339474E+001	-5.5898458E-001	-5.235052120504487E-002	2.9263134E-005	-5.5914891E-001	0
1.0761686E+004	4.380959908834484E+001	-5.6097525E-001	-5.212707990567145E-002	2.9242003E-005	-5.6114948E-001	0
1.0853739E+004	4.400959908329241E+001	-5.6300408E-001	-5.187190098734451E-002	2.9204091E-005	-5.6314933E-001	0
1.0934020E+004	4.420959907823999E+001	-5.6501013E-001	-5.167451365206743E-002	2.9196624E-005	-5.6514931E-001	0
1.1005704E+004	4.440959907318756E+001	-5.6699538E-001	-5.151831771325216E-002	2.9210649E-005	-5.6714916E-001	0
1.1086882E+004	4.460959906813514E+001	-5.6899279E-001	-5.132126481306085E-002	2.9201430E-005	-5.6914914E-001	0
1.1183194E+004	4.480959906308271E+001	-5.7097942E-001	-5.105691558370973E-002	2.9152448E-005	-5.7114905E-001	0
1.1270335E+004	4.500959905803029E+001	-5.7301414E-001	-5.084269002762087E-002	2.9133580E-005	-5.7314891E-001	0
1.1351011E+004	4.520959905297786E+001	-5.7497853E-001	-5.065438998261240E-002	2.9125187E-005	-5.7514888E-001	0
1.1450923E+004	4.540959904792544E+001	-5.7700181E-001	-5.038910881350100E-002	2.9074607E-005	-5.7714874E-001	0
1.1535920E+004	4.560959904287301E+001	-5.7898104E-001	-5.018941432294644E-002	2.9058720E-005	-5.7914865E-001	0
1.1626757E+004	4.580959903782059E+001	-5.8098525E-001	-4.996967289486975E-002	2.9031642E-005	-5.8114851E-001	0
1.1708735E+004	4.600959903276816E+001	-5.8300096E-001	-4.979196505076211E-002	2.9028763E-005	-5.8314848E-001	0
1.1809284E+004	4.620959902771574E+001	-5.8496618E-001	-4.953443159691384E-002	2.8975968E-005	-5.8514839E-001	0
1.1889396E+004	4.640959902266331E+001	-5.8697569E-001	-4.936968033622269E-002	2.8978802E-005	-5.8714831E-001	0
1.1983285E+004	4.660959901761089E+001	-5.8899438E-001	-4.915132816688750E-002	2.8949857E-005	-5.8914816E-001	0
1.2066257E+004	4.680959901255846E+001	-5.9096879E-001	-4.897697621327117E-002	2.8943865E-005	-5.9114814E-001	0
1.2148578E+004	4.700959900750604E+001	-5.9297860E-001	-4.881053630530841E-002	2.8943603E-005	-5.9314799E-001	0
1.2247090E+004	4.720959900245362E+001	-5.9500253E-001	-4.858317800671852E-002	2.8907114E-005	-5.9514797E-001	0
1.2331712E+004	4.740959899740119E+001	-5.9698111E-001	-4.841023950616852E-002	2.8899998E-005	-5.9714782E-001	0
1.2410738E+004	4.760959899234877E+001	-5.9892720E-001	-4.825879086538620E-002	2.8903503E-005	-5.9914780E-001	0
1.2494207E+004	4.780959898729634E+001	-6.0099322E-001	-4.810174871362793E-002	2.8908824E-005	-6.0114765E-001	0
1.2584544E+004	4.800959898224392E+001	-6.0298169E-001	-4.791446429330970E-002	2.8891545E-005	-6.0314757E-001	0
1.2661041E+004	4.820949897719402E+001	-6.0500509E-001	-4.778478076472492E-002	2.8910035E-005	-6.0514796E-001	0
1.2748006E+004	4.840939897214412E+001	-6.0698766E-001	-4.761432264081489E-002	2.8901306E-005	-6.0714740E-001	0
1.2835726E+004	4.860939896709169E+001	-6.0900122E-001	-4.744579657186847E-002	2.8894548E-005	-6.0914731E-001	0
1.2892146E+004	4.880939896203927E+001	-6.1100775E-001	-4.739379647394837E-002	2.8957977E-005	-6.1114722E-001	0
1.2996000E+004	4.900939895698684E+001	-6.1296445E-001	-4.716562374881439E-002	2.8910850E-005	-6.1314714E-001	0
1.3073637E+004	4.920939895193442E+001	-6.1496657E-001	-4.703867551659469E-002	2.8927214E-005	-6.1514699E-001	0
1.3134784E+004	4.940939894688199E+001	-6.1697143E-001	-4.697233100227449E-002	2.8980587E-005	-6.1714697E-001	0
1.3222794E+004	4.960939894182957E+001	-6.1901617E-001	-4.681432478144665E-002	2.8978824E-005	-6.1914688E-001	0
1.3275162E+004	4.980939893677714E+001	-6.2102908E-001	-4.678128019942496E-002	2.9052535E-005	-6.2114680E-001	0
1.3379412E+004	5.000939893172472E+001	-6.2302905E-001	-4.656625153019565E-002	2.9012128E-005	-6.2314665E-001	0
1.3432456E+004	5.020939892667229E+001	-6.2500656E-001	-4.652958063465751E-002	2.9081293E-005	-6.2514663E-001	0
1.3513914E+004	5.040939892161987E+001	-6.2701893E-001	-4.639802653423797E-002	2.9092442E-005	-6.2714648E-001	0
1.3592560E+004	5.060939891656744E+001	-6.2899804E-001	-4.627517426609296E-002	2.9106994E-005	-6.2914652E-001	0
1.3660421E+004	5.080939891151502E+001	-6.3102478E-001	-4.619365444015133E-002	2.9149340E-005	-6.3114631E-001	0
1.3738655E+004	5.100939890646259E+001	-6.3303220E-001	-4.607672373660743E-002	2.9168050E-005	-6.3314629E-001	0
1.3805816E+004	5.120939890141017E+001	-6.3500190E-001	-4.599524331421642E-002	2.9207067E-005	-6.3514614E-001	0
1.3855641E+004	5.140939889635774E+001	-6.3700289E-001	-4.597426493216067E-002	2.9285740E-005	-6.3714606E-001	0
1.3927106E+004	5.160939889130532E+001	-6.3898551E-001	-4.588070740873651E-002	2.9317107E-005	-6.3914603E-001	0
1.4024186E+004	5.180939888625289E+001	-6.4097726E-001	-4.570513413247557E-002	2.9295952E-005	-6.4114588E-001	0
1.4086249E+004	5.200939888120047E+001	-6.4302623E-001	-4.564921785823883E-002	2.9353645E-005	-6.4314580E-001	0
1.4146719E+004	5.220939887614804E+001	-6.4500731E-001	-4.559412816050523E-002	2.9408546E-005	-6.4514577E-001	0
1.4215979E+004	5.240939887109562E+001	-6.4702457E-001	-4.551389781745527E-002	2.9448611E-005	-6.4714563E-001	0
1.4271604E+004	5.260929886604572E+001	-6.4901006E-001	-4.547561941291400E-002	2.9514134E-005	-6.4914536E-001	0
1.4357252E+004	5.280919886099582E+001	-6.5098691E-001	-4.534202588821357E-002	2.9517065E-005	-6.5114546E-001	0
1.4388432E+004	5.300919885594340E+001	-6.5299475E-001	-4.538331568122848E-002	2.9635066E-005	-6.5314537E-001	0
1.4454329E+004	5.320919885089097E+001	-6.5499771E-001	-4.531498454313709E-002	2.9681210E-005	-6.5514529E-001	0
1.4525277E+004	5.340919884583855E+001	-6.5702158E-001	-4.523298135470762E-002	2.9719045E-005	-6.5714514E-001	0
1.4596485E+004	5.360919884078612E+001	-6.5898299E-001	-4.514669090516832E-002	2.9750901E-005	-6.5914512E-001	0
1.4647446E+004	5.380919883573370E+001	-6.6100639E-001	-4.512775550562642E-002	2.9829735E-005	-6.6114497E-001	0
1.4696998E+004	5.400919883068127E+001	-6.6302884E-001	-4.511321441728688E-002	2.9911362E-005	-6.6314495E-001	0
1.4762823E+004	5.420919882562885E+001	-6.6499299E-001	-4.504510918616322E-002	2.9954681E-005	-6.6514480E-001	0
1.4815652E+004	5.440919882057642E+001	-6.6699076E-001	-4.501933038425854E-002	3.0027477E-005	-6.6714478E-001	0
1.4863866E+004	5.460919881552400E+001	-6.6899592E-001	-4.500820251237703E-002	3.0110305E-005	-6.6914463E-001	0
1.4939845E+004	5.480919881047157E+001	-6.7097151E-001	-4.491154452265278E-002	3.0134366E-005	-6.7114455E-001	0
1.4989420E+004	5.500919880541915E+001	-6.7295599E-001	-4.489539817525756E-002	3.0212626E-005	-6.7314446E-001	0
1.5031907E+004	5.520919880036672E+001	-6.7499739E-001	-4.490430871433393E-002	3.0310292E-005	-6.7514437E-001	0
1.5082840E+004	5.540919879531430E+001	-6.7694837E-001	-4.488202444749689E-002	3.0382813E-005	-6.7714429E-001	0
1.5126207E+004	5.560919879026187E+001	-6.7897034E-001	-4.488701880444879E-002	3.0476955E-005	-6.7914420E-001	0
1.5181240E+004	5.580919878520945E+001	-6.8095237E-001	-4.485485807183698E-002	3.0544023E-005	-6.8114412E-001	0
1.5213256E+004	5.600919878015702E+001	-6.8296182E-001	-4.489254739712045E-002	3.0659896E-005	-6.8314403E-001	0
1.5273941E+004	5.620919877510460E+001	-6.8498886E-001	-4.484689470550585E-002	3.0719624E-005	-6.8514395E-001	0
1.5324679E+004	5.640919877005217E+001	-6.8697780E-001	-4.482820383621511E-002	3.0795982E-005	-6.8714386E-001	0
1.5362071E+004	5.660919876499975E+001	-6.8898052E-001	-4.484945606432922E-002	3.0900403E-005	-6.8914378E-001	0
1.5422140E+004	5.680919875994732E+001	-6.9099432E-001	-4.480534635828448E-002	3.0960240E-005	-6.9114363E-001	0
1.5463647E+004	5.700909875489742E+001	-6.9297701E-001	-4.481329570811166E-002	3.1054584E-005	-6.9314277E-001	0
1.5506238E+004	5.720909874984500E+001	-6.9500428E-001	-4.482094830796390E-002	3.1150750E-005	-6.9514436E-001	0
1.5577088E+004	5.740899874479510E+001	-6.9701040E-001	-4.474587183600898E-002	3.1188338E-005	-6.9714344E-001	0
1.5597824E+004	5.760899873974267E+001	-6.9897562E-001	-4.481237986422815E-002	3.1322761E-005	-6.9914335E-001	0
1.5644660E+004	5.780899873469025E+001	-7.0102096E-001	-4.480895917290328E-002	3.1412019E-005	-7.0114326E-001	0
1.5689208E+004	5.800899872963782E+001	-7.0300764E-001	-4.480835829007232E-002	3.1500618E-005	-7.0314312E-001	0
1.5713946E+004	5.820899872458540E+001	-7.0501131E-001	-4.486532642056251E-002	3.1630563E-005	-7.0514303E-001	0
1.5778646E+004	5.840899871953297E+001	-7.0700693E-001	-4.480783343014166E-002	3.1679450E-005	-7.0714295E-001	0
1.5790936E+004	5.860899871448055E+001	-7.0899159E-001	-4.489864292844969E-002	3.1832758E-005	-7.0914292E-001	0
1.5859342E+004	5.880899870942812E+001	-7.1099591E-001	-4.483136352570827E-002	3.1874915E-005	-7.1114284E-001	0
1.5884797E+004	5.900899870437570E+001	-7.1292627E-001	-4.488104517764863E-002	3.1996875E-005	-7.1314275E-001	0
1.5922912E+004	5.920899869932327E+001	-7.1495897E-001	-4.490126943656048E-002	3.2102565E-005	-7.1514261E-001	0
1.5940436E+004	5.940899869427085E+001	-7.1698105E-001	-4.497876160729541E-002	3.2248921E-005	-7.1714252E-001	0
1.5994636E+004	5.960899868921842E+001	-7.1897805E-001	-4.495119959165605E-002	3.2318927E-005	-7.1914244E-001	0
1.6032141E+004	5.980899868416600E+001	-7.2099876E-001	-4.497208226659044E-002	3.2424814E-005	-7.2114235E-001	0
1.6076837E+004	6.000899867911357E+001	-7.2294825E-001	-4.496831329969164E-002	3.2509764E-005	-7.2314233E-001	0
1.6074379E+004	6.020899867406115E+001	-7.2494423E-001	-4.509936098263800E-002	3.2694523E-005	-7.2514212E-001	0
1.6117785E+004	6.040899866900872E+001	-7.2695190E-001	-4.510246796819628E-002	3.2787324E-005	-7.2714216E-001	0
1.6130123E+004	6.060899866395630E+001	-7.2898024E-001	-4.519371845407849E-002	3.2945329E-005	-7.2914195E-001	0
1.6161335E+004	6.080899865890387E+001	-7.3098326E-001	-4.523037592225743E-002	3.3062646E-005	-7.3114192E-001	0
1.6205602E+004	6.100899865385145E+001	-7.3298049E-001	-4.523007023568493E-002	3.3152759E-005	-7.3314172E-001	0
1.6212628E+004	6.120899864879902E+001	-7.3497385E-001	-4.533341972636745E-002	3.3318876E-005	-7.3514175E-001	0
1.6278338E+004	6.140899864374660E+001	-7.3698658E-001	-4.527406857080785E-002	3.3366381E-005	-7.3714161E-001	0
1.6267661E+004	6.160889863869670E+001	-7.3896855E-001	-4.542561834047565E-002	3.3568103E-005	-7.3914152E-001	0
1.6290801E+004	6.180879863364680E+001	-7.4097174E-001	-4.548405771552366E-002	3.3702403E-005	-7.4114144E-001	0
1.6313162E+004	6.200879862859438E+001	-7.4297720E-001	-4.554464548478809E-002	3.3838634E-005	-7.4314141E-001	0
1.6333061E+004	6.220879862354195E+001	-7.4498737E-001	-4.561223215587185E-002	3.3980537E-005	-7.4514133E-001	0
1.6373416E+004	6.240879861848953E+001	-7.4702215E-001	-4.562408546151586E-002	3.4082201E-005	-7.4714112E-001	0
1.6398855E+004	6.260879861343710E+001	-7.4899608E-001	-4.567368262391441E-002	3.4209410E-005	-7.4914110E-001	0
1.6415404E+004	6.280879860838468E+001	-7.5099796E-001	-4.574958438026278E-002	3.4357843E-005	-7.5114101E-001	0
1.6403299E+004	6.300879860333225E+001	-7.5301021E-001	-4.590602439317149E-002	3.4567704E-005	-7.5314093E-001	0
1.6455770E+004	6.320879859827983E+001	-7.5500363E-001	-4.588078525864503E-002	3.4640161E-005	-7.5514084E-001	0
1.6404459E+004	6.340879859322740E+001	-7.5703633E-001	-4.614820508333861E-002	3.4935867E-005	-7.5714082E-001	0
1.6390514E+004	6.360879858817498E+001	-7.5899899E-001	-4.630721366965326E-002	3.5147128E-005	-7.5914061E-001	0
1.6404576E+004	6.380879858312255E+001	-7.6104039E-001	-4.639195837423671E-002	3.5306155E-005	-7.6114064E-001	0
1.6417594E+004	6.400879857807013E+001	-7.6298875E-001	-4.647384886128320E-002	3.5459023E-005	-7.6314044E-001	0
1.6417811E+004	6.420879857301770E+001	-7.6498240E-001	-4.659466856885747E-002	3.5644101E-005	-7.6514041E-001	0
1.6414125E+004	6.440879856796528E+001	-7.6699388E-001	-4.672767401328670E-002	3.5839839E-005	-7.6714027E-001	0
1.6390006E+004	6.460879856291285E+001	-7.6900381E-001	-4.691906871834828E-002	3.6080943E-005	-7.6914024E-001	0
1.6430156E+004	6.480879855786043E+001	-7.7099973E-001	-4.692589337837227E-002	3.6179852E-005	-7.7114010E-001	0
1.6389248E+004	6.500879855280800E+001	-7.7299780E-001	-4.716493179382811E-002	3.6458387E-005	-7.7314001E-001	0
1.6332839E+004	6.520879854775558E+001	-7.7496970E-001	-4.744856187396918E-002	3.6771198E-005	-7.7513993E-001	0
1.6315563E+004	6.540879854270315E+001	-7.7700406E-001	-4.762349079907913E-002	3.7003647E-005	-7.7713984E-001	0
1.6294322E+004	6.560879853765073E+001	-7.7897930E-001	-4.780679335949678E-002	3.7240501E-005	-7.7913976E-001	0
1.6269463E+004	6.580879853259830E+001	-7.8093982E-001	-4.800034401269909E-002	3.7485381E-005	-7.8113961E-001	0
1.6251291E+004	6.600879852754588E+001	-7.8295642E-001	-4.817810639243501E-002	3.7721358E-005	-7.8313988E-001	0
1.6210132E+004	6.620859852249851E+001	-7.8499603E-001	-4.842625920574917E-002	3.8014423E-005	-7.8513950E-001	0
1.6166214E+004	6.640859851744608E+001	-7.8698897E-001	-4.868109267661147E-002	3.8311482E-005	-7.8713948E-001	0
1.6105706E+004	6.660859851239366E+001	-7.8896189E-001	-4.898648192053323E-002	3.8648468E-005	-7.8913933E-001	0
1.6069365E+004	6.680859850734123E+001	-7.9096544E-001	-4.922194594924956E-002	3.8932860E-005	-7.9113930E-001	0
1.6034283E+004	6.700859850228881E+001	-7.9295242E-001	-4.945356204848150E-002	3.9214323E-005	-7.9313910E-001	0
1.5984814E+004	6.720859849723638E+001	-7.9496372E-001	-4.973243308874475E-002	3.9535480E-005	-7.9513913E-001	0
1.5911706E+004	6.740859849218396E+001	-7.9698777E-001	-5.008814113833377E-002	3.9919636E-005	-7.9713899E-001	0
1.5891685E+004	6.760859848713153E+001	-7.9900271E-001	-5.027803664080932E-002	4.0172286E-005	-7.9913890E-001	0
1.5812371E+004	6.780859848207911E+001	-8.0096430E-001	-5.065428218624812E-002	4.0572271E-005	-8.0113882E-001	0
1.5726979E+004	6.800859847702668E+001	-8.0300891E-001	-5.105932149877718E-002	4.1001091E-005	-8.0313873E-001	0
1.5659976E+004	6.820859847197426E+001	-8.0496526E-001	-5.140271598933599E-002	4.1377400E-005	-8.0513871E-001	0
1.5542315E+004	6.840859846692183E+001	-8.0698299E-001	-5.192167089107413E-002	4.1899904E-005	-8.0713862E-001	0
1.5463798E+004	6.860859846186941E+001	-8.0898643E-001	-5.231486173355071E-002	4.2322012E-005	-8.0913842E-001	0
1.5382764E+004	6.880859845681698E+001	-8.1099123E-001	-5.272077514405660E-002	4.2756084E-005	-8.1113833E-001	0
1.5293396E+004	6.900859845176456E+001	-8.1301075E-001	-5.316090359312375E-002	4.3220385E-005	-8.1313831E-001	0
1.5234392E+004	6.920859844671213E+001	-8.1497347E-001	-5.349563653770884E-002	4.3597523E-005	-8.1513822E-001	0
1.5146759E+004	6.940859844165971E+001	-8.1696564E-001	-5.393666285142973E-002	4.4064400E-005	-8.1713814E-001	0
1.5048057E+004	6.960859843660728E+001	-8.1898302E-001	-5.442450397179099E-002	4.4572746E-005	-8.1913799E-001	0
1.4908289E+004	6.980859843155486E+001	-8.2097971E-001	-5.506867547456147E-002	4.5210265E-005	-8.2113796E-001	0
1.4747464E+004	7.000859842650243E+001	-8.2300627E-001	-5.580663035756761E-002	4.5929206E-005	-8.2313782E-001	0
1.4649674E+004	7.020859842145001E+001	-8.2498395E-001	-5.631415016079111E-002	4.6458270E-005	-8.2513779E-001	0
1.4557676E+004	7.040859841639758E+001	-8.2701766E-001	-5.680973306794534E-002	4.6982652E-005	-8.2713759E-001	0
1.4449600E+004	7.060859841134516E+001	-8.2902420E-001	-5.737350509147731E-002	4.7564023E-005	-8.2913774E-001	0
1.4323692E+004	7.080839840629778E+001	-8.3100253E-001	-5.801594198029558E-002	4.8211394E-005	-8.3113748E-001	0
1.4186060E+004	7.100839840124536E+001	-8.3295906E-001	-5.871673333807065E-002	4.8908634E-005	-8.3313739E-001	0
1.3997981E+004	7.120839839619293E+001	-8.3501869E-001	-5.965279541590807E-002	4.9811199E-005	-8.3513731E-001	0
1.3864064E+004	7.140839839114051E+001	-8.3704185E-001	-6.037492612471845E-002	5.0536339E-005	-8.3713722E-001	0
1.3673407E+004	7.160839838608808E+001	-8.3900565E-001	-6.136039243652017E-002	5.1481715E-005	-8.3913720E-001	0
1.3499173E+004	7.180839838103566E+001	-8.4103221E-001	-6.230250129459303E-002	5.2398409E-005	-8.4113699E-001	0
1.3301292E+004	7.200839837598323E+001	-8.4303194E-001	-6.337970272899773E-002	5.3431115E-005	-8.4313691E-001	0
1.3085786E+004	7.220839837093081E+001	-8.4501821E-001	-6.457527080664838E-002	5.4567281E-005	-8.4513682E-001	0
1.2848006E+004	7.240839836587838E+001	-8.4704465E-001	-6.592810053807041E-002	5.5844044E-005	-8.4713680E-001	0
1.2621246E+004	7.260839836082596E+001	-8.4899837E-001	-6.726739627399919E-002	5.7109908E-005	-8.4913671E-001	0
1.2344188E+004	7.280839835577353E+001	-8.5100347E-001	-6.893960962150147E-002	5.8667847E-005	-8.5113662E-001	0
1.2056061E+004	7.300839835072111E+001	-8.5299969E-001	-7.075277025771232E-002	6.0352089E-005	-8.5313648E-001	0
1.1747861E+004	7.320839834566868E+001	-8.5499012E-001	-7.277836416406602E-002	6.2224783E-005	-8.5513651E-001	0
1.1406455E+004	7.340839834061626E+001	-8.5698479E-001	-7.513156046303160E-002	6.4386608E-005	-8.5713631E-001	0
1.1105892E+004	7.360839833556383E+001	-8.5902596E-001	-7.734867420032776E-002	6.6444518E-005	-8.5913628E-001	0
1.0822637E+004	7.380839833051141E+001	-8.6104357E-001	-7.955949889261560E-002	6.8504196E-005	-8.6113608E-001	0
1.0550919E+004	7.400839832545898E+001	-8.6302525E-001	-8.179621596698183E-002	7.0592199E-005	-8.6313611E-001	0
1.0362315E+004	7.420839832040656E+001	-8.6502641E-001	-8.347809983653892E-002	7.2210758E-005	-8.6513597E-001	0
1.0238423E+004	7.440839831535413E+001	-8.6700618E-001	-8.468161477251149E-002	7.3419484E-005	-8.6713588E-001	0
1.0140364E+004	7.460839831030171E+001	-8.6901104E-001	-8.569820718354038E-002	7.4472686E-005	-8.6913580E-001	0
1.0105271E+004	7.480839830524928E+001	-8.7105107E-001	-8.619769419862289E-002	7.5082593E-005	-8.7113571E-001	0
1.0095277E+004	7.500839830019686E+001	-8.7302625E-001	-8.647867933585141E-002	7.5498159E-005	-8.7313563E-001	0
1.0019914E+004	7.520829829514696E+001	-8.7503123E-001	-8.732921132842186E-002	7.6415788E-005	-8.7513602E-001	0
9.9759492E+003	7.540819829009706E+001	-8.7702048E-001	-8.791348771899621E-002	7.7101926E-005	-8.7713540E-001	0
9.8930957E+003	7.560819828504464E+001	-8.7901247E-001	-8.885110223342707E-002	7.8101228E-005	-8.7913531E-001	0
9.7663955E+003	7.580819827999221E+001	-8.8103622E-001	-9.021099172152436E-002	7.9479149E-005	-8.8113528E-001	0
9.6185674E+003	7.600819827493979E+001	-8.8299733E-001	-9.180133515555022E-002	8.1060338E-005	-8.8313520E-001	0
9.4234082E+003	7.620819826988736E+001	-8.8500887E-001	-9.391600839886616E-002	8.3116502E-005	-8.8513511E-001	0
9.2026680E+003	7.640819826483494E+001	-8.8695782E-001	-9.638050435503676E-002	8.5485444E-005	-8.8713497E-001	0
8.9554639E+003	7.660819825978251E+001	-8.8898736E-001	-9.926759427975046E-002	8.8247638E-005	-8.8913488E-001	0
8.6460303E+003	7.680819825473009E+001	-8.9095342E-001	-1.030476835647139E-001	9.1810689E-005	-8.9113480E-001	0
8.3362686E+003	7.700819824967766E+001	-8.9297515E-001	-1.071192816875519E-001	9.5654854E-005	-8.9313477E-001	0
7.9963042E+003	7.720819824462524E+001	-8.9498180E-001	-1.119244318548379E-001	1.0017033E-004	-8.9513457E-001	0
7.6128740E+003	7.740819823957281E+001	-8.9697772E-001	-1.178237967860469E-001	1.0568532E-004	-8.9713460E-001	0
7.2083262E+003	7.760819823452039E+001	-8.9898092E-001	-1.247142367962484E-001	1.1211572E-004	-8.9913476E-001	0
6.7935239E+003	7.780819822946796E+001	-9.0098709E-001	-1.326244054900696E-001	1.1949288E-004	-9.0113544E-001	0
6.3582271E+003	7.800819822441554E+001	-9.0297967E-001	-1.420175256492686E-001	1.2823894E-004	-9.0313536E-001	0
5.9167070E+003	7.820819821936311E+001	-9.0497309E-001	-1.529521494428046E-001	1.3841758E-004	-9.0513545E-001	0
5.4727178E+003	7.840819821431069E+001	-9.0697497E-001	-1.657266142395857E-001	1.5030989E-004	-9.0713543E-001	0
5.0537095E+003	7.860819820925826E+001	-9.0895832E-001	-1.798596233055585E-001	1.6348490E-004	-9.0913540E-001	0
4.6240522E+003	7.880819820420584E+001	-9.1098273E-001	-1.970095993273064E-001	1.7947234E-004	-9.1113549E-001	0
4.2254282E+003	7.900819819915341E+001	-9.1301137E-001	-2.160754715918221E-001	1.9727937E-004	-9.1313547E-001	0
3.8429709E+003	7.920819819410099E+001	-9.1496193E-001	-2.380871287021198E-001	2.1784066E-004	-9.1513544E-001	0
3.3871194E+003	7.940819818904856E+001	-9.1701812E-001	-2.707368677688957E-001	2.4827060E-004	-9.1713542E-001	0
3.0977307E+003	7.960819818399614E+001	-9.1901630E-001	-2.966740414006065E-001	2.7264829E-004	-9.1913551E-001	0
2.8049751E+003	7.980819817894371E+001	-9.2101169E-001	-3.283493185580584E-001	3.0241357E-004	-9.2113549E-001	0
2.5028289E+003	8.000819817389129E+001	-9.2301542E-001	-3.687888738507077E-001	3.4039782E-004	-9.2313546E-001	0
2.2240002E+003	8.020819816883886E+001	-9.2500252E-001	-4.159183595836362E-001	3.8472554E-004	-9.2513543E-001	0
2.0144288E+003	8.040819816378644E+001	-9.2702013E-001	-4.601900754475325E-001	4.2660546E-004	-9.2713553E-001	0
1.7722972E+003	8.060819815873401E+001	-9.2900711E-001	-5.241824389137570E-001	4.8696922E-004	-9.2913538E-001	0
1.6033530E+003	8.080819815368159E+001	-9.3101591E-001	-5.806680861564826E-001	5.4061122E-004	-9.3113542E-001	0
1.4133347E+003	8.100819814862916E+001	-9.3301755E-001	-6.601532684753111E-001	6.1593461E-004	-9.3313545E-001	0
1.2752872E+003	8.120819814357674E+001	-9.3503994E-001	-7.331994920800051E-001	6.8557082E-004	-9.3513542E-001	0
1.1376703E+003	8.140819813852431E+001	-9.3703610E-001	-8.236447377827290E-001	7.7178486E-004	-9.3713540E-001	0
1.0123740E+003	8.160819813347189E+001	-9.3903559E-001	-9.275580383499271E-001	8.7101001E-004	-9.3913543E-001	0
9.0664368E+002	8.181819812816684E+001	-9.4111860E-001	-1.038024760850814E+000	9.7690441E-004	-9.4123548E-001	0
8.1324329E+002	8.202819812286180E+001	-9.4314170E-001	-1.159728871375458E+000	1.0937887E-003	-9.4333541E-001	0
7.3109308E+002	8.222819811780937E+001	-9.4517392E-001	-1.292822945009820E+000	1.2219425E-003	-9.4533545E-001	0
6.6030920E+002	8.242819811275695E+001	-9.4716191E-001	-1.434421797551197E+000	1.3586297E-003	-9.4733554E-001	0
5.9797797E+002	8.262819810770452E+001	-9.4918638E-001	-1.587326609476762E+000	1.5066687E-003	-9.4933540E-001	0
5.4327002E+002	8.282819810265210E+001	-9.5118779E-001	-1.750856423881459E+000	1.6653932E-003	-9.5133543E-001	0
4.9523163E+002	8.302819809759967E+001	-9.5317990E-001	-1.924715270125676E+000	1.8345999E-003	-9.5333546E-001	0
4.5275818E+002	8.322819809254725E+001	-9.5520806E-001	-2.109753333370019E+000	2.0152533E-003	-9.5533544E-001	0
4.1513135E+002	8.342819808749482E+001	-9.5718461E-001	-2.305739218027007E+000	2.2070182E-003	-9.5733541E-001	0
3.8222678E+002	8.362819808244240E+001	-9.5918429E-001	-2.509463846615919E+000	2.4070384E-003	-9.5933545E-001	0
3.5271878E+002	8.382819807738997E+001	-9.6121138E-001	-2.725149342617055E+000	2.6194446E-003	-9.6133542E-001	0
3.2648990E+002	8.402819807233755E+001	-9.6319497E-001	-2.950152343717697E+000	2.8415718E-003	-9.6333539E-001	0
3.0320651E+002	8.422819806728512E+001	-9.6521616E-001	-3.183362151540457E+000	3.0726325E-003	-9.6533549E-001	0
2.8234177E+002	8.442819806223270E+001	-9.6723354E-001	-3.425754180469468E+000	3.3135044E-003	-9.6733546E-001	0
2.6381689E+002	8.462819805718027E+001	-9.6920770E-001	-3.673789541230722E+000	3.5606651E-003	-9.6933544E-001	0
2.4748042E+002	8.482819805212785E+001	-9.7119170E-001	-3.924317346408523E+000	3.8112644E-003	-9.7133541E-001	0
2.3255847E+002	8.502819804707542E+001	-9.7318441E-001	-4.184687098914797E+000	4.0724725E-003	-9.7333550E-001	0
2.1883632E+002	8.522819804202300E+001	-9.7520053E-001	-4.456301203897220E+000	4.3457872E-003	-9.7533554E-001	0
2.0635847E+002	8.542819803697057E+001	-9.7722602E-001	-4.735574859441556E+000	4.6277270E-003	-9.7733545E-001	0
1.9527545E+002	8.562819803191815E+001	-9.7919041E-001	-5.014406185605639E+000	4.9100583E-003	-9.7933543E-001	0
1.8524463E+002	8.582819802686572E+001	-9.8118615E-001	-5.296705173695976E+000	5.1970538E-003	-9.8133552E-001	0
1.7585500E+002	8.602819802181330E+001	-9.8319268E-001	-5.590928555075546E+000	5.4969601E-003	-9.8333538E-001	0
1.6726175E+002	8.622819801676087E+001	-9.8517936E-001	-5.890045887421053E+000	5.8027515E-003	-9.8533541E-001	0
1.5947313E+002	8.642819801170845E+001	-9.8718530E-001	-6.190292344646130E+000	6.1109657E-003	-9.8733544E-001	0
1.5226212E+002	8.662819800665602E+001	-9.8916870E-001	-6.496486092843703E+000	6.4261206E-003	-9.8933536E-001	0
1.4563315E+002	8.682819800160360E+001	-9.9119544E-001	-6.806111598906838E+000	6.7461869E-003	-9.9133533E-001	0
1.3956590E+002	8.702819799655117E+001	-9.9319726E-001	-7.116331350438486E+000	7.0679206E-003	-9.9333543E-001	0
1.3378842E+002	8.722819799149875E+001	-9.9519151E-001	-7.438547507367716E+000	7.4027795E-003	-9.9533540E-001	0
1.2856215E+002	8.742819798644632E+001	-9.9719787E-001	-7.756543429462823E+000	7.7348086E-003	-9.9733531E-001	0
1.2359969E+002	8.762819798139390E+001	-9.9918818E-001	-8.084067550308333E+000	8.0775050E-003	-9.9933547E-001	0
1.1910683E+002	8.782819797634147E+001	-1.0012246E+000	-8.406106054647694E+000	8.4164003E-003	-1.0013355E+000	0
1.1482072E+002	8.802819797128905E+001	-1.0032222E+000	-8.737292457937897E+000	8.7654460E-003	-1.0033355E+000	0
1.1076362E+002	8.822819796623662E+001	-1.0052147E+000	-9.075314785279943E+000	9.1226399E-003	-1.0053355E+000	0
1.0699400E+002	8.842819796118420E+001	-1.0072277E+000	-9.413870921278225E+000	9.4819115E-003	-1.0073354E+000	0
1.0338402E+002	8.862829795612925E+001	-1.0092553E+000	-9.762198520736895E+000	9.8525509E-003	-1.0093364E+000	0
1.0001076E+002	8.882839795107429E+001	-1.0112453E+000	-1.011136502933070E+001	1.0225070E-002	-1.0113375E+000	0
9.6806023E+001	8.902839794602187E+001	-1.0132229E+000	-1.046652823646053E+001	1.0604926E-002	-1.0133374E+000	0
9.3569321E+001	8.923839794071682E+001	-1.0153644E+000	-1.085146677658267E+001	1.1018193E-002	-1.0154374E+000	0
9.0378944E+001	8.944839793541178E+001	-1.0174342E+000	-1.125742539148482E+001	1.1453690E-002	-1.0175374E+000	0
8.7651764E+001	8.964849793035683E+001	-1.0194086E+000	-1.163021191329157E+001	1.1855938E-002	-1.0195383E+000	0
8.5079765E+001	8.984869792529935E+001	-1.0214350E+000	-1.200561653974938E+001	1.2262957E-002	-1.0215404E+000	0
8.2613014E+001	9.004879792024440E+001	-1.0234051E+000	-1.238793966471475E+001	1.2677880E-002	-1.0235415E+000	0
8.0278496E+001	9.024879791519197E+001	-1.0254360E+000	-1.277348367467758E+001	1.3098391E-002	-1.0255414E+000	0
7.8068581E+001	9.044879791013955E+001	-1.0273982E+000	-1.316020104011978E+001	1.3520767E-002	-1.0275415E+000	0
7.5893745E+001	9.064879790508712E+001	-1.0294663E+000	-1.356457295263704E+001	1.3964270E-002	-1.0295415E+000	0
7.3801308E+001	9.084879790003470E+001	-1.0314301E+000	-1.397577057768694E+001	1.4415030E-002	-1.0315415E+000	0
7.1809410E+001	9.104879789498227E+001	-1.0333828E+000	-1.439063127308469E+001	1.4871030E-002	-1.0335414E+000	0
6.9820541E+001	9.124889788992732E+001	-1.0354333E+000	-1.482992291418186E+001	1.5355396E-002	-1.0355421E+000	0
6.7928963E+001	9.144909788486984E+001	-1.0374407E+000	-1.527243465166572E+001	1.5844245E-002	-1.0375441E+000	0
6.6107140E+001	9.164919787981489E+001	-1.0394495E+000	-1.572370858811468E+001	1.6344000E-002	-1.0395454E+000	0
6.4336075E+001	9.184919787476247E+001	-1.0414290E+000	-1.618732650020493E+001	1.6857952E-002	-1.0415454E+000	0
6.2605022E+001	9.204919786971004E+001	-1.0434182E+000	-1.666668492609682E+001	1.7390322E-002	-1.0435455E+000	0
6.0930271E+001	9.224919786465762E+001	-1.0454422E+000	-1.715801046116284E+001	1.7937709E-002	-1.0455453E+000	0
5.9311874E+001	9.244919785960519E+001	-1.0474701E+000	-1.766037737458187E+001	1.8498717E-002	-1.0475454E+000	0
5.7735058E+001	9.264919785455277E+001	-1.0494318E+000	-1.817668171994006E+001	1.9075187E-002	-1.0495454E+000	0
5.6198418E+001	9.284919784950034E+001	-1.0514266E+000	-1.870918592411914E+001	1.9671336E-002	-1.0515454E+000	0
5.4674412E+001	9.304919784444792E+001	-1.0534372E+000	-1.926746322508566E+001	2.0297064E-002	-1.0535455E+000	0
5.3215797E+001	9.324919783939549E+001	-1.0554070E+000	-1.983258866966449E+001	2.0931454E-002	-1.0555454E+000	0
5.1815651E+001	9.344919783434307E+001	-1.0574354E+000	-2.040764410749848E+001	2.1579765E-002	-1.0575454E+000	0
5.0435135E+001	9.364919782929064E+001	-1.0594270E+000	-2.100573361474106E+001	2.2254042E-002	-1.0595454E+000	0
4.9092720E+001	9.384919782423822E+001	-1.0614328E+000	-2.162098259774461E+001	2.2949221E-002	-1.0615455E+000	0
4.7795719E+001	9.404919781918579E+001	-1.0634065E+000	-2.224899027028596E+001	2.3659721E-002	-1.0635455E+000	0
4.6500259E+001	9.424919781413337E+001	-1.0654490E+000	-2.291275467407672E+001	2.4412371E-002	-1.0655454E+000	0
4.5283943E+001	9.444919780908094E+001	-1.0674361E+000	-2.357206548530772E+001	2.5161674E-002	-1.0675454E+000	0
4.4126930E+001	9.464919780402852E+001	-1.0694256E+000	-2.423521326593789E+001	2.5917757E-002	-1.0695454E+000	0
4.2980003E+001	9.484919779897609E+001	-1.0714103E+000	-2.492811030527893E+001	2.6708234E-002	-1.0715455E+000	0
4.1909542E+001	9.504919779392367E+001	-1.0734314E+000	-2.561305491264716E+001	2.7493857E-002	-1.0735455E+000	0
4.0855724E+001	9.524919778887124E+001	-1.0754170E+000	-2.632231029090963E+001	2.8307460E-002	-1.0755454E+000	0
3.9804237E+001	9.544919778381882E+001	-1.0774198E+000	-2.706796705641722E+001	2.9163562E-002	-1.0775454E+000	0
3.8834591E+001	9.564919777876639E+001	-1.0794036E+000	-2.779490127720263E+001	3.0001918E-002	-1.0795454E+000	0
3.7929359E+001	9.584929777371144E+001	-1.0814663E+000	-2.851264484837498E+001	3.0835465E-002	-1.0815464E+000	0
3.7011387E+001	9.604939776865649E+001	-1.0834076E+000	-2.927227973721730E+001	3.1713810E-002	-1.0835475E+000	0
3.6109226E+001	9.624939776360407E+001	-1.0854279E+000	-3.005957282346395E+001	3.2627497E-002	-1.0855474E+000	0
3.5214172E+001	9.644939775855164E+001	-1.0874088E+000	-3.087986037466268E+001	3.3579033E-002	-1.0875474E+000	0
3.4293941E+001	9.664959775349416E+001	-1.0894233E+000	-3.176722459607106E+001	3.4607954E-002	-1.0895493E+000	0
3.3434601E+001	9.684959774844174E+001	-1.0914764E+000	-3.264511789486227E+001	3.5631377E-002	-1.0915495E+000	0
3.2615215E+001	9.704969774338679E+001	-1.0934364E+000	-3.352534735356221E+001	3.6657833E-002	-1.0935502E+000	0
3.1844385E+001	9.724979773833184E+001	-1.0954702E+000	-3.440073340658137E+001	3.7684977E-002	-1.0955515E+000	0
3.1046879E+001	9.744979773327941E+001	-1.0974364E+000	-3.534772069275752E+001	3.8791876E-002	-1.0975515E+000	0
3.0277090E+001	9.764979772822699E+001	-1.0994302E+000	-3.631228138908500E+001	3.9922819E-002	-1.0995514E+000	0
2.9612350E+001	9.784989772317203E+001	-1.1014684E+000	-3.719625124931960E+001	4.0970497E-002	-1.1015522E+000	0
2.8954477E+001	9.804999771811708E+001	-1.1034412E+000	-3.810951902563613E+001	4.2051613E-002	-1.1035534E+000	0
2.8281916E+001	9.825009771306213E+001	-1.1054300E+000	-3.908610859566835E+001	4.3206956E-002	-1.1055542E+000	0
2.7666798E+001	9.845029770800465E+001	-1.1074374E+000	-4.002766866886617E+001	4.4328135E-002	-1.1075562E+000	0
2.7050951E+001	9.865039770294970E+001	-1.1094645E+000	-4.101388147331420E+001	4.5503445E-002	-1.1095574E+000	0
2.6449467E+001	9.885039769789728E+001	-1.1114436E+000	-4.202139964233453E+001	4.6704419E-002	-1.1115575E+000	0
2.5848080E+001	9.905039769284485E+001	-1.1134483E+000	-4.307663310060684E+001	4.7963601E-002	-1.1135575E+000	0
2.5303246E+001	9.925039768779243E+001	-1.1154013E+000	-4.408135124290891E+001	4.9168397E-002	-1.1155576E+000	0
2.4761995E+001	9.945059768273495E+001	-1.1174405E+000	-4.512723747139898E+001	5.0427001E-002	-1.1175594E+000	0
2.4278835E+001	9.965059767768253E+001	-1.1194324E+000	-4.610733753212998E+001	5.1614050E-002	-1.1195594E+000	0
2.3760349E+001	9.985069767262758E+001	-1.1214352E+000	-4.719775588749872E+001	5.2929223E-002	-1.1215602E+000	0
2.3250805E+001	1.000507976675726E+002	-1.1234541E+000	-4.831893311417298E+001	5.4284103E-002	-1.1235615E+000	0
2.2741735E+001	1.002507976625202E+002	-1.1254449E+000	-4.948808429597989E+001	5.5696111E-002	-1.1255615E+000	0
2.2220839E+001	1.004507976574678E+002	-1.1274936E+000	-5.074037400286738E+001	5.7209447E-002	-1.1275613E+000	0
2.1727163E+001	1.006507976524153E+002	-1.1294719E+000	-5.198432608850948E+001	5.8714837E-002	-1.1295614E+000	0
2.1276375E+001	1.008507976473629E+002	-1.1314307E+000	-5.317779948381582E+001	6.0166996E-002	-1.1315614E+000	0
2.0836971E+001	1.010507976423105E+002	-1.1334826E+000	-5.439766614777676E+001	6.1658807E-002	-1.1335614E+000	0
2.0398964E+001	1.012508976372555E+002	-1.1354649E+000	-5.566287222860379E+001	6.3203238E-002	-1.1355622E+000	0
2.0009205E+001	1.014509976322006E+002	-1.1374649E+000	-5.684708007447023E+001	6.4661555E-002	-1.1375635E+000	0
1.9645357E+001	1.016509976271482E+002	-1.1394897E+000	-5.800300104115286E+001	6.6093817E-002	-1.1395634E+000	0
1.9200399E+001	1.018510976220932E+002	-1.1415192E+000	-5.945289028079856E+001	6.7866616E-002	-1.1415641E+000	0
1.8774530E+001	1.020511976170383E+002	-1.1434962E+000	-6.090677709968736E+001	6.9646664E-002	-1.1435654E+000	0
1.8365904E+001	1.022512976119833E+002	-1.1455103E+000	-6.237157568568182E+001	7.1447283E-002	-1.1455662E+000	0
1.7970245E+001	1.024515976069233E+002	-1.1475273E+000	-6.385707644823731E+001	7.3277742E-002	-1.1475693E+000	0
1.7593058E+001	1.026515976018709E+002	-1.1495230E+000	-6.533958393159674E+001	7.5109355E-002	-1.1495695E+000	0
1.7253122E+001	1.028515975968185E+002	-1.1515477E+000	-6.674430713848176E+001	7.6859251E-002	-1.1515694E+000	0
1.6787523E+001	1.030515975917660E+002	-1.1535376E+000	-6.871398208308923E+001	7.9264164E-002	-1.1535695E+000	0
1.6412693E+001	1.032515975867136E+002	-1.1555165E+000	-7.040383325628704E+001	8.1352793E-002	-1.1555694E+000	0
1.6120798E+001	1.034515975816612E+002	-1.1575565E+000	-7.180515975152031E+001	8.3118528E-002	-1.1575694E+000	0
1.5831800E+001	1.036516975766062E+002	-1.1595230E+000	-7.324012110873127E+001	8.4923603E-002	-1.1595702E+000	0
1.5499760E+001	1.038517975715513E+002	-1.1615447E+000	-7.493953068294218E+001	8.7045610E-002	-1.1615715E+000	0
1.5204118E+001	1.040517975664989E+002	-1.1635238E+000	-7.652688696000575E+001	8.9040853E-002	-1.1635715E+000	0
1.4975331E+001	1.042517975614464E+002	-1.1655241E+000	-7.782960502847240E+001	9.0712279E-002	-1.1655715E+000	0
1.4684421E+001	1.044517975563940E+002	-1.1674894E+000	-7.950530829667480E+001	9.2821606E-002	-1.1675715E+000	0
1.4450662E+001	1.046517975513416E+002	-1.1695126E+000	-8.093142475941272E+001	9.4650321E-002	-1.1695715E+000	0
1.4232647E+001	1.048517975462892E+002	-1.1715393E+000	-8.231352068183116E+001	9.6433528E-002	-1.1715714E+000	0
1.3909256E+001	1.050517975412367E+002	-1.1735301E+000	-8.437044306839357E+001	9.9011257E-002	-1.1735715E+000	0
1.3658064E+001	1.052518975361818E+002	-1.1755590E+000	-8.607069251180644E+001	1.0118118E-001	-1.1755723E+000	0
1.3421512E+001	1.054519975311268E+002	-1.1775658E+000	-8.773719539501735E+001	1.0331632E-001	-1.1775734E+000	0
1.3126129E+001	1.056522975260668E+002	-1.1795306E+000	-8.986126597268299E+001	1.0599411E-001	-1.1795762E+000	0
1.2897231E+001	1.058523975210119E+002	-1.1815475E+000	-9.161249287490728E+001	1.0824452E-001	-1.1815774E+000	0
1.2721606E+001	1.060523975159595E+002	-1.1835636E+000	-9.303570098833688E+001	1.1011367E-001	-1.1835774E+000	0
1.2484122E+001	1.062523975109070E+002	-1.1855613E+000	-9.496553168923936E+001	1.1258746E-001	-1.1855775E+000	0
1.2212204E+001	1.064523975058546E+002	-1.1875485E+000	-9.724276435131878E+001	1.1548050E-001	-1.1875775E+000	0
1.2051618E+001	1.066524975007997E+002	-1.1895405E+000	-9.870380733052707E+001	1.1741218E-001	-1.1895782E+000	0
1.1897482E+001	1.068526974957422E+002	-1.1915591E+000	-1.001522113419219E+002	1.1933728E-001	-1.1915803E+000	0
1.1750635E+001	1.070527974906872E+002	-1.1935505E+000	-1.015732714053992E+002	1.2123282E-001	-1.1935815E+000	0
1.1561134E+001	1.072527974856348E+002	-1.1955676E+000	-1.034126541176624E+002	1.2363682E-001	-1.1955814E+000	0
1.1292573E+001	1.074527974805824E+002	-1.1975223E+000	-1.060451193126151E+002	1.2699139E-001	-1.1975815E+000	0
1.1134091E+001	1.076527974755300E+002	-1.1995413E+000	-1.077358961613540E+002	1.2923366E-001	-1.1995815E+000	0
1.0947767E+001	1.078627974702249E+002	-1.2016500E+000	-1.097621098197237E+002	1.3189565E-001	-1.2016814E+000	0
1.0699636E+001	1.080728974649173E+002	-1.2037196E+000	-1.125009913906150E+002	1.3541965E-001	-1.2037822E+000	0
1.0502317E+001	1.082729974598624E+002	-1.2057356E+000	-1.148066225938528E+002	1.3842642E-001	-1.2057835E+000	0
1.0336189E+001	1.084730974548074E+002	-1.2077472E+000	-1.168464721619604E+002	1.4112100E-001	-1.2077843E+000	0
1.0193466E+001	1.086731974497525E+002	-1.2097437E+000	-1.186783471940055E+002	1.4357039E-001	-1.2097855E+000	0
1.0010360E+001	1.088731974447001E+002	-1.2117152E+000	-1.210461233716433E+002	1.4667343E-001	-1.2117854E+000	0
9.8450422E+000	1.090732974396451E+002	-1.2137517E+000	-1.232855778531950E+002	1.4963807E-001	-1.2137862E+000	0
9.7477131E+000	1.092733974345902E+002	-1.2157420E+000	-1.247207363814182E+002	1.5162824E-001	-1.2157874E+000	0
9.5790653E+000	1.094734974295352E+002	-1.2177048E+000	-1.271214541512304E+002	1.5479641E-001	-1.2177882E+000	0
9.4320364E+000	1.096735974244802E+002	-1.2197289E+000	-1.293176616346486E+002	1.5773250E-001	-1.2197895E+000	0
9.3003950E+000	1.098735974194278E+002	-1.2217172E+000	-1.313618612408367E+002	1.6048706E-001	-1.2217895E+000	0
9.1160679E+000	1.100735974143754E+002	-1.2237551E+000	-1.342415584177118E+002	1.6427879E-001	-1.2237895E+000	0
8.9411888E+000	1.102735974093230E+002	-1.2257409E+000	-1.370892595174359E+002	1.6803591E-001	-1.2257894E+000	0
8.8477325E+000	1.104736974042680E+002	-1.2277741E+000	-1.387670929843182E+002	1.7037465E-001	-1.2277902E+000	0
8.7652798E+000	1.106737973992131E+002	-1.2297415E+000	-1.402968882671018E+002	1.7252889E-001	-1.2297915E+000	0
8.6264935E+000	1.108738973941581E+002	-1.2317705E+000	-1.427892467854510E+002	1.7588359E-001	-1.2317923E+000	0
8.4611301E+000	1.110740973891006E+002	-1.2337699E+000	-1.458162036492167E+002	1.7990364E-001	-1.2337942E+000	0
8.3450384E+000	1.112741973840457E+002	-1.2357612E+000	-1.480833455299842E+002	1.8299565E-001	-1.2357954E+000	0
8.2043533E+000	1.114741973789933E+002	-1.2377264E+000	-1.508621548871060E+002	1.8672608E-001	-1.2377954E+000	0
8.0223722E+000	1.116741973739408E+002	-1.2397197E+000	-1.545328189542774E+002	1.9157739E-001	-1.2397954E+000	0
7.9126563E+000	1.118741973688884E+002	-1.2417319E+000	-1.569298402933304E+002	1.9486478E-001	-1.2417955E+000	0
7.8281808E+000	1.120741973638360E+002	-1.2437377E+000	-1.588795323274577E+002	1.9760446E-001	-1.2437955E+000	0
7.7469583E+000	1.122741973587836E+002	-1.2457175E+000	-1.608008604006432E+002	2.0031245E-001	-1.2457954E+000	0
7.6633391E+000	1.124741973537311E+002	-1.2477436E+000	-1.628198357558301E+002	2.0315741E-001	-1.2477955E+000	0
7.5637393E+000	1.126741973486787E+002	-1.2497345E+000	-1.652270796163818E+002	2.0648998E-001	-1.2497954E+000	0
7.4156361E+000	1.128741973436263E+002	-1.2517248E+000	-1.687953455550862E+002	2.1128532E-001	-1.2517955E+000	0
7.3274899E+000	1.130743973385688E+002	-1.2537414E+000	-1.711010740104118E+002	2.1451649E-001	-1.2537973E+000	0
7.2659149E+000	1.132743973335164E+002	-1.2557409E+000	-1.728262615917494E+002	2.1702500E-001	-1.2557975E+000	0
7.1646318E+000	1.134743973284640E+002	-1.2577721E+000	-1.755529312492769E+002	2.2080557E-001	-1.2577975E+000	0
7.0856771E+000	1.136743973234115E+002	-1.2597584E+000	-1.777894061525390E+002	2.2397169E-001	-1.2597975E+000	0
7.0082784E+000	1.138743973183591E+002	-1.2617693E+000	-1.800398336981434E+002	2.2716874E-001	-1.2617975E+000	0
6.9301109E+000	1.140745973133016E+002	-1.2637444E+000	-1.823555764708219E+002	2.3045082E-001	-1.2637994E+000	0
6.7966533E+000	1.142746973082467E+002	-1.2657408E+000	-1.862300017272478E+002	2.3571891E-001	-1.2658002E+000	0
6.6959100E+000	1.144748973031892E+002	-1.2677692E+000	-1.893348703256303E+002	2.4003293E-001	-1.2678022E+000	0
6.6043282E+000	1.146749972981343E+002	-1.2697672E+000	-1.922628878865926E+002	2.4412911E-001	-1.2698035E+000	0
6.5262909E+000	1.148749972930818E+002	-1.2717675E+000	-1.948683389795610E+002	2.4782722E-001	-1.2718035E+000	0
6.4647970E+000	1.150749972880294E+002	-1.2737314E+000	-1.970257346008370E+002	2.5095785E-001	-1.2738036E+000	0
6.4063702E+000	1.152750972829745E+002	-1.2757413E+000	-1.991363811607868E+002	2.5404650E-001	-1.2758042E+000	0
6.2999444E+000	1.154751972779195E+002	-1.2777661E+000	-2.028218016592027E+002	2.5915882E-001	-1.2778054E+000	0
6.2086673E+000	1.156751972728671E+002	-1.2797595E+000	-2.061246727253574E+002	2.6379001E-001	-1.2798054E+000	0
6.1157632E+000	1.158751972678147E+002	-1.2817453E+000	-2.095805916040135E+002	2.6862895E-001	-1.2818055E+000	0
5.9932656E+000	1.160752972627597E+002	-1.2837828E+000	-2.142042208213784E+002	2.7499169E-001	-1.2838063E+000	0
5.8905492E+000	1.162755972576997E+002	-1.2858000E+000	-2.182818531903722E+002	2.8066680E-001	-1.2858089E+000	0
5.8406162E+000	1.164561972531374E+002	-1.2875633E+000	-2.204499018065048E+002	2.8384322E-001	-1.2876147E+000	0
5.7889423E+000	1.166167972490803E+002	-1.2891855E+000	-2.226979338389854E+002	2.8709894E-001	-1.2892206E+000	0
5.7413435E+000	1.167773972450232E+002	-1.2908071E+000	-2.248266715612986E+002	2.9020786E-001	-1.2908266E+000	0
5.6488719E+000	1.169177972414764E+002	-1.2922091E+000	-2.287552636584164E+002	2.9559964E-001	-1.2922304E+000	0
5.6067429E+000	1.170482972381797E+002	-1.2935162E+000	-2.307072370889855E+002	2.9842353E-001	-1.2935351E+000	0
5.4621954E+000	1.171987972343777E+002	-1.2950017E+000	-2.370844824029487E+002	3.0702481E-001	-1.2950407E+000	0
5.4063210E+000	1.173294972310759E+002	-1.2963506E+000	-2.397842390488055E+002	3.1084445E-001	-1.2963474E+000	0
5.3654156E+000	1.174897972270264E+002	-1.2979338E+000	-2.419074179777017E+002	3.1397980E-001	-1.2979507E+000	0
5.3317041E+000	1.176702972224666E+002	-1.2996937E+000	-2.437670244242663E+002	3.1682247E-001	-1.2997557E+000	0
5.2546482E+000	1.178409972181544E+002	-1.3014772E+000	-2.476811315984360E+002	3.2235134E-001	-1.3014627E+000	0
5.2059836E+000	1.179914972143524E+002	-1.3029580E+000	-2.502808462163484E+002	3.2610545E-001	-1.3029678E+000	0
5.1718330E+000	1.181421972105454E+002	-1.3044738E+000	-2.522265879114366E+002	3.2902297E-001	-1.3044746E+000	0
5.1490002E+000	1.183026972064908E+002	-1.3060770E+000	-2.536564222357065E+002	3.3129483E-001	-1.3060801E+000	0
5.0485306E+000	1.184629972024413E+002	-1.3076870E+000	-2.590233073096169E+002	3.3872142E-001	-1.3076829E+000	0
4.9971900E+000	1.186233971983893E+002	-1.3092815E+000	-2.620035308761026E+002	3.4303635E-001	-1.3092870E+000	0
4.9887209E+000	1.187937971940846E+002	-1.3109827E+000	-2.627893568306281E+002	3.4451231E-001	-1.3109909E+000	0
4.9750919E+000	1.189543971900275E+002	-1.3125618E+000	-2.638266313096077E+002	3.4628874E-001	-1.3125967E+000	0
4.9622068E+000	1.191046971862306E+002	-1.3140866E+000	-2.648189894262923E+002	3.4799507E-001	-1.3140998E+000	0
4.9404688E+000	1.192753971819184E+002	-1.3158059E+000	-2.663321873734421E+002	3.5044146E-001	-1.3158067E+000	0
4.9130425E+000	1.194358971778638E+002	-1.3174096E+000	-2.681453656557433E+002	3.5325730E-001	-1.3174118E+000	0
4.8734097E+000	1.195862971740644E+002	-1.3189307E+000	-2.706381785771086E+002	3.5695302E-001	-1.3189156E+000	0
4.8419042E+000	1.197469971700048E+002	-1.3205055E+000	-2.727244241950921E+002	3.6013409E-001	-1.3205224E+000	0
4.8269463E+000	1.198976971661978E+002	-1.3220491E+000	-2.738893432645345E+002	3.6209518E-001	-1.3220294E+000	0
4.8024588E+000	1.200383971626434E+002	-1.3234650E+000	-2.755807054376319E+002	3.6472142E-001	-1.3234366E+000	0
4.7680955E+000	1.201690971593416E+002	-1.3247714E+000	-2.778407979569411E+002	3.6807555E-001	-1.3247434E+000	0
4.7230635E+000	1.202895971562975E+002	-1.3259543E+000	-2.807403222007877E+002	3.7224883E-001	-1.3259488E+000	0
4.7024446E+000	1.204198971530059E+002	-1.3272800E+000	-2.822532175928645E+002	3.7462905E-001	-1.3272519E+000	0
4.6890430E+000	1.205700971492115E+002	-1.3287638E+000	-2.833763295930712E+002	3.7654021E-001	-1.3287536E+000	0
4.6625209E+000	1.207405971449043E+002	-1.3304663E+000	-2.853534192538168E+002	3.7965310E-001	-1.3304589E+000	0
4.6399074E+000	1.208910971411024E+002	-1.3319740E+000	-2.870691142579508E+002	3.8236859E-001	-1.3319637E+000	0
4.6160374E+000	1.210614971367977E+002	-1.3336533E+000	-2.889173494099869E+002	3.8531560E-001	-1.3336681E+000	0
4.6020374E+000	1.212217971327482E+002	-1.3352815E+000	-2.901500572407615E+002	3.8743201E-001	-1.3352703E+000	0
4.5694261E+000	1.213722971289462E+002	-1.3368077E+000	-2.925548531812456E+002	3.9108959E-001	-1.3367760E+000	0
4.5483642E+000	1.215525971243915E+002	-1.3385717E+000	-2.942973972251352E+002	3.9393815E-001	-1.3385794E+000	0
4.5240288E+000	1.217429971195816E+002	-1.3405046E+000	-2.963077341343046E+002	3.9720190E-001	-1.3404828E+000	0
4.4932609E+000	1.219236971150167E+002	-1.3423023E+000	-2.987367966929214E+002	4.0099511E-001	-1.3422896E+000	0
4.4486585E+000	1.220743971112097E+002	-1.3438172E+000	-3.020724532108961E+002	4.0593016E-001	-1.3437965E+000	0
4.3961740E+000	1.222349971071526E+002	-1.3454256E+000	-3.060446783161821E+002	4.1176036E-001	-1.3454026E+000	0
4.3783431E+000	1.223855971033481E+002	-1.3469666E+000	-3.076430050101891E+002	4.1438487E-001	-1.3469086E+000	0
4.3673444E+000	1.225561970990384E+002	-1.3486617E+000	-3.088059028432499E+002	4.1647467E-001	-1.3486147E+000	0
4.3565207E+000	1.227067970952339E+002	-1.3501976E+000	-3.099256563200991E+002	4.1846088E-001	-1.3501205E+000	0
4.3307362E+000	1.228671970911819E+002	-1.3517698E+000	-3.121339660043323E+002	4.2193326E-001	-1.3517246E+000	0
4.3076143E+000	1.230073970876401E+002	-1.3531619E+000	-3.141325605266711E+002	4.2507222E-001	-1.3531268E+000	0
4.2965732E+000	1.231476970840959E+002	-1.3545727E+000	-3.152681515886025E+002	4.2705363E-001	-1.3545296E+000	0
4.2726631E+000	1.233178970797962E+002	-1.3562895E+000	-3.174342135035167E+002	4.3053269E-001	-1.3562319E+000	0
4.2618670E+000	1.234383970767522E+002	-1.3574992E+000	-3.185221904169516E+002	4.3239364E-001	-1.3574364E+000	0
4.2117038E+000	1.235988970726976E+002	-1.3591330E+000	-3.227038511895239E+002	4.3859744E-001	-1.3590416E+000	0
4.1825428E+000	1.237693970683904E+002	-1.3608017E+000	-3.253527092957520E+002	4.4274053E-001	-1.3607467E+000	0
4.1686053E+000	1.239198970645884E+002	-1.3622710E+000	-3.267929707310632E+002	4.4518057E-001	-1.3622520E+000	0
4.1141691E+000	1.240802970605364E+002	-1.3639207E+000	-3.315178953065943E+002	4.5216411E-001	-1.3638555E+000	0
4.0977616E+000	1.242505970562343E+002	-1.3656108E+000	-3.332577459717859E+002	4.5510039E-001	-1.3655591E+000	0
4.0936852E+000	1.244308970516795E+002	-1.3674276E+000	-3.340333861528672E+002	4.5676646E-001	-1.3673617E+000	0
4.0730710E+000	1.246013970473723E+002	-1.3691318E+000	-3.361423713993699E+002	4.6022320E-001	-1.3690667E+000	0
4.0585928E+000	1.247419970438204E+002	-1.3705126E+000	-3.376817380814200E+002	4.6279708E-001	-1.3704726E+000	0
4.0425334E+000	1.249121970395208E+002	-1.3722721E+000	-3.394584689345991E+002	4.6582940E-001	-1.3721750E+000	0
4.0465450E+000	1.250924970349661E+002	-1.3740196E+000	-3.395537760420120E+002	4.6655354E-001	-1.3739775E+000	0
4.0293660E+000	1.252429970311641E+002	-1.3755329E+000	-3.413769761547474E+002	4.6957526E-001	-1.3754826E+000	0
4.0068364E+000	1.254033970271121E+002	-1.3771604E+000	-3.437027010221418E+002	4.7333375E-001	-1.3770866E+000	0
4.0155654E+000	1.255835970225598E+002	-1.3789583E+000	-3.434032887280669E+002	4.7353882E-001	-1.3788893E+000	0
4.0014830E+000	1.257539970182552E+002	-1.3806392E+000	-3.450318872750092E+002	4.7636455E-001	-1.3805925E+000	0
3.9910669E+000	1.259343970136979E+002	-1.3824660E+000	-3.463900693231808E+002	4.7887248E-001	-1.3823968E+000	0
3.9658215E+000	1.260949970096408E+002	-1.3841075E+000	-3.490090251989477E+002	4.8306599E-001	-1.3840024E+000	0
3.9474797E+000	1.262851970048359E+002	-1.3859866E+000	-3.511066985422258E+002	4.8662916E-001	-1.3859054E+000	0
3.9367497E+000	1.264655970002786E+002	-1.3877398E+000	-3.525090276216524E+002	4.8919079E-001	-1.3877087E+000	0
3.9111288E+000	1.266261969962216E+002	-1.3894041E+000	-3.552437553298378E+002	4.9357712E-001	-1.3893145E+000	0
3.8937974E+000	1.267865969921695E+002	-1.3909762E+000	-3.572286984447131E+002	4.9689662E-001	-1.3909186E+000	0
3.8309851E+000	1.269572969878573E+002	-1.3926952E+000	-3.635344815978772E+002	5.0629270E-001	-1.3926256E+000	0
3.7945366E+000	1.271278969835475E+002	-1.3943772E+000	-3.674697077607307E+002	5.1239139E-001	-1.3943319E+000	0
3.7814651E+000	1.272983969792404E+002	-1.3961111E+000	-3.691984747588294E+002	5.1544207E-001	-1.3960365E+000	0
3.7447693E+000	1.274885969744355E+002	-1.3980026E+000	-3.733214352147106E+002	5.2190435E-001	-1.3979392E+000	0
3.6417699E+000	1.276885969693831E+002	-1.3999971E+000	-3.844276697565381E+002	5.3819764E-001	-1.3999392E+000	0
3.6381996E+000	1.278885969643306E+002	-1.4019855E+000	-3.853514605974124E+002	5.4025716E-001	-1.4019393E+000	0
3.6360836E+000	1.280885969592782E+002	-1.4039817E+000	-3.861246984767263E+002	5.4211199E-001	-1.4039394E+000	0
3.6281948E+000	1.282885969542258E+002	-1.4060378E+000	-3.875309666333014E+002	5.4488319E-001	-1.4059392E+000	0
3.5981317E+000	1.284885969491734E+002	-1.4079444E+000	-3.912987659826306E+002	5.5092692E-001	-1.4079392E+000	0
3.5532014E+000	1.286885969441209E+002	-1.4100147E+000	-3.968293770554390E+002	5.5953526E-001	-1.4099392E+000	0
3.5663610E+000	1.288885969390685E+002	-1.4120673E+000	-3.959406514070479E+002	5.5909485E-001	-1.4119393E+000	0
3.5695550E+000	1.290885969340161E+002	-1.4140054E+000	-3.961293286174341E+002	5.6012899E-001	-1.4139394E+000	0
3.5760269E+000	1.292885969289637E+002	-1.4160639E+000	-3.959880565375170E+002	5.6074440E-001	-1.4159392E+000	0
3.5544624E+000	1.294885969239112E+002	-1.4180415E+000	-3.989468177851650E+002	5.6572312E-001	-1.4179392E+000	0
3.5483139E+000	1.296885969188588E+002	-1.4200530E+000	-4.002050232919710E+002	5.6831235E-001	-1.4199393E+000	0
3.5255337E+000	1.298885969138064E+002	-1.4220413E+000	-4.033549011732184E+002	5.7358730E-001	-1.4219393E+000	0
3.5120876E+000	1.300885969087540E+002	-1.4240530E+000	-4.054719437190461E+002	5.7741350E-001	-1.4239392E+000	0
3.5148144E+000	1.302885969037015E+002	-1.4260373E+000	-4.057219350127125E+002	5.7857460E-001	-1.4259393E+000	0
3.5274093E+000	1.304885968986491E+002	-1.4280291E+000	-4.048379214885821E+002	5.7812029E-001	-1.4279392E+000	0
3.5292830E+000	1.306885968935967E+002	-1.4300778E+000	-4.052034757575220E+002	5.7947248E-001	-1.4299393E+000	0
3.5063226E+000	1.308885968885443E+002	-1.4320273E+000	-4.084128887972329E+002	5.8485842E-001	-1.4319392E+000	0
3.4909809E+000	1.310885968834918E+002	-1.4340405E+000	-4.107844128165380E+002	5.8908153E-001	-1.4339392E+000	0
3.4476523E+000	1.312885968784394E+002	-1.4360386E+000	-4.165265010392595E+002	5.9814817E-001	-1.4359393E+000	0
3.4374261E+000	1.314885968733870E+002	-1.4379854E+000	-4.183320312889264E+002	6.0155535E-001	-1.4379393E+000	0
3.4440958E+000	1.316885968683346E+002	-1.4400276E+000	-4.181148305836718E+002	6.0209692E-001	-1.4399393E+000	0
3.4452388E+000	1.318885968632821E+002	-1.4420505E+000	-4.185632867748232E+002	6.0358936E-001	-1.4419394E+000	0
3.4387190E+000	1.320885968582297E+002	-1.4440415E+000	-4.199358712064422E+002	6.0640484E-001	-1.4439392E+000	0
3.3897521E+000	1.322885968531773E+002	-1.4460080E+000	-4.265822221794915E+002	6.1684132E-001	-1.4459393E+000	0
3.3780458E+000	1.324885968481249E+002	-1.4480093E+000	-4.286529511562005E+002	6.2069345E-001	-1.4479392E+000	0
3.3471892E+000	1.326885968430724E+002	-1.4500873E+000	-4.332253830924819E+002	6.2821466E-001	-1.4499393E+000	0
3.2937529E+000	1.328885968380200E+002	-1.4520309E+000	-4.408439002999380E+002	6.4011896E-001	-1.4519393E+000	0
3.2760260E+000	1.330885968329676E+002	-1.4540321E+000	-4.438402201853623E+002	6.4535791E-001	-1.4539392E+000	0
3.2911689E+000	1.332885968279152E+002	-1.4560624E+000	-4.424149906391995E+002	6.4418387E-001	-1.4559393E+000	0
3.2970867E+000	1.334885968228627E+002	-1.4580327E+000	-4.422184956781985E+002	6.4476901E-001	-1.4579391E+000	0
3.3080106E+000	1.336885968178103E+002	-1.4600720E+000	-4.413746586970474E+002	6.4443880E-001	-1.4599392E+000	0
3.3023598E+000	1.338885968127579E+002	-1.4620334E+000	-4.427238302295700E+002	6.4727700E-001	-1.4619393E+000	0
3.2919140E+000	1.340885968077055E+002	-1.4640644E+000	-4.447456442255561E+002	6.5113622E-001	-1.4639392E+000	0
3.2158644E+000	1.342885968026530E+002	-1.4665414E+000	-4.560333419894960E+002	6.6879177E-001	-1.4659393E+000	0
3.2171061E+000	1.344885967976006E+002	-1.4685388E+000	-4.564781978460105E+002	6.7035592E-001	-1.4679391E+000	0
3.2228174E+000	1.346885967925482E+002	-1.4705570E+000	-4.562954548340558E+002	6.7100847E-001	-1.4699392E+000	0
3.2214193E+000	1.348885967874958E+002	-1.4725379E+000	-4.571084097345392E+002	6.7310947E-001	-1.4719393E+000	0
3.1890652E+000	1.350885967824433E+002	-1.4745580E+000	-4.623793756913146E+002	6.8180519E-001	-1.4739392E+000	0
3.1814339E+000	1.352885967773909E+002	-1.4765322E+000	-4.641090367808097E+002	6.8527192E-001	-1.4759393E+000	0
3.1689441E+000	1.354885967723385E+002	-1.4786094E+000	-4.665937377298233E+002	6.8990993E-001	-1.4779391E+000	0
3.1065760E+000	1.356885967672861E+002	-1.4805655E+000	-4.765907991500117E+002	7.0562392E-001	-1.4799392E+000	0
3.1032324E+000	1.358885967622336E+002	-1.4825710E+000	-4.777505560375412E+002	7.0829910E-001	-1.4819393E+000	0
3.0851254E+000	1.360885967571812E+002	-1.4845918E+000	-4.812095634131746E+002	7.1439981E-001	-1.4839392E+000	0
3.0822470E+000	1.362885967521288E+002	-1.4865719E+000	-4.823013473951905E+002	7.1697563E-001	-1.4859393E+000	0
3.0673473E+000	1.364885967470764E+002	-1.4885696E+000	-4.852954205061033E+002	7.2239602E-001	-1.4879392E+000	0
3.0658920E+000	1.366885967420239E+002	-1.4906106E+000	-4.861914891093757E+002	7.2472221E-001	-1.4899392E+000	0
2.9637411E+000	1.368885967369715E+002	-1.4926246E+000	-5.036285576031041E+002	7.5172842E-001	-1.4919393E+000	0
2.8947644E+000	1.370885967319191E+002	-1.4945472E+000	-5.162932061694892E+002	7.7162457E-001	-1.4939393E+000	0
2.9121382E+000	1.372885967268667E+002	-1.4966211E+000	-5.139251660543778E+002	7.6915127E-001	-1.4959391E+000	0
2.8964465E+000	1.374885967218142E+002	-1.4985938E+000	-5.173904533429486E+002	7.7535814E-001	-1.4979392E+000	0
2.8823118E+000	1.376885967167618E+002	-1.5005887E+000	-5.206198055371142E+002	7.8123617E-001	-1.4999392E+000	0
2.8271437E+000	1.378885967117094E+002	-1.5026097E+000	-5.314939363656922E+002	7.9862797E-001	-1.5019393E+000	0
2.7565832E+000	1.380885967066570E+002	-1.5046526E+000	-5.458397283921699E+002	8.2129920E-001	-1.5039393E+000	0
2.7168577E+000	1.382885967016045E+002	-1.5066204E+000	-5.545452146941034E+002	8.3548915E-001	-1.5059392E+000	0
2.7176430E+000	1.384885966965521E+002	-1.5086385E+000	-5.551275556179417E+002	8.3748680E-001	-1.5079392E+000	0
2.7269571E+000	1.386885966914997E+002	-1.5106052E+000	-5.539526967850923E+002	8.3680385E-001	-1.5099393E+000	0
2.7374740E+000	1.388885966864473E+002	-1.5126117E+000	-5.525574889496615E+002	8.3580494E-001	-1.5119393E+000	0
2.7265937E+000	1.390585966821527E+002	-1.5143241E+000	-5.553904183186642E+002	8.4104109E-001	-1.5136391E+000	0
2.7247438E+000	1.391191966806218E+002	-1.5151070E+000	-5.560548706054688E+002	8.4248263E-001	-1.5144390E+000	1