EC-Lab ASCII FILE
Nb header lines : 63                          

Linear Sweep Voltammetry

Run on channel : 1 (SN 1340)
User : 
Electrode connection : standard
Potential control : Ewe
Ewe ctrl range : min = -5.00 V, max = 5.00 V
Ewe,I filtering : <None>
Safety Limits :
	Do not start on E overload
Channel : Floating
Acquisition started on : 02/19/2026 16:41:32.005
Technique started on : 02/19/2026 16:41:34.843
Loaded Setting File :  C:\Users\volt\Documents\Platalytix\PtPdCoNi_yellowtest_2-19_01_ZIR_C01.mpr
Saved on :
	File : PtPdCoNiCrFe_2_19_02_LSV_C01.mpr
	Directory : C:\Users\volt\Documents\Platalytix\
	Host : 127.0.0.1
Device : SP-200 (SN 0262)
Address : USB
EC-LAB for windows v11.60 (software)
Internet server v11.60 (firmware)
Command interpretor v11.60 (firmware)
Electrode material : PtPdCoNiCrFe
Initial state : 
Electrolyte : KOH (1M)
Comments : 
Cable : standard
Reference electrode : Hg/HgO (0.140 V)
Electrode surface area : 1.000 cm˛
Characteristic mass : 0.001 g
Equivalent Weight : 0.000 g/eq.
Density : 0.000 g/cm3
Volume (V) : 0.001 cmł
Cycle Definition : Charge/Discharge alternance
tR (h:m:s)          0:00:5.0000         
dER/dt (mV/h)       0.0                 
dER (mV)            0                   
dtR (s)             0.0000              
dE/dt               10.000              
dE/dt unit          mV/s                
Ei (V)              -0.200              
vs.                 Ref                 
EL (V)              -2.500              
vs.                 Ref                 
record              <I>                 
dI                  0.000               
unit dI             µA                  
tI (s)              0.0000              
step percent        50                  
N                   10                  
E range min (V)     -5.000              
E range max (V)     5.000               
I Range             Auto                
I Range min         Unset               
I Range max         Unset               
I Range init        Unset               
Bandwidth           8                   

Rwe/Ohm	time/s	Ewe/V	<I>/mA	Pwe/W	control/V	error	
0.0000000E+000	2.838400134787662E+000	-1.6021371E-001	0.000000000000000E+000	0.0000000E+000	0.0000000E+000	0
0.0000000E+000	7.838200008482090E+000	-8.4784359E-002	0.000000000000000E+000	0.0000000E+000	-1.9994101E-001	0
7.4744080E+002	8.038200003429665E+000	-2.0163125E-001	2.697621570527553E-001	-5.4392480E-005	-2.0184079E-001	0
1.0717745E+004	8.158200000398210E+000	-2.0284949E-001	1.892650894929372E-002	-3.8392327E-006	-2.0304085E-001	0
6.9925615E+003	8.388199994587922E+000	-2.0516315E-001	-2.934019943279181E-002	6.0195280E-006	-2.0534083E-001	0
5.4946533E+003	8.608199989030254E+000	-2.0739624E-001	-3.774509874363646E-002	7.8281919E-006	-2.0754084E-001	0
5.1258037E+003	8.808199983977829E+000	-2.0942518E-001	-4.085704206268326E-002	8.5564934E-006	-2.0954083E-001	0
4.9711616E+003	9.008199978925404E+000	-2.1141359E-001	-4.252800671489329E-002	8.9909990E-006	-2.1154083E-001	0
4.8940303E+003	9.208199973872979E+000	-2.1329422E-001	-4.358253027011516E-002	9.2959017E-006	-2.1354087E-001	0
4.8664575E+003	9.408199968820554E+000	-2.1526693E-001	-4.423483217883728E-002	9.5222968E-006	-2.1554083E-001	0
4.8643599E+003	9.608199963768129E+000	-2.1737421E-001	-4.468711660573010E-002	9.7138263E-006	-2.1754085E-001	0
4.8727988E+003	9.808199958715704E+000	-2.1940252E-001	-4.502597678101083E-002	9.8788132E-006	-2.1954085E-001	0
4.8905977E+003	1.000819995366328E+001	-2.2134978E-001	-4.526027036691405E-002	1.0018351E-005	-2.2154082E-001	0
4.9107861E+003	1.020819994861085E+001	-2.2330339E-001	-4.547202386951410E-002	1.0154057E-005	-2.2354084E-001	0
4.9383701E+003	1.040819994355843E+001	-2.2537182E-001	-4.563688446267122E-002	1.0285268E-005	-2.2554085E-001	0
4.9728335E+003	1.060819993850600E+001	-2.2739805E-001	-4.572806539079452E-002	1.0398473E-005	-2.2754084E-001	0
5.0046040E+003	1.080819993345358E+001	-2.2928120E-001	-4.581405462717236E-002	1.0504302E-005	-2.2954084E-001	0
5.0361987E+003	1.100819992840115E+001	-2.3132776E-001	-4.593300895291313E-002	1.0625580E-005	-2.3154086E-001	0
5.0707290E+003	1.120819992334873E+001	-2.3334123E-001	-4.601729377025049E-002	1.0737732E-005	-2.3354083E-001	0
5.1100601E+003	1.140819991829630E+001	-2.3541729E-001	-4.606937966784642E-002	1.0845529E-005	-2.3554084E-001	0
5.1443882E+003	1.160819991324388E+001	-2.3737496E-001	-4.614250588097768E-002	1.0953076E-005	-2.3754086E-001	0
5.1856836E+003	1.180819990819145E+001	-2.3939306E-001	-4.616422185229761E-002	1.1051394E-005	-2.3954082E-001	0
5.2177524E+003	1.200819990313903E+001	-2.4132867E-001	-4.625146033067068E-002	1.1161804E-005	-2.4154085E-001	0
5.2592026E+003	1.220819989808660E+001	-2.4331304E-001	-4.626424552697478E-002	1.1256694E-005	-2.4354085E-001	0
5.2984097E+003	1.240819989303418E+001	-2.4543326E-001	-4.632206003117201E-002	1.1368974E-005	-2.4554084E-001	0
5.3378643E+003	1.260819988798175E+001	-2.4744353E-001	-4.635627819024568E-002	1.1470561E-005	-2.4754085E-001	0
5.3750078E+003	1.280819988292933E+001	-2.4939314E-001	-4.639865635987195E-002	1.1571507E-005	-2.4954082E-001	0
5.4132476E+003	1.300819987787690E+001	-2.5140932E-001	-4.644334550588991E-002	1.1676290E-005	-2.5154087E-001	0
5.4524707E+003	1.320819987282448E+001	-2.5343490E-001	-4.648074508980410E-002	1.1779843E-005	-2.5354084E-001	0
5.4941621E+003	1.340819986777205E+001	-2.5536835E-001	-4.647994529621702E-002	1.1869507E-005	-2.5554082E-001	0
5.5289839E+003	1.360819986271963E+001	-2.5736764E-001	-4.654881205935613E-002	1.1980158E-005	-2.5754082E-001	0
5.5721250E+003	1.380819985766720E+001	-2.5937533E-001	-4.654872710098540E-002	1.2073591E-005	-2.5954083E-001	0
5.6096074E+003	1.400819985261478E+001	-2.6134616E-001	-4.658903025857319E-002	1.2175864E-005	-2.6154083E-001	0
5.6501006E+003	1.420819984756236E+001	-2.6337066E-001	-4.661344832612968E-002	1.2276615E-005	-2.6354083E-001	0
5.6884487E+003	1.440819984250993E+001	-2.6535633E-001	-4.664827570321284E-002	1.2378416E-005	-2.6554084E-001	0
5.7274360E+003	1.460819983745751E+001	-2.6731294E-001	-4.667235602009118E-002	1.2476125E-005	-2.6754081E-001	0
5.7674370E+003	1.480819983240508E+001	-2.6927885E-001	-4.668951801514319E-002	1.2572500E-005	-2.6954085E-001	0
5.8020459E+003	1.500819982735266E+001	-2.7128273E-001	-4.675639060942582E-002	1.2684201E-005	-2.7154085E-001	0
5.8450991E+003	1.520819982230023E+001	-2.7334440E-001	-4.676471702182189E-002	1.2782873E-005	-2.7354085E-001	0
5.8859834E+003	1.540819981724781E+001	-2.7537400E-001	-4.678470497742904E-002	1.2883291E-005	-2.7554083E-001	0
5.9263477E+003	1.560819981219538E+001	-2.7732104E-001	-4.679459662207283E-002	1.2977126E-005	-2.7754083E-001	0
5.9651523E+003	1.580819980714296E+001	-2.7928105E-001	-4.681876080734715E-002	1.3075593E-005	-2.7954084E-001	0
6.0125767E+003	1.600819980209053E+001	-2.8142816E-001	-4.680658203033339E-002	1.3172690E-005	-2.8154084E-001	0
6.0467026E+003	1.620819979703811E+001	-2.8333893E-001	-4.685841851272200E-002	1.3276815E-005	-2.8354084E-001	0
6.0860107E+003	1.640819979198568E+001	-2.8530189E-001	-4.687830799627737E-002	1.3374470E-005	-2.8554085E-001	0
6.1271709E+003	1.660819978693326E+001	-2.8727379E-001	-4.688522670562684E-002	1.3468897E-005	-2.8754082E-001	0
6.1693115E+003	1.680819978188083E+001	-2.8928787E-001	-4.689143467963808E-002	1.3565123E-005	-2.8954086E-001	0
6.2140913E+003	1.700819977682841E+001	-2.9134035E-001	-4.688382033224903E-002	1.3659149E-005	-2.9154083E-001	0
6.2523896E+003	1.720819977177598E+001	-2.9344043E-001	-4.693252508514795E-002	1.3771901E-005	-2.9354084E-001	0
6.2923467E+003	1.740819976672356E+001	-2.9529941E-001	-4.692993498995457E-002	1.3858382E-005	-2.9554084E-001	0
6.3352275E+003	1.760819976167113E+001	-2.9736507E-001	-4.693834078941661E-002	1.3957823E-005	-2.9754084E-001	0
6.3770127E+003	1.780819975661871E+001	-2.9941377E-001	-4.695204166139011E-002	1.4058088E-005	-2.9954085E-001	0
6.4179063E+003	1.800819975156628E+001	-3.0136633E-001	-4.695711098268185E-002	1.4151292E-005	-3.0154085E-001	0
6.4581831E+003	1.820819974651386E+001	-3.0334413E-001	-4.697050764056476E-002	1.4248228E-005	-3.0354086E-001	0
6.5019272E+003	1.840819974146143E+001	-3.0527100E-001	-4.695084869999921E-002	1.4332732E-005	-3.0554083E-001	0
6.5454971E+003	1.860819973640901E+001	-3.0736849E-001	-4.695876843777513E-002	1.4433645E-005	-3.0754086E-001	0
6.5876523E+003	1.880819973135658E+001	-3.0940551E-001	-4.696749296945324E-002	1.4532001E-005	-3.0954084E-001	0
6.6247725E+003	1.900819972630416E+001	-3.1137231E-001	-4.700120907438428E-002	1.4634875E-005	-3.1154081E-001	0
6.6690513E+003	1.920819972125173E+001	-3.1335628E-001	-4.698663440721995E-002	1.4723557E-005	-3.1354085E-001	0
6.7148608E+003	1.940819971619931E+001	-3.1539947E-001	-4.697036515058683E-002	1.4814428E-005	-3.1554085E-001	0
6.7543979E+003	1.960819971114688E+001	-3.1740677E-001	-4.699260903688152E-002	1.4915772E-005	-3.1754082E-001	0
6.8033774E+003	1.980819970609446E+001	-3.1935978E-001	-4.694135731472593E-002	1.4991181E-005	-3.1954083E-001	0
6.8419102E+003	2.000819970104203E+001	-3.2132354E-001	-4.696401027786234E-002	1.5090643E-005	-3.2154083E-001	0
6.8862192E+003	2.020819969598961E+001	-3.2339263E-001	-4.696229142569808E-002	1.5187259E-005	-3.2354084E-001	0
6.9307910E+003	2.040819969093718E+001	-3.2536408E-001	-4.694472610408772E-002	1.5274129E-005	-3.2554087E-001	0
6.9713745E+003	2.060819968588476E+001	-3.2736224E-001	-4.695806187834134E-002	1.5372296E-005	-3.2754084E-001	0
7.0123574E+003	2.080819968083233E+001	-3.2933727E-001	-4.696527003947359E-002	1.5467414E-005	-3.2954085E-001	0
7.0594087E+003	2.100819967577991E+001	-3.3133927E-001	-4.693583958854086E-002	1.5551686E-005	-3.3154082E-001	0
7.1028140E+003	2.120819967072748E+001	-3.3338374E-001	-4.693685442630560E-002	1.5647984E-005	-3.3354083E-001	0
7.1463428E+003	2.140819966567506E+001	-3.3538234E-001	-4.693062616382304E-002	1.5739703E-005	-3.3554083E-001	0
7.1901567E+003	2.160819966062263E+001	-3.3733469E-001	-4.691618014509263E-002	1.5826456E-005	-3.3754084E-001	0
7.2338662E+003	2.180819965557021E+001	-3.3941182E-001	-4.691983764049285E-002	1.5925149E-005	-3.3954084E-001	0
7.2779331E+003	2.200819965051778E+001	-3.4132451E-001	-4.689854957625861E-002	1.6007625E-005	-3.4154084E-001	0
7.3228350E+003	2.220819964546536E+001	-3.4336999E-001	-4.689030946694861E-002	1.6100725E-005	-3.4354085E-001	0
7.3675225E+003	2.240819964041293E+001	-3.4542507E-001	-4.688483535110421E-002	1.6195198E-005	-3.4554085E-001	0
7.4095303E+003	2.260819963536051E+001	-3.4741455E-001	-4.688752855674744E-002	1.6289410E-005	-3.4754086E-001	0
7.4551538E+003	2.280819963030808E+001	-3.4941044E-001	-4.686830799959107E-002	1.6376276E-005	-3.4954089E-001	0
7.4972100E+003	2.300819962525566E+001	-3.5136825E-001	-4.686653553407905E-002	1.6467413E-005	-3.5154086E-001	0
7.5450430E+003	2.320819962020323E+001	-3.5339490E-001	-4.683802386771152E-002	1.6552318E-005	-3.5354084E-001	0
7.5919990E+003	2.340819961515081E+001	-3.5542127E-001	-4.681524096290168E-002	1.6639133E-005	-3.5554087E-001	0
7.6318359E+003	2.360819961009838E+001	-3.5736009E-001	-4.682491849442683E-002	1.6733356E-005	-3.5754085E-001	0
7.6741934E+003	2.380819960504596E+001	-3.5931963E-001	-4.682181114615974E-002	1.6823995E-005	-3.5954085E-001	0
7.7235596E+003	2.400819959999353E+001	-3.6136684E-001	-4.678760323084274E-002	1.6907488E-005	-3.6154085E-001	0
7.7659575E+003	2.420819959494111E+001	-3.6341637E-001	-4.679607935519051E-002	1.7006461E-005	-3.6354086E-001	0
7.8146079E+003	2.440819958988868E+001	-3.6539587E-001	-4.675805710399694E-002	1.7085202E-005	-3.6554083E-001	0
7.8577563E+003	2.460819958483626E+001	-3.6736286E-001	-4.675162155624624E-002	1.7174809E-005	-3.6754087E-001	0
7.9040547E+003	2.480819957978383E+001	-3.6934873E-001	-4.672901935599816E-002	1.7259305E-005	-3.6954084E-001	0
7.9514561E+003	2.500819957473141E+001	-3.7143883E-001	-4.671330997628509E-002	1.7351138E-005	-3.7154081E-001	0
7.9952285E+003	2.520819956967898E+001	-3.7336108E-001	-4.669798801303571E-002	1.7435212E-005	-3.7354085E-001	0
8.0397031E+003	2.540819956462656E+001	-3.7538600E-001	-4.669152640805180E-002	1.7527345E-005	-3.7554082E-001	0
8.0848872E+003	2.560819955957413E+001	-3.7737906E-001	-4.667709561438638E-002	1.7614959E-005	-3.7754086E-001	0
8.1318545E+003	2.580819955452171E+001	-3.7940443E-001	-4.665656947972185E-002	1.7701708E-005	-3.7954083E-001	0
8.1777871E+003	2.600819954946928E+001	-3.8137883E-001	-4.663594370964441E-002	1.7785962E-005	-3.8154083E-001	0
8.2169980E+003	2.620819954441686E+001	-3.8333902E-001	-4.665195352509799E-002	1.7883514E-005	-3.8354087E-001	0
8.2605068E+003	2.640819953936443E+001	-3.8538963E-001	-4.665447785065012E-002	1.7980152E-005	-3.8554084E-001	0
8.3064160E+003	2.660819953431201E+001	-3.8741902E-001	-4.664093419558901E-002	1.8069584E-005	-3.8754088E-001	0
8.3508789E+003	2.680819952925958E+001	-3.8939407E-001	-4.662911223919202E-002	1.8157099E-005	-3.8954085E-001	0
8.3967568E+003	2.700819952420716E+001	-3.9134622E-001	-4.660682737153644E-002	1.8239405E-005	-3.9154088E-001	0
8.4431064E+003	2.720819951915473E+001	-3.9339173E-001	-4.659324390322694E-002	1.8329396E-005	-3.9354086E-001	0
8.4818867E+003	2.740819951410231E+001	-3.9540496E-001	-4.661757335866135E-002	1.8432820E-005	-3.9554089E-001	0
8.5254551E+003	2.760819950904988E+001	-3.9738911E-001	-4.661207308289494E-002	1.8523131E-005	-3.9754087E-001	0
8.5718652E+003	2.780819950399746E+001	-3.9942449E-001	-4.659715036876388E-002	1.8612043E-005	-3.9954084E-001	0
8.6140752E+003	2.800819949894503E+001	-4.0137044E-001	-4.659472385161625E-002	1.8701745E-005	-4.0154088E-001	0
8.6639941E+003	2.820819949389261E+001	-4.0345183E-001	-4.656649518957623E-002	1.8787337E-005	-4.0354082E-001	0
8.7091846E+003	2.840819948884018E+001	-4.0536535E-001	-4.654458046008036E-002	1.8867560E-005	-4.0554088E-001	0
8.7475537E+003	2.860819948378776E+001	-4.0737137E-001	-4.656974832229577E-002	1.8971183E-005	-4.0754089E-001	0
8.7964102E+003	2.880819947873533E+001	-4.0940818E-001	-4.654264259241869E-002	1.9054938E-005	-4.0954089E-001	0
8.8392256E+003	2.900819947368291E+001	-4.1137794E-001	-4.654004181499771E-002	1.9145546E-005	-4.1154084E-001	0
8.8765967E+003	2.920819946863048E+001	-4.1338015E-001	-4.656966567454446E-002	1.9250976E-005	-4.1354087E-001	0
8.9260205E+003	2.940819946357806E+001	-4.1543075E-001	-4.654154119524229E-002	1.9334788E-005	-4.1554090E-001	0
8.9719570E+003	2.960819945852563E+001	-4.1741323E-001	-4.652421348205571E-002	1.9419822E-005	-4.1754088E-001	0
9.0121279E+003	2.980819945347321E+001	-4.1945469E-001	-4.654335785369979E-002	1.9522829E-005	-4.1954085E-001	0
9.0508262E+003	3.000819944842078E+001	-4.2135549E-001	-4.655436653714584E-002	1.9615938E-005	-4.2154089E-001	0
9.0998369E+003	3.020819944336836E+001	-4.2346188E-001	-4.653510907949993E-002	1.9705845E-005	-4.2354083E-001	0
9.1400137E+003	3.040819943831593E+001	-4.2543846E-001	-4.654680995868271E-002	1.9802803E-005	-4.2554086E-001	0
9.1864863E+003	3.060819943326351E+001	-4.2740226E-001	-4.652510926971118E-002	1.9884938E-005	-4.2754087E-001	0
9.2235234E+003	3.080819942821108E+001	-4.2938665E-001	-4.655342688915964E-002	1.9989420E-005	-4.2954087E-001	0
9.2670996E+003	3.100819942315866E+001	-4.3143442E-001	-4.655549812839155E-002	2.0085645E-005	-4.3154085E-001	0
9.3092461E+003	3.120819941810623E+001	-4.3346766E-001	-4.656313208608642E-002	2.0183612E-005	-4.3354088E-001	0
9.3501553E+003	3.140819941305381E+001	-4.3544483E-001	-4.657086773744898E-002	2.0279043E-005	-4.3554085E-001	0
9.3867197E+003	3.160819940800138E+001	-4.3739998E-001	-4.659774724542998E-002	2.0381854E-005	-4.3754086E-001	0
9.4365273E+003	3.180819940294896E+001	-4.3945080E-001	-4.656912218156317E-002	2.0464839E-005	-4.3954086E-001	0
9.4783662E+003	3.200819939789653E+001	-4.4147190E-001	-4.657679145824156E-002	2.0562346E-005	-4.4154090E-001	0
9.5174922E+003	3.220819939284411E+001	-4.4346496E-001	-4.659472992369196E-002	2.0663130E-005	-4.4354087E-001	0
9.5554092E+003	3.240819938779168E+001	-4.4537494E-001	-4.660971847081928E-002	2.0758800E-005	-4.4554088E-001	0
9.6047607E+003	3.260819938273926E+001	-4.4741422E-001	-4.658254787939364E-002	2.0841695E-005	-4.4754088E-001	0
9.6413955E+003	3.280819937768683E+001	-4.4940180E-001	-4.661169509052820E-002	2.0947380E-005	-4.4954088E-001	0
9.6825225E+003	3.300819937263441E+001	-4.5139641E-001	-4.661971374806598E-002	2.1043972E-005	-4.5154086E-001	0
9.7233760E+003	3.320819936758198E+001	-4.5344299E-001	-4.663431510205696E-002	2.1146003E-005	-4.5354083E-001	0
9.7674873E+003	3.340819936252956E+001	-4.5548254E-001	-4.663251787545519E-002	2.1240297E-005	-4.5554093E-001	0
9.8048359E+003	3.360819935747713E+001	-4.5740065E-001	-4.665051534895459E-002	2.1337975E-005	-4.5754090E-001	0
9.8462803E+003	3.380819935242471E+001	-4.5937344E-001	-4.665451738935877E-002	2.1431846E-005	-4.5954084E-001	0
9.8885088E+003	3.400819934737228E+001	-4.6141577E-001	-4.666181501764544E-002	2.1530497E-005	-4.6154088E-001	0
9.9266309E+003	3.420819934231986E+001	-4.6342900E-001	-4.668542952725530E-002	2.1635382E-005	-4.6354088E-001	0
9.9663506E+003	3.440819933726743E+001	-4.6540895E-001	-4.669802954136409E-002	2.1733680E-005	-4.6554083E-001	0
1.0007740E+004	3.460819933221501E+001	-4.6737441E-001	-4.670129173309601E-002	2.1826989E-005	-4.6754086E-001	0
1.0048752E+004	3.480819932716258E+001	-4.6940425E-001	-4.671269198964062E-002	2.1927137E-005	-4.6954089E-001	0
1.0085866E+004	3.500819932211016E+001	-4.7141010E-001	-4.673967589682293E-002	2.2033555E-005	-4.7154090E-001	0
1.0128276E+004	3.520819931705773E+001	-4.7342864E-001	-4.674325625004594E-002	2.2129596E-005	-4.7354084E-001	0
1.0162916E+004	3.540819931200531E+001	-4.7541261E-001	-4.677915336620142E-002	2.2239399E-005	-4.7554088E-001	0
1.0207081E+004	3.560819930695288E+001	-4.7742417E-001	-4.677382195653512E-002	2.2330953E-005	-4.7754091E-001	0
1.0248810E+004	3.580819930190046E+001	-4.7941497E-001	-4.677762625983961E-002	2.2425895E-005	-4.7954085E-001	0
1.0278462E+004	3.600819929684803E+001	-4.8139274E-001	-4.683509368218197E-002	2.2546074E-005	-4.8154086E-001	0
1.0325328E+004	3.620819929179561E+001	-4.8340473E-001	-4.681737379323012E-002	2.2631741E-005	-4.8354089E-001	0
1.0358482E+004	3.640819928674318E+001	-4.8537552E-001	-4.685778349274761E-002	2.2743621E-005	-4.8554087E-001	0
1.0402641E+004	3.660819928169076E+001	-4.8741025E-001	-4.685447130921405E-002	2.2837350E-005	-4.8754087E-001	0
1.0435887E+004	3.680819927663833E+001	-4.8939988E-001	-4.689585881322506E-002	2.2950828E-005	-4.8954090E-001	0
1.0475543E+004	3.700819927158591E+001	-4.9139622E-001	-4.690890079876292E-002	2.3050856E-005	-4.9154088E-001	0
1.0523257E+004	3.720819926653348E+001	-4.9339291E-001	-4.688595062150247E-002	2.3133196E-005	-4.9354085E-001	0
1.0549660E+004	3.740819926148106E+001	-4.9536076E-001	-4.695514026847647E-002	2.3259734E-005	-4.9554089E-001	0
1.0590539E+004	3.760819925642863E+001	-4.9742684E-001	-4.696898212204448E-002	2.3363633E-005	-4.9754092E-001	0
1.0635350E+004	3.780819925137621E+001	-4.9943200E-001	-4.695962035823645E-002	2.3453136E-005	-4.9954087E-001	0
1.0668144E+004	3.800819924632378E+001	-5.0143361E-001	-4.700289486565301E-002	2.3568831E-005	-5.0154084E-001	0
1.0706785E+004	3.820819924127136E+001	-5.0343704E-001	-4.702037484110527E-002	2.3671799E-005	-5.0354087E-001	0
1.0745235E+004	3.840819923621893E+001	-5.0548476E-001	-4.704268788258914E-002	2.3779361E-005	-5.0554097E-001	0
1.0782994E+004	3.860819923116651E+001	-5.0746608E-001	-4.706170516407493E-002	2.3882219E-005	-5.0754082E-001	0
1.0814118E+004	3.880819922611408E+001	-5.0938517E-001	-4.710371920162104E-002	2.3993936E-005	-5.0954086E-001	0
1.0858923E+004	3.900819922106166E+001	-5.1143599E-001	-4.709822551321963E-002	2.4087727E-005	-5.1154089E-001	0
1.0892229E+004	3.920819921600923E+001	-5.1343697E-001	-4.713791762156583E-002	2.4202349E-005	-5.1354086E-001	0
1.0931442E+004	3.940819921095681E+001	-5.1543993E-001	-4.715205063407735E-002	2.4304050E-005	-5.1554084E-001	0
1.0964091E+004	3.960819920590438E+001	-5.1742417E-001	-4.719261981044276E-002	2.4418601E-005	-5.1754087E-001	0
1.1000659E+004	3.980819920085196E+001	-5.1938033E-001	-4.721356369238217E-002	2.4521796E-005	-5.1954091E-001	0
1.1029898E+004	4.000819919579953E+001	-5.2143097E-001	-4.727432279041888E-002	2.4650297E-005	-5.2154088E-001	0
1.1072648E+004	4.020819919074711E+001	-5.2343184E-001	-4.727250535902749E-002	2.4743935E-005	-5.2354085E-001	0
1.1111642E+004	4.040819918569468E+001	-5.2541029E-001	-4.728466805171982E-002	2.4843852E-005	-5.2554095E-001	0
1.1145628E+004	4.060819918064226E+001	-5.2735060E-001	-4.731457017820390E-002	2.4951367E-005	-5.2754080E-001	0
1.1184421E+004	4.080819917558983E+001	-5.2942902E-001	-4.733629448206295E-002	2.5061208E-005	-5.2954090E-001	0
1.1220954E+004	4.100819917053741E+001	-5.3143716E-001	-4.736113811124021E-002	2.5169469E-005	-5.3154093E-001	0
1.1255704E+004	4.120819916548498E+001	-5.3338611E-001	-4.738807059241590E-002	2.5276138E-005	-5.3354090E-001	0
1.1286363E+004	4.140819916043256E+001	-5.3540212E-001	-4.743796785899534E-002	2.5398389E-005	-5.3554088E-001	0
1.1317405E+004	4.160819915538013E+001	-5.3741348E-001	-4.748557155551666E-002	2.5519386E-005	-5.3754085E-001	0
1.1362298E+004	4.180819915032771E+001	-5.3943372E-001	-4.747576114870489E-002	2.5610027E-005	-5.3954095E-001	0
1.1387257E+004	4.200819914527528E+001	-5.4139990E-001	-4.754436453709343E-002	2.5740514E-005	-5.4154080E-001	0
1.1423853E+004	4.220819914022286E+001	-5.4338980E-001	-4.756624752981931E-002	2.5847014E-005	-5.4354084E-001	0
1.1461054E+004	4.240819913517043E+001	-5.4530662E-001	-4.757910056141046E-002	2.5945199E-005	-5.4554093E-001	0
1.1503664E+004	4.260819913011801E+001	-5.4744112E-001	-4.758841574800254E-002	2.6051855E-005	-5.4754084E-001	0
1.1529422E+004	4.280819912506558E+001	-5.4945755E-001	-4.765699073554017E-002	2.6185493E-005	-5.4954088E-001	0
1.1562590E+004	4.300819912001316E+001	-5.5141282E-001	-4.768938784431587E-002	2.6296540E-005	-5.5154085E-001	0
1.1602203E+004	4.320819911496073E+001	-5.5343479E-001	-4.770083798152608E-002	2.6399302E-005	-5.5354095E-001	0
1.1628480E+004	4.340819910990831E+001	-5.5547059E-001	-4.776811270891157E-002	2.6533782E-005	-5.5554086E-001	0
1.1661823E+004	4.360819910485588E+001	-5.5742204E-001	-4.779887775776492E-002	2.6644148E-005	-5.5754089E-001	0
1.1692113E+004	4.380819909980346E+001	-5.5933523E-001	-4.783867891268634E-002	2.6757858E-005	-5.5954093E-001	0
1.1732161E+004	4.400819909475103E+001	-5.6143117E-001	-4.785402698438102E-002	2.6866743E-005	-5.6154084E-001	0
1.1758874E+004	4.420819908969861E+001	-5.6340492E-001	-4.791317090456515E-002	2.6994516E-005	-5.6354088E-001	0
1.1794743E+004	4.440819908464618E+001	-5.6535155E-001	-4.793250272625998E-002	2.7098715E-005	-5.6554091E-001	0
1.1822318E+004	4.460819907959376E+001	-5.6743824E-001	-4.799720447018441E-002	2.7235450E-005	-5.6754088E-001	0
1.1863969E+004	4.480819907454134E+001	-5.6952977E-001	-4.800499740870823E-002	2.7340275E-005	-5.6954086E-001	0
1.1882879E+004	4.500819906948891E+001	-5.7143122E-001	-4.808861575017587E-002	2.7479336E-005	-5.7154089E-001	0
1.1909393E+004	4.520819906443649E+001	-5.7346141E-001	-4.815202965422229E-002	2.7613331E-005	-5.7354093E-001	0
1.1950509E+004	4.540819905938406E+001	-5.7541615E-001	-4.814992723205158E-002	2.7706246E-005	-5.7554084E-001	0
1.1974214E+004	4.560819905433164E+001	-5.7744235E-001	-4.822382237683021E-002	2.7846478E-005	-5.7754081E-001	0
1.2006456E+004	4.580819904927921E+001	-5.7942396E-001	-4.825936825660904E-002	2.7962635E-005	-5.7954091E-001	0
1.2029112E+004	4.600819904422679E+001	-5.8140981E-001	-4.833355762408686E-002	2.8101605E-005	-5.8154082E-001	0
1.2061137E+004	4.620819903917436E+001	-5.8340144E-001	-4.837035188660499E-002	2.8219332E-005	-5.8354086E-001	0
1.2093589E+004	4.640819903412194E+001	-5.8547014E-001	-4.841161299921382E-002	2.8343555E-005	-5.8554089E-001	0
1.2116069E+004	4.660819902906951E+001	-5.8740836E-001	-4.848175856143301E-002	2.8478591E-005	-5.8754092E-001	0
1.2137658E+004	4.680819902401709E+001	-5.8936185E-001	-4.855647084489023E-002	2.8617331E-005	-5.8954084E-001	0
1.2166375E+004	4.700819901896466E+001	-5.9137994E-001	-4.860773401534446E-002	2.8745639E-005	-5.9154087E-001	0
1.2203797E+004	4.720819901391224E+001	-5.9343821E-001	-4.862734073136310E-002	2.8857323E-005	-5.9354091E-001	0
1.2218628E+004	4.740819900885981E+001	-5.9540582E-001	-4.872935134737988E-002	2.9013740E-005	-5.9554088E-001	0
1.2248410E+004	4.760819900380739E+001	-5.9742391E-001	-4.877563010053332E-002	2.9139728E-005	-5.9754086E-001	0
1.2280405E+004	4.780819899875496E+001	-5.9945291E-001	-4.881377385262953E-002	2.9261559E-005	-5.9954089E-001	0
1.2296601E+004	4.800819899370254E+001	-6.0142076E-001	-4.890951446612324E-002	2.9415198E-005	-6.0154092E-001	0
1.2318854E+004	4.820819898865011E+001	-6.0336500E-001	-4.897899188728502E-002	2.9552210E-005	-6.0354090E-001	0
1.2340040E+004	4.840819898359769E+001	-6.0537791E-001	-4.905802013179347E-002	2.9698642E-005	-6.0554087E-001	0
1.2365669E+004	4.860819897854526E+001	-6.0738605E-001	-4.911873660096799E-002	2.9834035E-005	-6.0754091E-001	0
1.2384576E+004	4.880819897349284E+001	-6.0943425E-001	-4.920913096329405E-002	2.9989729E-005	-6.0954094E-001	0
1.2396487E+004	4.900819896844041E+001	-6.1140722E-001	-4.932100446356236E-002	3.0155219E-005	-6.1154085E-001	0
1.2418485E+004	4.920819896338799E+001	-6.1340374E-001	-4.939440888185842E-002	3.0298716E-005	-6.1354089E-001	0
1.2446701E+004	4.940819895833556E+001	-6.1537260E-001	-4.944061985252035E-002	3.0424402E-005	-6.1554092E-001	0
1.2456221E+004	4.960819895328314E+001	-6.1746413E-001	-4.957074503775460E-002	3.0608157E-005	-6.1754084E-001	0
1.2479156E+004	4.980819894823071E+001	-6.1942327E-001	-4.963663041215749E-002	3.0746083E-005	-6.1954087E-001	0
1.2508105E+004	5.000819894317829E+001	-6.2145817E-001	-4.968443741576301E-002	3.0876799E-005	-6.2154090E-001	0
1.2514194E+004	5.020819893812586E+001	-6.2345618E-001	-4.981992011858124E-002	3.1060536E-005	-6.2354088E-001	0
1.2530446E+004	5.040819893307344E+001	-6.2540728E-001	-4.991101558518746E-002	3.1214713E-005	-6.2554085E-001	0
1.2548963E+004	5.060819892802101E+001	-6.2746108E-001	-5.000103038868731E-002	3.1373700E-005	-6.2754089E-001	0
1.2570594E+004	5.080819892296859E+001	-6.2946093E-001	-5.007408180510600E-002	3.1519678E-005	-6.2954092E-001	0
1.2578493E+004	5.100819891791616E+001	-6.3139307E-001	-5.019624071679346E-002	3.1693558E-005	-6.3154083E-001	0
1.2588616E+004	5.120819891286374E+001	-6.3336313E-001	-5.031237269270217E-002	3.1866002E-005	-6.3354087E-001	0
1.2598928E+004	5.140819890781131E+001	-6.3541681E-001	-5.043419582828412E-002	3.2046737E-005	-6.3554096E-001	0
1.2616396E+004	5.160819890275889E+001	-6.3741189E-001	-5.052250506178968E-002	3.2203647E-005	-6.3754088E-001	0
1.2616507E+004	5.180819889770646E+001	-6.3940853E-001	-5.068031446944898E-002	3.2405424E-005	-6.3954091E-001	0
1.2624987E+004	5.200819889265404E+001	-6.4142030E-001	-5.080561975044640E-002	3.2587755E-005	-6.4154088E-001	0
1.2633444E+004	5.220819888760161E+001	-6.4348400E-001	-5.093496290242493E-002	3.2775835E-005	-6.4354092E-001	0
1.2650182E+004	5.240819888254919E+001	-6.4543408E-001	-5.102172566212437E-002	3.2931162E-005	-6.4554083E-001	0
1.2641875E+004	5.260819887749676E+001	-6.4746779E-001	-5.121612044414514E-002	3.3160788E-005	-6.4754087E-001	0
1.2639862E+004	5.280819887244434E+001	-6.4941329E-001	-5.137819243656283E-002	3.3365683E-005	-6.4954096E-001	0
1.2651146E+004	5.300819886739191E+001	-6.5141970E-001	-5.149096742698955E-002	3.3542230E-005	-6.5154088E-001	0
1.2647984E+004	5.320819886233949E+001	-6.5342420E-001	-5.166231784621089E-002	3.3757409E-005	-6.5354085E-001	0
1.2642815E+004	5.340819885728706E+001	-6.5546846E-001	-5.184513571526417E-002	3.3982851E-005	-6.5554094E-001	0
1.2636064E+004	5.360819885223464E+001	-6.5749383E-001	-5.203311632930085E-002	3.4211454E-005	-6.5754086E-001	0
1.2639038E+004	5.380819884718221E+001	-6.5947974E-001	-5.217800091987934E-002	3.4410336E-005	-6.5954083E-001	0
1.2626131E+004	5.400819884212979E+001	-6.6146541E-001	-5.238860603337425E-002	3.4653251E-005	-6.6154087E-001	0
1.2607244E+004	5.420819883707736E+001	-6.6341203E-001	-5.262149689357987E-002	3.4909735E-005	-6.6354096E-001	0
1.2604452E+004	5.440819883202494E+001	-6.6538537E-001	-5.278970923194481E-002	3.5125500E-005	-6.6554087E-001	0
1.2582357E+004	5.460819882697251E+001	-6.6747296E-001	-5.304832470206267E-002	3.5408324E-005	-6.6754085E-001	0
1.2574601E+004	5.480819882192009E+001	-6.6941798E-001	-5.323572624780981E-002	3.5636953E-005	-6.6954094E-001	0
1.2561319E+004	5.500819881686766E+001	-6.7145592E-001	-5.345425110779145E-002	3.5892172E-005	-6.7154086E-001	0
1.2527939E+004	5.520819881181524E+001	-6.7349523E-001	-5.375945683496930E-002	3.6206737E-005	-6.7354089E-001	0
1.2507772E+004	5.540819880676281E+001	-6.7542005E-001	-5.400002507657620E-002	3.6472698E-005	-6.7554086E-001	0
1.2478194E+004	5.560819880171039E+001	-6.7738467E-001	-5.428547219398605E-002	3.6772148E-005	-6.7754090E-001	0
1.2447750E+004	5.580819879665796E+001	-6.7944038E-001	-5.458339056857509E-002	3.7086160E-005	-6.7954087E-001	0
1.2407743E+004	5.600819879160554E+001	-6.8140763E-001	-5.491793491400346E-002	3.7421501E-005	-6.8154085E-001	0
1.2382141E+004	5.620819878655311E+001	-6.8343103E-001	-5.519489962670983E-002	3.7721908E-005	-6.8354094E-001	0
1.2337617E+004	5.640819878150069E+001	-6.8540800E-001	-5.555432483441991E-002	3.8077378E-005	-6.8554091E-001	0
1.2309031E+004	5.660819877644826E+001	-6.8748134E-001	-5.585178168693261E-002	3.8397058E-005	-6.8754083E-001	0
1.2270854E+004	5.680819877139584E+001	-6.8944424E-001	-5.618551702876376E-002	3.8736780E-005	-6.8954092E-001	0
1.2231406E+004	5.700819876634341E+001	-6.9132936E-001	-5.652083971647470E-002	3.9074515E-005	-6.9154084E-001	0
1.2187295E+004	5.720819876129099E+001	-6.9352865E-001	-5.690587282786880E-002	3.9465853E-005	-6.9354087E-001	0
1.2132025E+004	5.740819875623856E+001	-6.9544196E-001	-5.732282221501006E-002	3.9864695E-005	-6.9554090E-001	0
1.2088865E+004	5.760819875118614E+001	-6.9736928E-001	-5.768690812148058E-002	4.0229079E-005	-6.9754100E-001	0
1.2045554E+004	5.780819874613371E+001	-6.9941670E-001	-5.806430643625005E-002	4.0611147E-005	-6.9954097E-001	0
1.2000674E+004	5.800819874108129E+001	-7.0140004E-001	-5.844672137550411E-002	4.0994531E-005	-7.0154083E-001	0
1.1945616E+004	5.820819873602886E+001	-7.0342302E-001	-5.888545235287390E-002	4.1421383E-005	-7.0354092E-001	0
1.1894379E+004	5.840819873097644E+001	-7.0544630E-001	-5.930921623468532E-002	4.1839467E-005	-7.0554090E-001	0
1.1841405E+004	5.860819872592401E+001	-7.0739758E-001	-5.973932910668339E-002	4.2259457E-005	-7.0754087E-001	0
1.1787999E+004	5.880819872087159E+001	-7.0943427E-001	-6.018275466468820E-002	4.2695709E-005	-7.0954090E-001	0
1.1734242E+004	5.900819871581916E+001	-7.1146202E-001	-6.063127239834509E-002	4.3136846E-005	-7.1154094E-001	0
1.1671949E+004	5.920819871076674E+001	-7.1345830E-001	-6.112589309089170E-002	4.3610777E-005	-7.1354091E-001	0
1.1610524E+004	5.940819870571431E+001	-7.1538180E-001	-6.161494413601920E-002	4.4078210E-005	-7.1554089E-001	0
1.1550604E+004	5.960819870066189E+001	-7.1742076E-001	-6.211109982028440E-002	4.4559791E-005	-7.1754098E-001	0
1.1487522E+004	5.980819869560946E+001	-7.1944022E-001	-6.262797251599295E-002	4.5057084E-005	-7.1954089E-001	0
1.1429708E+004	6.000819869055704E+001	-7.2146553E-001	-6.312195736758563E-002	4.5540317E-005	-7.2154087E-001	0
1.1372644E+004	6.020819868550461E+001	-7.2346395E-001	-6.361440487117270E-002	4.6022727E-005	-7.2354090E-001	0
1.1323545E+004	6.040819868045219E+001	-7.2544938E-001	-6.406556992409351E-002	4.6476329E-005	-7.2554094E-001	0
1.1276330E+004	6.060819867539976E+001	-7.2745347E-001	-6.451154384781033E-002	4.6929148E-005	-7.2754091E-001	0
1.1214739E+004	6.080819867034734E+001	-7.2938651E-001	-6.503820645806657E-002	4.7437989E-005	-7.2954088E-001	0
1.1162328E+004	6.100819866529491E+001	-7.3146701E-001	-6.552996602154348E-002	4.7933008E-005	-7.3154098E-001	0
1.1083244E+004	6.120819866024249E+001	-7.3341960E-001	-6.617372704916935E-002	4.8533107E-005	-7.3354095E-001	0
1.1020460E+004	6.140819865519006E+001	-7.3541945E-001	-6.673219071832075E-002	4.9076152E-005	-7.3554081E-001	0
1.0974202E+004	6.160819865013764E+001	-7.3740429E-001	-6.719434077433328E-002	4.9549395E-005	-7.3754090E-001	0
1.0928392E+004	6.180819864508521E+001	-7.3943353E-001	-6.766169591830085E-002	5.0031325E-005	-7.3954099E-001	0
1.0877269E+004	6.200819864003279E+001	-7.4143422E-001	-6.816364104686362E-002	5.0538856E-005	-7.4154085E-001	0
1.0773843E+004	6.220819863498036E+001	-7.4335533E-001	-6.899630501095544E-002	5.1288771E-005	-7.4354094E-001	0
1.0689469E+004	6.240819862992794E+001	-7.4543256E-001	-6.973522778573005E-002	5.1982908E-005	-7.4554092E-001	0
1.0625523E+004	6.260819862487551E+001	-7.4741554E-001	-7.034152920321968E-002	5.2574353E-005	-7.4754089E-001	0
1.0571683E+004	6.280819861982309E+001	-7.4937540E-001	-7.088516058469951E-002	5.3119595E-005	-7.4954087E-001	0
1.0523245E+004	6.300819861477066E+001	-7.5146949E-001	-7.141043446945394E-002	5.3662763E-005	-7.5154096E-001	0
1.0461925E+004	6.320819860971824E+001	-7.5350082E-001	-7.202315430289929E-002	5.4269505E-005	-7.5354093E-001	0
1.0377570E+004	6.340819860466581E+001	-7.5541449E-001	-7.279299807791806E-002	5.4988886E-005	-7.5554085E-001	0
1.0424514E+004	6.360819859961339E+001	-7.5744539E-001	-7.266002021204088E-002	5.5035998E-005	-7.5754088E-001	0
1.0424443E+004	6.380819859456096E+001	-7.5944161E-001	-7.285200667413350E-002	5.5326847E-005	-7.5954092E-001	0
1.0389456E+004	6.400819858950854E+001	-7.6142186E-001	-7.328794137184005E-002	5.5803041E-005	-7.6154089E-001	0
1.0294216E+004	6.420819858445611E+001	-7.6344335E-001	-7.416236291421952E-002	5.6618763E-005	-7.6354086E-001	0
1.0251487E+004	6.440819857940369E+001	-7.6545250E-001	-7.466746032472399E-002	5.7154393E-005	-7.6554096E-001	0
1.0208672E+004	6.460819857435126E+001	-7.6748419E-001	-7.517962920048640E-002	5.7699177E-005	-7.6754093E-001	0
1.0145592E+004	6.480819856929884E+001	-7.6937103E-001	-7.583303952878961E-002	5.8343743E-005	-7.6954091E-001	0
1.0085726E+004	6.500819856424641E+001	-7.7142507E-001	-7.648681678023617E-002	5.9003847E-005	-7.7154088E-001	0
1.0050769E+004	6.520819855919399E+001	-7.7343976E-001	-7.695329929290171E-002	5.9518741E-005	-7.7354097E-001	0
1.0051100E+004	6.540819855414156E+001	-7.7542520E-001	-7.714829337624773E-002	5.9822731E-005	-7.7554083E-001	0
9.9695332E+003	6.560819854908914E+001	-7.7741873E-001	-7.797945344867030E-002	6.0622689E-005	-7.7754086E-001	0
9.9627539E+003	6.580819854403671E+001	-7.7946615E-001	-7.823801934856356E-002	6.0983886E-005	-7.7954102E-001	0
9.9435215E+003	6.600819853898429E+001	-7.8142488E-001	-7.858633314198088E-002	6.1409315E-005	-7.8154087E-001	0
9.8777158E+003	6.620819853393186E+001	-7.8344280E-001	-7.931416985566164E-002	6.2138111E-005	-7.8354096E-001	0
9.8366982E+003	6.640819852887944E+001	-7.8542215E-001	-7.984611271593356E-002	6.2712905E-005	-7.8554094E-001	0
9.8126572E+003	6.660819852382701E+001	-7.8746045E-001	-8.024945798912869E-002	6.3193271E-005	-7.8754091E-001	0
9.7991680E+003	6.680819851877459E+001	-7.8947747E-001	-8.056576621070366E-002	6.3604857E-005	-7.8954101E-001	0
9.7603398E+003	6.700819851372216E+001	-7.9142326E-001	-8.108562726713298E-002	6.4173051E-005	-7.9154092E-001	0
9.7084756E+003	6.720819850866974E+001	-7.9346114E-001	-8.172870407465950E-002	6.4848551E-005	-7.9354101E-001	0
9.6503945E+003	6.740819850361731E+001	-7.9541451E-001	-8.242300253407919E-002	6.5560453E-005	-7.9554093E-001	0
9.6125186E+003	6.760819849856489E+001	-7.9744774E-001	-8.295929425157356E-002	6.6155699E-005	-7.9754084E-001	0
9.5553408E+003	6.780819849351246E+001	-7.9942966E-001	-8.366312199512982E-002	6.6882778E-005	-7.9954100E-001	0
9.5161709E+003	6.800819848846004E+001	-8.0142349E-001	-8.421701029715956E-002	6.7493493E-005	-8.0154097E-001	0
9.4858008E+003	6.820819848340761E+001	-8.0343229E-001	-8.469841604294184E-002	6.8049441E-005	-8.0354095E-001	0
9.4612988E+003	6.840819847835519E+001	-8.0539078E-001	-8.512475423973143E-002	6.8558693E-005	-8.0554092E-001	0
9.4251816E+003	6.860819847330276E+001	-8.0742741E-001	-8.566704186106122E-002	6.9169917E-005	-8.0754095E-001	0
9.3659785E+003	6.880819846825034E+001	-8.0938911E-001	-8.641799584573862E-002	6.9945789E-005	-8.0954093E-001	0
9.3280732E+003	6.900819846319791E+001	-8.1140870E-001	-8.698566612796022E-002	7.0580929E-005	-8.1154090E-001	0
9.2414668E+003	6.920819845814549E+001	-8.1342030E-001	-8.801852505814578E-002	7.1596056E-005	-8.1354100E-001	0
9.1867021E+003	6.940819845309306E+001	-8.1544757E-001	-8.876391031458342E-002	7.2382318E-005	-8.1554097E-001	0
9.1440938E+003	6.960819844804064E+001	-8.1746334E-001	-8.939795891274943E-002	7.3079551E-005	-8.1754094E-001	0
9.1047471E+003	6.980819844298821E+001	-8.1943196E-001	-9.000051960184385E-002	7.3749303E-005	-8.1954092E-001	0
9.0646152E+003	7.000819843793579E+001	-8.2139254E-001	-9.061526990962321E-002	7.4430704E-005	-8.2154089E-001	0
9.0274717E+003	7.021819843263074E+001	-8.2348549E-001	-9.121995053219001E-002	7.5118303E-005	-8.2364100E-001	0
8.9586074E+003	7.042819842732570E+001	-8.2562691E-001	-9.216018039215754E-002	7.6089927E-005	-8.2574093E-001	0
8.9082275E+003	7.062819842227327E+001	-8.2766241E-001	-9.290988870490913E-002	7.6898024E-005	-8.2774097E-001	0
8.8917725E+003	7.082819841722085E+001	-8.2959211E-001	-9.329884714930592E-002	7.7399985E-005	-8.2974094E-001	0
8.8605840E+003	7.102819841216842E+001	-8.3163619E-001	-9.385794473446646E-002	7.8055666E-005	-8.3174092E-001	0
8.9141914E+003	7.122819840711600E+001	-8.3359909E-001	-9.351370676817661E-002	7.7952944E-005	-8.3374101E-001	0
8.8914424E+003	7.142819840206357E+001	-8.3562964E-001	-9.398133359329952E-002	7.8533587E-005	-8.3574086E-001	0
8.8631045E+003	7.162819839701115E+001	-8.3766586E-001	-9.451155859476579E-002	7.9169105E-005	-8.3774096E-001	0
8.8240176E+003	7.182819839195872E+001	-8.3959085E-001	-9.514836595623954E-002	7.9885700E-005	-8.3974093E-001	0
8.7575869E+003	7.202819838690630E+001	-8.4161192E-001	-9.610089617929163E-002	8.0879661E-005	-8.4174091E-001	0
8.7190801E+003	7.222819838185387E+001	-8.4363115E-001	-9.675690216591004E-002	8.1627135E-005	-8.4374100E-001	0
8.6708105E+003	7.242819837680145E+001	-8.4563291E-001	-9.752639898789628E-002	8.2471532E-005	-8.4574091E-001	0
8.6212178E+003	7.262819837174902E+001	-8.4759188E-001	-9.831463098061377E-002	8.3330684E-005	-8.4774107E-001	0
8.5813535E+003	7.282819836669660E+001	-8.4966218E-001	-9.901261139479467E-002	8.4127270E-005	-8.4974092E-001	0
8.5307197E+003	7.302819836164417E+001	-8.5161477E-001	-9.982918586176459E-002	8.5016007E-005	-8.5174084E-001	0
8.4612949E+003	7.322819835659175E+001	-8.5363370E-001	-1.008868826449745E-001	8.6120446E-005	-8.5374099E-001	0
8.3842539E+003	7.342819835153932E+001	-8.5559833E-001	-1.020482405861780E-001	8.7312306E-005	-8.5574096E-001	0
8.3309355E+003	7.362819834648690E+001	-8.5761786E-001	-1.029437631199686E-001	8.8286411E-005	-8.5774094E-001	0
8.2572109E+003	7.382819834143447E+001	-8.5961467E-001	-1.041047306532827E-001	8.9489957E-005	-8.5974097E-001	0
8.1975293E+003	7.402819833638205E+001	-8.6161649E-001	-1.051068512570792E-001	9.0561800E-005	-8.6174095E-001	0
8.1124424E+003	7.422819833132962E+001	-8.6362809E-001	-1.064572263173253E-001	9.1939452E-005	-8.6374092E-001	0
8.0496963E+003	7.442819832627720E+001	-8.6562395E-001	-1.075349818163311E-001	9.3084855E-005	-8.6574090E-001	0
7.9599512E+003	7.462819832122477E+001	-8.6763841E-001	-1.090004704026781E-001	9.4572992E-005	-8.6774099E-001	0
7.8728154E+003	7.482819831617235E+001	-8.6964238E-001	-1.104614189171285E-001	9.6061929E-005	-8.6974096E-001	0
7.7470244E+003	7.502819831111992E+001	-8.7161231E-001	-1.125093030905916E-001	9.8064491E-005	-8.7174094E-001	0
7.6202729E+003	7.522819830606750E+001	-8.7364489E-001	-1.146474524280743E-001	1.0016116E-004	-8.7374091E-001	0
7.5063188E+003	7.542819830101507E+001	-8.7562823E-001	-1.166521505412566E-001	1.0214392E-004	-8.7574089E-001	0
7.3612153E+003	7.562819829596265E+001	-8.7758607E-001	-1.192175551473911E-001	1.0462366E-004	-8.7774098E-001	0
7.2381895E+003	7.582819829091022E+001	-8.7966537E-001	-1.215311318420533E-001	1.0690673E-004	-8.7974089E-001	0
7.0927666E+003	7.602819828585780E+001	-8.8163573E-001	-1.243006812499377E-001	1.0958792E-004	-8.8174105E-001	0
6.9395063E+003	7.622819828080537E+001	-8.8356179E-001	-1.273234331074368E-001	1.1249812E-004	-8.8374102E-001	0
6.7937354E+003	7.642819827575295E+001	-8.8565546E-001	-1.303635521162552E-001	1.1545719E-004	-8.8574082E-001	0
6.5842627E+003	7.662819827070052E+001	-8.8760191E-001	-1.348065715473225E-001	1.1965457E-004	-8.8774097E-001	0
6.3897212E+003	7.682819826564810E+001	-8.8963276E-001	-1.392287285005895E-001	1.2386244E-004	-8.8974094E-001	0
6.2100186E+003	7.702819826059567E+001	-8.9164770E-001	-1.435821303229803E-001	1.2802468E-004	-8.9174092E-001	0
5.9538667E+003	7.722819825554325E+001	-8.9358121E-001	-1.500841866578910E-001	1.3411242E-004	-8.9374095E-001	0
5.7810112E+003	7.742819825049082E+001	-8.9562607E-001	-1.549255070413829E-001	1.3875532E-004	-8.9574099E-001	0
5.5948716E+003	7.762819824543840E+001	-8.9760685E-001	-1.604338570787253E-001	1.4400652E-004	-8.9774096E-001	0
5.3870234E+003	7.782819824038597E+001	-8.9963377E-001	-1.670001559508556E-001	1.5023898E-004	-8.9974093E-001	0
5.1693013E+003	7.802819823533355E+001	-9.0162730E-001	-1.744195764531669E-001	1.5726146E-004	-9.0174097E-001	0
4.9493633E+003	7.822819823028112E+001	-9.0360349E-001	-1.825696387245848E-001	1.6497057E-004	-9.0374094E-001	0
4.7210112E+003	7.842819822522870E+001	-9.0560538E-001	-1.918244573748042E-001	1.7371726E-004	-9.0574092E-001	0
4.5076611E+003	7.862819822017627E+001	-9.0761435E-001	-2.013492797672445E-001	1.8274749E-004	-9.0774101E-001	0
4.2941865E+003	7.882819821512385E+001	-9.0959918E-001	-2.118210734719250E-001	1.9267228E-004	-9.0974098E-001	0
4.0829976E+003	7.902819821007142E+001	-9.1162372E-001	-2.232731490938695E-001	2.0354110E-004	-9.1174096E-001	0
3.8727678E+003	7.922819820501900E+001	-9.1364455E-001	-2.359151372542416E-001	2.1554258E-004	-9.1374093E-001	0
3.6653164E+003	7.942819819996657E+001	-9.1560483E-001	-2.498023932326650E-001	2.2872028E-004	-9.1574103E-001	0
3.4695652E+003	7.962819819491415E+001	-9.1765094E-001	-2.644858603342484E-001	2.4270570E-004	-9.1774106E-001	0
3.2864692E+003	7.982819818986172E+001	-9.1961628E-001	-2.798189322766174E-001	2.5732606E-004	-9.1974097E-001	0
3.1036479E+003	8.002819818480930E+001	-9.2162073E-001	-2.969475691428496E-001	2.7367304E-004	-9.2174095E-001	0
2.9243472E+003	8.022819817975687E+001	-9.2362577E-001	-3.158399975877630E-001	2.9171797E-004	-9.2374104E-001	0
2.7182729E+003	8.042819817470445E+001	-9.2565435E-001	-3.405303256755143E-001	3.1521337E-004	-9.2574090E-001	0
2.5597271E+003	8.062819816965202E+001	-9.2764056E-001	-3.623982164544186E-001	3.3617529E-004	-9.2774093E-001	0
2.4056069E+003	8.082819816459960E+001	-9.2958784E-001	-3.864255096645088E-001	3.5921644E-004	-9.2974097E-001	0
2.2646045E+003	8.102819815954717E+001	-9.3159151E-001	-4.113705266866798E-001	3.8322929E-004	-9.3174094E-001	0
2.1296135E+003	8.122819815449475E+001	-9.3365437E-001	-4.384149193611657E-001	4.0932800E-004	-9.3374091E-001	0
1.9983627E+003	8.142819814944232E+001	-9.3563962E-001	-4.682031110216283E-001	4.3806937E-004	-9.3574095E-001	0
1.8588652E+003	8.162819814438990E+001	-9.3767512E-001	-5.044341647866568E-001	4.7299537E-004	-9.3774092E-001	0
1.7283989E+003	8.182819813933747E+001	-9.3963313E-001	-5.436436660300554E-001	5.1082560E-004	-9.3974090E-001	0
1.6241478E+003	8.202819813428505E+001	-9.4161564E-001	-5.797598329150961E-001	5.4591091E-004	-9.4174099E-001	0
1.5263223E+003	8.222819812923262E+001	-9.4362688E-001	-6.182356628329586E-001	5.8338378E-004	-9.4374102E-001	0
1.4339297E+003	8.242819812418020E+001	-9.4560665E-001	-6.594511985888643E-001	6.2358147E-004	-9.4574094E-001	0
1.3348917E+003	8.262819811912777E+001	-9.4765061E-001	-7.099082332205775E-001	6.7274499E-004	-9.4774097E-001	0
1.2537505E+003	8.282819811407535E+001	-9.4968039E-001	-7.574716290404124E-001	7.1935594E-004	-9.4974101E-001	0
1.1778058E+003	8.302819810902292E+001	-9.5166922E-001	-8.080018443686896E-001	7.6895050E-004	-9.5174104E-001	0
1.1005216E+003	8.322819810397050E+001	-9.5364457E-001	-8.665387277447039E-001	8.2636997E-004	-9.5374095E-001	0
1.0316510E+003	8.342819809891807E+001	-9.5563233E-001	-9.263135430122205E-001	8.8521518E-004	-9.5574093E-001	0
9.7068616E+002	8.362819809386565E+001	-9.5764333E-001	-9.865633189053065E-001	9.4477576E-004	-9.5774102E-001	0
9.0930688E+002	8.383819808856060E+001	-9.5977014E-001	-1.055496430412882E+000	1.0130339E-003	-9.5984101E-001	0
8.4792175E+002	8.404819808325556E+001	-9.6179551E-001	-1.134297510275358E+000	1.0909622E-003	-9.6194100E-001	0
7.9790814E+002	8.424819807820313E+001	-9.6381271E-001	-1.207924368489287E+000	1.1642128E-003	-9.6394098E-001	0
7.4972205E+002	8.444819807315071E+001	-9.6578342E-001	-1.288188601660286E+000	1.2441112E-003	-9.6594095E-001	0
7.0766046E+002	8.464819806809828E+001	-9.6783221E-001	-1.367650515579383E+000	1.3236562E-003	-9.6794093E-001	0
6.6293774E+002	8.484819806304586E+001	-9.6977913E-001	-1.462850950759698E+000	1.4186424E-003	-9.6994102E-001	0
6.2353119E+002	8.504819805799343E+001	-9.7182995E-001	-1.558590771119339E+000	1.5146852E-003	-9.7194105E-001	0
5.8869324E+002	8.524819805294101E+001	-9.7384673E-001	-1.654251661126306E+000	1.6109876E-003	-9.7394097E-001	0
5.5875513E+002	8.544819804788858E+001	-9.7579920E-001	-1.746380852412884E+000	1.7041171E-003	-9.7594094E-001	0
5.2784540E+002	8.564819804283616E+001	-9.7781670E-001	-1.852468084518613E+000	1.8113742E-003	-9.7794104E-001	0
5.0017831E+002	8.584819803778373E+001	-9.7983432E-001	-1.958970062316410E+000	1.9194661E-003	-9.7994089E-001	0
4.7474576E+002	8.604819803273131E+001	-9.8180497E-001	-2.068064764817819E+000	2.0304362E-003	-9.8194093E-001	0
4.4836969E+002	8.624819802767888E+001	-9.8385835E-001	-2.194301614837715E+000	2.1588819E-003	-9.8394096E-001	0
4.2461664E+002	8.644819802262646E+001	-9.8578995E-001	-2.321599963689200E+000	2.2886100E-003	-9.8594093E-001	0
4.0336325E+002	8.664819801757403E+001	-9.8779202E-001	-2.448889516800842E+000	2.4189935E-003	-9.8794097E-001	0
3.8286105E+002	8.684819801252161E+001	-9.8982519E-001	-2.585337939361736E+000	2.5590325E-003	-9.8994094E-001	0
3.6410291E+002	8.704819800746918E+001	-9.9180156E-001	-2.723959382665676E+000	2.7016271E-003	-9.9194092E-001	0
3.4715829E+002	8.724819800241676E+001	-9.9383634E-001	-2.862775719186089E+000	2.8451306E-003	-9.9394089E-001	0
3.3062930E+002	8.744819799736433E+001	-9.9582309E-001	-3.011902018756444E+000	2.9993216E-003	-9.9594098E-001	0
3.1467331E+002	8.764819799231191E+001	-9.9783796E-001	-3.171028316088524E+000	3.1641724E-003	-9.9794084E-001	0
3.0068387E+002	8.784819798725948E+001	-9.9979699E-001	-3.325076772478706E+000	3.3244018E-003	-9.9994093E-001	0
2.8692117E+002	8.804819798220706E+001	-1.0018009E+000	-3.491554408218050E+000	3.4978422E-003	-1.0019410E+000	0
2.7321011E+002	8.824819797715463E+001	-1.0038209E+000	-3.674171808186316E+000	3.6882104E-003	-1.0039409E+000	0
2.6176160E+002	8.844819797210221E+001	-1.0058535E+000	-3.842632144588208E+000	3.8651251E-003	-1.0059410E+000	0
2.5066016E+002	8.864819796704978E+001	-1.0078237E+000	-4.020677684217084E+000	4.0521342E-003	-1.0079410E+000	0
2.3957309E+002	8.884829796199483E+001	-1.0097950E+000	-4.214976433446495E+000	4.2562620E-003	-1.0099418E+000	0
2.3006541E+002	8.904839795693988E+001	-1.0118250E+000	-4.397988203397681E+000	4.4499943E-003	-1.0119430E+000	0
2.2091312E+002	8.924839795188745E+001	-1.0138214E+000	-4.589231114336151E+000	4.6526603E-003	-1.0139430E+000	0
2.1216132E+002	8.944839794683503E+001	-1.0158157E+000	-4.787940380930095E+000	4.8636650E-003	-1.0159429E+000	0
2.0330247E+002	8.964839794178260E+001	-1.0178283E+000	-5.006473081182186E+000	5.0957301E-003	-1.0179430E+000	0
1.9563104E+002	8.984839793673018E+001	-1.0198566E+000	-5.213163433533147E+000	5.3166789E-003	-1.0199430E+000	0
1.8792952E+002	9.004839793167776E+001	-1.0218498E+000	-5.437409430978789E+000	5.5562155E-003	-1.0219430E+000	0
1.8058263E+002	9.024839792662533E+001	-1.0238627E+000	-5.669774302955119E+000	5.8050705E-003	-1.0239428E+000	0
1.7370570E+002	9.044839792157291E+001	-1.0258447E+000	-5.905647470094152E+000	6.0582771E-003	-1.0259430E+000	0
1.6661412E+002	9.064839791652048E+001	-1.0278344E+000	-6.168951156863841E+000	6.3406602E-003	-1.0279430E+000	0
1.6067621E+002	9.084849791146553E+001	-1.0298926E+000	-6.409739183126064E+000	6.6013429E-003	-1.0299437E+000	0
1.5487163E+002	9.104859790641058E+001	-1.0317824E+000	-6.662178442186217E+000	6.8739182E-003	-1.0319449E+000	0
1.4919429E+002	9.124859790135815E+001	-1.0338590E+000	-6.929615467246133E+000	7.1642455E-003	-1.0339450E+000	0
1.4406380E+002	9.144859789630573E+001	-1.0358651E+000	-7.190322110104148E+000	7.4482034E-003	-1.0359449E+000	0
1.3895041E+002	9.164859789125330E+001	-1.0378509E+000	-7.469217465104947E+000	7.7519338E-003	-1.0379450E+000	0
1.3434341E+002	9.184859788620088E+001	-1.0399055E+000	-7.740651830388856E+000	8.0495467E-003	-1.0399449E+000	0
1.2974617E+002	9.204859788114845E+001	-1.0418116E+000	-8.029613400803122E+000	8.3653443E-003	-1.0419450E+000	0
1.2561272E+002	9.224859787609603E+001	-1.0438640E+000	-8.310177503394470E+000	8.6746952E-003	-1.0439450E+000	0
1.2150072E+002	9.244859787104360E+001	-1.0458593E+000	-8.607844299740261E+000	9.0025943E-003	-1.0459449E+000	0
1.1755681E+002	9.264879786598613E+001	-1.0478688E+000	-8.913723227664150E+000	9.3404129E-003	-1.0479469E+000	0
1.1382380E+002	9.284879786093370E+001	-1.0498778E+000	-9.223710286982239E+000	9.6837683E-003	-1.0499470E+000	0
1.1049560E+002	9.304879785588128E+001	-1.0518543E+000	-9.519422503488117E+000	1.0013045E-002	-1.0519469E+000	0
1.0701014E+002	9.324879785082885E+001	-1.0538412E+000	-9.848050216022834E+000	1.0378282E-002	-1.0539470E+000	0
1.0378697E+002	9.344879784577643E+001	-1.0558665E+000	-1.017340100879301E+001	1.0741754E-002	-1.0559469E+000	0
1.0065224E+002	9.364879784072400E+001	-1.0578551E+000	-1.051000122810435E+001	1.1118059E-002	-1.0579469E+000	0
9.7696136E+001	9.385879783541895E+001	-1.0599532E+000	-1.084948947739849E+001	1.1499952E-002	-1.0600470E+000	0
9.4533150E+001	9.406879783011391E+001	-1.0620615E+000	-1.123480527363127E+001	1.1932055E-002	-1.0621469E+000	0
9.1762314E+001	9.426879782506148E+001	-1.0640017E+000	-1.159519208389885E+001	1.2337304E-002	-1.0641469E+000	0
8.9223412E+001	9.446879782000906E+001	-1.0660310E+000	-1.194788394601431E+001	1.2736814E-002	-1.0661470E+000	0
8.6666008E+001	9.466879781495663E+001	-1.0679991E+000	-1.232316067821583E+001	1.3161125E-002	-1.0681471E+000	0
8.4255035E+001	9.486879780990421E+001	-1.0700312E+000	-1.269990751059422E+001	1.3589296E-002	-1.0701470E+000	0
8.1902458E+001	9.506889780484926E+001	-1.0720425E+000	-1.308925878626133E+001	1.4032241E-002	-1.0721477E+000	0
7.9699730E+001	9.526899779979431E+001	-1.0740312E+000	-1.347597078022778E+001	1.4473613E-002	-1.0741489E+000	0
7.7633896E+001	9.546899779474188E+001	-1.0760503E+000	-1.386057258125334E+001	1.4914673E-002	-1.0761490E+000	0
7.5597824E+001	9.566899778968946E+001	-1.0780234E+000	-1.425997991491604E+001	1.5372593E-002	-1.0781491E+000	0
7.3703484E+001	9.586899778463703E+001	-1.0800340E+000	-1.465377188958820E+001	1.5826572E-002	-1.0801489E+000	0
7.1799072E+001	9.606899777958461E+001	-1.0820291E+000	-1.507023860794618E+001	1.6306438E-002	-1.0821489E+000	0
7.0008194E+001	9.626899777453218E+001	-1.0840430E+000	-1.548451665280362E+001	1.6785882E-002	-1.0841490E+000	0
6.8168076E+001	9.646899776947976E+001	-1.0860595E+000	-1.593208378999412E+001	1.7303189E-002	-1.0861489E+000	0
6.6419571E+001	9.666899776442733E+001	-1.0880378E+000	-1.638128443450884E+001	1.7823458E-002	-1.0881490E+000	0
6.4744408E+001	9.686899775937491E+001	-1.0900339E+000	-1.683595449719022E+001	1.8351762E-002	-1.0901490E+000	0
6.3153267E+001	9.706899775432248E+001	-1.0920212E+000	-1.729160276805456E+001	1.8882798E-002	-1.0921489E+000	0
6.1551781E+001	9.726909774926753E+001	-1.0940484E+000	-1.777443936730668E+001	1.9446097E-002	-1.0941497E+000	0
6.0090004E+001	9.746919774421258E+001	-1.0960250E+000	-1.823972187493678E+001	1.9991191E-002	-1.0961510E+000	0
5.8678623E+001	9.766919773916015E+001	-1.0979990E+000	-1.871207804136541E+001	2.0545842E-002	-1.0981510E+000	0
5.7373035E+001	9.786919773410773E+001	-1.1000904E+000	-1.917434492470719E+001	2.1093512E-002	-1.1001511E+000	0
5.5962692E+001	9.806919772905530E+001	-1.1020240E+000	-1.969211798325148E+001	2.1701185E-002	-1.1021510E+000	0
5.4707458E+001	9.826919772400288E+001	-1.1040750E+000	-2.018143411180057E+001	2.2281816E-002	-1.1041509E+000	0
5.3435566E+001	9.846919771895045E+001	-1.1060607E+000	-2.069896168543912E+001	2.2894310E-002	-1.1061510E+000	0
5.2214359E+001	9.866919771389803E+001	-1.1079891E+000	-2.122000669405838E+001	2.3511536E-002	-1.1081510E+000	0
5.0943607E+001	9.886919770884560E+001	-1.1100315E+000	-2.178941711857742E+001	2.4186939E-002	-1.1101509E+000	0
4.9808754E+001	9.906919770379318E+001	-1.1120836E+000	-2.232707081968294E+001	2.4829568E-002	-1.1121509E+000	0
4.8688381E+001	9.926919769874075E+001	-1.1140158E+000	-2.288052740524144E+001	2.5489269E-002	-1.1141510E+000	0
4.7697346E+001	9.946919769368833E+001	-1.1160897E+000	-2.339940984746488E+001	2.6115840E-002	-1.1161509E+000	0
4.6606552E+001	9.966919768863590E+001	-1.1180114E+000	-2.398828790233802E+001	2.6819179E-002	-1.1181509E+000	0
4.5691914E+001	9.986919768358348E+001	-1.1200577E+000	-2.451325873304120E+001	2.7456265E-002	-1.1201510E+000	0
4.4686867E+001	1.000691976785311E+002	-1.1220424E+000	-2.510899751270169E+001	2.8173361E-002	-1.1221509E+000	0
4.3634155E+001	1.002691976734786E+002	-1.1240654E+000	-2.576113602823148E+001	2.8957201E-002	-1.1241509E+000	0
4.2732506E+001	1.004691976684262E+002	-1.1260601E+000	-2.635137225630052E+001	2.9673230E-002	-1.1261510E+000	0
4.1816193E+001	1.006691976633738E+002	-1.1280838E+000	-2.697720028808061E+001	3.0432543E-002	-1.1281511E+000	0
4.0999237E+001	1.008692976583188E+002	-1.1300176E+000	-2.756191847459588E+001	3.1145453E-002	-1.1301519E+000	0
4.0205940E+001	1.010693976532639E+002	-1.1320746E+000	-2.815689959412515E+001	3.1875711E-002	-1.1321530E+000	0
3.9404232E+001	1.012694976482089E+002	-1.1341065E+000	-2.878133666313619E+001	3.2641102E-002	-1.1341538E+000	0
3.8511425E+001	1.014695976431540E+002	-1.1360534E+000	-2.949912824436093E+001	3.3512585E-002	-1.1361549E+000	0
3.7704353E+001	1.016695976381016E+002	-1.1380682E+000	-3.018399922674746E+001	3.4351449E-002	-1.1381550E+000	0
3.6915977E+001	1.018695976330491E+002	-1.1400445E+000	-3.088214121519038E+001	3.5207015E-002	-1.1401550E+000	0
3.6201435E+001	1.020695976279967E+002	-1.1420361E+000	-3.154670869925664E+001	3.6027480E-002	-1.1421549E+000	0
3.5428795E+001	1.022695976229443E+002	-1.1440532E+000	-3.229162087029601E+001	3.6943331E-002	-1.1441550E+000	0
3.4806919E+001	1.024695976178919E+002	-1.1460472E+000	-3.292584527566055E+001	3.7734576E-002	-1.1461550E+000	0
3.4159554E+001	1.026696976128369E+002	-1.1480478E+000	-3.360839477003745E+001	3.8584042E-002	-1.1481558E+000	0
3.3492626E+001	1.028697976077819E+002	-1.1500394E+000	-3.433709331002090E+001	3.9489012E-002	-1.1501570E+000	0
3.2872807E+001	1.030697976027295E+002	-1.1520520E+000	-3.504574657432607E+001	4.0374525E-002	-1.1521571E+000	0
3.2263634E+001	1.032697975976771E+002	-1.1540679E+000	-3.576992716243194E+001	4.1280925E-002	-1.1541569E+000	0
3.1674458E+001	1.034697975926247E+002	-1.1560569E+000	-3.649808064258559E+001	4.2193856E-002	-1.1561569E+000	0
3.1090515E+001	1.036697975875722E+002	-1.1580685E+000	-3.724829045039439E+001	4.3136071E-002	-1.1581570E+000	0
3.0485233E+001	1.038697975825198E+002	-1.1600473E+000	-3.805276132684179E+001	4.4143002E-002	-1.1601570E+000	0
2.9928646E+001	1.040697975774674E+002	-1.1620344E+000	-3.882682840326734E+001	4.5118108E-002	-1.1621569E+000	0
2.9376091E+001	1.042697975724150E+002	-1.1640400E+000	-3.962542004109514E+001	4.6125572E-002	-1.1641570E+000	0
2.8825260E+001	1.044697975673625E+002	-1.1660762E+000	-4.045327463928544E+001	4.7171600E-002	-1.1661569E+000	0
2.8300474E+001	1.046697975623101E+002	-1.1680422E+000	-4.127288336251058E+001	4.8208468E-002	-1.1681570E+000	0
2.7769077E+001	1.048697975572577E+002	-1.1700641E+000	-4.213550618473363E+001	4.9301244E-002	-1.1701570E+000	0
2.7254318E+001	1.050697975522053E+002	-1.1720514E+000	-4.300424826361427E+001	5.0403189E-002	-1.1721569E+000	0
2.6805027E+001	1.052697975471528E+002	-1.1740421E+000	-4.379932477766170E+001	5.1422253E-002	-1.1741570E+000	0
2.6333797E+001	1.054697975421004E+002	-1.1760806E+000	-4.466049966790506E+001	5.2524347E-002	-1.1761570E+000	0
2.5902302E+001	1.056697975370480E+002	-1.1780790E+000	-4.548163443141516E+001	5.3580958E-002	-1.1781570E+000	0
2.5509119E+001	1.058697975319956E+002	-1.1801422E+000	-4.626353911423649E+001	5.4597553E-002	-1.1801571E+000	0
2.5075359E+001	1.060697975269431E+002	-1.1821147E+000	-4.714248325359790E+001	5.5727825E-002	-1.1821570E+000	0
2.4645737E+001	1.062697975218907E+002	-1.1841372E+000	-4.804633041817590E+001	5.6893449E-002	-1.1841569E+000	0
2.4187862E+001	1.064697975168383E+002	-1.1861399E+000	-4.903864304765274E+001	5.8166694E-002	-1.1861569E+000	0
2.3724033E+001	1.066697975117859E+002	-1.1881487E+000	-5.008207122728095E+001	5.9504949E-002	-1.1881570E+000	0
2.3350849E+001	1.068697975067334E+002	-1.1901394E+000	-5.096771316841875E+001	6.0658686E-002	-1.1901571E+000	0
2.3042797E+001	1.070697975016810E+002	-1.1921225E+000	-5.173514687609509E+001	6.1674632E-002	-1.1921570E+000	0
2.2622776E+001	1.072697974966286E+002	-1.1940889E+000	-5.278259887825084E+001	6.3027114E-002	-1.1941569E+000	0
2.2247921E+001	1.074697974915762E+002	-1.1961303E+000	-5.376368882272254E+001	6.4308375E-002	-1.1961570E+000	0
2.1740400E+001	1.076697974865237E+002	-1.1981330E+000	-5.511089710745941E+001	6.6030182E-002	-1.1981570E+000	0
2.1277384E+001	1.078697974814713E+002	-1.2001121E+000	-5.640317949362085E+001	6.7690141E-002	-1.2001569E+000	0
2.0892136E+001	1.080697974764189E+002	-1.2021168E+000	-5.753920431093843E+001	6.9168843E-002	-1.2021570E+000	0
2.0531704E+001	1.082698974713639E+002	-1.2041394E+000	-5.864780658656787E+001	7.0620134E-002	-1.2041578E+000	0
2.0192360E+001	1.084699974663090E+002	-1.2061248E+000	-5.973174054606443E+001	7.2043933E-002	-1.2061590E+000	0
1.9926233E+001	1.086699974612566E+002	-1.2081387E+000	-6.063055997046217E+001	7.3250130E-002	-1.2081590E+000	0
1.9610510E+001	1.088699974562041E+002	-1.2101593E+000	-6.170973299041634E+001	7.4678607E-002	-1.2101591E+000	0
1.9208376E+001	1.090699974511517E+002	-1.2121223E+000	-6.310384250714344E+001	7.6489575E-002	-1.2121590E+000	0
1.8903019E+001	1.092699974460993E+002	-1.2141289E+000	-6.422935994574254E+001	7.7982716E-002	-1.2141589E+000	0
1.8588190E+001	1.094699974410469E+002	-1.2161402E+000	-6.542542232623740E+001	7.9566486E-002	-1.2161590E+000	0
1.8230879E+001	1.096700974359919E+002	-1.2181029E+000	-6.681536947816448E+001	8.1387997E-002	-1.2181599E+000	0
1.7874685E+001	1.098701974309370E+002	-1.2201176E+000	-6.825952682906018E+001	8.3284646E-002	-1.2201610E+000	0
1.7537746E+001	1.100701974258845E+002	-1.2221274E+000	-6.968554499684535E+001	8.5164614E-002	-1.2221609E+000	0
1.7217619E+001	1.102701974208321E+002	-1.2240511E+000	-7.109294197618823E+001	8.7021396E-002	-1.2241610E+000	0
1.6867594E+001	1.104701974157797E+002	-1.2261699E+000	-7.269382458749554E+001	8.9134984E-002	-1.2261609E+000	0
1.6385754E+001	1.106701974107273E+002	-1.2280525E+000	-7.494635059557805E+001	9.2038050E-002	-1.2281610E+000	0
1.6029398E+001	1.108701974056748E+002	-1.2302703E+000	-7.675086848806075E+001	9.4424315E-002	-1.2301610E+000	0
1.5715804E+001	1.110701974006224E+002	-1.2320695E+000	-7.839684867210099E+001	9.6590362E-002	-1.2321609E+000	0
1.5511342E+001	1.112701973955700E+002	-1.2341605E+000	-7.956504174857469E+001	9.8196037E-002	-1.2341610E+000	0
1.5269151E+001	1.114701973905176E+002	-1.2361848E+000	-8.095963115486700E+001	1.0008107E-001	-1.2361610E+000	0
1.4932748E+001	1.116701973854651E+002	-1.2381048E+000	-8.291205753977317E+001	1.0265382E-001	-1.2381610E+000	0
1.4664639E+001	1.118701973804127E+002	-1.2401479E+000	-8.456723154050690E+001	1.0487588E-001	-1.2401611E+000	0
1.4371801E+001	1.120701973753603E+002	-1.2421215E+000	-8.642768097788858E+001	1.0735368E-001	-1.2421610E+000	0
1.4109862E+001	1.122701973703079E+002	-1.2441326E+000	-8.817468104557088E+001	1.0970100E-001	-1.2441609E+000	0
1.3792543E+001	1.124701973652554E+002	-1.2461665E+000	-9.035073439604548E+001	1.1259206E-001	-1.2461610E+000	0
1.3563213E+001	1.126701973602030E+002	-1.2481123E+000	-9.202187431426279E+001	1.1485364E-001	-1.2481610E+000	0
1.3322109E+001	1.128701973551506E+002	-1.2501142E+000	-9.383755796620699E+001	1.1730766E-001	-1.2501611E+000	0
1.3014454E+001	1.130701973500982E+002	-1.2520911E+000	-9.620772834051195E+001	1.2046084E-001	-1.2521610E+000	0
1.2715135E+001	1.132701973450457E+002	-1.2541430E+000	-9.863387554086557E+001	1.2370098E-001	-1.2541610E+000	0
1.2423008E+001	1.134702973399908E+002	-1.2561563E+000	-1.011153133138407E+002	1.2701663E-001	-1.2561617E+000	0
1.2089108E+001	1.136703973349358E+002	-1.2581302E+000	-1.040713782148296E+002	1.3093534E-001	-1.2581630E+000	0
1.1829154E+001	1.138703973298834E+002	-1.2601644E+000	-1.065303921721147E+002	1.3424581E-001	-1.2601631E+000	0
1.1507729E+001	1.140803973245784E+002	-1.2621938E+000	-1.096822707935257E+002	1.3844028E-001	-1.2622631E+000	0
1.1153631E+001	1.142903973192733E+002	-1.2642562E+000	-1.133492927497202E+002	1.4330254E-001	-1.2643631E+000	0
1.0976201E+001	1.144903973142209E+002	-1.2663478E+000	-1.153721401112958E+002	1.4610125E-001	-1.2663629E+000	0
1.0819353E+001	1.146903973091685E+002	-1.2683221E+000	-1.172271704360203E+002	1.4868182E-001	-1.2683630E+000	0
1.0636797E+001	1.148904973041135E+002	-1.2703242E+000	-1.194273250265562E+002	1.5171142E-001	-1.2703639E+000	0
1.0512156E+001	1.150905972990586E+002	-1.2722986E+000	-1.210311755247400E+002	1.5398780E-001	-1.2723650E+000	0
1.0310342E+001	1.152905972940061E+002	-1.2743250E+000	-1.235967708671980E+002	1.5750246E-001	-1.2743649E+000	0
1.0124327E+001	1.154905972889537E+002	-1.2763139E+000	-1.260640775622155E+002	1.6089733E-001	-1.2763649E+000	0
9.8919725E+000	1.156906972838988E+002	-1.2783561E+000	-1.292316591211325E+002	1.6520408E-001	-1.2783657E+000	0
9.7370529E+000	1.158907972788438E+002	-1.2803171E+000	-1.314891769491351E+002	1.6834784E-001	-1.2803670E+000	0
9.5857086E+000	1.160907972737914E+002	-1.2823120E+000	-1.337733128324928E+002	1.7153913E-001	-1.2823670E+000	0
9.4922810E+000	1.162907972687390E+002	-1.2843728E+000	-1.353070798925794E+002	1.7378473E-001	-1.2843670E+000	0
9.4272671E+000	1.164907972636865E+002	-1.2863755E+000	-1.364526386509676E+002	1.7552933E-001	-1.2863669E+000	0
9.1946592E+000	1.166907972586341E+002	-1.2883317E+000	-1.401174009327439E+002	1.8051770E-001	-1.2883669E+000	0
8.9687214E+000	1.168907972535817E+002	-1.2903320E+000	-1.438702220419366E+002	1.8564035E-001	-1.2903671E+000	0
8.7829981E+000	1.170908972485267E+002	-1.2923440E+000	-1.471415511491077E+002	1.9015750E-001	-1.2923678E+000	0
8.5784693E+000	1.172909972434718E+002	-1.2943306E+000	-1.508813023394200E+002	1.9529028E-001	-1.2943690E+000	0
8.5004072E+000	1.174909972384194E+002	-1.2963468E+000	-1.525040781989933E+002	1.9769818E-001	-1.2963690E+000	0
8.4460764E+000	1.176909972333669E+002	-1.2983667E+000	-1.537242322422217E+002	1.9959041E-001	-1.2983691E+000	0
8.2800179E+000	1.178909972283145E+002	-1.3003598E+000	-1.570479567456407E+002	2.0421885E-001	-1.3003690E+000	0
8.0949316E+000	1.180910972232596E+002	-1.3023478E+000	-1.608843518229199E+002	2.0952737E-001	-1.3023698E+000	0
7.9622793E+000	1.182911972182046E+002	-1.3043077E+000	-1.638108396735588E+002	2.1365973E-001	-1.3043710E+000	0
7.8756022E+000	1.184912972131497E+002	-1.3063462E+000	-1.658725480713451E+002	2.1668696E-001	-1.3063718E+000	0
7.7608118E+000	1.186915972080897E+002	-1.3083587E+000	-1.685852848240877E+002	2.2057001E-001	-1.3083744E+000	0
7.7250943E+000	1.188917972030322E+002	-1.3103299E+000	-1.696199198515228E+002	2.2225806E-001	-1.3103770E+000	0
7.5478373E+000	1.190917971979798E+002	-1.3123472E+000	-1.738706203372022E+002	2.2817862E-001	-1.3123770E+000	0
7.3686204E+000	1.192917971929273E+002	-1.3143898E+000	-1.783766554066924E+002	2.3445646E-001	-1.3143770E+000	0
7.2990851E+000	1.194917971878749E+002	-1.3163666E+000	-1.803467844208346E+002	2.3740247E-001	-1.3163770E+000	0
7.2715087E+000	1.196917971828225E+002	-1.3183926E+000	-1.813093628321103E+002	2.3903693E-001	-1.3183770E+000	0
7.1384439E+000	1.198917971777701E+002	-1.3203368E+000	-1.849614331403295E+002	2.4421139E-001	-1.3203770E+000	0
6.9783206E+000	1.200917971727176E+002	-1.3223650E+000	-1.894961745538949E+002	2.5058311E-001	-1.3223770E+000	0
6.8088226E+000	1.202917971676652E+002	-1.3243719E+000	-1.945082165324502E+002	2.5760123E-001	-1.3243771E+000	0
6.6611133E+000	1.204919971626077E+002	-1.3263776E+000	-1.991225097246665E+002	2.6411164E-001	-1.3263788E+000	0
6.6068168E+000	1.206919971575553E+002	-1.3283817E+000	-2.010622883686401E+002	2.6708746E-001	-1.3283789E+000	0
6.5428162E+000	1.208919971525029E+002	-1.3303730E+000	-2.033333952378257E+002	2.7050927E-001	-1.3303789E+000	0
6.5006275E+000	1.210919971474505E+002	-1.3323452E+000	-2.049564007350382E+002	2.7307269E-001	-1.3323790E+000	0
6.4229531E+000	1.212919971423980E+002	-1.3343831E+000	-2.077522812300540E+002	2.7722114E-001	-1.3343790E+000	0
6.3768682E+000	1.214919971373456E+002	-1.3363776E+000	-2.095664533584840E+002	2.8005990E-001	-1.3363789E+000	0
6.3469133E+000	1.216919971322932E+002	-1.3383865E+000	-2.108720349076120E+002	2.8222829E-001	-1.3383789E+000	0
6.2254186E+000	1.218919971272408E+002	-1.3403822E+000	-2.153079614336539E+002	2.8859496E-001	-1.3403790E+000	0
6.1666117E+000	1.220919971221883E+002	-1.3423711E+000	-2.176837365373194E+002	2.9221237E-001	-1.3423790E+000	0
6.1468701E+000	1.222919971171359E+002	-1.3444337E+000	-2.187184091295517E+002	2.9405239E-001	-1.3443789E+000	0
6.0111856E+000	1.224919971120835E+002	-1.3464266E+000	-2.239868624594207E+002	3.0158186E-001	-1.3463789E+000	0
5.9663572E+000	1.226919971070311E+002	-1.3483876E+000	-2.259984643745856E+002	3.0473351E-001	-1.3483789E+000	0
5.8479428E+000	1.228919971019786E+002	-1.3503624E+000	-2.309123764275964E+002	3.1181538E-001	-1.3503790E+000	0
5.7622600E+000	1.230919970969262E+002	-1.3524088E+000	-2.347011060390350E+002	3.1741184E-001	-1.3523790E+000	0
5.6462593E+000	1.232919970918738E+002	-1.3543897E+000	-2.398737957839797E+002	3.2488260E-001	-1.3543791E+000	0
5.5441246E+000	1.234921970868163E+002	-1.3564280E+000	-2.446604567345689E+002	3.3186430E-001	-1.3563808E+000	0
5.3994122E+000	1.236822970820140E+002	-1.3583162E+000	-2.515674179049993E+002	3.4170809E-001	-1.3582816E+000	0
5.3528056E+000	1.238526970777093E+002	-1.3600389E+000	-2.540796378838597E+002	3.4555820E-001	-1.3599852E+000	0
5.3498659E+000	1.239831970744126E+002	-1.3613403E+000	-2.544625043149499E+002	3.4641007E-001	-1.3612899E+000	0
5.2932668E+000	1.241435970703606E+002	-1.3629342E+000	-2.574845212216264E+002	3.5093448E-001	-1.3628939E+000	0
5.2457852E+000	1.243242970657957E+002	-1.3648207E+000	-2.601747202939009E+002	3.5509184E-001	-1.3647013E+000	0
5.2139955E+000	1.245145970609883E+002	-1.3666812E+000	-2.621178310624348E+002	3.5823151E-001	-1.3666043E+000	0
5.0476546E+000	1.246852970566761E+002	-1.3683101E+000	-2.710783804772500E+002	3.7091929E-001	-1.3683110E+000	0
5.0317063E+000	1.248356970528766E+002	-1.3698970E+000	-2.722529826108239E+002	3.7295854E-001	-1.3698151E+000	0
4.9906063E+000	1.249960970488246E+002	-1.3714670E+000	-2.748097029702240E+002	3.7689245E-001	-1.3714194E+000	0
4.9360266E+000	1.251263970455329E+002	-1.3727593E+000	-2.781101969881752E+002	3.8177836E-001	-1.3727217E+000	0
4.9085751E+000	1.252666970419887E+002	-1.3742085E+000	-2.799607648395249E+002	3.8472444E-001	-1.3741254E+000	0
4.8329530E+000	1.254471970374289E+002	-1.3760406E+000	-2.847204516983547E+002	3.9178690E-001	-1.3759304E+000	0
4.8119597E+000	1.256175970331242E+002	-1.3777295E+000	-2.863135938783562E+002	3.9446270E-001	-1.3776342E+000	0
4.7131553E+000	1.257580970295749E+002	-1.3790751E+000	-2.926012210728109E+002	4.0351903E-001	-1.3790393E+000	0
4.5231919E+000	1.259385970250150E+002	-1.3809156E+000	-3.052967182585712E+002	4.2158902E-001	-1.3808442E+000	0
4.5138102E+000	1.261290970202026E+002	-1.3828335E+000	-3.063561314161934E+002	4.2363951E-001	-1.3827492E+000	0
4.5176659E+000	1.262994970158979E+002	-1.3845325E+000	-3.064707580216073E+002	4.2431870E-001	-1.3844532E+000	0
4.5304842E+000	1.264599970118434E+002	-1.3861395E+000	-3.059583487771893E+002	4.2410097E-001	-1.3860579E+000	0
4.5543494E+000	1.266301970075438E+002	-1.3878887E+000	-3.047391774587795E+002	4.2294404E-001	-1.3877604E+000	0
4.5061674E+000	1.268104970029890E+002	-1.3896345E+000	-3.083850038803262E+002	4.2854244E-001	-1.3895632E+000	0
4.5060039E+000	1.269909969984292E+002	-1.3914254E+000	-3.087936505188172E+002	4.2966333E-001	-1.3913683E+000	0
4.5178084E+000	1.271513969943771E+002	-1.3930554E+000	-3.083476250453323E+002	4.2954534E-001	-1.3929719E+000	0
4.5009594E+000	1.273117969903251E+002	-1.3946470E+000	-3.098554943350341E+002	4.3213904E-001	-1.3945762E+000	0
4.4054289E+000	1.274721969862730E+002	-1.3962972E+000	-3.169492169413751E+002	4.4255531E-001	-1.3961799E+000	0
4.3712549E+000	1.276225969824736E+002	-1.3977480E+000	-3.197589894161083E+002	4.4694248E-001	-1.3976845E+000	0
4.3458657E+000	1.277631969789218E+002	-1.3991821E+000	-3.219570268313018E+002	4.5047650E-001	-1.3990902E+000	0
4.3010182E+000	1.279234969748723E+002	-1.4008011E+000	-3.256905540583612E+002	4.5622766E-001	-1.4006934E+000	0
4.2976623E+000	1.280738969710728E+002	-1.4023098E+000	-3.262959346720077E+002	4.5756799E-001	-1.4021974E+000	0
4.1926250E+000	1.282242969672734E+002	-1.4038256E+000	-3.348321427552273E+002	4.7004595E-001	-1.4037011E+000	0
4.1289196E+000	1.283946969629687E+002	-1.4054760E+000	-3.403980143456420E+002	4.7842124E-001	-1.4054054E+000	0
4.1389761E+000	1.285750969584115E+002	-1.4072936E+000	-3.400100805707070E+002	4.7849399E-001	-1.4072090E+000	0
4.1217179E+000	1.287452969541118E+002	-1.4090217E+000	-3.418530376509698E+002	4.8167837E-001	-1.4089111E+000	0
4.0666127E+000	1.289059969500522E+002	-1.4106318E+000	-3.468812739341720E+002	4.8932174E-001	-1.4105183E+000	0
4.0552702E+000	1.290764969457450E+002	-1.4123516E+000	-3.482756062323656E+002	4.9188760E-001	-1.4122232E+000	0
4.0781007E+000	1.292668969409351E+002	-1.4142164E+000	-3.467830883812426E+002	4.9042633E-001	-1.4141279E+000	0
4.0284171E+000	1.294372969366304E+002	-1.4158994E+000	-3.514778365694274E+002	4.9765727E-001	-1.4158311E+000	0
3.9620845E+000	1.295978969325733E+002	-1.4175392E+000	-3.577761138450296E+002	5.0716168E-001	-1.4174371E+000	0
3.9106913E+000	1.297584969285163E+002	-1.4191216E+000	-3.628825433954926E+002	5.1497447E-001	-1.4190432E+000	0
3.8681087E+000	1.299188969244642E+002	-1.4207164E+000	-3.672896840520307E+002	5.2181447E-001	-1.4206470E+000	0
3.7993538E+000	1.300895969201520E+002	-1.4224453E+000	-3.743913703136968E+002	5.3255123E-001	-1.4223545E+000	0
3.7846556E+000	1.302601969158422E+002	-1.4241484E+000	-3.762953859398967E+002	5.3590047E-001	-1.4240602E+000	0
3.7820637E+000	1.304307969115325E+002	-1.4258758E+000	-3.770099857709288E+002	5.3756940E-001	-1.4257662E+000	0
3.7703719E+000	1.305912969074780E+002	-1.4274514E+000	-3.785969765450418E+002	5.4042876E-001	-1.4273709E+000	0
3.7858596E+000	1.307415969036811E+002	-1.4290293E+000	-3.774649544215872E+002	5.3940850E-001	-1.4288744E+000	0
3.7635782E+000	1.309221968991187E+002	-1.4307380E+000	-3.801536444493540E+002	5.4390025E-001	-1.4306804E+000	0
3.6649916E+000	1.310928968948065E+002	-1.4324973E+000	-3.908596271163469E+002	5.5990535E-001	-1.4323872E+000	0
3.6151512E+000	1.312134968917599E+002	-1.4336661E+000	-3.965715528774954E+002	5.6855118E-001	-1.4335927E+000	0
3.5979097E+000	1.313537968882156E+002	-1.4351466E+000	-3.988834344567504E+002	5.7245618E-001	-1.4349962E+000	0
3.6058345E+000	1.315043968844111E+002	-1.4366112E+000	-3.984129592320046E+002	5.7236451E-001	-1.4365019E+000	0
3.5910571E+000	1.316548968806092E+002	-1.4381777E+000	-4.004886898181503E+002	5.7597393E-001	-1.4380076E+000	0
3.5748093E+000	1.318053968768072E+002	-1.4396678E+000	-4.027257756701651E+002	5.7979137E-001	-1.4395120E+000	0
3.5719581E+000	1.319460968732528E+002	-1.4410477E+000	-4.034335312944587E+002	5.8136696E-001	-1.4409190E+000	0
3.5805993E+000	1.321061968692084E+002	-1.4426855E+000	-4.029173092779802E+002	5.8128297E-001	-1.4425204E+000	0
3.5951757E+000	1.322762968649113E+002	-1.4443437E+000	-4.017449562323900E+002	5.8025777E-001	-1.4442216E+000	0
3.5935788E+000	1.324462968606167E+002	-1.4460874E+000	-4.024086939117094E+002	5.8191812E-001	-1.4459209E+000	0
3.4019043E+000	1.326068968565596E+002	-1.4476774E+000	-4.255491242215603E+002	6.1605781E-001	-1.4475269E+000	0
3.3673174E+000	1.327472968530128E+002	-1.4490583E+000	-4.303301832730003E+002	6.2357354E-001	-1.4489312E+000	0
3.3527579E+000	1.328975968492159E+002	-1.4506083E+000	-4.326611893325430E+002	6.2762189E-001	-1.4504341E+000	0
3.3475053E+000	1.330478968454190E+002	-1.4520527E+000	-4.337715864335114E+002	6.2985921E-001	-1.4519370E+000	0
3.2912614E+000	1.331983968416171E+002	-1.4535946E+000	-4.416527212416167E+002	6.4198399E-001	-1.4534423E+000	0
3.2567863E+000	1.333489968378126E+002	-1.4550812E+000	-4.467843565560670E+002	6.5010750E-001	-1.4549481E+000	0
3.2427714E+000	1.334995968340081E+002	-1.4566357E+000	-4.491947063759703E+002	6.5431303E-001	-1.4564539E+000	0
3.2594728E+000	1.336700968297009E+002	-1.4583129E+000	-4.474075949076964E+002	6.5246028E-001	-1.4581593E+000	0
3.2705879E+000	1.338006968264017E+002	-1.4596115E+000	-4.462841536281935E+002	6.5140152E-001	-1.4594648E+000	0
3.2735624E+000	1.339509968226048E+002	-1.4611673E+000	-4.463538892640099E+002	6.5219772E-001	-1.4609683E+000	0
3.2931859E+000	1.341013968188054E+002	-1.4626974E+000	-4.441587659533752E+002	6.4966989E-001	-1.4624717E+000	0
3.2974026E+000	1.342418968152560E+002	-1.4640187E+000	-4.439914963250258E+002	6.5001184E-001	-1.4638772E+000	0
3.2703273E+000	1.344123968109488E+002	-1.4657389E+000	-4.481933418846593E+002	6.5693444E-001	-1.4655823E+000	0
3.2950017E+000	1.345829968066391E+002	-1.4674333E+000	-4.453512912396641E+002	6.5352333E-001	-1.4672883E+000	0
3.3139474E+000	1.347536968023269E+002	-1.4691217E+000	-4.433147172507215E+002	6.5128326E-001	-1.4689952E+000	0
3.2951338E+000	1.349041967985249E+002	-1.4706421E+000	-4.463072377704248E+002	6.5635818E-001	-1.4704999E+000	0
3.2439690E+000	1.350645967944729E+002	-1.4722730E+000	-4.538492879765017E+002	6.6819006E-001	-1.4721044E+000	0
3.1532612E+000	1.352650967894078E+002	-1.4742558E+000	-4.675336795278345E+002	6.8926424E-001	-1.4741095E+000	0
3.1042352E+000	1.354651967843529E+002	-1.4762815E+000	-4.755701150569785E+002	7.0207536E-001	-1.4761108E+000	0
3.1334298E+000	1.356651967793005E+002	-1.4782326E+000	-4.717618464299057E+002	6.9737375E-001	-1.4781107E+000	0
3.1437099E+000	1.358651967742480E+002	-1.4802781E+000	-4.708698167519779E+002	6.9701827E-001	-1.4801108E+000	0
3.1493819E+000	1.360651967691956E+002	-1.4823037E+000	-4.706649605800776E+002	6.9766843E-001	-1.4821109E+000	0
3.1421530E+000	1.362651967641432E+002	-1.4842601E+000	-4.723704051755203E+002	7.0112056E-001	-1.4841107E+000	0
3.0684421E+000	1.364651967590908E+002	-1.4862633E+000	-4.843706496621471E+002	7.1990234E-001	-1.4861107E+000	0
3.0036321E+000	1.366651967540383E+002	-1.4882709E+000	-4.954904072560421E+002	7.3742396E-001	-1.4881107E+000	0
2.9993215E+000	1.368651967489859E+002	-1.4902682E+000	-4.968684493170849E+002	7.4046725E-001	-1.4901108E+000	0
2.9671795E+000	1.370651967439335E+002	-1.4923180E+000	-5.029415863409070E+002	7.5054878E-001	-1.4921108E+000	0
2.9632599E+000	1.372651967388811E+002	-1.4943043E+000	-5.042771497280974E+002	7.5354350E-001	-1.4941107E+000	0
2.9614568E+000	1.374651967338286E+002	-1.4962392E+000	-5.052375665694926E+002	7.5595623E-001	-1.4961107E+000	0
2.9776523E+000	1.376651967287762E+002	-1.4982969E+000	-5.031805853378755E+002	7.5391388E-001	-1.4981108E+000	0
2.9874630E+000	1.378651967237238E+002	-1.5003490E+000	-5.022151013026196E+002	7.5349796E-001	-1.5001107E+000	0
2.9393516E+000	1.380651967186714E+002	-1.5023497E+000	-5.111160489209924E+002	7.6787508E-001	-1.5021107E+000	0
2.8462229E+000	1.382651967136189E+002	-1.5043023E+000	-5.285258019765188E+002	7.9506254E-001	-1.5041108E+000	0
2.7394607E+000	1.384651967085665E+002	-1.5062964E+000	-5.498514520035342E+002	8.2823926E-001	-1.5061107E+000	0
2.7328744E+000	1.386651967035141E+002	-1.5083549E+000	-5.519298069796075E+002	8.3250600E-001	-1.5081108E+000	0
2.7651007E+000	1.388651966984617E+002	-1.5103217E+000	-5.462085625265727E+002	8.2495064E-001	-1.5101107E+000	0
2.7557113E+000	1.390651966934092E+002	-1.5122905E+000	-5.487840762797932E+002	8.2992095E-001	-1.5121107E+000	0
2.6982856E+000	1.392651966883568E+002	-1.5143169E+000	-5.612144751473081E+002	8.4985656E-001	-1.5141108E+000	0
2.6553123E+000	1.394651966833044E+002	-1.5163206E+000	-5.710517059507820E+002	8.6589748E-001	-1.5161108E+000	0
2.6432350E+000	1.396651966782520E+002	-1.5183609E+000	-5.744327910114034E+002	8.7219626E-001	-1.5181108E+000	0
2.6743972E+000	1.398651966731995E+002	-1.5203520E+000	-5.684839973536191E+002	8.6429578E-001	-1.5201108E+000	0
2.6556649E+000	1.400551966683997E+002	-1.5221801E+000	-5.731822948747777E+002	8.7248665E-001	-1.5220106E+000	0
2.6289527E+000	1.401361966663535E+002	-1.5231950E+000	-5.793923339843750E+002	8.8252753E-001	-1.5230105E+000	1