EC-Lab ASCII FILE
Nb header lines : 61                          

Linear Sweep Voltammetry

Run on channel : 1 (SN 1340)
User : 
Electrode connection : standard
Potential control : Ewe
Ewe ctrl range : min = -5.00 V, max = 5.00 V
Ewe,I filtering : <None>
Channel : Grounded
Acquisition started on : 02/12/2026 17:12:12.517
Technique started on : 02/12/2026 17:12:15.356
Loaded Setting File :  NONE
Saved on :
	File : PtPdCo_2_12_02_LSV_C01.mpr
	Directory : C:\Users\volt\Documents\Platalytix\
	Host : 127.0.0.1
Device : SP-200 (SN 0262)
Address : USB
EC-LAB for windows v11.60 (software)
Internet server v11.60 (firmware)
Command interpretor v11.60 (firmware)
Electrode material : PtPdCo
Initial state : 
Electrolyte : KOH (1M)
Comments : 
Cable : standard
Reference electrode : Hg/HgO (0.140 V)
Electrode surface area : 1.000 cm˛
Characteristic mass : 0.001 g
Equivalent Weight : 0.000 g/eq.
Density : 0.000 g/cm3
Volume (V) : 0.001 cmł
Cycle Definition : Charge/Discharge alternance
tR (h:m:s)          0:00:5.0000         
dER/dt (mV/h)       0.0                 
dER (mV)            0                   
dtR (s)             0.0000              
dE/dt               10.000              
dE/dt unit          mV/s                
Ei (V)              -0.200              
vs.                 Ref                 
EL (V)              -2.500              
vs.                 Ref                 
record              <I>                 
dI                  0.000               
unit dI             µA                  
tI (s)              0.0000              
step percent        50                  
N                   10                  
E range min (V)     -5.000              
E range max (V)     5.000               
I Range             Auto                
I Range min         Unset               
I Range max         Unset               
I Range init        Unset               
Bandwidth           8                   

Rwe/Ohm	time/s	Ewe/V	<I>/mA	Pwe/W	control/V	error	
0.0000000E+000	2.839400134835159E+000	-1.4737052E-001	0.000000000000000E+000	0.0000000E+000	0.0000000E+000	0
0.0000000E+000	7.839200008529588E+000	1.0547187E-002	0.000000000000000E+000	0.0000000E+000	-1.9983271E-001	0
6.2669824E+002	8.039200003477163E+000	-2.0147662E-001	-3.214890378713607E-001	6.4772525E-005	-2.0173249E-001	0
6.5644525E+002	8.159200000445708E+000	-2.0272021E-001	-3.088151154222376E-001	6.2603067E-005	-2.0293255E-001	0
7.8795343E+002	8.369199995140661E+000	-2.0483628E-001	-2.599598850945100E-001	5.3249216E-005	-2.0503253E-001	0
8.7460535E+002	8.569199990088237E+000	-2.0681451E-001	-2.364660999072457E-001	4.8904622E-005	-2.0703255E-001	0
9.4211707E+002	8.769199985035812E+000	-2.0886597E-001	-2.216985317542641E-001	4.6305278E-005	-2.0903255E-001	0
9.9802893E+002	8.969199979983387E+000	-2.1086416E-001	-2.112805999967515E-001	4.4551507E-005	-2.1103252E-001	0
1.0462766E+003	9.169199974930962E+000	-2.1285369E-001	-2.034392105225393E-001	4.3302785E-005	-2.1303254E-001	0
1.0887679E+003	9.369199969878537E+000	-2.1483591E-001	-1.973202027583216E-001	4.2391464E-005	-2.1503255E-001	0
1.1283290E+003	9.569199964826112E+000	-2.1683839E-001	-1.921765573086240E-001	4.1671254E-005	-2.1703254E-001	0
1.1642351E+003	9.769199959773687E+000	-2.1880792E-001	-1.879413462964115E-001	4.1123054E-005	-2.1903254E-001	0
1.1974706E+003	9.969199954721262E+000	-2.2085321E-001	-1.844330957083371E-001	4.0732641E-005	-2.2103256E-001	0
1.2293079E+003	1.016919994966884E+001	-2.2289024E-001	-1.813136048429139E-001	4.0413033E-005	-2.2303253E-001	0
1.2595780E+003	1.036919994461641E+001	-2.2482626E-001	-1.784933143667038E-001	4.0129984E-005	-2.2503254E-001	0
1.2877471E+003	1.056919993956399E+001	-2.2685285E-001	-1.761625867744572E-001	3.9962986E-005	-2.2703251E-001	0
1.3152178E+003	1.076919993451156E+001	-2.2886261E-001	-1.740111972832552E-001	3.9824656E-005	-2.2903241E-001	0
1.3419558E+003	1.096919992945914E+001	-2.3083124E-001	-1.720110582263796E-001	3.9705526E-005	-2.3103228E-001	0
1.3677217E+003	1.116919992440671E+001	-2.3285049E-001	-1.702469864399796E-001	3.9642095E-005	-2.3303218E-001	0
1.3920448E+003	1.136919991935429E+001	-2.3484604E-001	-1.687058104632970E-001	3.9619892E-005	-2.3503208E-001	0
1.4162317E+003	1.156919991430186E+001	-2.3685408E-001	-1.672424693991037E-001	3.9612059E-005	-2.3703194E-001	0
1.4399768E+003	1.176919990924944E+001	-2.3886658E-001	-1.658822430166800E-001	3.9623723E-005	-2.3903184E-001	0
1.4629233E+003	1.196919990419701E+001	-2.4084453E-001	-1.646323645742956E-001	3.9650804E-005	-2.4103171E-001	0
1.4855280E+003	1.216919989914459E+001	-2.4283919E-001	-1.634699503295631E-001	3.9696912E-005	-2.4303161E-001	0
1.5087308E+003	1.236919989409216E+001	-2.4488968E-001	-1.623150208096980E-001	3.9749273E-005	-2.4503151E-001	0
1.5297781E+003	1.256919988903974E+001	-2.4682772E-001	-1.613487117900561E-001	3.9825336E-005	-2.4703136E-001	0
1.5516693E+003	1.276919988398731E+001	-2.4884127E-001	-1.603700470077949E-001	3.9906685E-005	-2.4903126E-001	0
1.5729850E+003	1.296919987893489E+001	-2.5087059E-001	-1.594869494776065E-001	4.0010586E-005	-2.5103113E-001	0
1.5936301E+003	1.316919987388246E+001	-2.5283977E-001	-1.586564913837665E-001	4.0114672E-005	-2.5303105E-001	0
1.6135896E+003	1.336919986883004E+001	-2.5485590E-001	-1.579434440203026E-001	4.0252820E-005	-2.5503093E-001	0
1.6340543E+003	1.356919986377761E+001	-2.5684801E-001	-1.571844968334460E-001	4.0372524E-005	-2.5703079E-001	0
1.6530126E+003	1.376909985872771E+001	-2.5885758E-001	-1.565974627932332E-001	4.0536441E-005	-2.5903159E-001	0
1.6724031E+003	1.396899985367781E+001	-2.6085395E-001	-1.559755198917266E-001	4.0686831E-005	-2.6103058E-001	0
1.6939263E+003	1.416899984862539E+001	-2.6284373E-001	-1.551683361952498E-001	4.0785024E-005	-2.6303047E-001	0
1.7149640E+003	1.436899984357296E+001	-2.6484817E-001	-1.544336645923083E-001	4.0901476E-005	-2.6503035E-001	0
1.7369598E+003	1.456899983852054E+001	-2.6684582E-001	-1.536280946592777E-001	4.0995015E-005	-2.6703024E-001	0
1.7589299E+003	1.476899983346812E+001	-2.6885945E-001	-1.528539820215213E-001	4.1096238E-005	-2.6903012E-001	0
1.7803053E+003	1.496899982841569E+001	-2.7083841E-001	-1.521303216069344E-001	4.1202733E-005	-2.7103001E-001	0
1.8020815E+003	1.516899982336327E+001	-2.7280846E-001	-1.513851903571135E-001	4.1299161E-005	-2.7302989E-001	0
1.8228894E+003	1.536899981831084E+001	-2.7486256E-001	-1.507840003562739E-001	4.1444877E-005	-2.7502978E-001	0
1.8451094E+003	1.556899981325842E+001	-2.7681923E-001	-1.500286261198402E-001	4.1530810E-005	-2.7702966E-001	0
1.8652578E+003	1.576899980820599E+001	-2.7884343E-001	-1.494932358085579E-001	4.1685205E-005	-2.7902955E-001	0
1.8863969E+003	1.596899980315357E+001	-2.8080225E-001	-1.488564054496471E-001	4.1799212E-005	-2.8102943E-001	0
1.9080814E+003	1.616899979810114E+001	-2.8283811E-001	-1.482316800308690E-001	4.1925567E-005	-2.8302932E-001	0
1.9304026E+003	1.636899979304872E+001	-2.8484237E-001	-1.475559437368696E-001	4.2030184E-005	-2.8502920E-001	0
1.9536156E+003	1.656899978799629E+001	-2.8683999E-001	-1.468251928868711E-001	4.2115338E-005	-2.8702909E-001	0
1.9758141E+003	1.676899978294387E+001	-2.8883976E-001	-1.461877202722848E-001	4.2224827E-005	-2.8902897E-001	0
1.9964352E+003	1.696899977789144E+001	-2.9084635E-001	-1.456828420800141E-001	4.2371321E-005	-2.9102886E-001	0
2.0179171E+003	1.716889977284154E+001	-2.9286072E-001	-1.451302050226089E-001	4.2502936E-005	-2.9302850E-001	0
2.0391406E+003	1.736879976779164E+001	-2.9484862E-001	-1.445945526859691E-001	4.2633503E-005	-2.9502863E-001	0
2.0598872E+003	1.756879976273922E+001	-2.9684839E-001	-1.441090548930525E-001	4.2778542E-005	-2.9702851E-001	0
2.0800950E+003	1.776879975768679E+001	-2.9884055E-001	-1.436667909482476E-001	4.2933465E-005	-2.9902840E-001	0
2.1014661E+003	1.796879975263437E+001	-3.0085963E-001	-1.431665414355081E-001	4.3073032E-005	-3.0102828E-001	0
2.1236060E+003	1.816879974758194E+001	-3.0285686E-001	-1.426144278293597E-001	4.3191758E-005	-3.0302817E-001	0
2.1427307E+003	1.836879974252952E+001	-3.0482396E-001	-1.422595832826329E-001	4.3364129E-005	-3.0502805E-001	0
2.1587808E+003	1.856879973747709E+001	-3.0684093E-001	-1.421362152851087E-001	4.3613207E-005	-3.0702797E-001	0
2.1755762E+003	1.876879973242467E+001	-3.0885792E-001	-1.419660316140322E-001	4.3847333E-005	-3.0902785E-001	0
2.1898296E+003	1.896879972737224E+001	-3.1086361E-001	-1.419579053187825E-001	4.4129549E-005	-3.1102774E-001	0
2.2081438E+003	1.916879972231982E+001	-3.1285912E-001	-1.416842160913292E-001	4.4327200E-005	-3.1302762E-001	0
2.2239172E+003	1.936879971726739E+001	-3.1483302E-001	-1.415668757095969E-001	4.4569926E-005	-3.1502751E-001	0
2.2446753E+003	1.956879971221497E+001	-3.1679523E-001	-1.411318799286510E-001	4.4709905E-005	-3.1702739E-001	0
2.2631270E+003	1.976879970716254E+001	-3.1888986E-001	-1.409067501833495E-001	4.4933735E-005	-3.1902727E-001	0
2.2839731E+003	1.996879970211012E+001	-3.2082662E-001	-1.404686416932245E-001	4.5066081E-005	-3.2102716E-001	0
2.3051604E+003	2.016879969705769E+001	-3.2283378E-001	-1.400482949384754E-001	4.5212320E-005	-3.2302704E-001	0
2.3279185E+003	2.036879969200527E+001	-3.2483038E-001	-1.395368376913608E-001	4.5325804E-005	-3.2502693E-001	0
2.3491970E+003	2.056879968695284E+001	-3.2684100E-001	-1.391288146023926E-001	4.5473000E-005	-3.2702681E-001	0
2.3690894E+003	2.076859968190547E+001	-3.2883674E-001	-1.388030063532686E-001	4.5643526E-005	-3.2902670E-001	0
2.3897109E+003	2.096859967685305E+001	-3.3082399E-001	-1.384368267379139E-001	4.5798224E-005	-3.3102658E-001	0
2.4098215E+003	2.116859967180062E+001	-3.3285409E-001	-1.381239606228040E-001	4.5975125E-005	-3.3302647E-001	0
2.4314375E+003	2.136859966674820E+001	-3.3488870E-001	-1.377328027571941E-001	4.6125158E-005	-3.3502635E-001	0
2.4527148E+003	2.156859966169577E+001	-3.3687744E-001	-1.373487959601105E-001	4.6269710E-005	-3.3702624E-001	0
2.4739060E+003	2.176859965664335E+001	-3.3883369E-001	-1.369630418276491E-001	4.6407691E-005	-3.3902612E-001	0
2.4950581E+003	2.196859965159092E+001	-3.4084368E-001	-1.366075148104848E-001	4.6561807E-005	-3.4102601E-001	0
2.5164368E+003	2.216859964653850E+001	-3.4288397E-001	-1.362577410174062E-001	4.6720597E-005	-3.4302589E-001	0
2.5392253E+003	2.236859964148607E+001	-3.4485999E-001	-1.358130695604534E-001	4.6836492E-005	-3.4502578E-001	0
2.5604377E+003	2.256859963643365E+001	-3.4690538E-001	-1.354867500451533E-001	4.7001082E-005	-3.4702566E-001	0
2.5819021E+003	2.276859963138122E+001	-3.4887391E-001	-1.351228229862027E-001	4.7140828E-005	-3.4902555E-001	0
2.6020923E+003	2.296859962632880E+001	-3.5085508E-001	-1.348357521981642E-001	4.7307811E-005	-3.5102543E-001	0
2.6240911E+003	2.316859962127637E+001	-3.5286313E-001	-1.344706146078198E-001	4.7449721E-005	-3.5302535E-001	0
2.6440291E+003	2.336859961622395E+001	-3.5484549E-001	-1.342063508146438E-001	4.7622518E-005	-3.5502520E-001	0
2.6653550E+003	2.356859961117152E+001	-3.5685292E-001	-1.338856977731611E-001	4.7777503E-005	-3.5702512E-001	0
2.6877524E+003	2.376859960611910E+001	-3.5887775E-001	-1.335233700611629E-001	4.7918566E-005	-3.5902497E-001	0
2.7084382E+003	2.396859960106667E+001	-3.6086902E-001	-1.332387795382497E-001	4.8081747E-005	-3.6102486E-001	0
2.7310413E+003	2.416849959601677E+001	-3.6286262E-001	-1.328660382613666E-001	4.8212118E-005	-3.6302477E-001	0
2.7542317E+003	2.436839959096687E+001	-3.6486369E-001	-1.324738548665211E-001	4.8334899E-005	-3.6502463E-001	0
2.7769795E+003	2.456839958591445E+001	-3.6684754E-001	-1.321030837682213E-001	4.8461690E-005	-3.6702454E-001	0
2.7988179E+003	2.476839958086202E+001	-3.6887616E-001	-1.317971306578456E-001	4.8616821E-005	-3.6902440E-001	0
2.8207168E+003	2.496839957580960E+001	-3.7086514E-001	-1.314790385961108E-001	4.8760990E-005	-3.7102428E-001	0
2.8406333E+003	2.516839957075717E+001	-3.7285727E-001	-1.312584990335630E-001	4.8940685E-005	-3.7302420E-001	0
2.8623469E+003	2.536839956570475E+001	-3.7482864E-001	-1.309515068765790E-001	4.9084374E-005	-3.7502405E-001	0
2.8871453E+003	2.556839956065232E+001	-3.7685192E-001	-1.305275266491672E-001	4.9189548E-005	-3.7702397E-001	0
2.9071484E+003	2.576839955559990E+001	-3.7885043E-001	-1.303168562549226E-001	4.9370596E-005	-3.7902382E-001	0
2.9300225E+003	2.596839955054747E+001	-3.8082176E-001	-1.299722983698257E-001	4.9496281E-005	-3.8102371E-001	0
2.9517073E+003	2.616839954549505E+001	-3.8285357E-001	-1.297058020095402E-001	4.9658331E-005	-3.8302362E-001	0
2.9737861E+003	2.636839954044262E+001	-3.8484234E-001	-1.294115733517893E-001	4.9803053E-005	-3.8502347E-001	0
2.9942976E+003	2.656839953539020E+001	-3.8682449E-001	-1.291870523567251E-001	4.9972714E-005	-3.8702339E-001	0
3.0170950E+003	2.676839953033777E+001	-3.8885462E-001	-1.288837841310690E-001	5.0117054E-005	-3.8902324E-001	0
3.0396768E+003	2.696839952528535E+001	-3.9085799E-001	-1.285853808853445E-001	5.0258623E-005	-3.9102313E-001	0
3.0618547E+003	2.716839952023292E+001	-3.9285734E-001	-1.283069818054665E-001	5.0406339E-005	-3.9302304E-001	0
3.0839331E+003	2.736839951518050E+001	-3.9484015E-001	-1.280313584121478E-001	5.0551920E-005	-3.9502296E-001	0
3.1079810E+003	2.756829951013060E+001	-3.9686725E-001	-1.276929504268824E-001	5.0677150E-005	-3.9702222E-001	0
3.1310271E+003	2.776819950508070E+001	-3.9885905E-001	-1.273892073883603E-001	5.0810340E-005	-3.9902270E-001	0
3.1523477E+003	2.796819950002828E+001	-4.0084752E-001	-1.271584173865081E-001	5.0971135E-005	-4.0102255E-001	0
3.1732229E+003	2.816819949497585E+001	-4.0284240E-001	-1.269505511327331E-001	5.1141065E-005	-4.0302247E-001	0
3.1979968E+003	2.836819948992343E+001	-4.0485391E-001	-1.265960924154201E-001	5.1252922E-005	-4.0502232E-001	0
3.2205271E+003	2.856819948487100E+001	-4.0687257E-001	-1.263372606509143E-001	5.1403167E-005	-4.0702224E-001	0
3.2444185E+003	2.876819947981858E+001	-4.0884134E-001	-1.260137525197038E-001	5.1519633E-005	-4.0902212E-001	0
3.2609636E+003	2.896819947476615E+001	-4.1085023E-001	-1.259904358759855E-001	5.1763200E-005	-4.1102198E-001	0
3.2795811E+003	2.916819946971373E+001	-4.1289631E-001	-1.258991029337388E-001	5.1983276E-005	-4.1302189E-001	0
3.3066519E+003	2.936819946466130E+001	-4.1487908E-001	-1.254680276554825E-001	5.2054060E-005	-4.1502181E-001	0
3.3335896E+003	2.956819945960888E+001	-4.1689536E-001	-1.250589925462118E-001	5.2136515E-005	-4.1702169E-001	0
3.3548252E+003	2.976819945455645E+001	-4.1887456E-001	-1.248573403659776E-001	5.2299565E-005	-4.1902155E-001	0
3.3810222E+003	2.996819944950403E+001	-4.2084467E-001	-1.244726143323320E-001	5.2383635E-005	-4.2102143E-001	0
3.4094688E+003	3.016819944445160E+001	-4.2284867E-001	-1.240218634909342E-001	5.2442480E-005	-4.2302132E-001	0
3.4357444E+003	3.036819943939918E+001	-4.2483720E-001	-1.236521588235060E-001	5.2532036E-005	-4.2502117E-001	0
3.4664976E+003	3.056819943434675E+001	-4.2689893E-001	-1.231499294509637E-001	5.2572574E-005	-4.2702112E-001	0
3.4964846E+003	3.076819942929433E+001	-4.2885479E-001	-1.226531369738337E-001	5.2600386E-005	-4.2902097E-001	0
3.5246199E+003	3.096819942424190E+001	-4.3084186E-001	-1.222378224495567E-001	5.2665171E-005	-4.3102086E-001	0
3.5546243E+003	3.116809941919200E+001	-4.3287057E-001	-1.217767448783128E-001	5.2713567E-005	-4.3302053E-001	0
3.5839624E+003	3.136799941414210E+001	-4.3485603E-001	-1.213338704507314E-001	5.2762764E-005	-4.3502060E-001	0
3.6146924E+003	3.156799940908968E+001	-4.3685898E-001	-1.208564756657764E-001	5.2797237E-005	-4.3702054E-001	0
3.6456091E+003	3.176799940403725E+001	-4.3886977E-001	-1.203831104443420E-001	5.2832507E-005	-4.3902040E-001	0
3.6789736E+003	3.196799939898483E+001	-4.4089440E-001	-1.198416852683688E-001	5.2837528E-005	-4.4102028E-001	0
3.7100022E+003	3.216799939393240E+001	-4.4289842E-001	-1.193795608823316E-001	5.2873020E-005	-4.4302016E-001	0
3.7414114E+003	3.236799938887998E+001	-4.4486463E-001	-1.189028906399413E-001	5.2895692E-005	-4.4502002E-001	0
3.7744666E+003	3.256799938382756E+001	-4.4685808E-001	-1.183897307155282E-001	5.2903408E-005	-4.4702002E-001	0
3.8111409E+003	3.276799937877513E+001	-4.4884706E-001	-1.177723632783304E-001	5.2861778E-005	-4.4901982E-001	0
3.8412573E+003	3.296799937372271E+001	-4.5084915E-001	-1.173701987215350E-001	5.2916253E-005	-4.5101970E-001	0
3.8821213E+003	3.316799936867028E+001	-4.5287079E-001	-1.166554942374409E-001	5.2829866E-005	-4.5301965E-001	0
3.9175210E+003	3.336799936361786E+001	-4.5484281E-001	-1.161047549730343E-001	5.2809413E-005	-4.5501944E-001	0
3.9568699E+003	3.356799935856543E+001	-4.5687580E-001	-1.154639468287586E-001	5.2752683E-005	-4.5701939E-001	0
3.9945020E+003	3.376799935351301E+001	-4.5888007E-001	-1.148779199515677E-001	5.2715186E-005	-4.5901924E-001	0
4.0351394E+003	3.396799934846058E+001	-4.6087539E-001	-1.142154843145198E-001	5.2639105E-005	-4.6101916E-001	0
4.0743630E+003	3.416799934340816E+001	-4.6286246E-001	-1.136036363774546E-001	5.2582858E-005	-4.6301907E-001	0
4.1108994E+003	3.436799933835573E+001	-4.6484843E-001	-1.130770584747887E-001	5.2563693E-005	-4.6501893E-001	0
4.1543374E+003	3.456799933330331E+001	-4.6683571E-001	-1.123730871687030E-001	5.2459771E-005	-4.6701887E-001	0
4.1958950E+003	3.476779932825593E+001	-4.6885961E-001	-1.117424546571653E-001	5.2391522E-005	-4.6901867E-001	0
4.2400430E+003	3.496779932320351E+001	-4.7082761E-001	-1.110431284700724E-001	5.2282172E-005	-4.7101858E-001	0
4.2802920E+003	3.516779931815108E+001	-4.7285512E-001	-1.104726377481808E-001	5.2237552E-005	-4.7301850E-001	0
4.3240498E+003	3.536779931309866E+001	-4.7482330E-001	-1.098098556496319E-001	5.2140276E-005	-4.7501835E-001	0
4.3692964E+003	3.556779930804623E+001	-4.7683752E-001	-1.091337030027015E-001	5.2039042E-005	-4.7701830E-001	0
4.4155117E+003	3.576779930299381E+001	-4.7883922E-001	-1.084447828841619E-001	5.1927615E-005	-4.7901809E-001	0
4.4624780E+003	3.596779929794138E+001	-4.8083514E-001	-1.077507000317263E-001	5.1810322E-005	-4.8101801E-001	0
4.5076953E+003	3.616779929288896E+001	-4.8281518E-001	-1.071090926067761E-001	5.1713894E-005	-4.8301792E-001	0
4.5569072E+003	3.636779928783653E+001	-4.8484188E-001	-1.063971354387478E-001	5.1585786E-005	-4.8501778E-001	0
4.6017012E+003	3.656779928278411E+001	-4.8684296E-001	-1.057963013287859E-001	5.1506184E-005	-4.8701772E-001	0
4.6455044E+003	3.676779927773168E+001	-4.8883852E-001	-1.052283017575122E-001	5.1439649E-005	-4.8901752E-001	0
4.6960420E+003	3.696779927267926E+001	-4.9085036E-001	-1.045242663612267E-001	5.1305775E-005	-4.9101743E-001	0
4.7459082E+003	3.716779926762683E+001	-4.9286738E-001	-1.038510102563261E-001	5.1184776E-005	-4.9301735E-001	0
4.7946235E+003	3.736779926257441E+001	-4.9486372E-001	-1.032122162829602E-001	5.1075982E-005	-4.9501720E-001	0
4.8476885E+003	3.756779925752198E+001	-4.9685562E-001	-1.024933044065866E-001	5.0924373E-005	-4.9701715E-001	0
4.8984517E+003	3.776779925246956E+001	-4.9886048E-001	-1.018404416769501E-001	5.0804170E-005	-4.9901694E-001	0
4.9486504E+003	3.796779924741713E+001	-5.0082642E-001	-1.012046450523076E-001	5.0685961E-005	-5.0101691E-001	0
5.0026973E+003	3.816759924236976E+001	-5.0286609E-001	-1.005189893910088E-001	5.0547591E-005	-5.0301659E-001	0
5.0555908E+003	3.836759923731734E+001	-5.0486857E-001	-9.986341301491231E-002	5.0417897E-005	-5.0501668E-001	0
5.1087490E+003	3.856759923226491E+001	-5.0688177E-001	-9.921837344241968E-002	5.0291987E-005	-5.0701660E-001	0
5.1605132E+003	3.876759922721249E+001	-5.0887406E-001	-9.860920016453156E-002	5.0179664E-005	-5.0901645E-001	0
5.2127671E+003	3.896759922216006E+001	-5.1087838E-001	-9.800522302566650E-002	5.0068749E-005	-5.1101637E-001	0
5.2675859E+003	3.916759921710764E+001	-5.1287556E-001	-9.736443763227154E-002	4.9935839E-005	-5.1301622E-001	0
5.3190225E+003	3.936759921205521E+001	-5.1485282E-001	-9.679463224394746E-002	4.9834991E-005	-5.1501614E-001	0
5.3762241E+003	3.956759920700279E+001	-5.1685894E-001	-9.613791128035547E-002	4.9689737E-005	-5.1701605E-001	0
5.4320518E+003	3.976759920195036E+001	-5.1886088E-001	-9.551839520806280E-002	4.9560756E-005	-5.1901585E-001	0
5.4820400E+003	3.996759919689794E+001	-5.2089077E-001	-9.501768844339420E-002	4.9493836E-005	-5.2101576E-001	0
5.5381001E+003	4.016759919184551E+001	-5.2286869E-001	-9.441300848701673E-002	4.9365608E-005	-5.2301568E-001	0
5.5903560E+003	4.036759918679309E+001	-5.2485001E-001	-9.388490040657742E-002	4.9275492E-005	-5.2501553E-001	0
5.6473691E+003	4.056759918174066E+001	-5.2687693E-001	-9.329599612540340E-002	4.9155507E-005	-5.2701545E-001	0
5.7002119E+003	4.076759917668824E+001	-5.2884936E-001	-9.277713758123363E-002	4.9065129E-005	-5.2901530E-001	0
5.7596196E+003	4.096759917163581E+001	-5.3083867E-001	-9.216557730669339E-002	4.8925052E-005	-5.3101516E-001	0
5.8130635E+003	4.116759916658339E+001	-5.3286397E-001	-9.166663429539335E-002	4.8845846E-005	-5.3301507E-001	0
5.8662573E+003	4.136759916153096E+001	-5.3488624E-001	-9.118015369423610E-002	4.8771009E-005	-5.3501493E-001	0
5.9215713E+003	4.156759915647854E+001	-5.3689152E-001	-9.066707133771335E-002	4.8678383E-005	-5.3701532E-001	0
5.9741792E+003	4.176739915143116E+001	-5.3884631E-001	-9.019587498819215E-002	4.8601716E-005	-5.3901470E-001	0
6.0290195E+003	4.196739914637874E+001	-5.4088467E-001	-8.971354010031352E-002	4.8524678E-005	-5.4101467E-001	0
6.0832563E+003	4.216739914132631E+001	-5.4290479E-001	-8.924575203706570E-002	4.8451948E-005	-5.4301453E-001	0
6.1402417E+003	4.236739913627389E+001	-5.4493791E-001	-8.874861145541985E-002	4.8362483E-005	-5.4501438E-001	0
6.1900239E+003	4.256739913122146E+001	-5.4687977E-001	-8.834857075441405E-002	4.8316047E-005	-5.4701430E-001	0
6.2403984E+003	4.276739912616904E+001	-5.4890138E-001	-8.795934588787779E-002	4.8281006E-005	-5.4901415E-001	0
6.2891953E+003	4.296739912111661E+001	-5.5084282E-001	-8.758557814832324E-002	4.8245885E-005	-5.5101401E-001	0
6.3455967E+003	4.316739911606419E+001	-5.5286616E-001	-8.712595426836489E-002	4.8168993E-005	-5.5301392E-001	0
6.3945229E+003	4.336739911101176E+001	-5.5489475E-001	-8.677656444469628E-002	4.8151858E-005	-5.5501378E-001	0
6.4455024E+003	4.356739910595934E+001	-5.5687654E-001	-8.639769125550290E-002	4.8112848E-005	-5.5701375E-001	0
6.4937388E+003	4.376739910090691E+001	-5.5886167E-001	-8.606161845714894E-002	4.8096539E-005	-5.5901355E-001	0
6.5431357E+003	4.396739909585449E+001	-5.6083494E-001	-8.571348330766240E-002	4.8071117E-005	-5.6101352E-001	0
6.5931226E+003	4.416739909080206E+001	-5.6284112E-001	-8.536791671732702E-002	4.8048572E-005	-5.6301337E-001	0
6.6433003E+003	4.436739908574964E+001	-5.6486923E-001	-8.502840298510955E-002	4.8029928E-005	-5.6501329E-001	0
6.6858340E+003	4.456739908069721E+001	-5.6684190E-001	-8.478252517055240E-002	4.8058289E-005	-5.6701314E-001	0
6.7385127E+003	4.476739907564479E+001	-5.6882530E-001	-8.441407203910828E-002	4.8016860E-005	-5.6901300E-001	0
6.7791934E+003	4.496739907059236E+001	-5.7083589E-001	-8.420410258811661E-002	4.8066722E-005	-5.7101291E-001	0
6.8293208E+003	4.516719906554499E+001	-5.7284731E-001	-8.388056738221872E-002	4.8050759E-005	-5.7301259E-001	0
6.8711313E+003	4.536719906049257E+001	-5.7483977E-001	-8.366013223584134E-002	4.8091169E-005	-5.7501262E-001	0
6.9149956E+003	4.556719905544014E+001	-5.7683462E-001	-8.341792815728111E-002	4.8118349E-005	-5.7701260E-001	0
6.9545566E+003	4.576719905038772E+001	-5.7886684E-001	-8.323562044709443E-002	4.8182341E-005	-5.7901239E-001	0
6.9948364E+003	4.596719904533529E+001	-5.8083963E-001	-8.303834510124497E-002	4.8231963E-005	-5.8101237E-001	0
7.0445674E+003	4.616719904028287E+001	-5.8283842E-001	-8.273587256296178E-002	4.8221646E-005	-5.8301222E-001	0
7.0839531E+003	4.636719903523044E+001	-5.8488631E-001	-8.256496262552893E-002	4.8291116E-005	-5.8501208E-001	0
7.1286260E+003	4.656719903017802E+001	-5.8681333E-001	-8.231787458474021E-002	4.8305224E-005	-5.8701199E-001	0
7.1624355E+003	4.676719902512559E+001	-5.8886296E-001	-8.221546571877048E-002	4.8413644E-005	-5.8901185E-001	0
7.2071465E+003	4.696719902007317E+001	-5.9082454E-001	-8.197759745574951E-002	4.8434376E-005	-5.9101176E-001	0
7.2327393E+003	4.716719901502074E+001	-5.9288245E-001	-8.197204710846007E-002	4.8599788E-005	-5.9301162E-001	0
7.2670713E+003	4.736719900996832E+001	-5.9487265E-001	-8.185864880136129E-002	4.8695470E-005	-5.9501147E-001	0
7.3018047E+003	4.756719900491589E+001	-5.9686375E-001	-8.174195002432882E-002	4.8788806E-005	-5.9701145E-001	0
7.3535645E+003	4.776719899986347E+001	-5.9889960E-001	-8.144344244882995E-002	4.8776445E-005	-5.9901124E-001	0
7.3818413E+003	4.796719899481104E+001	-6.0083526E-001	-8.139368678367109E-002	4.8904196E-005	-6.0101122E-001	0
7.4168560E+003	4.816719898975862E+001	-6.0287219E-001	-8.128406620814599E-002	4.9003902E-005	-6.0301107E-001	0
7.4507695E+003	4.836719898470619E+001	-6.0486305E-001	-8.118128718157819E-002	4.9103561E-005	-6.0501093E-001	0
7.4805557E+003	4.856709897965629E+001	-6.0689342E-001	-8.112945459820647E-002	4.9236933E-005	-6.0701066E-001	0
7.5176265E+003	4.876699897460639E+001	-6.0886091E-001	-8.099111131088313E-002	4.9312323E-005	-6.0901070E-001	0
7.5407480E+003	4.896699896955397E+001	-6.1086279E-001	-8.100824717795535E-002	4.9484923E-005	-6.1101061E-001	0
7.5757280E+003	4.916699896450154E+001	-6.1286002E-001	-8.089783879434137E-002	4.9579052E-005	-6.1301047E-001	0
7.5971436E+003	4.936699895944912E+001	-6.1485112E-001	-8.093188186767475E-002	4.9761056E-005	-6.1501032E-001	0
7.6253457E+003	4.956699895439669E+001	-6.1685938E-001	-8.089592356325548E-002	4.9901410E-005	-6.1701030E-001	0
7.6545386E+003	4.976699894934427E+001	-6.1890393E-001	-8.085450687859608E-002	5.0041173E-005	-6.1901009E-001	0
7.6820000E+003	4.996699894429185E+001	-6.2089646E-001	-8.082484446208275E-002	5.0183859E-005	-6.2101007E-001	0
7.7025332E+003	5.016699893923942E+001	-6.2284726E-001	-8.086265087267042E-002	5.0365081E-005	-6.2300992E-001	0
7.7319204E+003	5.036699893418700E+001	-6.2483454E-001	-8.081233305719349E-002	5.0494338E-005	-6.2500983E-001	0
7.7489058E+003	5.056699892913457E+001	-6.2693721E-001	-8.090654638851413E-002	5.0723324E-005	-6.2700969E-001	0
7.7674028E+003	5.076699892408215E+001	-6.2887651E-001	-8.096355180384855E-002	5.0916075E-005	-6.2900954E-001	0
7.7891626E+003	5.096699891902972E+001	-6.3090360E-001	-8.099761389749238E-002	5.1101688E-005	-6.3100946E-001	0
7.8078657E+003	5.116699891397730E+001	-6.3286012E-001	-8.105417489773203E-002	5.1295956E-005	-6.3300931E-001	0
7.8219019E+003	5.136699890892487E+001	-6.3484484E-001	-8.116246743471960E-002	5.1525574E-005	-6.3500923E-001	0
7.8312866E+003	5.156699890387245E+001	-6.3686097E-001	-8.132264634136033E-002	5.1791219E-005	-6.3700914E-001	0
7.8436016E+003	5.176699889882002E+001	-6.3887793E-001	-8.145211486920889E-002	5.2037958E-005	-6.3900900E-001	0
7.8576885E+003	5.196699889376760E+001	-6.4082861E-001	-8.155434392234251E-002	5.2262356E-005	-6.4100891E-001	0
7.8543174E+003	5.216679888872022E+001	-6.4284772E-001	-8.184641554831273E-002	5.2614781E-005	-6.4300877E-001	0
7.8558584E+003	5.236679888366780E+001	-6.4484078E-001	-8.208406094594767E-002	5.2931151E-005	-6.4500868E-001	0
7.8604551E+003	5.256679887861537E+001	-6.4686304E-001	-8.229333403268968E-002	5.3232518E-005	-6.4700854E-001	0
7.8533203E+003	5.276679887356295E+001	-6.4889073E-001	-8.262628954286189E-002	5.3615433E-005	-6.4900839E-001	0
7.8457378E+003	5.296679886851052E+001	-6.5091264E-001	-8.296385319489530E-002	5.4002219E-005	-6.5100831E-001	0
7.8567720E+003	5.316679886345810E+001	-6.5290582E-001	-8.310102795666741E-002	5.4257143E-005	-6.5300816E-001	0
7.8397705E+003	5.336679885840567E+001	-6.5483838E-001	-8.352774939427987E-002	5.4697175E-005	-6.5500808E-001	0
7.8267524E+003	5.356679885335325E+001	-6.5688801E-001	-8.392855375867891E-002	5.5131659E-005	-6.5700799E-001	0
7.8234751E+003	5.376679884830082E+001	-6.5884846E-001	-8.421429949960452E-002	5.5484463E-005	-6.5900785E-001	0
7.8109404E+003	5.396679884324840E+001	-6.6084045E-001	-8.460446649501341E-002	5.5910055E-005	-6.6100776E-001	0
7.7856050E+003	5.416679883819597E+001	-6.6289765E-001	-8.514401220712320E-002	5.6441764E-005	-6.6300762E-001	0
7.7584336E+003	5.436679883314355E+001	-6.6487753E-001	-8.569739254871545E-002	5.6978271E-005	-6.6500753E-001	0
7.7361738E+003	5.456679882809112E+001	-6.6683382E-001	-8.619684947162543E-002	5.7478974E-005	-6.6700739E-001	0
7.7133252E+003	5.476679882303870E+001	-6.6884667E-001	-8.671314233350150E-002	5.7997797E-005	-6.6900730E-001	0
7.6882915E+003	5.496679881798627E+001	-6.7083949E-001	-8.725468961462857E-002	5.8533893E-005	-6.7100722E-001	0
7.6452939E+003	5.516679881293385E+001	-6.7285138E-001	-8.800857209456892E-002	5.9216691E-005	-6.7300701E-001	0
7.6109741E+003	5.536679880788142E+001	-6.7482501E-001	-8.866473880243786E-002	5.9833183E-005	-6.7500699E-001	0
7.5699258E+003	5.556669880283152E+001	-6.7684311E-001	-8.941211927496573E-002	6.0517978E-005	-6.7700684E-001	0
7.5292451E+003	5.576659879778163E+001	-6.7886084E-001	-9.016320373136533E-002	6.1208266E-005	-6.7900670E-001	0
7.4820850E+003	5.596659879272920E+001	-6.8084729E-001	-9.099700271844652E-002	6.1955063E-005	-6.8100661E-001	0
7.4363877E+003	5.616659878767678E+001	-6.8284965E-001	-9.182545075154991E-002	6.2702973E-005	-6.8300647E-001	0
7.3944346E+003	5.636659878262435E+001	-6.8485260E-001	-9.261730520103306E-002	6.3429201E-005	-6.8500638E-001	0
7.3388462E+003	5.656659877757193E+001	-6.8686831E-001	-9.359350237655351E-002	6.4286411E-005	-6.8700624E-001	0
7.2831362E+003	5.676659877251950E+001	-6.8884236E-001	-9.458045927119230E-002	6.5151027E-005	-6.8900615E-001	0
7.2258867E+003	5.696659876746708E+001	-6.9081712E-001	-9.560309001297385E-002	6.6044253E-005	-6.9100606E-001	0
7.1606519E+003	5.716659876241465E+001	-6.9283706E-001	-9.675614265545551E-002	6.7036242E-005	-6.9300586E-001	0
7.1029155E+003	5.736659875736223E+001	-6.9486737E-001	-9.782847486776447E-002	6.7977817E-005	-6.9500589E-001	0
7.0380991E+003	5.756659875230980E+001	-6.9688821E-001	-9.901653889085166E-002	6.9003458E-005	-6.9700569E-001	0
6.9752036E+003	5.776659874725738E+001	-6.9886321E-001	-1.001925206681935E-001	7.0020869E-005	-6.9900560E-001	0
6.9110317E+003	5.796659874220495E+001	-7.0086312E-001	-1.014122298238653E-001	7.1076094E-005	-7.0100552E-001	0
6.8430142E+003	5.816659873715253E+001	-7.0285541E-001	-1.027113743096830E-001	7.2191244E-005	-7.0300531E-001	0
6.7714136E+003	5.836659873210010E+001	-7.0486772E-001	-1.040946207655478E-001	7.3372939E-005	-7.0500529E-001	0
6.7051074E+003	5.856659872704768E+001	-7.0686859E-001	-1.054224098595427E-001	7.4519790E-005	-7.0700508E-001	0
6.6341870E+003	5.876659872199525E+001	-7.0882785E-001	-1.068447169155102E-001	7.5734511E-005	-7.0900500E-001	0
6.5578462E+003	5.896659871694283E+001	-7.1083456E-001	-1.083945157956716E-001	7.7050565E-005	-7.1100491E-001	0
6.4886240E+003	5.916639871189545E+001	-7.1286047E-001	-1.098631168896922E-001	7.8317069E-005	-7.1300471E-001	0
6.4105708E+003	5.936639870684303E+001	-7.1485174E-001	-1.115114038520815E-001	7.9714118E-005	-7.1500474E-001	0
6.3418867E+003	5.956639870179060E+001	-7.1686190E-001	-1.130360625378044E-001	8.1031249E-005	-7.1700454E-001	0
6.2675991E+003	5.976639869673818E+001	-7.1887386E-001	-1.146968461387279E-001	8.2452563E-005	-7.1900445E-001	0
6.1948267E+003	5.996639869168575E+001	-7.2082943E-001	-1.163599061412220E-001	8.3875646E-005	-7.2100437E-001	0
6.1202905E+003	6.016639868663333E+001	-7.2285193E-001	-1.181074566600628E-001	8.5374202E-005	-7.2300416E-001	0
6.0523794E+003	6.036639868158090E+001	-7.2483683E-001	-1.197606419770640E-001	8.6806926E-005	-7.2500414E-001	0
5.9741191E+003	6.056639867652848E+001	-7.2687227E-001	-1.216701946882297E-001	8.8438690E-005	-7.2700393E-001	0
5.8987393E+003	6.076639867147605E+001	-7.2882456E-001	-1.235559835064897E-001	9.0050635E-005	-7.2900385E-001	0
5.8199492E+003	6.096639866642363E+001	-7.3085344E-001	-1.255772842026721E-001	9.1778587E-005	-7.3100376E-001	0
5.7479785E+003	6.116639866137120E+001	-7.3285824E-001	-1.274984318703879E-001	9.3438277E-005	-7.3300368E-001	0
5.6751211E+003	6.136639865631878E+001	-7.3485565E-001	-1.294872160238589E-001	9.5154413E-005	-7.3500359E-001	0
5.6036870E+003	6.156639865126635E+001	-7.3685461E-001	-1.314946102588741E-001	9.6892407E-005	-7.3700339E-001	0
5.5345605E+003	6.176639864621393E+001	-7.3886877E-001	-1.335008914631000E-001	9.8639641E-005	-7.3900330E-001	0
5.4562441E+003	6.196639864116150E+001	-7.4085242E-001	-1.357806581811656E-001	1.0059343E-004	-7.4100322E-001	0
5.3839116E+003	6.216639863610908E+001	-7.4285811E-001	-1.379773924348963E-001	1.0249762E-004	-7.4300301E-001	0
5.3075532E+003	6.236639863105665E+001	-7.4489927E-001	-1.403470173754769E-001	1.0454439E-004	-7.4500299E-001	0
5.2336543E+003	6.256629862600676E+001	-7.4685538E-001	-1.427024726272548E-001	1.0657811E-004	-7.4700308E-001	0
5.1632617E+003	6.276619862095686E+001	-7.4886554E-001	-1.450372954879102E-001	1.0861344E-004	-7.4900270E-001	0
5.0859771E+003	6.296619861590443E+001	-7.5086725E-001	-1.476348075116063E-001	1.1085414E-004	-7.5100261E-001	0
5.0176182E+003	6.316619861085201E+001	-7.5289649E-001	-1.500505689402738E-001	1.1297255E-004	-7.5300252E-001	0
4.9455396E+003	6.336619860579958E+001	-7.5487280E-001	-1.526370924325178E-001	1.1522159E-004	-7.5500244E-001	0
4.8706616E+003	6.356619860074716E+001	-7.5688732E-001	-1.553972353937020E-001	1.1761820E-004	-7.5700223E-001	0
4.8039414E+003	6.376619859569473E+001	-7.5889283E-001	-1.579729642269210E-001	1.1988455E-004	-7.5900215E-001	0
4.7369634E+003	6.396619859064231E+001	-7.6087701E-001	-1.606254740090206E-001	1.2221622E-004	-7.6100206E-001	0
4.6663813E+003	6.416619858558988E+001	-7.6287669E-001	-1.634835698895256E-001	1.2471780E-004	-7.6300186E-001	0
4.5959180E+003	6.436619858053746E+001	-7.6486307E-001	-1.664222587964366E-001	1.2729024E-004	-7.6500183E-001	0
4.5344609E+003	6.456619857548503E+001	-7.6688808E-001	-1.691244141485910E-001	1.2969950E-004	-7.6700169E-001	0
4.4730259E+003	6.476619857043261E+001	-7.6887923E-001	-1.718924203961495E-001	1.3216451E-004	-7.6900154E-001	0
4.4110215E+003	6.496619856538018E+001	-7.7085102E-001	-1.747556705388940E-001	1.3471059E-004	-7.7100146E-001	0
4.3502402E+003	6.516619856032776E+001	-7.7285862E-001	-1.776588332655580E-001	1.3730516E-004	-7.7300203E-001	0
4.2929146E+003	6.536619855527533E+001	-7.7489513E-001	-1.805055962470004E-001	1.3987291E-004	-7.7500248E-001	0
4.2399678E+003	6.556619855022291E+001	-7.7682054E-001	-1.832137908987170E-001	1.4232424E-004	-7.7700257E-001	0
4.1818955E+003	6.576619854517048E+001	-7.7887309E-001	-1.862488101730697E-001	1.4506419E-004	-7.7900267E-001	0
4.1258115E+003	6.596619854011806E+001	-7.8084856E-001	-1.892593802299243E-001	1.4778292E-004	-7.8100264E-001	0
4.0683389E+003	6.616619853506563E+001	-7.8287059E-001	-1.924300358098530E-001	1.5064781E-004	-7.8300261E-001	0
4.0207178E+003	6.636619853001321E+001	-7.8489333E-001	-1.952122398757732E-001	1.5322078E-004	-7.8500265E-001	0
3.9630283E+003	6.656619852496078E+001	-7.8685504E-001	-1.985489273118594E-001	1.5622923E-004	-7.8700268E-001	0
3.9036772E+003	6.676619851990836E+001	-7.8885621E-001	-2.020802852421015E-001	1.5941229E-004	-7.8900254E-001	0
3.8510430E+003	6.696619851485593E+001	-7.9087108E-001	-2.053654271129384E-001	1.6241758E-004	-7.9100263E-001	0
3.7950239E+003	6.716619850980351E+001	-7.9282570E-001	-2.089119098738444E-001	1.6563073E-004	-7.9300272E-001	0
3.7444551E+003	6.736619850475108E+001	-7.9485208E-001	-2.122744289533045E-001	1.6872676E-004	-7.9500258E-001	0
3.6895784E+003	6.756619849969866E+001	-7.9686385E-001	-2.159769462860788E-001	1.7210422E-004	-7.9700267E-001	0
3.6432664E+003	6.776619849464623E+001	-7.9885697E-001	-2.192694464922291E-001	1.7516493E-004	-7.9900265E-001	0
3.5962402E+003	6.796619848959381E+001	-8.0087191E-001	-2.226969978271596E-001	1.7835177E-004	-8.0100262E-001	0
3.5471235E+003	6.816619848454138E+001	-8.0288905E-001	-2.263493319517194E-001	1.8173340E-004	-8.0300260E-001	0
3.4838118E+003	6.836619847948896E+001	-8.0489838E-001	-2.310395752293086E-001	1.8596338E-004	-8.0500263E-001	0
3.4236443E+003	6.856619847443653E+001	-8.0689216E-001	-2.356822400199685E-001	1.9017015E-004	-8.0700272E-001	0
3.3675547E+003	6.876619846938411E+001	-8.0882990E-001	-2.401831584249767E-001	1.9426733E-004	-8.0900264E-001	0
3.3189976E+003	6.896619846433168E+001	-8.1085056E-001	-2.443058597992533E-001	1.9809554E-004	-8.1100255E-001	0
3.2631790E+003	6.916619845927926E+001	-8.1288332E-001	-2.491077882345438E-001	2.0249556E-004	-8.1300271E-001	0
3.2129053E+003	6.936619845422683E+001	-8.1488007E-001	-2.536271718054035E-001	2.0667573E-004	-8.1500268E-001	0
3.1663159E+003	6.956619844917441E+001	-8.1687719E-001	-2.579897886201259E-001	2.1074597E-004	-8.1700259E-001	0
3.1205598E+003	6.976619844412198E+001	-8.1889039E-001	-2.624177888284964E-001	2.1489141E-004	-8.1900263E-001	0
3.0687185E+003	6.996619843906956E+001	-8.2087314E-001	-2.674970387833837E-001	2.1958114E-004	-8.2100266E-001	0
3.0317532E+003	7.016619843401713E+001	-8.2289320E-001	-2.714248657957259E-001	2.2335368E-004	-8.2300264E-001	0
2.9913621E+003	7.036619842896471E+001	-8.2491136E-001	-2.757644624071298E-001	2.2748124E-004	-8.2500261E-001	0
2.9523447E+003	7.056619842391228E+001	-8.2688528E-001	-2.800774954833818E-001	2.3159196E-004	-8.2700270E-001	0
2.9164851E+003	7.076619841885986E+001	-8.2887775E-001	-2.842043423898470E-001	2.3557065E-004	-8.2900256E-001	0
2.8849548E+003	7.096619841380743E+001	-8.3090556E-001	-2.880133692356766E-001	2.3931191E-004	-8.3100265E-001	0
2.8511914E+003	7.116619840875501E+001	-8.3285272E-001	-2.921069228552833E-001	2.4328205E-004	-8.3300263E-001	0
2.8193027E+003	7.136619840370258E+001	-8.3483374E-001	-2.961135593363311E-001	2.4720558E-004	-8.3500260E-001	0
2.7812141E+003	7.156619839865016E+001	-8.3686441E-001	-3.008989496853491E-001	2.5181161E-004	-8.3700269E-001	0
2.7464792E+003	7.176619839359773E+001	-8.3888608E-001	-3.054405381848131E-001	2.5622980E-004	-8.3900261E-001	0
2.7185105E+003	7.196619838854531E+001	-8.4084600E-001	-3.093039326289504E-001	2.6007698E-004	-8.4100276E-001	0
2.6868909E+003	7.216619838349288E+001	-8.4287935E-001	-3.137006203848838E-001	2.6441176E-004	-8.4300262E-001	0
2.6590366E+003	7.236619837844046E+001	-8.4485805E-001	-3.177308947494142E-001	2.6843749E-004	-8.4500253E-001	0
2.6222515E+003	7.256619837338803E+001	-8.4687918E-001	-3.229587900445972E-001	2.7350709E-004	-8.4700269E-001	0
2.5985984E+003	7.276619836833561E+001	-8.4884280E-001	-3.266540859253615E-001	2.7727796E-004	-8.4900266E-001	0
2.5815735E+003	7.296619836328318E+001	-8.5089678E-001	-3.296039460982940E-001	2.8045895E-004	-8.5100263E-001	0
2.5662163E+003	7.316619835823076E+001	-8.5286504E-001	-3.323433933222080E-001	2.8344407E-004	-8.5300267E-001	0
2.5458694E+003	7.336619835317833E+001	-8.5489738E-001	-3.357978248356304E-001	2.8707267E-004	-8.5500264E-001	0
2.5141807E+003	7.356619834812591E+001	-8.5685825E-001	-3.408101246419823E-001	2.9202597E-004	-8.5700262E-001	0
2.4948381E+003	7.376619834307348E+001	-8.5889572E-001	-3.442691221892367E-001	2.9569128E-004	-8.5900259E-001	0
2.4809155E+003	7.396619833802106E+001	-8.6089164E-001	-3.470056384248574E-001	2.9873426E-004	-8.6100268E-001	0
2.4539146E+003	7.416619833296863E+001	-8.6289203E-001	-3.516389979957646E-001	3.0342650E-004	-8.6300266E-001	0
2.4245068E+003	7.436619832791621E+001	-8.6492193E-001	-3.567413998759287E-001	3.0855346E-004	-8.6500263E-001	0
2.4314353E+003	7.456619832286378E+001	-8.6688119E-001	-3.565306555640264E-001	3.0906973E-004	-8.6700261E-001	0
2.4234055E+003	7.476619831781136E+001	-8.6889756E-001	-3.585440247845484E-001	3.1153802E-004	-8.6900258E-001	0
2.4105471E+003	7.496619831275893E+001	-8.7086773E-001	-3.612738720853059E-001	3.1462175E-004	-8.7100267E-001	0
2.3864888E+003	7.516619830770651E+001	-8.7289679E-001	-3.657661518884527E-001	3.1927609E-004	-8.7300259E-001	0
2.3604351E+003	7.536619830265408E+001	-8.7484527E-001	-3.706288190849989E-001	3.2424286E-004	-8.7500274E-001	0
2.3723069E+003	7.556619829760166E+001	-8.7686187E-001	-3.696241480279330E-001	3.2410931E-004	-8.7700272E-001	0
2.3820229E+003	7.576619829254923E+001	-8.7889093E-001	-3.689682798633313E-001	3.2428288E-004	-8.7900257E-001	0
2.3897803E+003	7.596619828749681E+001	-8.8087434E-001	-3.686005453729069E-001	3.2469077E-004	-8.8100266E-001	0
2.3726687E+003	7.616619828244438E+001	-8.8285196E-001	-3.720923856306229E-001	3.2850250E-004	-8.8300264E-001	0
2.3458467E+003	7.636619827739196E+001	-8.8489097E-001	-3.772160124198419E-001	3.3379503E-004	-8.8500261E-001	0
2.3290176E+003	7.656619827233953E+001	-8.8686794E-001	-3.807905803090339E-001	3.3771095E-004	-8.8700265E-001	0
2.3009651E+003	7.676619826728711E+001	-8.8884407E-001	-3.862918593335780E-001	3.4335323E-004	-8.8900268E-001	0
2.2721375E+003	7.696619826223468E+001	-8.9082485E-001	-3.920646814160627E-001	3.4926095E-004	-8.9100266E-001	0
2.2519565E+003	7.716619825718226E+001	-8.9284128E-001	-3.964735957246939E-001	3.5398800E-004	-8.9300263E-001	0
2.2160977E+003	7.736619825212983E+001	-8.9485049E-001	-4.037956202618140E-001	3.6133672E-004	-8.9500266E-001	0
2.1793059E+003	7.756619824707741E+001	-8.9685297E-001	-4.115314685957099E-001	3.6908322E-004	-8.9700264E-001	0
2.1314756E+003	7.776619824202498E+001	-8.9890677E-001	-4.217297785879532E-001	3.7909576E-004	-8.9900261E-001	0
2.0838110E+003	7.796619823697256E+001	-9.0082741E-001	-4.322980065912434E-001	3.8942590E-004	-9.0100265E-001	0
2.0205881E+003	7.816619823192013E+001	-9.0282881E-001	-4.468148749135841E-001	4.0339734E-004	-9.0300268E-001	0
1.9573489E+003	7.836619822686771E+001	-9.0486562E-001	-4.622914252925225E-001	4.1831163E-004	-9.0500265E-001	0
1.8896897E+003	7.856619822181528E+001	-9.0689600E-001	-4.799179322764182E-001	4.3523565E-004	-9.0700263E-001	0
1.8250835E+003	7.876619821676286E+001	-9.0885735E-001	-4.979812320609014E-001	4.5259390E-004	-9.0900272E-001	0
1.7529427E+003	7.896619821171043E+001	-9.1081011E-001	-5.195891962654882E-001	4.7324708E-004	-9.1100276E-001	0
1.6590502E+003	7.916619820665801E+001	-9.1288173E-001	-5.502436024447253E-001	5.0230732E-004	-9.1300267E-001	0
1.5981385E+003	7.936619820160558E+001	-9.1487080E-001	-5.724602409230863E-001	5.2372715E-004	-9.1500264E-001	0
1.5289138E+003	7.956619819655316E+001	-9.1688722E-001	-5.996984413100606E-001	5.4985582E-004	-9.1700274E-001	0
1.4575466E+003	7.976619819150073E+001	-9.1884345E-001	-6.304041747713364E-001	5.7924277E-004	-9.1900259E-001	0
1.3826211E+003	7.996619818644831E+001	-9.2087668E-001	-6.660369000357482E-001	6.1333785E-004	-9.2100263E-001	0
1.2930302E+003	8.016619818139588E+001	-9.2284638E-001	-7.137083320365276E-001	6.5864314E-004	-9.2300266E-001	0
1.2114686E+003	8.036619817634346E+001	-9.2488915E-001	-7.634445792929920E-001	7.0610159E-004	-9.2500263E-001	0
1.1383424E+003	8.056619817129103E+001	-9.2686564E-001	-8.142239517044469E-001	7.5467618E-004	-9.2700261E-001	0
1.0639775E+003	8.076619816623861E+001	-9.2887837E-001	-8.730243816464949E-001	8.1093347E-004	-9.2900264E-001	0
9.7869708E+002	8.096619816118618E+001	-9.3085891E-001	-9.511205487696590E-001	8.8535901E-004	-9.3100262E-001	0
9.1580597E+002	8.116619815613376E+001	-9.3289334E-001	-1.018658308384104E+000	9.5029955E-004	-9.3300259E-001	0
8.4334418E+002	8.137619815082871E+001	-9.3498224E-001	-1.108660359982778E+000	1.0365777E-003	-9.3510264E-001	0
7.8614868E+002	8.158619814552367E+001	-9.3703926E-001	-1.191936458674277E+000	1.1168913E-003	-9.3720275E-001	0
7.2527686E+002	8.178619814047124E+001	-9.3903583E-001	-1.294727463258301E+000	1.2157955E-003	-9.3920261E-001	0
6.7593713E+002	8.198619813541882E+001	-9.4107705E-001	-1.392255242322641E+000	1.3102194E-003	-9.4120264E-001	0
6.2385052E+002	8.218619813036639E+001	-9.4305563E-001	-1.511669214536148E+000	1.4255882E-003	-9.4320267E-001	0
5.8034698E+002	8.238619812531397E+001	-9.4504225E-001	-1.628408958362481E+000	1.5389153E-003	-9.4520265E-001	0
5.4064020E+002	8.258619812026154E+001	-9.4704545E-001	-1.751711079407297E+000	1.6589500E-003	-9.4720262E-001	0
5.0136404E+002	8.278619811520912E+001	-9.4905943E-001	-1.892954701452171E+000	1.7965265E-003	-9.4920266E-001	0
4.6662469E+002	8.298619811015669E+001	-9.5105982E-001	-2.038168655366316E+000	1.9384203E-003	-9.5120263E-001	0
4.3527951E+002	8.318619810510427E+001	-9.5307589E-001	-2.189572084906291E+000	2.0868285E-003	-9.5320261E-001	0
4.0659058E+002	8.338619810005184E+001	-9.5505583E-001	-2.348937448274654E+000	2.2433663E-003	-9.5520270E-001	0
3.8130731E+002	8.358619809499942E+001	-9.5706326E-001	-2.509952538222266E+000	2.4021834E-003	-9.5720267E-001	0
3.5724246E+002	8.378619808994699E+001	-9.5908821E-001	-2.684698293623324E+000	2.5748624E-003	-9.5920265E-001	0
3.3621628E+002	8.398619808489457E+001	-9.6106005E-001	-2.858457706361818E+000	2.7471494E-003	-9.6120262E-001	0
3.1635239E+002	8.418619807984214E+001	-9.6305805E-001	-3.044257353577354E+000	2.9317965E-003	-9.6320271E-001	0
2.9811551E+002	8.438619807478972E+001	-9.6505398E-001	-3.237181286760467E+000	3.1240548E-003	-9.6520275E-001	0
2.8200302E+002	8.458619806973729E+001	-9.6701723E-001	-3.429102513863114E+000	3.3160013E-003	-9.6720266E-001	0
2.6703345E+002	8.478619806468487E+001	-9.6906590E-001	-3.629005769652039E+000	3.5167458E-003	-9.6920264E-001	0
2.5283757E+002	8.498619805963244E+001	-9.7106469E-001	-3.840666190938620E+000	3.7295353E-003	-9.7120273E-001	0
2.4039293E+002	8.518619805458002E+001	-9.7303241E-001	-4.047674983942585E+000	3.9385189E-003	-9.7320259E-001	0
2.2887675E+002	8.538619804952759E+001	-9.7505492E-001	-4.260174609805176E+000	4.1539040E-003	-9.7520262E-001	0
2.1802969E+002	8.558619804447517E+001	-9.7706509E-001	-4.481339453806134E+000	4.3785605E-003	-9.7720265E-001	0
2.0802803E+002	8.578619803942274E+001	-9.7903866E-001	-4.706282286011444E+000	4.6076323E-003	-9.7920263E-001	0
1.9878648E+002	8.598619803437032E+001	-9.8103952E-001	-4.935142039407939E+000	4.8415693E-003	-9.8120266E-001	0
1.8998083E+002	8.618619802931789E+001	-9.8309898E-001	-5.174726983587215E+000	5.0872690E-003	-9.8320264E-001	0
1.8234761E+002	8.638619802426547E+001	-9.8501164E-001	-5.401834553094929E+000	5.3208699E-003	-9.8520261E-001	0
1.7495393E+002	8.658619801921304E+001	-9.8706889E-001	-5.641878667433240E+000	5.5689230E-003	-9.8720264E-001	0
1.6772963E+002	8.678619801416062E+001	-9.8905820E-001	-5.896740837635093E+000	5.8322200E-003	-9.8920268E-001	0
1.6142587E+002	8.698619800910819E+001	-9.9103129E-001	-6.139234746462080E+000	6.0841739E-003	-9.9120271E-001	0
1.5535156E+002	8.718619800405577E+001	-9.9304676E-001	-6.392254846166312E+000	6.3478081E-003	-9.9320263E-001	0
1.4975905E+002	8.738619799900334E+001	-9.9505150E-001	-6.644349842317553E+000	6.6114701E-003	-9.9520260E-001	0
1.4450256E+002	8.758619799395092E+001	-9.9705869E-001	-6.899937548604939E+000	6.8796426E-003	-9.9720258E-001	0
1.3946095E+002	8.778619798889849E+001	-9.9906284E-001	-7.163746313172947E+000	7.1570328E-003	-9.9920267E-001	0
1.3488548E+002	8.798619798384607E+001	-1.0010543E+000	-7.421512761826961E+000	7.4293371E-003	-1.0012027E+000	0
1.3043013E+002	8.818619797879364E+001	-1.0030452E+000	-7.690287907242521E+000	7.7137062E-003	-1.0032027E+000	0
1.2612594E+002	8.838619797374122E+001	-1.0050570E+000	-7.968677771267210E+000	8.0089755E-003	-1.0052027E+000	0
1.2214921E+002	8.858619796868879E+001	-1.0070460E+000	-8.244392157614641E+000	8.3024818E-003	-1.0072026E+000	0
1.1834361E+002	8.878619796363637E+001	-1.0090131E+000	-8.526130441500143E+000	8.6029768E-003	-1.0092026E+000	0
1.1469392E+002	8.898619795858394E+001	-1.0110525E+000	-8.815222840730797E+000	8.9126527E-003	-1.0112027E+000	0
1.1103607E+002	8.918619795353152E+001	-1.0130635E+000	-9.123733450563563E+000	9.2429221E-003	-1.0132027E+000	0
1.0769471E+002	8.938619794847909E+001	-1.0150596E+000	-9.425342858986539E+000	9.5672850E-003	-1.0152026E+000	0
1.0448722E+002	8.958619794342667E+001	-1.0170853E+000	-9.734064175833915E+000	9.9003734E-003	-1.0172026E+000	0
1.0143400E+002	8.978619793837424E+001	-1.0190649E+000	-1.004658113409870E+001	1.0238118E-002	-1.0192027E+000	0
9.8606392E+001	8.998619793332182E+001	-1.0210912E+000	-1.035522373524116E+001	1.0573628E-002	-1.0212027E+000	0
9.5796104E+001	9.018619792826939E+001	-1.0231140E+000	-1.068012039170783E+001	1.0926981E-002	-1.0232025E+000	0
9.2936470E+001	9.039619792296435E+001	-1.0251360E+000	-1.103050258469827E+001	1.1307765E-002	-1.0253026E+000	0
9.0131584E+001	9.060619791765930E+001	-1.0273023E+000	-1.139780588789324E+001	1.1708992E-002	-1.0274025E+000	0
8.7635887E+001	9.080619791260688E+001	-1.0292786E+000	-1.174494505212419E+001	1.2088821E-002	-1.0294026E+000	0
8.5380562E+001	9.100619790755445E+001	-1.0311934E+000	-1.207761320796146E+001	1.2454355E-002	-1.0314027E+000	0
8.3123611E+001	9.120619790250203E+001	-1.0332655E+000	-1.243046909381479E+001	1.2843975E-002	-1.0334026E+000	0
8.0902267E+001	9.140619789744960E+001	-1.0352210E+000	-1.279594561802281E+001	1.3246631E-002	-1.0354025E+000	0
7.8786446E+001	9.160619789239718E+001	-1.0372961E+000	-1.316592049787917E+001	1.3656957E-002	-1.0374026E+000	0
7.6733177E+001	9.180619788734475E+001	-1.0392612E+000	-1.354383091821152E+001	1.4075578E-002	-1.0394026E+000	0
7.4709976E+001	9.200619788229233E+001	-1.0412403E+000	-1.393709876707621E+001	1.4511869E-002	-1.0414027E+000	0
7.2789063E+001	9.220619787723990E+001	-1.0432787E+000	-1.433290439141311E+001	1.4953214E-002	-1.0434026E+000	0
7.0883057E+001	9.240619787218748E+001	-1.0452441E+000	-1.474603628598643E+001	1.5413207E-002	-1.0454026E+000	0
6.9068382E+001	9.260619786713505E+001	-1.0472602E+000	-1.516265612921751E+001	1.5879245E-002	-1.0474026E+000	0
6.7285728E+001	9.280619786208263E+001	-1.0492629E+000	-1.559413771577974E+001	1.6362350E-002	-1.0494026E+000	0
6.5599312E+001	9.300619785703020E+001	-1.0512902E+000	-1.602593259016678E+001	1.6847905E-002	-1.0514027E+000	0
6.3943581E+001	9.320619785197778E+001	-1.0532520E+000	-1.647158232743509E+001	1.7348727E-002	-1.0534027E+000	0
6.2270042E+001	9.340619784692535E+001	-1.0552554E+000	-1.694643763552446E+001	1.7882820E-002	-1.0554026E+000	0
6.0657127E+001	9.360619784187293E+001	-1.0572994E+000	-1.743075233278904E+001	1.8429523E-002	-1.0574026E+000	0
5.9085857E+001	9.380619783682050E+001	-1.0592396E+000	-1.792712604540007E+001	1.8989122E-002	-1.0594027E+000	0
5.7551903E+001	9.400619783176808E+001	-1.0612512E+000	-1.843989762589505E+001	1.9569363E-002	-1.0614027E+000	0
5.6122898E+001	9.420619782671565E+001	-1.0632780E+000	-1.894552867104409E+001	2.0144364E-002	-1.0634027E+000	0
5.4655514E+001	9.440619782166323E+001	-1.0652634E+000	-1.949050175562471E+001	2.0762518E-002	-1.0654026E+000	0
5.3258129E+001	9.460619781661080E+001	-1.0672941E+000	-2.004002219073629E+001	2.1388598E-002	-1.0674026E+000	0
5.1925751E+001	9.480619781155838E+001	-1.0692610E+000	-2.059211378059695E+001	2.2018343E-002	-1.0694027E+000	0
5.0583008E+001	9.500619780650595E+001	-1.0712715E+000	-2.117848636828319E+001	2.2687910E-002	-1.0714027E+000	0
4.9298504E+001	9.520619780145353E+001	-1.0732387E+000	-2.177020827320969E+001	2.3364631E-002	-1.0734026E+000	0
4.8074665E+001	9.540619779640110E+001	-1.0752708E+000	-2.236668342000496E+001	2.4050241E-002	-1.0754026E+000	0
4.6854130E+001	9.560619779134868E+001	-1.0772856E+000	-2.299233124234513E+001	2.4769308E-002	-1.0774026E+000	0
4.5674976E+001	9.580619778629625E+001	-1.0793004E+000	-2.363001571774754E+001	2.5503885E-002	-1.0794027E+000	0
4.4513123E+001	9.600619778124383E+001	-1.0812696E+000	-2.429103114140008E+001	2.6265154E-002	-1.0814027E+000	0
4.3434990E+001	9.620619777619140E+001	-1.0832707E+000	-2.494004749373244E+001	2.7016822E-002	-1.0834026E+000	0
4.2317490E+001	9.640619777113898E+001	-1.0852946E+000	-2.564647787525530E+001	2.7833983E-002	-1.0854026E+000	0
4.1210930E+001	9.660619776608655E+001	-1.0872409E+000	-2.638234370554923E+001	2.8683964E-002	-1.0874027E+000	0
4.0155293E+001	9.680619776103413E+001	-1.0892410E+000	-2.712571496568825E+001	2.9546442E-002	-1.0894027E+000	0
3.9172470E+001	9.700619775598170E+001	-1.0912789E+000	-2.785831296389878E+001	3.0401189E-002	-1.0914028E+000	0
3.8239208E+001	9.720619775092928E+001	-1.0932863E+000	-2.859071424407466E+001	3.1257834E-002	-1.0934027E+000	0
3.7325493E+001	9.740619774587685E+001	-1.0953202E+000	-2.934509806703275E+001	3.2142278E-002	-1.0954026E+000	0
3.6436001E+001	9.760619774082443E+001	-1.0972968E+000	-3.011573280633968E+001	3.3045899E-002	-1.0974027E+000	0
3.5612587E+001	9.780619773577200E+001	-1.0993007E+000	-3.086832108843635E+001	3.3933569E-002	-1.0994027E+000	0
3.4798107E+001	9.800619773071958E+001	-1.1012670E+000	-3.164732276176920E+001	3.4852151E-002	-1.1014028E+000	0
3.3964539E+001	9.820619772566715E+001	-1.1032835E+000	-3.248339331744751E+001	3.5838392E-002	-1.1034027E+000	0
3.3155090E+001	9.840619772061473E+001	-1.1052579E+000	-3.333599512512188E+001	3.6844872E-002	-1.1054026E+000	0
3.2392742E+001	9.860619771556230E+001	-1.1073177E+000	-3.418412745485503E+001	3.7852690E-002	-1.1074027E+000	0
3.1618505E+001	9.880619771050988E+001	-1.1092799E+000	-3.508324862715875E+001	3.8917143E-002	-1.1094027E+000	0
3.0889378E+001	9.900619770545745E+001	-1.1112974E+000	-3.597668463275532E+001	3.9980795E-002	-1.1114026E+000	0
3.0174873E+001	9.920619770040503E+001	-1.1132545E+000	-3.689342917255257E+001	4.1071776E-002	-1.1134027E+000	0
2.9485748E+001	9.940619769535260E+001	-1.1153033E+000	-3.782516457812865E+001	4.2186528E-002	-1.1154027E+000	0
2.8800356E+001	9.960619769030018E+001	-1.1173091E+000	-3.879497552296468E+001	4.3345980E-002	-1.1174026E+000	0
2.8178892E+001	9.980619768524775E+001	-1.1192869E+000	-3.972075576847095E+001	4.4458922E-002	-1.1194026E+000	0
2.7545708E+001	1.000061976801953E+002	-1.1212903E+000	-4.070653419213500E+001	4.5643844E-002	-1.1214027E+000	0
2.6907579E+001	1.002061976751429E+002	-1.1232936E+000	-4.174636469730716E+001	4.6893425E-002	-1.1234026E+000	0
2.6303036E+001	1.004061976700905E+002	-1.1252940E+000	-4.278190339990238E+001	4.8142217E-002	-1.1254026E+000	0
2.5652494E+001	1.006061976650381E+002	-1.1272907E+000	-4.394468284085750E+001	4.9538434E-002	-1.1274027E+000	0
2.5043322E+001	1.008061976599856E+002	-1.1292645E+000	-4.509243983043825E+001	5.0921291E-002	-1.1294028E+000	0
2.4457897E+001	1.010061976549332E+002	-1.1312854E+000	-4.625440245718104E+001	5.2326933E-002	-1.1314027E+000	0
2.3932646E+001	1.012061976498808E+002	-1.1332647E+000	-4.735225124478097E+001	5.3662632E-002	-1.1334026E+000	0
2.3420925E+001	1.014061976448284E+002	-1.1353002E+000	-4.847375567673015E+001	5.5032261E-002	-1.1354026E+000	0
2.2912453E+001	1.016061976397759E+002	-1.1372607E+000	-4.963504589387890E+001	5.6447987E-002	-1.1374027E+000	0
2.2375149E+001	1.018061976347235E+002	-1.1392574E+000	-5.091619514445865E+001	5.8006655E-002	-1.1394026E+000	0
2.1867943E+001	1.020061976296711E+002	-1.1412972E+000	-5.219042436660288E+001	5.9564788E-002	-1.1414027E+000	0
2.1414299E+001	1.022061976246187E+002	-1.1432976E+000	-5.338944395545400E+001	6.1040021E-002	-1.1434027E+000	0
2.0946129E+001	1.024061976195662E+002	-1.1452745E+000	-5.467714529134787E+001	6.2620342E-002	-1.1454027E+000	0
2.0496969E+001	1.026061976145138E+002	-1.1473113E+000	-5.597468023884062E+001	6.4220384E-002	-1.1474026E+000	0
2.0037739E+001	1.028061976094614E+002	-1.1493212E+000	-5.735783130727918E+001	6.5922573E-002	-1.1494027E+000	0
1.9590193E+001	1.030061976044090E+002	-1.1512663E+000	-5.876748334199129E+001	6.7657024E-002	-1.1514027E+000	0
1.9131039E+001	1.032061975993565E+002	-1.1532941E+000	-6.028392179374544E+001	6.9525093E-002	-1.1534027E+000	0
1.8710131E+001	1.034061975943041E+002	-1.1553004E+000	-6.174731720710258E+001	7.1336702E-002	-1.1554027E+000	0
1.8332300E+001	1.036061975892517E+002	-1.1572994E+000	-6.312897614502845E+001	7.3059127E-002	-1.1574026E+000	0
1.7945253E+001	1.038061975841993E+002	-1.1593229E+000	-6.460331597620132E+001	7.4896097E-002	-1.1594027E+000	0
1.7591208E+001	1.040061975791468E+002	-1.1613642E+000	-6.601958204018547E+001	7.6672778E-002	-1.1614027E+000	0
1.7200453E+001	1.042061975740944E+002	-1.1633028E+000	-6.763210159742903E+001	7.8676611E-002	-1.1634027E+000	0
1.6857683E+001	1.044061975690420E+002	-1.1653788E+000	-6.913042574999281E+001	8.0563135E-002	-1.1654027E+000	0
1.6477821E+001	1.046061975639896E+002	-1.1673907E+000	-7.084617878898780E+001	8.2705170E-002	-1.1674026E+000	0
1.6120577E+001	1.048061975589371E+002	-1.1693020E+000	-7.253475181532032E+001	8.4815033E-002	-1.1694027E+000	0
1.5762520E+001	1.050061975538847E+002	-1.1713426E+000	-7.431188821900730E+001	8.7044679E-002	-1.1714027E+000	0
1.5439342E+001	1.052061975488323E+002	-1.1733962E+000	-7.600040699835540E+001	8.9178592E-002	-1.1734027E+000	0
1.5173621E+001	1.054061975437799E+002	-1.1753592E+000	-7.746069347939499E+001	9.1044143E-002	-1.1754026E+000	0
1.4867478E+001	1.056061975387274E+002	-1.1773423E+000	-7.918910427320589E+001	9.3232684E-002	-1.1774027E+000	0
1.4547111E+001	1.058061975336750E+002	-1.1793549E+000	-8.107142083552981E+001	9.5611975E-002	-1.1794027E+000	0
1.4249495E+001	1.060061975286226E+002	-1.1813399E+000	-8.290398536463715E+001	9.7937785E-002	-1.1814027E+000	0
1.3955151E+001	1.062061975235702E+002	-1.1833510E+000	-8.479672144329732E+001	1.0034429E-001	-1.1834027E+000	0
1.3728983E+001	1.064061975185177E+002	-1.1853915E+000	-8.634227188049817E+001	1.0234940E-001	-1.1854026E+000	0
1.3462801E+001	1.066061975134653E+002	-1.1873571E+000	-8.819539539397715E+001	1.0471942E-001	-1.1874026E+000	0
1.3248547E+001	1.068061975084129E+002	-1.1893432E+000	-8.977159804605839E+001	1.0676924E-001	-1.1894027E+000	0
1.3027639E+001	1.070061975033605E+002	-1.1913881E+000	-9.145080982151990E+001	1.0895341E-001	-1.1914027E+000	0
1.2790239E+001	1.072061974983080E+002	-1.1933688E+000	-9.330308643922785E+001	1.1134499E-001	-1.1934026E+000	0
1.2561798E+001	1.074061974932556E+002	-1.1953870E+000	-9.516050006094395E+001	1.1375362E-001	-1.1954026E+000	0
1.2335521E+001	1.076061974882032E+002	-1.1973699E+000	-9.706682990197396E+001	1.1622491E-001	-1.1974027E+000	0
1.2112621E+001	1.078061974831508E+002	-1.1993816E+000	-9.901915676847881E+001	1.1876176E-001	-1.1994027E+000	0
1.1829547E+001	1.080061974780983E+002	-1.2013682E+000	-1.015565666254959E+002	1.2200683E-001	-1.2014025E+000	0
1.1591220E+001	1.082061974730459E+002	-1.2033777E+000	-1.038180364870432E+002	1.2493231E-001	-1.2034026E+000	0
1.1435279E+001	1.084061974679935E+002	-1.2053875E+000	-1.054095413711875E+002	1.2705934E-001	-1.2054026E+000	0
1.1211306E+001	1.086061974629411E+002	-1.2073470E+000	-1.076901384448787E+002	1.3001937E-001	-1.2074026E+000	0
1.0882063E+001	1.088161974576360E+002	-1.2094591E+000	-1.111424461432866E+002	1.3442224E-001	-1.2095028E+000	0
1.0698042E+001	1.090261974523310E+002	-1.2115493E+000	-1.132496283157075E+002	1.3720751E-001	-1.2116026E+000	0
1.0571283E+001	1.092261974472785E+002	-1.2135409E+000	-1.147959836334870E+002	1.3930963E-001	-1.2136027E+000	0
1.0329001E+001	1.094261974422261E+002	-1.2155240E+000	-1.176806890969913E+002	1.4304370E-001	-1.2156026E+000	0
1.0191759E+001	1.096261974371737E+002	-1.2174985E+000	-1.194591192107082E+002	1.4544131E-001	-1.2176027E+000	0
9.9723291E+000	1.098261974321213E+002	-1.2195324E+000	-1.222916268869864E+002	1.4913860E-001	-1.2196027E+000	0
9.8479614E+000	1.100261974270688E+002	-1.2215440E+000	-1.240402966605291E+002	1.5152068E-001	-1.2216026E+000	0
9.7310171E+000	1.102261974220164E+002	-1.2235276E+000	-1.257348046875868E+002	1.5383999E-001	-1.2236027E+000	0
9.6033440E+000	1.104261974169640E+002	-1.2255473E+000	-1.276167215533262E+002	1.5640032E-001	-1.2256026E+000	0
9.5193691E+000	1.106261974119116E+002	-1.2275351E+000	-1.289513074373169E+002	1.5829226E-001	-1.2276026E+000	0
9.3194237E+000	1.108261974068591E+002	-1.2295640E+000	-1.319356187898288E+002	1.6222328E-001	-1.2296027E+000	0
9.2091894E+000	1.110261974018067E+002	-1.2315594E+000	-1.337315780008184E+002	1.6469838E-001	-1.2316027E+000	0
9.0295496E+000	1.112261973967543E+002	-1.2335048E+000	-1.366075570913126E+002	1.6850607E-001	-1.2336026E+000	0
8.9252348E+000	1.114261973917019E+002	-1.2355298E+000	-1.384310627978405E+002	1.7103571E-001	-1.2356026E+000	0
8.8053970E+000	1.116261973866494E+002	-1.2375138E+000	-1.405403797945469E+002	1.7392066E-001	-1.2376027E+000	0
8.6438437E+000	1.118261973815970E+002	-1.2395661E+000	-1.434045083679578E+002	1.7775936E-001	-1.2396027E+000	0
8.4963903E+000	1.120261973765446E+002	-1.2415253E+000	-1.461238452225857E+002	1.8141645E-001	-1.2416027E+000	0
8.3105431E+000	1.122261973714922E+002	-1.2435274E+000	-1.496325101214472E+002	1.8607213E-001	-1.2436026E+000	0
8.2081223E+000	1.124261973664397E+002	-1.2455510E+000	-1.517461590875037E+002	1.8900758E-001	-1.2456026E+000	0
8.0163145E+000	1.126261973613873E+002	-1.2475228E+000	-1.556229864399451E+002	1.9414324E-001	-1.2476027E+000	0
7.8406348E+000	1.128261973563349E+002	-1.2495190E+000	-1.593645167523767E+002	1.9912899E-001	-1.2496027E+000	0
7.7120404E+000	1.130261973512825E+002	-1.2515478E+000	-1.622849107231950E+002	2.0310733E-001	-1.2516026E+000	0
7.6225262E+000	1.132261973462300E+002	-1.2535533E+000	-1.644537793881767E+002	2.0615157E-001	-1.2536026E+000	0
7.5278888E+000	1.134261973411776E+002	-1.2555244E+000	-1.667830695868081E+002	2.0940021E-001	-1.2556027E+000	0
7.4599004E+000	1.136261973361252E+002	-1.2575510E+000	-1.685747694774542E+002	2.1199137E-001	-1.2576027E+000	0
7.3977156E+000	1.138261973310728E+002	-1.2595617E+000	-1.702635934109592E+002	2.1445750E-001	-1.2596028E+000	0
7.2838111E+000	1.140261973260203E+002	-1.2616000E+000	-1.732060345727564E+002	2.1851674E-001	-1.2616026E+000	0
7.2269182E+000	1.142261973209679E+002	-1.2635951E+000	-1.748456387238714E+002	2.2093409E-001	-1.2636026E+000	0
7.2100687E+000	1.144261973159155E+002	-1.2655613E+000	-1.755269519909712E+002	2.2214012E-001	-1.2656027E+000	0
7.0280671E+000	1.146261973108631E+002	-1.2675675E+000	-1.803579111023557E+002	2.2861584E-001	-1.2676027E+000	0
6.9252200E+000	1.148261973058106E+002	-1.2695587E+000	-1.833239505166653E+002	2.3274051E-001	-1.2696027E+000	0
6.7910600E+000	1.150261973007582E+002	-1.2716086E+000	-1.872474410333871E+002	2.3810546E-001	-1.2716026E+000	0
6.7536654E+000	1.152261972957058E+002	-1.2735924E+000	-1.885779499131822E+002	2.4017143E-001	-1.2736026E+000	0
6.5486221E+000	1.154261972906534E+002	-1.2755637E+000	-1.947835314895565E+002	2.4845880E-001	-1.2756026E+000	0
6.4671888E+000	1.156261972856009E+002	-1.2775435E+000	-1.975423357686759E+002	2.5236893E-001	-1.2776028E+000	0
6.4511409E+000	1.158261972805485E+002	-1.2795635E+000	-1.983468675321456E+002	2.5379741E-001	-1.2796028E+000	0
6.3659630E+000	1.160261972754961E+002	-1.2815588E+000	-2.013141989340320E+002	2.5799596E-001	-1.2816026E+000	0
6.3066254E+000	1.162261972704437E+002	-1.2835351E+000	-2.035216964388648E+002	2.6122725E-001	-1.2836027E+000	0
6.2163100E+000	1.164261972653912E+002	-1.2855620E+000	-2.068046798749301E+002	2.6586026E-001	-1.2856027E+000	0
6.1751595E+000	1.166261972603388E+002	-1.2875898E+000	-2.085111867532707E+002	2.6847687E-001	-1.2876028E+000	0
6.0923233E+000	1.168261972552864E+002	-1.2895329E+000	-2.116652092814711E+002	2.7294925E-001	-1.2896026E+000	0
6.0573936E+000	1.170261972502340E+002	-1.2915486E+000	-2.132185412945391E+002	2.7538210E-001	-1.2916026E+000	0
5.9377294E+000	1.172261972451815E+002	-1.2935785E+000	-2.178574296190100E+002	2.8181568E-001	-1.2936026E+000	0
5.8505168E+000	1.174261972401291E+002	-1.2956076E+000	-2.214518148720663E+002	2.8691465E-001	-1.2956026E+000	0
5.7792439E+000	1.176261972350767E+002	-1.2976019E+000	-2.245279817451421E+002	2.9134795E-001	-1.2976027E+000	0
5.6783662E+000	1.178261972300243E+002	-1.2995640E+000	-2.288623176085978E+002	2.9742122E-001	-1.2996027E+000	0
5.6194491E+000	1.180261972249718E+002	-1.3015982E+000	-2.316238048795663E+002	3.0148113E-001	-1.3016026E+000	0
5.6155825E+000	1.182261972199194E+002	-1.3035867E+000	-2.321373975001234E+002	3.0261123E-001	-1.3036026E+000	0
5.5603437E+000	1.184261972148670E+002	-1.3055836E+000	-2.348026809973512E+002	3.0655453E-001	-1.3056027E+000	0
5.4512467E+000	1.186261972098146E+002	-1.3075744E+000	-2.398670265604324E+002	3.1364399E-001	-1.3076026E+000	0
5.3437023E+000	1.188261972047621E+002	-1.3095844E+000	-2.450706181947883E+002	3.2094064E-001	-1.3096027E+000	0
5.3564644E+000	1.190261971997097E+002	-1.3116449E+000	-2.448713997215917E+002	3.2118434E-001	-1.3116027E+000	0
5.3561945E+000	1.192261971946573E+002	-1.3135822E+000	-2.452454266039967E+002	3.2215002E-001	-1.3136027E+000	0
5.2590890E+000	1.194261971896049E+002	-1.3155948E+000	-2.501564094625633E+002	3.2910448E-001	-1.3156027E+000	0
5.2164898E+000	1.196261971845524E+002	-1.3175783E+000	-2.525794836031332E+002	3.3279324E-001	-1.3176026E+000	0
5.1494360E+000	1.198261971795000E+002	-1.3195989E+000	-2.562608548702819E+002	3.3816156E-001	-1.3196027E+000	0
5.1552835E+000	1.200261971744476E+002	-1.3216010E+000	-2.563585579498013E+002	3.3880374E-001	-1.3216027E+000	0
5.1249442E+000	1.202261971693952E+002	-1.3235780E+000	-2.582619227152018E+002	3.4182981E-001	-1.3236027E+000	0
5.1331429E+000	1.204261971643427E+002	-1.3255975E+000	-2.582428534501269E+002	3.4232607E-001	-1.3256027E+000	0
5.1047797E+000	1.206261971592903E+002	-1.3275785E+000	-2.600657968175115E+002	3.4525776E-001	-1.3276027E+000	0
5.0635095E+000	1.208261971542379E+002	-1.3296248E+000	-2.625895692950727E+002	3.4914559E-001	-1.3296027E+000	0
4.9885440E+000	1.210261971491855E+002	-1.3316133E+000	-2.669342631255681E+002	3.5545322E-001	-1.3316027E+000	0
4.9405966E+000	1.212261971441330E+002	-1.3335967E+000	-2.699262436349909E+002	3.5997275E-001	-1.3336027E+000	0
4.8318071E+000	1.214261971390806E+002	-1.3356109E+000	-2.764205696836893E+002	3.6919031E-001	-1.3356026E+000	0
4.6709700E+000	1.216261971340282E+002	-1.3376004E+000	-2.863645833095443E+002	3.8304138E-001	-1.3376027E+000	0
4.7027903E+000	1.218261971289758E+002	-1.3396020E+000	-2.848526051925701E+002	3.8158911E-001	-1.3396027E+000	0
4.7177601E+000	1.220263971239183E+002	-1.3416308E+000	-2.843787589807907E+002	3.8153130E-001	-1.3416042E+000	0
4.6069345E+000	1.222267971188558E+002	-1.3436730E+000	-2.916631369878533E+002	3.9189988E-001	-1.3436081E+000	0
4.5127831E+000	1.224271971137932E+002	-1.3456481E+000	-2.981858484491215E+002	4.0125319E-001	-1.3456124E+000	0
4.5291133E+000	1.226271971087408E+002	-1.3476372E+000	-2.975498902484783E+002	4.0098929E-001	-1.3476125E+000	0
4.5410995E+000	1.228272971036859E+002	-1.3496945E+000	-2.972175598102709E+002	4.0115291E-001	-1.3496135E+000	0
4.5284390E+000	1.230274970986284E+002	-1.3516468E+000	-2.984796142932207E+002	4.0343902E-001	-1.3516155E+000	0
4.4648523E+000	1.232276970935709E+002	-1.3536646E+000	-3.031823831894226E+002	4.1040727E-001	-1.3536174E+000	0
4.3538990E+000	1.234278970885134E+002	-1.3556745E+000	-3.113702296658612E+002	4.2211670E-001	-1.3556194E+000	0
4.2577672E+000	1.236280970834559E+002	-1.3576723E+000	-3.188695588384435E+002	4.3292037E-001	-1.3576216E+000	0
4.2380562E+000	1.238281970784010E+002	-1.3596545E+000	-3.208203107007772E+002	4.3620479E-001	-1.3596226E+000	0
4.1918769E+000	1.240283970733435E+002	-1.3616705E+000	-3.248355025769342E+002	4.4231892E-001	-1.3616242E+000	0
4.1513124E+000	1.242288970682785E+002	-1.3636550E+000	-3.284876721586265E+002	4.4794384E-001	-1.3636293E+000	0
4.1589756E+000	1.244289970632235E+002	-1.3656473E+000	-3.283614514798533E+002	4.4842595E-001	-1.3656307E+000	0
4.1341805E+000	1.246290970581686E+002	-1.3676668E+000	-3.308193453761869E+002	4.5245066E-001	-1.3676314E+000	0
4.0873165E+000	1.248294970531060E+002	-1.3697000E+000	-3.351098306916087E+002	4.5899993E-001	-1.3696353E+000	0
4.0305057E+000	1.250296970480485E+002	-1.3716701E+000	-3.403221085726527E+002	4.6680966E-001	-1.3716375E+000	0
4.0634665E+000	1.252297970429936E+002	-1.3736655E+000	-3.380526100167326E+002	4.6437120E-001	-1.3736386E+000	0
4.0711427E+000	1.254298970379386E+002	-1.3756607E+000	-3.379052740645741E+002	4.6484300E-001	-1.3756396E+000	0
4.0491748E+000	1.256299970328837E+002	-1.3776882E+000	-3.402392376837006E+002	4.6874356E-001	-1.3776407E+000	0
4.0422029E+000	1.258299970278313E+002	-1.3796856E+000	-3.413202137460507E+002	4.7091460E-001	-1.3796407E+000	0
4.0940804E+000	1.260300970227763E+002	-1.3816897E+000	-3.374847312179581E+002	4.6629918E-001	-1.3816415E+000	0
3.9741385E+000	1.262302970177188E+002	-1.3836795E+000	-3.481709246436926E+002	4.8175699E-001	-1.3836434E+000	0
3.9630227E+000	1.264303970126639E+002	-1.3856932E+000	-3.496556359807928E+002	4.8451543E-001	-1.3856447E+000	0
3.8575797E+000	1.266303970076115E+002	-1.3877100E+000	-3.597359154391988E+002	4.9920911E-001	-1.3876446E+000	0
3.7857056E+000	1.268303970025590E+002	-1.3896948E+000	-3.670900492376213E+002	5.1014316E-001	-1.3896446E+000	0
3.8245664E+000	1.270303969975066E+002	-1.3916756E+000	-3.638780140946819E+002	5.0640017E-001	-1.3916446E+000	0
3.7266865E+000	1.272303969924542E+002	-1.3936983E+000	-3.739778810271882E+002	5.2121234E-001	-1.3936447E+000	0
3.6563406E+000	1.274303969874018E+002	-1.3956480E+000	-3.817062244285526E+002	5.3272754E-001	-1.3956447E+000	0
3.7037153E+000	1.276305969823443E+002	-1.3976966E+000	-3.773769106193540E+002	5.2745843E-001	-1.3976464E+000	0
3.7144291E+000	1.278308969772843E+002	-1.3996994E+000	-3.768276019318773E+002	5.2744538E-001	-1.3996496E+000	0
3.6920702E+000	1.280310969722268E+002	-1.4017172E+000	-3.796561476428542E+002	5.3217053E-001	-1.4016516E+000	0
3.6299586E+000	1.282313969671668E+002	-1.4037043E+000	-3.866998069291940E+002	5.4281217E-001	-1.4036542E+000	0
3.6218266E+000	1.284315969621093E+002	-1.4057159E+000	-3.881234620239211E+002	5.4559135E-001	-1.4056566E+000	0
3.5960248E+000	1.286315969570569E+002	-1.4077106E+000	-3.914629664215645E+002	5.5106658E-001	-1.4076567E+000	0
3.4446306E+000	1.288315969520045E+002	-1.4097373E+000	-4.092564751631562E+002	5.7694411E-001	-1.4096568E+000	0
3.4587188E+000	1.290316969469495E+002	-1.4117506E+000	-4.081715310394075E+002	5.7623637E-001	-1.4116578E+000	0
3.4410794E+000	1.292316969418971E+002	-1.4137249E+000	-4.108376384049279E+002	5.8081138E-001	-1.4136574E+000	0
3.4306393E+000	1.294317969368421E+002	-1.4157596E+000	-4.126809855480606E+002	5.8425707E-001	-1.4156586E+000	0
3.3809724E+000	1.296318969317872E+002	-1.4177191E+000	-4.193228988676487E+002	5.9448206E-001	-1.4176595E+000	0
3.4046330E+000	1.298318969267348E+002	-1.4197611E+000	-4.170085281578686E+002	5.9205246E-001	-1.4196596E+000	0
3.4427326E+000	1.300320969216773E+002	-1.4217817E+000	-4.129805651622996E+002	5.8716822E-001	-1.4216615E+000	0
3.4183834E+000	1.302322969166198E+002	-1.4237616E+000	-4.165014514019631E+002	5.9299880E-001	-1.4236637E+000	0
3.3638279E+000	1.304323969115649E+002	-1.4257865E+000	-4.238583447073584E+002	6.0433149E-001	-1.4256648E+000	0
3.3134508E+000	1.306324969065099E+002	-1.4277802E+000	-4.309042780230402E+002	6.1523658E-001	-1.4276654E+000	0
3.3071356E+000	1.308325969014550E+002	-1.4297624E+000	-4.323265183117928E+002	6.1812419E-001	-1.4296668E+000	0
3.3370683E+000	1.310326968964000E+002	-1.4317552E+000	-4.290458093721759E+002	6.1428857E-001	-1.4316674E+000	0
3.3723214E+000	1.312328968913425E+002	-1.4337199E+000	-4.251433252553106E+002	6.0953641E-001	-1.4336694E+000	0
3.3420255E+000	1.314329968862876E+002	-1.4357508E+000	-4.296049819219660E+002	6.1680573E-001	-1.4356707E+000	0
3.3271718E+000	1.316329968812352E+002	-1.4377596E+000	-4.321266529057302E+002	6.2129426E-001	-1.4376706E+000	0
3.2725999E+000	1.318329968761827E+002	-1.4397495E+000	-4.399405842865422E+002	6.3340425E-001	-1.4396707E+000	0
3.2566934E+000	1.320329968711303E+002	-1.4417448E+000	-4.427020409123406E+002	6.3826334E-001	-1.4416708E+000	0
3.2709978E+000	1.322331968660728E+002	-1.4437672E+000	-4.413843337263606E+002	6.3725621E-001	-1.4436727E+000	0
3.2670028E+000	1.324335968610103E+002	-1.4457649E+000	-4.425355653702954E+002	6.3980240E-001	-1.4456762E+000	0
3.2837687E+000	1.326338968559503E+002	-1.4477655E+000	-4.408853337202981E+002	6.3829857E-001	-1.4476795E+000	0
3.2732642E+000	1.328340968508928E+002	-1.4497721E+000	-4.429132515032798E+002	6.4212328E-001	-1.4496815E+000	0
3.2416091E+000	1.330341968458379E+002	-1.4518090E+000	-4.478667808238606E+002	6.5021706E-001	-1.4516827E+000	0
3.2020974E+000	1.332341968407854E+002	-1.4537679E+000	-4.540048941700925E+002	6.6001773E-001	-1.4536828E+000	0
3.1190193E+000	1.334343968357280E+002	-1.4557744E+000	-4.667410956660028E+002	6.7946976E-001	-1.4556842E+000	0
2.9273908E+000	1.336345968306705E+002	-1.4578177E+000	-4.979921607927931E+002	7.2598177E-001	-1.4576865E+000	0
2.9342611E+000	1.338345968256181E+002	-1.4597694E+000	-4.974912901508578E+002	7.2622257E-001	-1.4596864E+000	0
2.9640594E+000	1.340345968205656E+002	-1.4617860E+000	-4.931702858715098E+002	7.2090942E-001	-1.4616864E+000	0
2.9672439E+000	1.342345968155132E+002	-1.4638330E+000	-4.933308522144398E+002	7.2215396E-001	-1.4636863E+000	0
2.9564569E+000	1.344345968104608E+002	-1.4657753E+000	-4.957877980143567E+002	7.2671348E-001	-1.4656864E+000	0
2.9708571E+000	1.346345968054084E+002	-1.4677763E+000	-4.940581754048662E+002	7.2516686E-001	-1.4676865E+000	0
2.9655554E+000	1.348345968003559E+002	-1.4697869E+000	-4.956194260958346E+002	7.2845495E-001	-1.4696864E+000	0
2.9182467E+000	1.350345967953035E+002	-1.4718432E+000	-5.043587200311867E+002	7.4233699E-001	-1.4716865E+000	0
2.8727407E+000	1.352345967902511E+002	-1.4737726E+000	-5.130197007142506E+002	7.5607443E-001	-1.4736863E+000	0
2.8876946E+000	1.354345967851987E+002	-1.4757868E+000	-5.110605446216459E+002	7.5421643E-001	-1.4756864E+000	0
2.8420680E+000	1.356345967801462E+002	-1.4778420E+000	-5.199882618564570E+002	7.6846045E-001	-1.4776865E+000	0
2.8825707E+000	1.358345967750938E+002	-1.4798880E+000	-5.133917267901015E+002	7.5976223E-001	-1.4796864E+000	0
2.8992329E+000	1.360345967700414E+002	-1.4818525E+000	-5.111188531819362E+002	7.5740278E-001	-1.4816865E+000	0
2.9525754E+000	1.362345967649890E+002	-1.4837961E+000	-5.025429862145656E+002	7.4567133E-001	-1.4836864E+000	0
2.9103239E+000	1.364345967599365E+002	-1.4858278E+000	-5.105369109631683E+002	7.5856996E-001	-1.4856864E+000	0
2.9204533E+000	1.366345967548841E+002	-1.4878612E+000	-5.094623946884039E+002	7.5800931E-001	-1.4876865E+000	0
2.8889427E+000	1.368345967498317E+002	-1.4898747E+000	-5.157162587475059E+002	7.6835263E-001	-1.4896865E+000	0
2.8989460E+000	1.370345967447793E+002	-1.4918363E+000	-5.146133296040980E+002	7.6771885E-001	-1.4916863E+000	0
2.9012570E+000	1.372345967397268E+002	-1.4938760E+000	-5.149064539522278E+002	7.6920640E-001	-1.4936864E+000	0
2.8848686E+000	1.374345967346744E+002	-1.4958403E+000	-5.185124586844927E+002	7.7561182E-001	-1.4956864E+000	0
2.8631003E+000	1.376345967296220E+002	-1.4978402E+000	-5.231532115071268E+002	7.8359991E-001	-1.4976865E+000	0
2.8395522E+000	1.378345967245696E+002	-1.4998471E+000	-5.281984403874039E+002	7.9221690E-001	-1.4996865E+000	0
2.7827671E+000	1.380345967195171E+002	-1.5018822E+000	-5.397081790370448E+002	8.1057811E-001	-1.5016865E+000	0
2.7827389E+000	1.382345967144647E+002	-1.5039222E+000	-5.404467711848743E+002	8.1278992E-001	-1.5036864E+000	0
2.7789862E+000	1.384345967094123E+002	-1.5058371E+000	-5.418655954261499E+002	8.1596130E-001	-1.5056865E+000	0
2.7537615E+000	1.386345967043599E+002	-1.5079061E+000	-5.475805099080731E+002	8.2569999E-001	-1.5076865E+000	0
2.7139945E+000	1.388345966993074E+002	-1.5098646E+000	-5.563255801557698E+002	8.3997631E-001	-1.5096865E+000	0
2.7116985E+000	1.390345966942550E+002	-1.5118252E+000	-5.575196586185048E+002	8.4287226E-001	-1.5116866E+000	0
2.7325058E+000	1.392345966892026E+002	-1.5138512E+000	-5.540157371270116E+002	8.3869737E-001	-1.5136864E+000	0
2.7104542E+000	1.394345966841502E+002	-1.5158598E+000	-5.592641546504569E+002	8.4776610E-001	-1.5156865E+000	0
2.6837919E+000	1.396345966790977E+002	-1.5178604E+000	-5.655656125550913E+002	8.5844964E-001	-1.5176865E+000	0
2.6612434E+000	1.397645966758137E+002	-1.5191326E+000	-5.708356468239608E+002	8.6717504E-001	-1.5189861E+000	0
2.6478667E+000	1.397879966752225E+002	-1.5195335E+000	-5.738708244772533E+002	8.7201595E-001	-1.5193862E+000	1