EC-Lab ASCII FILE
Nb header lines : 61                          

Linear Sweep Voltammetry

Run on channel : 1 (SN 1340)
User : 
Electrode connection : standard
Potential control : Ewe
Ewe ctrl range : min = -5.00 V, max = 5.00 V
Ewe,I filtering : <None>
Channel : Grounded
Acquisition started on : 02/09/2026 17:42:12.011
Technique started on : 02/09/2026 17:42:14.848
Loaded Setting File :  C:\Users\volt\Documents\Platalytix\Pt_40_PdNiCo_01.mps
Saved on :
	File : PtPdNiCoCr25_X_18_02_LSV_C01.mpr
	Directory : C:\Users\volt\Documents\Platalytix\
	Host : 127.0.0.1
Device : SP-200 (SN 0262)
Address : USB
EC-LAB for windows v11.60 (software)
Internet server v11.60 (firmware)
Command interpretor v11.60 (firmware)
Electrode material : Pt18.75Pd18.75Ni18.75Co18.75Cr25
Initial state : 
Electrolyte : 1 M KOH
Comments : 
Cable : standard
Reference electrode : Hg/HgO (0.140 V)
Electrode surface area : 1.000 cm˛
Characteristic mass : 0.001 g
Equivalent Weight : 0.000 g/eq.
Density : 0.000 g/cm3
Volume (V) : 0.001 cmł
Cycle Definition : Charge/Discharge alternance
tR (h:m:s)          0:00:5.0000         
dER/dt (mV/h)       0.0                 
dER (mV)            0                   
dtR (s)             0.0000              
dE/dt               10.000              
dE/dt unit          mV/s                
Ei (V)              -0.200              
vs.                 Ref                 
EL (V)              -2.000              
vs.                 Ref                 
record              <I>                 
dI                  0.000               
unit dI             µA                  
tI (s)              0.0000              
step percent        50                  
N                   10                  
E range min (V)     -5.000              
E range max (V)     5.000               
I Range             Auto                
I Range min         Unset               
I Range max         Unset               
I Range init        Unset               
Bandwidth           8                   

Rwe/Ohm	time/s	Ewe/V	<I>/mA	Pwe/W	control/V	error	
0.0000000E+000	2.837400134740165E+000	-1.4355059E-001	0.000000000000000E+000	0.0000000E+000	0.0000000E+000	0
0.0000000E+000	7.837200008434593E+000	-3.2210361E-002	0.000000000000000E+000	0.0000000E+000	-1.9997539E-001	0
3.1145527E+003	8.037200003382168E+000	-2.0170416E-001	-6.476183937862517E-002	1.3062732E-005	-2.0187517E-001	0
1.6464003E+003	8.157200000350713E+000	-2.0292009E-001	-1.232507704129946E-001	2.5010058E-005	-2.0307523E-001	0
1.8742726E+003	8.367199995045667E+000	-2.0501417E-001	-1.093833270269422E-001	2.2425133E-005	-2.0517521E-001	0
2.1108831E+003	8.567199989993242E+000	-2.0698135E-001	-9.805438804119126E-002	2.0295429E-005	-2.0717523E-001	0
2.3153464E+003	8.767199984940817E+000	-2.0899965E-001	-9.026711683534527E-002	1.8865796E-005	-2.0917523E-001	0
2.4965439E+003	8.967199979888392E+000	-2.1106699E-001	-8.454366966917304E-002	1.7844379E-005	-2.1117520E-001	0
2.6595913E+003	9.167199974835967E+000	-2.1308891E-001	-8.012092294004647E-002	1.7072880E-005	-2.1317522E-001	0
2.8071016E+003	9.367199969783542E+000	-2.1502255E-001	-7.659948784213888E-002	1.6470618E-005	-2.1517523E-001	0
2.9443765E+003	9.567199964731117E+000	-2.1699528E-001	-7.369821016146672E-002	1.5992164E-005	-2.1717522E-001	0
3.0729448E+003	9.767199959678692E+000	-2.1893190E-001	-7.124498322164707E-002	1.5597800E-005	-2.1917522E-001	0
3.1943108E+003	9.967199954626267E+000	-2.2094193E-001	-6.916732589984553E-002	1.5281963E-005	-2.2117524E-001	0
3.3105742E+003	1.016719994957384E+001	-2.2288619E-001	-6.732553883472603E-002	1.5005933E-005	-2.2317521E-001	0
3.4253760E+003	1.036719994452142E+001	-2.2492404E-001	-6.566404484005439E-002	1.4769423E-005	-2.2517522E-001	0
3.5355518E+003	1.056719993946899E+001	-2.2698544E-001	-6.420085348807647E-002	1.4572659E-005	-2.2717524E-001	0
3.6425173E+003	1.076719993441657E+001	-2.2904366E-001	-6.288059784760462E-002	1.4402402E-005	-2.2917520E-001	0
3.7423730E+003	1.096719992936414E+001	-2.3101613E-001	-6.172985049828372E-002	1.4260591E-005	-2.3117523E-001	0
3.8426853E+003	1.116719992431172E+001	-2.3304594E-001	-6.064663745004650E-002	1.4133452E-005	-2.3317523E-001	0
3.9421372E+003	1.136719991925929E+001	-2.3500693E-001	-5.961409322347266E-002	1.4009725E-005	-2.3517522E-001	0
4.0393687E+003	1.156719991420687E+001	-2.3700361E-001	-5.867342863500125E-002	1.3905815E-005	-2.3717523E-001	0
4.1357822E+003	1.176719990915444E+001	-2.3904507E-001	-5.779923984512714E-002	1.3816623E-005	-2.3917523E-001	0
4.2304224E+003	1.196719990410202E+001	-2.4099675E-001	-5.696753984900060E-002	1.3728992E-005	-2.4117523E-001	0
4.3180078E+003	1.216719989904959E+001	-2.4295779E-001	-5.626617470923012E-002	1.3670306E-005	-2.4317521E-001	0
4.4133936E+003	1.236719989399717E+001	-2.4496590E-001	-5.550511073122577E-002	1.3596859E-005	-2.4517524E-001	0
4.5035928E+003	1.256719988894474E+001	-2.4698889E-001	-5.484263688091451E-002	1.3545522E-005	-2.4717520E-001	0
4.5921465E+003	1.276719988389232E+001	-2.4896519E-001	-5.421542827475007E-002	1.3497754E-005	-2.4917521E-001	0
4.6782769E+003	1.296719987883989E+001	-2.5101086E-001	-5.365455479206965E-002	1.3467876E-005	-2.5117522E-001	0
4.7718169E+003	1.316719987378747E+001	-2.5301668E-001	-5.302313287676941E-002	1.3415737E-005	-2.5317520E-001	0
4.8629946E+003	1.336719986873504E+001	-2.5498384E-001	-5.243350023270721E-002	1.3369696E-005	-2.5517523E-001	0
4.9466621E+003	1.356719986368262E+001	-2.5700197E-001	-5.195462568863685E-002	1.3352441E-005	-2.5717521E-001	0
5.0283359E+003	1.376719985863019E+001	-2.5898230E-001	-5.150457613208170E-002	1.3338774E-005	-2.5917521E-001	0
5.1253716E+003	1.396719985357777E+001	-2.6101929E-001	-5.092690191537874E-002	1.3292904E-005	-2.6117522E-001	0
5.2047964E+003	1.416719984852534E+001	-2.6302445E-001	-5.053501136446781E-002	1.3291943E-005	-2.6317522E-001	0
5.2906094E+003	1.436719984347292E+001	-2.6497826E-001	-5.008463954812779E-002	1.3271340E-005	-2.6517522E-001	0
5.3780874E+003	1.456719983842049E+001	-2.6701480E-001	-4.964865422744286E-002	1.3256926E-005	-2.6717523E-001	0
5.4577222E+003	1.476719983336807E+001	-2.6903188E-001	-4.929380322692478E-002	1.3261605E-005	-2.6917523E-001	0
5.5463511E+003	1.496719982831564E+001	-2.7099055E-001	-4.885924782719053E-002	1.3240395E-005	-2.7117521E-001	0
5.6341606E+003	1.516719982326322E+001	-2.7297345E-001	-4.844970835738160E-002	1.3225484E-005	-2.7317524E-001	0
5.7179971E+003	1.536719981821079E+001	-2.7495334E-001	-4.808560168225939E-002	1.3221296E-005	-2.7517521E-001	0
5.8110508E+003	1.556719981315837E+001	-2.7696618E-001	-4.766198058186066E-002	1.3200757E-005	-2.7717519E-001	0
5.8885776E+003	1.576719980810594E+001	-2.7899274E-001	-4.737862974828722E-002	1.3218294E-005	-2.7917522E-001	0
5.9737803E+003	1.596719980305352E+001	-2.8098351E-001	-4.703612976771926E-002	1.3216377E-005	-2.8117523E-001	0
6.0524824E+003	1.616719979800109E+001	-2.8296024E-001	-4.675110329740828E-002	1.3228703E-005	-2.8317523E-001	0
6.1433545E+003	1.636719979294867E+001	-2.8498599E-001	-4.638931291893789E-002	1.3220304E-005	-2.8517520E-001	0
6.2290776E+003	1.656719978789624E+001	-2.8696841E-001	-4.606916664338234E-002	1.3220396E-005	-2.8717521E-001	0
6.3181597E+003	1.676719978284382E+001	-2.8901199E-001	-4.574306560611618E-002	1.3220294E-005	-2.8917521E-001	0
6.3978901E+003	1.696719977779139E+001	-2.9098085E-001	-4.548075097288873E-002	1.3234027E-005	-2.9117522E-001	0
6.4778267E+003	1.716719977273897E+001	-2.9299772E-001	-4.523086735303994E-002	1.3252541E-005	-2.9317522E-001	0
6.5676792E+003	1.736719976768654E+001	-2.9501814E-001	-4.491969478573193E-002	1.3252125E-005	-2.9517519E-001	0
6.6578042E+003	1.756719976263412E+001	-2.9703772E-001	-4.461496784019164E-002	1.3252328E-005	-2.9717520E-001	0
6.7420210E+003	1.776719975758169E+001	-2.9905689E-001	-4.435715696651921E-002	1.3265313E-005	-2.9917523E-001	0
6.8186035E+003	1.796719975252927E+001	-3.0097738E-001	-4.414061952383364E-002	1.3285328E-005	-3.0117521E-001	0
6.9095928E+003	1.816719974747684E+001	-3.0300400E-001	-4.385265677268721E-002	1.3287530E-005	-3.0317524E-001	0
6.9978408E+003	1.836719974242442E+001	-3.0499408E-001	-4.358402528676530E-002	1.3292870E-005	-3.0517519E-001	0
7.0863315E+003	1.860719973636151E+001	-3.0737165E-001	-4.337528372888799E-002	1.3332332E-005	-3.0757520E-001	0
7.1769331E+003	1.880719973130908E+001	-3.0937579E-001	-4.310696228917341E-002	1.3336251E-005	-3.0957520E-001	0
7.2605186E+003	1.900719972625666E+001	-3.1140828E-001	-4.289063841105573E-002	1.3356500E-005	-3.1157520E-001	0
7.3566821E+003	1.920719972120423E+001	-3.1336719E-001	-4.259626647851339E-002	1.3348273E-005	-3.1357524E-001	0
7.4392773E+003	1.940719971615181E+001	-3.1541902E-001	-4.239914663660782E-002	1.3373497E-005	-3.1557524E-001	0
7.5219863E+003	1.960719971109938E+001	-3.1740701E-001	-4.219723366467010E-002	1.3393698E-005	-3.1757522E-001	0
7.6079888E+003	1.980719970604696E+001	-3.1939244E-001	-4.198119377922213E-002	1.3408476E-005	-3.1957522E-001	0
7.6905044E+003	2.000719970099453E+001	-3.2139927E-001	-4.179170247760766E-002	1.3431822E-005	-3.2157522E-001	0
7.7784092E+003	2.020719969594211E+001	-3.2340726E-001	-4.157755896924257E-002	1.3446484E-005	-3.2357520E-001	0
7.8622529E+003	2.040719969088968E+001	-3.2540241E-001	-4.138793439214691E-002	1.3467734E-005	-3.2557520E-001	0
7.9523833E+003	2.060719968583726E+001	-3.2743898E-001	-4.117494880310485E-002	1.3482283E-005	-3.2757521E-001	0
8.0300425E+003	2.080719968078483E+001	-3.2945648E-001	-4.102798677107666E-002	1.3516936E-005	-3.2957521E-001	0
8.1224233E+003	2.100719967573241E+001	-3.3144483E-001	-4.080615118024489E-002	1.3524987E-005	-3.3157521E-001	0
8.2076016E+003	2.120719967067998E+001	-3.3344302E-001	-4.062612268301830E-002	1.3546497E-005	-3.3357522E-001	0
8.2878760E+003	2.140719966562756E+001	-3.3542567E-001	-4.047184875562282E-002	1.3575297E-005	-3.3557519E-001	0
8.3737754E+003	2.160719966057513E+001	-3.3740091E-001	-4.029256816031598E-002	1.3594749E-005	-3.3757523E-001	0
8.4605693E+003	2.180719965552271E+001	-3.3944553E-001	-4.012088468979380E-002	1.3618855E-005	-3.3957520E-001	0
8.5539531E+003	2.200719965047028E+001	-3.4140059E-001	-3.991143882819492E-002	1.3625789E-005	-3.4157524E-001	0
8.6330771E+003	2.220719964541786E+001	-3.4344253E-001	-3.978216673259130E-002	1.3662888E-005	-3.4357521E-001	0
8.7252471E+003	2.240719964036543E+001	-3.4539333E-001	-3.958550760920559E-002	1.3672570E-005	-3.4557524E-001	0
8.8054131E+003	2.260719963531301E+001	-3.4744436E-001	-3.945804126412866E-002	1.3709474E-005	-3.4757522E-001	0
8.8883330E+003	2.280719963026058E+001	-3.4942192E-001	-3.931242485753461E-002	1.3736623E-005	-3.4957522E-001	0
8.9674922E+003	2.300719962520816E+001	-3.5133749E-001	-3.917901305182964E-002	1.3765056E-005	-3.5157526E-001	0
9.0649336E+003	2.320719962015573E+001	-3.5339659E-001	-3.898501815459138E-002	1.3777173E-005	-3.5357523E-001	0
9.1534043E+003	2.340719961510331E+001	-3.5539475E-001	-3.882650928698517E-002	1.3798737E-005	-3.5557523E-001	0
9.2417803E+003	2.360719961005088E+001	-3.5741308E-001	-3.867361749719850E-002	1.3822457E-005	-3.5757524E-001	0
9.3306660E+003	2.380719960499846E+001	-3.5942522E-001	-3.852085522196491E-002	1.3845367E-005	-3.5957524E-001	0
9.4115000E+003	2.400719959994603E+001	-3.6141255E-001	-3.840116376998096E-002	1.3878663E-005	-3.6157522E-001	0
9.4931719E+003	2.420719959489361E+001	-3.6339378E-001	-3.827949123042085E-002	1.3910530E-005	-3.6357525E-001	0
9.5926563E+003	2.440719958984118E+001	-3.6541361E-001	-3.809305687425468E-002	1.3919721E-005	-3.6557522E-001	0
9.6763398E+003	2.460719958478876E+001	-3.6741319E-001	-3.797026643558032E-002	1.3950777E-005	-3.6757520E-001	0
9.7620781E+003	2.480719957973633E+001	-3.6940649E-001	-3.784096972909146E-002	1.3978700E-005	-3.6957523E-001	0
9.8524023E+003	2.500719957468391E+001	-3.7136474E-001	-3.769281176483796E-002	1.3997781E-005	-3.7157524E-001	0
9.9246719E+003	2.520719956963148E+001	-3.7341422E-001	-3.762484333834825E-002	1.4049651E-005	-3.7357521E-001	0
1.0019499E+004	2.540719956457906E+001	-3.7535450E-001	-3.746240094484632E-002	1.4061680E-005	-3.7557524E-001	0
1.0103210E+004	2.560719955952663E+001	-3.7737769E-001	-3.735225588081142E-002	1.4095908E-005	-3.7757522E-001	0
1.0185158E+004	2.580719955447421E+001	-3.7939554E-001	-3.724984476625787E-002	1.4132425E-005	-3.7957525E-001	0
1.0277243E+004	2.600719954942178E+001	-3.8133222E-001	-3.710452475043351E-002	1.4149151E-005	-3.8157523E-001	0
1.0373178E+004	2.620719954436936E+001	-3.8338169E-001	-3.695894395161733E-002	1.4169383E-005	-3.8357526E-001	0
1.0457414E+004	2.640719953931693E+001	-3.8537267E-001	-3.685162151564975E-002	1.4201608E-005	-3.8557523E-001	0
1.0502228E+004	2.660719953426451E+001	-3.8735956E-001	-3.688356207811433E-002	1.4287200E-005	-3.8757521E-001	0
1.0608227E+004	2.680719952921208E+001	-3.8941291E-001	-3.670857926432586E-002	1.4294795E-005	-3.8957521E-001	0
1.0701368E+004	2.700719952415966E+001	-3.9141297E-001	-3.657597360225456E-002	1.4316311E-005	-3.9157522E-001	0
1.0784008E+004	2.720719951910723E+001	-3.9337379E-001	-3.647751356432803E-002	1.4349298E-005	-3.9357525E-001	0
1.0889602E+004	2.740719951405481E+001	-3.9535397E-001	-3.630564300752037E-002	1.4353580E-005	-3.9557526E-001	0
1.0987113E+004	2.760719950900238E+001	-3.9742124E-001	-3.617157790701100E-002	1.4375353E-005	-3.9757526E-001	0
1.1077150E+004	2.780719950394996E+001	-3.9940161E-001	-3.605634797192370E-002	1.4400964E-005	-3.9957520E-001	0
1.1161484E+004	2.800719949889753E+001	-4.0135756E-001	-3.595915709066777E-002	1.4432479E-005	-4.0157524E-001	0
1.1260939E+004	2.820719949384511E+001	-4.0338603E-001	-3.582170197466714E-002	1.4449974E-005	-4.0357527E-001	0
1.1355103E+004	2.840719948879268E+001	-4.0537336E-001	-3.569966620161641E-002	1.4471694E-005	-4.0557525E-001	0
1.1443297E+004	2.860719948374026E+001	-4.0740481E-001	-3.560204911278042E-002	1.4504446E-005	-4.0757522E-001	0
1.1535833E+004	2.880719947868783E+001	-4.0942189E-001	-3.549131681739254E-002	1.4530922E-005	-4.0957525E-001	0
1.1622786E+004	2.900719947363541E+001	-4.1136575E-001	-3.539304082813011E-002	1.4559485E-005	-4.1157523E-001	0
1.1719622E+004	2.920719946858299E+001	-4.1342270E-001	-3.527611145425522E-002	1.4583946E-005	-4.1357523E-001	0
1.1801710E+004	2.940719946353056E+001	-4.1544586E-001	-3.520217417636895E-002	1.4624597E-005	-4.1557524E-001	0
1.1896410E+004	2.960719945847814E+001	-4.1747925E-001	-3.509287609504375E-002	1.4650547E-005	-4.1757527E-001	0
1.1989786E+004	2.980719945342571E+001	-4.1944176E-001	-3.498325547226661E-002	1.4673438E-005	-4.1957521E-001	0
1.2077482E+004	3.000719944837329E+001	-4.2138156E-001	-3.488985065934645E-002	1.4701940E-005	-4.2157525E-001	0
1.2164855E+004	3.020719944332086E+001	-4.2341578E-001	-3.480647759519451E-002	1.4737612E-005	-4.2357528E-001	0
1.2256317E+004	3.040719943826844E+001	-4.2541432E-001	-3.470980124326339E-002	1.4766047E-005	-4.2557523E-001	0
1.2344006E+004	3.060719943321601E+001	-4.2741930E-001	-3.462565706540198E-002	1.4799674E-005	-4.2757523E-001	0
1.2449117E+004	3.080719942816359E+001	-4.2946693E-001	-3.449778152020455E-002	1.4815657E-005	-4.2957526E-001	0
1.2530941E+004	3.100719942311116E+001	-4.3141204E-001	-3.442774286605588E-002	1.4852543E-005	-4.3157524E-001	0
1.2615457E+004	3.120719941805874E+001	-4.3336481E-001	-3.435189239158085E-002	1.4886901E-005	-4.3357524E-001	0
1.2715992E+004	3.140719941300631E+001	-4.3538466E-001	-3.423914316510503E-002	1.4907198E-005	-4.3557525E-001	0
1.2815937E+004	3.160719940795389E+001	-4.3746063E-001	-3.413411279925938E-002	1.4932330E-005	-4.3757525E-001	0
1.2895063E+004	3.180719940290146E+001	-4.3937090E-001	-3.407279781964471E-002	1.4970596E-005	-4.3957523E-001	0
1.2991969E+004	3.200719939784904E+001	-4.4141433E-001	-3.397593714266200E-002	1.4997466E-005	-4.4157526E-001	0
1.3077580E+004	3.220719939279661E+001	-4.4343218E-001	-3.390781637999180E-002	1.5035817E-005	-4.4357523E-001	0
1.3170805E+004	3.240719938774419E+001	-4.4541147E-001	-3.381809143427672E-002	1.5062966E-005	-4.4557527E-001	0
1.3262981E+004	3.260719938269176E+001	-4.4744080E-001	-3.373606495644746E-002	1.5094892E-005	-4.4757524E-001	0
1.3350855E+004	3.280719937763934E+001	-4.4944745E-001	-3.366431898554634E-002	1.5130342E-005	-4.4957522E-001	0
1.3456813E+004	3.300719937258691E+001	-4.5144561E-001	-3.354773643165776E-002	1.5144979E-005	-4.5157525E-001	0
1.3539411E+004	3.320719936753449E+001	-4.5342150E-001	-3.348901117581655E-002	1.5184638E-005	-4.5357525E-001	0
1.3634321E+004	3.340719936248206E+001	-4.5543200E-001	-3.340334849497575E-002	1.5212954E-005	-4.5557526E-001	0
1.3720275E+004	3.360719935742964E+001	-4.5746663E-001	-3.334237929236111E-002	1.5253026E-005	-4.5757526E-001	0
1.3804323E+004	3.380719935237721E+001	-4.5946270E-001	-3.328397085487853E-002	1.5292742E-005	-4.5957527E-001	0
1.3899862E+004	3.400719934732479E+001	-4.6147504E-001	-3.319997278510950E-002	1.5320958E-005	-4.6157521E-001	0
1.3992159E+004	3.420719934227236E+001	-4.6345878E-001	-3.312274825478363E-002	1.5351028E-005	-4.6357524E-001	0
1.4073819E+004	3.440719933721994E+001	-4.6542406E-001	-3.307020223420748E-002	1.5391668E-005	-4.6557528E-001	0
1.4161298E+004	3.460719933216751E+001	-4.6744516E-001	-3.300863849036079E-002	1.5429729E-005	-4.6757525E-001	0
1.4257320E+004	3.480719932711509E+001	-4.6938518E-001	-3.292239850013180E-002	1.5453286E-005	-4.6957523E-001	0
1.4347508E+004	3.500719932206266E+001	-4.7141132E-001	-3.285667025737571E-002	1.5489006E-005	-4.7157526E-001	0
1.4445510E+004	3.520719931701024E+001	-4.7336107E-001	-3.276873499159283E-002	1.5511443E-005	-4.7357523E-001	0
1.4522875E+004	3.540719931195781E+001	-4.7536260E-001	-3.273199032094587E-002	1.5559564E-005	-4.7557524E-001	0
1.4619176E+004	3.560719930690539E+001	-4.7740510E-001	-3.265608953868515E-002	1.5590183E-005	-4.7757527E-001	0
1.4719579E+004	3.580719930185296E+001	-4.7939759E-001	-3.256870337282547E-002	1.5613357E-005	-4.7957528E-001	0
1.4794339E+004	3.600719929680054E+001	-4.8140168E-001	-3.253958764583144E-002	1.5664613E-005	-4.8157522E-001	0
1.4878336E+004	3.620719929174811E+001	-4.8337036E-001	-3.248820126784205E-002	1.5703834E-005	-4.8357525E-001	0
1.4976160E+004	3.640719928669569E+001	-4.8542261E-001	-3.241302162385601E-002	1.5734013E-005	-4.8557529E-001	0
1.5075342E+004	3.660719928164326E+001	-4.8736283E-001	-3.232847566636116E-002	1.5755697E-005	-4.8757523E-001	0
1.5153034E+004	3.680719927659084E+001	-4.8943460E-001	-3.229944520817907E-002	1.5808466E-005	-4.8957524E-001	0
1.5237331E+004	3.700719927153841E+001	-4.9142984E-001	-3.225169953591323E-002	1.5849448E-005	-4.9157527E-001	0
1.5333235E+004	3.720719926648599E+001	-4.9340397E-001	-3.217872514446457E-002	1.5877111E-005	-4.9357530E-001	0
1.5428713E+004	3.740719926143356E+001	-4.9543741E-001	-3.211139020132003E-002	1.5909183E-005	-4.9557525E-001	0
1.5524260E+004	3.760719925638114E+001	-4.9745274E-001	-3.204357172726785E-002	1.5940162E-005	-4.9757522E-001	0
1.5611696E+004	3.780719925132871E+001	-4.9940464E-001	-3.198913386267921E-002	1.5975522E-005	-4.9957526E-001	0
1.5689160E+004	3.800719924627629E+001	-5.0139368E-001	-3.195796832320841E-002	1.6023523E-005	-5.0157523E-001	0
1.5772261E+004	3.820719924122386E+001	-5.0342619E-001	-3.191845397683502E-002	1.6068585E-005	-5.0357527E-001	0
1.5860020E+004	3.840719923617144E+001	-5.0539196E-001	-3.186578364053411E-002	1.6104710E-005	-5.0557524E-001	0
1.5916060E+004	3.860719923111901E+001	-5.0736099E-001	-3.187729886526036E-002	1.6173299E-005	-5.0757527E-001	0
1.6020992E+004	3.880719922606659E+001	-5.0934982E-001	-3.179265119667574E-002	1.6193580E-005	-5.0957525E-001	0
1.6124918E+004	3.900719922101416E+001	-5.1141632E-001	-3.171590276964248E-002	1.6220030E-005	-5.1157528E-001	0
1.6209720E+004	3.920719921596174E+001	-5.1345116E-001	-3.167551091598686E-002	1.6263828E-005	-5.1357526E-001	0
1.6306730E+004	3.940719921090931E+001	-5.1540691E-001	-3.160700563694038E-002	1.6290469E-005	-5.1557523E-001	0
1.6408658E+004	3.960719920585689E+001	-5.1745027E-001	-3.153519675372130E-002	1.6317896E-005	-5.1757526E-001	0
1.6486814E+004	3.980719920080446E+001	-5.1938879E-001	-3.150328201829938E-002	1.6362452E-005	-5.1957530E-001	0
1.6569125E+004	4.000719919575204E+001	-5.2142686E-001	-3.146978938063005E-002	1.6409193E-005	-5.2157527E-001	0
1.6650590E+004	4.020719919069961E+001	-5.2342886E-001	-3.143605644800945E-002	1.6454540E-005	-5.2357525E-001	0
1.6736250E+004	4.040719918564719E+001	-5.2546966E-001	-3.139709757114051E-002	1.6498223E-005	-5.2557522E-001	0
1.6832160E+004	4.060719918059476E+001	-5.2742875E-001	-3.133458330173505E-002	1.6526759E-005	-5.2757531E-001	0
1.6919156E+004	4.080719917554234E+001	-5.2942187E-001	-3.129126974476537E-002	1.6566282E-005	-5.2957523E-001	0
1.7003025E+004	4.100719917048991E+001	-5.3141439E-001	-3.125410781811089E-002	1.6608883E-005	-5.3157520E-001	0
1.7090926E+004	4.120719916543749E+001	-5.3349799E-001	-3.121527897504456E-002	1.6653288E-005	-5.3357530E-001	0
1.7167020E+004	4.140719916038506E+001	-5.3543246E-001	-3.118959997195640E-002	1.6699923E-005	-5.3557521E-001	0
1.7251068E+004	4.160719915533264E+001	-5.3743994E-001	-3.115400792835532E-002	1.6743408E-005	-5.3757524E-001	0
1.7335742E+004	4.180719915028021E+001	-5.3942919E-001	-3.111659080057272E-002	1.6785198E-005	-5.3957522E-001	0
1.7411313E+004	4.200719914522779E+001	-5.4143882E-001	-3.109695540625984E-002	1.6837099E-005	-5.4157531E-001	0
1.7506617E+004	4.220719914017536E+001	-5.4345506E-001	-3.104283798289581E-002	1.6870388E-005	-5.4357523E-001	0
1.7591379E+004	4.240719913512294E+001	-5.4546613E-001	-3.100758141446280E-002	1.6913586E-005	-5.4557526E-001	0
1.7660211E+004	4.260719913007051E+001	-5.4747975E-001	-3.100074721946933E-002	1.6972281E-005	-5.4757529E-001	0
1.7752611E+004	4.280719912501809E+001	-5.4939604E-001	-3.094733581517106E-002	1.7002343E-005	-5.4957527E-001	0
1.7846533E+004	4.300719911996566E+001	-5.5143702E-001	-3.089883006990894E-002	1.7038759E-005	-5.5157524E-001	0
1.7924990E+004	4.320719911491324E+001	-5.5341423E-001	-3.087389397687246E-002	1.7086051E-005	-5.5357528E-001	0
1.8010799E+004	4.340719910986081E+001	-5.5543423E-001	-3.083895636926220E-002	1.7129012E-005	-5.5557531E-001	0
1.8110795E+004	4.360719910480839E+001	-5.5743444E-001	-3.077912602949529E-002	1.7157345E-005	-5.5757529E-001	0
1.8172258E+004	4.380719909975596E+001	-5.5941707E-001	-3.078412510245593E-002	1.7221166E-005	-5.5957526E-001	0
1.8255350E+004	4.400719909470354E+001	-5.6143200E-001	-3.075438101967076E-002	1.7266493E-005	-5.6157529E-001	0
1.8341676E+004	4.420719908965111E+001	-5.6341517E-001	-3.071775940688237E-002	1.7306851E-005	-5.6357527E-001	0
1.8426301E+004	4.440719908459869E+001	-5.6541157E-001	-3.068502940387458E-002	1.7349670E-005	-5.6557524E-001	0
1.8490881E+004	4.460719907954626E+001	-5.6741822E-001	-3.068638163779236E-002	1.7412012E-005	-5.6757528E-001	0
1.8563115E+004	4.480719907449384E+001	-5.6941408E-001	-3.067448841568399E-002	1.7466486E-005	-5.6957525E-001	0
1.8650408E+004	4.500719906944141E+001	-5.7139468E-001	-3.063711242184314E-002	1.7505883E-005	-5.7157522E-001	0
1.8700209E+004	4.520719906438899E+001	-5.7339150E-001	-3.066230273136084E-002	1.7581504E-005	-5.7357526E-001	0
1.8805115E+004	4.540719905933656E+001	-5.7539582E-001	-3.059783474069150E-002	1.7605866E-005	-5.7557529E-001	0
1.8891703E+004	4.560719905428414E+001	-5.7739657E-001	-3.056349921200746E-002	1.7647260E-005	-5.7757527E-001	0
1.8973725E+004	4.580719904923171E+001	-5.7941616E-001	-3.053781902259139E-002	1.7694105E-005	-5.7957524E-001	0
1.9039934E+004	4.600719904417929E+001	-5.8141404E-001	-3.053655773253450E-002	1.7754384E-005	-5.8157527E-001	0
1.9124193E+004	4.620719903912686E+001	-5.8337551E-001	-3.050458084505747E-002	1.7795626E-005	-5.8357525E-001	0
1.9203736E+004	4.640719903407444E+001	-5.8541971E-001	-3.048467843913701E-002	1.7846332E-005	-5.8557522E-001	0
1.9267543E+004	4.660719902902201E+001	-5.8738542E-001	-3.048574508198418E-002	1.7906883E-005	-5.8757526E-001	0
1.9245121E+004	4.680719902396959E+001	-5.8939970E-001	-3.062592692464133E-002	1.8050912E-005	-5.8957529E-001	0
1.9263953E+004	4.700719901891716E+001	-5.9140444E-001	-3.070005569622841E-002	1.8156150E-005	-5.9157526E-001	0
1.9468213E+004	4.720719901386474E+001	-5.9338927E-001	-3.047990501919529E-002	1.8086448E-005	-5.9357530E-001	0
1.9556471E+004	4.740719900881231E+001	-5.9538037E-001	-3.044416258362914E-002	1.8125857E-005	-5.9557527E-001	0
1.9630221E+004	4.760719900375989E+001	-5.9739470E-001	-3.043240001382919E-002	1.8180155E-005	-5.9757531E-001	0
1.9709244E+004	4.780719899870746E+001	-5.9938794E-001	-3.041151367458386E-002	1.8228295E-005	-5.9957522E-001	0
1.9775209E+004	4.800719899365504E+001	-6.0133904E-001	-3.040873374084607E-002	1.8285959E-005	-6.0157526E-001	0
1.9847930E+004	4.820719898860261E+001	-6.0340697E-001	-3.040150673310282E-002	1.8344481E-005	-6.0357529E-001	0
1.9933520E+004	4.840719898355019E+001	-6.0540557E-001	-3.037123289935995E-002	1.8386914E-005	-6.0557520E-001	0
2.0007850E+004	4.860719897849776E+001	-6.0741287E-001	-3.035872916125026E-002	1.8440283E-005	-6.0757530E-001	0
2.0080672E+004	4.880719897344534E+001	-6.0940045E-001	-3.034761299029665E-002	1.8493849E-005	-6.0957527E-001	0
2.0146633E+004	4.900719896839291E+001	-6.1139476E-001	-3.034724209477713E-002	1.8554145E-005	-6.1157525E-001	0
2.0212469E+004	4.920719896334049E+001	-6.1345536E-001	-3.035034181955631E-002	1.8618579E-005	-6.1357522E-001	0
2.0301383E+004	4.940719895828806E+001	-6.1543500E-001	-3.031493074528852E-002	1.8656869E-005	-6.1557525E-001	0
2.0369041E+004	4.960719895323564E+001	-6.1740136E-001	-3.031077182243508E-002	1.8713912E-005	-6.1757529E-001	0
2.0414928E+004	4.980719894818321E+001	-6.1941457E-001	-3.034125773796859E-002	1.8793817E-005	-6.1957526E-001	0
2.0493707E+004	5.000719894313079E+001	-6.2139970E-001	-3.032148927988693E-002	1.8841765E-005	-6.2157524E-001	0
2.0579973E+004	5.020719893807836E+001	-6.2346900E-001	-3.029493737465305E-002	1.8887955E-005	-6.2357527E-001	0
2.0564229E+004	5.040719893302594E+001	-6.2546289E-001	-3.041509242016671E-002	1.9023511E-005	-6.2557524E-001	0
2.0517184E+004	5.060719892797351E+001	-6.2745154E-001	-3.058175669213270E-002	1.9188570E-005	-6.2757528E-001	0
2.0629250E+004	5.080719892292109E+001	-6.2941599E-001	-3.051085274586296E-002	1.9204019E-005	-6.2957525E-001	0
2.0730289E+004	5.100719891786866E+001	-6.3147753E-001	-3.046158782988911E-002	1.9235807E-005	-6.3157529E-001	0
2.0836510E+004	5.120719891281624E+001	-6.3346845E-001	-3.040185052523495E-002	1.9258614E-005	-6.3357526E-001	0
2.0909514E+004	5.140719890776381E+001	-6.3544083E-001	-3.039003389173714E-002	1.9311068E-005	-6.3557523E-001	0
2.1012051E+004	5.160719890271139E+001	-6.3746649E-001	-3.033813906256994E-002	1.9339546E-005	-6.3757533E-001	0
2.1079316E+004	5.180719889765896E+001	-6.3942158E-001	-3.033407461035437E-002	1.9396262E-005	-6.3957524E-001	0
2.1153283E+004	5.200719889260654E+001	-6.4146727E-001	-3.032471483141441E-002	1.9452313E-005	-6.4157528E-001	0
2.1189521E+004	5.220719888755411E+001	-6.4351273E-001	-3.036938554659069E-002	1.9543086E-005	-6.4357531E-001	0
2.1271658E+004	5.240719888250169E+001	-6.4547914E-001	-3.034456189016466E-002	1.9586781E-005	-6.4557523E-001	0
2.1346748E+004	5.260719887744926E+001	-6.4749634E-001	-3.033231802616279E-002	1.9640065E-005	-6.4757526E-001	0
2.1406064E+004	5.280719887239684E+001	-6.4947289E-001	-3.034060338856304E-002	1.9705400E-005	-6.4957523E-001	0
2.1443957E+004	5.300719886734441E+001	-6.5148103E-001	-3.038063557035037E-002	1.9792407E-005	-6.5157533E-001	0
2.1483049E+004	5.320719886229199E+001	-6.5345901E-001	-3.041742329381181E-002	1.9876539E-005	-6.5357524E-001	0
2.1334746E+004	5.340719885723956E+001	-6.5549684E-001	-3.072438068300398E-002	2.0139734E-005	-6.5557522E-001	0
2.1656754E+004	5.360719885218714E+001	-6.5744317E-001	-3.035741961743821E-002	1.9958277E-005	-6.5757531E-001	0
2.1725766E+004	5.380719884713471E+001	-6.5950161E-001	-3.035573726213736E-002	2.0019657E-005	-6.5957522E-001	0
2.1789723E+004	5.400719884208229E+001	-6.6149044E-001	-3.035790881679493E-002	2.0081467E-005	-6.6157526E-001	0
2.1833680E+004	5.420719883702986E+001	-6.6349328E-001	-3.038852328863303E-002	2.0162581E-005	-6.6357523E-001	0
2.1889156E+004	5.440719883197744E+001	-6.6547328E-001	-3.040196213981072E-002	2.0231693E-005	-6.6557527E-001	0
2.1958711E+004	5.460719882692501E+001	-6.6749209E-001	-3.039759883098503E-002	2.0290157E-005	-6.6757530E-001	0
2.2014395E+004	5.480719882187259E+001	-6.6950685E-001	-3.041223075891300E-002	2.0361196E-005	-6.6957527E-001	0
2.2064361E+004	5.500719881682016E+001	-6.7144513E-001	-3.043120744286529E-002	2.0432886E-005	-6.7157531E-001	0
2.2105842E+004	5.520719881176774E+001	-6.7352444E-001	-3.046816529530821E-002	2.0521054E-005	-6.7357528E-001	0
2.2153309E+004	5.540719880671531E+001	-6.7545253E-001	-3.048991674980750E-002	2.0594491E-005	-6.7557520E-001	0
2.2243102E+004	5.560719880166289E+001	-6.7742336E-001	-3.045543515553190E-002	2.0631223E-005	-6.7757529E-001	0
2.2289373E+004	5.580719879661046E+001	-6.7945904E-001	-3.048354263450148E-002	2.0712319E-005	-6.7957526E-001	0
2.2344180E+004	5.600719879155804E+001	-6.8144912E-001	-3.049783528541666E-002	2.0782723E-005	-6.8157524E-001	0
2.2423156E+004	5.620719878650561E+001	-6.8346900E-001	-3.048050020691500E-002	2.0832476E-005	-6.8357527E-001	0
2.2484057E+004	5.640719878145319E+001	-6.8547982E-001	-3.048737424313852E-002	2.0898480E-005	-6.8557531E-001	0
2.2531859E+004	5.660719877640076E+001	-6.8744236E-001	-3.050979378853888E-002	2.0973725E-005	-6.8757528E-001	0
2.2584371E+004	5.680719877134834E+001	-6.8947673E-001	-3.052893295581095E-002	2.1048989E-005	-6.8957520E-001	0
2.2646318E+004	5.700719876629591E+001	-6.9149828E-001	-3.053468746970489E-002	2.1114683E-005	-6.9157529E-001	0
2.2700949E+004	5.720719876124349E+001	-6.9346780E-001	-3.054796463742321E-002	2.1184029E-005	-6.9357520E-001	0
2.2705627E+004	5.740719875619106E+001	-6.9549954E-001	-3.063115221923407E-002	2.1303953E-005	-6.9557524E-001	0
2.2787578E+004	5.760719875113864E+001	-6.9747430E-001	-3.060765488811312E-002	2.1348053E-005	-6.9757533E-001	0
2.2858318E+004	5.780719874608621E+001	-6.9950008E-001	-3.060155602271275E-002	2.1405791E-005	-6.9957530E-001	0
2.2915711E+004	5.800719874103379E+001	-7.0149398E-001	-3.061192168784477E-002	2.1474079E-005	-7.0157528E-001	0
2.2971590E+004	5.820719873598136E+001	-7.0346856E-001	-3.062341666897606E-002	2.1542612E-005	-7.0357525E-001	0
2.3021561E+004	5.840719873092894E+001	-7.0545465E-001	-3.064321641347756E-002	2.1617399E-005	-7.0557535E-001	0
2.3073895E+004	5.860719872587651E+001	-7.0746297E-001	-3.066075338676877E-002	2.1691347E-005	-7.0757532E-001	0
2.3128707E+004	5.880719872082409E+001	-7.0944816E-001	-3.067392229193355E-002	2.1761558E-005	-7.0957524E-001	0
2.3202277E+004	5.900719871577166E+001	-7.1145147E-001	-3.066300145163492E-002	2.1815238E-005	-7.1157527E-001	0
2.3233318E+004	5.920719871071924E+001	-7.1347469E-001	-3.070911769982212E-002	2.1910178E-005	-7.1357530E-001	0
2.3289100E+004	5.940719870566681E+001	-7.1543592E-001	-3.071977475963206E-002	2.1978030E-005	-7.1557528E-001	0
2.3323330E+004	5.960719870061439E+001	-7.1746832E-001	-3.076183050870888E-002	2.2070639E-005	-7.1757525E-001	0
2.3408186E+004	5.980719869556197E+001	-7.1944642E-001	-3.073482342273448E-002	2.2112059E-005	-7.1957535E-001	0
2.3436906E+004	6.000719869050954E+001	-7.2150064E-001	-3.078480651116408E-002	2.2211258E-005	-7.2157532E-001	0
2.3506707E+004	6.020719868545712E+001	-7.2345674E-001	-3.077660971442603E-002	2.2265545E-005	-7.2357529E-001	0
2.3577633E+004	6.040719868040469E+001	-7.2547358E-001	-3.076956883735982E-002	2.2322509E-005	-7.2557527E-001	0
2.3564344E+004	6.060719867535227E+001	-7.2738701E-001	-3.086812003904230E-002	2.2453070E-005	-7.2757536E-001	0
2.3666332E+004	6.080719867029984E+001	-7.2945529E-001	-3.082249048081498E-002	2.2483629E-005	-7.2957522E-001	0
2.3704994E+004	6.100719866524742E+001	-7.3142225E-001	-3.085519622719901E-002	2.2568176E-005	-7.3157531E-001	0
2.3754223E+004	6.120719866019499E+001	-7.3348624E-001	-3.087814106783335E-002	2.2648692E-005	-7.3357534E-001	0
2.3801865E+004	6.140719865514257E+001	-7.3543853E-001	-3.089835559273491E-002	2.2723842E-005	-7.3557526E-001	0
2.3885664E+004	6.160719865009014E+001	-7.3748314E-001	-3.087555506935041E-002	2.2770202E-005	-7.3757523E-001	0
2.3934785E+004	6.180719864503772E+001	-7.3945057E-001	-3.089438920287321E-002	2.2844873E-005	-7.3957533E-001	0
2.3970809E+004	6.200719863998529E+001	-7.4146581E-001	-3.093203175981891E-002	2.2935044E-005	-7.4157530E-001	0
2.3996119E+004	6.220719863493287E+001	-7.4348694E-001	-3.098363162740614E-002	2.3035926E-005	-7.4357522E-001	0
2.4051148E+004	6.240719862988044E+001	-7.4547833E-001	-3.099554044124826E-002	2.3106504E-005	-7.4557525E-001	0
2.4082477E+004	6.260719862482802E+001	-7.4746633E-001	-3.103776776143125E-002	2.3199686E-005	-7.4757534E-001	0
2.4141246E+004	6.280719861977559E+001	-7.4945337E-001	-3.104451919859380E-002	2.3266419E-005	-7.4957526E-001	0
2.4209576E+004	6.300719861472317E+001	-7.5144392E-001	-3.103911951701688E-002	2.3324157E-005	-7.5157529E-001	0
2.4303350E+004	6.320719860967074E+001	-7.5347251E-001	-3.100282634115337E-002	2.3359777E-005	-7.5357533E-001	0
2.4328066E+004	6.340719860461832E+001	-7.5544637E-001	-3.105246344615031E-002	2.3458471E-005	-7.5557530E-001	0
2.4371621E+004	6.360719859956589E+001	-7.5746912E-001	-3.107996505068492E-002	2.3542114E-005	-7.5757527E-001	0
2.4397359E+004	6.380719859451347E+001	-7.5941408E-001	-3.112689710286609E-002	2.3638204E-005	-7.5957525E-001	0
2.4461867E+004	6.400719858946104E+001	-7.6146579E-001	-3.112868506692634E-002	2.3703429E-005	-7.6157534E-001	0
2.4542742E+004	6.420719858440862E+001	-7.6343483E-001	-3.110633679251701E-002	2.3747662E-005	-7.6357520E-001	0
2.4570768E+004	6.440719857935619E+001	-7.6545590E-001	-3.115311226767414E-002	2.3846334E-005	-7.6557529E-001	0
2.4639328E+004	6.460719857430377E+001	-7.6742625E-001	-3.114639421979858E-002	2.3902561E-005	-7.6757538E-001	0
2.4692930E+004	6.480719856925134E+001	-7.6946771E-001	-3.116145820907046E-002	2.3977736E-005	-7.6957524E-001	0
2.4765451E+004	6.500719856419892E+001	-7.7136695E-001	-3.114689775592638E-002	2.4025687E-005	-7.7157521E-001	0
2.4810088E+004	6.520719855914649E+001	-7.7341032E-001	-3.117321887240460E-002	2.4109690E-005	-7.7357531E-001	0
2.4846027E+004	6.540719855409407E+001	-7.7542752E-001	-3.120931565218824E-002	2.4200563E-005	-7.7557528E-001	0
2.4878102E+004	6.560719854904164E+001	-7.7741534E-001	-3.124898037653573E-002	2.4293437E-005	-7.7757525E-001	0
2.4961160E+004	6.580719854398922E+001	-7.7945554E-001	-3.122673598920625E-002	2.4339852E-005	-7.7957529E-001	0
2.5049270E+004	6.600719853893679E+001	-7.8145403E-001	-3.119667893003197E-002	2.4378771E-005	-7.8157538E-001	0
2.5038396E+004	6.620719853388437E+001	-7.8349203E-001	-3.129162254786573E-002	2.4516738E-005	-7.8357530E-001	0
2.5091469E+004	6.640719852883194E+001	-7.8545451E-001	-3.130364843803640E-002	2.4587593E-005	-7.8557521E-001	0
2.5165473E+004	6.660719852377952E+001	-7.8747725E-001	-3.129197234739795E-002	2.4641717E-005	-7.8757536E-001	0
2.5178023E+004	6.680719851872709E+001	-7.8944701E-001	-3.135460596098681E-002	2.4752801E-005	-7.8957534E-001	0
2.5297799E+004	6.700719851367467E+001	-7.9143482E-001	-3.128473089227581E-002	2.4759825E-005	-7.9157531E-001	0
2.5367652E+004	6.720719850862224E+001	-7.9346073E-001	-3.127844638245014E-002	2.4818219E-005	-7.9357529E-001	0
2.5331797E+004	6.740719850356982E+001	-7.9545718E-001	-3.140153107708510E-002	2.4978573E-005	-7.9557532E-001	0
2.5456773E+004	6.760719849851739E+001	-7.9745406E-001	-3.132580934739690E-002	2.4980895E-005	-7.9757529E-001	0
2.5471691E+004	6.780719849346497E+001	-7.9946077E-001	-3.138624503152639E-002	2.5092071E-005	-7.9957527E-001	0
2.5549779E+004	6.800719848841254E+001	-8.0147564E-001	-3.136918008778378E-002	2.5141633E-005	-8.0157536E-001	0
2.5536127E+004	6.820719848336012E+001	-8.0347723E-001	-3.146433334506171E-002	2.5280875E-005	-8.0357534E-001	0
2.5588861E+004	6.840719847830769E+001	-8.0546534E-001	-3.147718620110651E-002	2.5353782E-005	-8.0557531E-001	0
2.5625117E+004	6.860719847325527E+001	-8.0744195E-001	-3.150978616344829E-002	2.5442323E-005	-8.0757529E-001	0
2.5737662E+004	6.880719846820284E+001	-8.0948156E-001	-3.145124745748458E-002	2.5459205E-005	-8.0957526E-001	0
2.5793525E+004	6.900719846315042E+001	-8.1147408E-001	-3.146037852862545E-002	2.5529282E-005	-8.1157535E-001	0
2.5857910E+004	6.920719845809799E+001	-8.1344080E-001	-3.145810211596843E-002	2.5589305E-005	-8.1357533E-001	0
2.5875789E+004	6.940719845304557E+001	-8.1544983E-001	-3.151400831935608E-002	2.5698093E-005	-8.1557536E-001	0
2.5922705E+004	6.960719844799314E+001	-8.1746823E-001	-3.153483466696105E-002	2.5778725E-005	-8.1757540E-001	0
2.5875459E+004	6.980719844294072E+001	-8.1941170E-001	-3.166752373889431E-002	2.5948739E-005	-8.1957525E-001	0
2.5924686E+004	7.000719843788829E+001	-8.2148480E-001	-3.168735915796028E-002	2.6030684E-005	-8.2157534E-001	0
2.6031506E+004	7.020719843283587E+001	-8.2347524E-001	-3.163379095410279E-002	2.6049644E-005	-8.2357532E-001	0
2.6051236E+004	7.040719842778344E+001	-8.2549238E-001	-3.168726382173107E-002	2.6157595E-005	-8.2557529E-001	0
2.6154129E+004	7.060719842273102E+001	-8.2745808E-001	-3.163776062180801E-002	2.6178921E-005	-8.2757527E-001	0
2.6195084E+004	7.080719841767859E+001	-8.2958031E-001	-3.166931227764003E-002	2.6272237E-005	-8.2957536E-001	0
2.6114346E+004	7.100719841262617E+001	-8.3147424E-001	-3.183974955302760E-002	2.6473932E-005	-8.3157533E-001	0
2.6086986E+004	7.120719840757374E+001	-8.3348942E-001	-3.195039155843396E-002	2.6630314E-005	-8.3357531E-001	0
2.6136398E+004	7.140719840252132E+001	-8.3550221E-001	-3.196699949046861E-002	2.6708498E-005	-8.3557534E-001	0
2.6100252E+004	7.160719839746889E+001	-8.3753914E-001	-3.208931276016158E-002	2.6876056E-005	-8.3757532E-001	0
2.6128654E+004	7.180719839241647E+001	-8.3950740E-001	-3.212975996045936E-002	2.6973172E-005	-8.3957529E-001	0
2.6131779E+004	7.200719838736404E+001	-8.4149563E-001	-3.220200248520894E-002	2.7097845E-005	-8.4157526E-001	0
2.5992082E+004	7.220719838231162E+001	-8.4348726E-001	-3.245170052477969E-002	2.7372596E-005	-8.4357536E-001	0
2.6045678E+004	7.240719837725919E+001	-8.4546787E-001	-3.246096575731955E-002	2.7444703E-005	-8.4557533E-001	0
2.5948457E+004	7.260719837220677E+001	-8.4746170E-001	-3.265942528536603E-002	2.7677612E-005	-8.4757531E-001	0
2.5897016E+004	7.280719836715434E+001	-8.4945095E-001	-3.280111397838284E-002	2.7862938E-005	-8.4957540E-001	0
2.5294639E+004	7.300719836210192E+001	-8.5147864E-001	-3.366241661162289E-002	2.8662829E-005	-8.5157537E-001	0
2.5576242E+004	7.320719835704949E+001	-8.5347611E-001	-3.336987985258971E-002	2.8480395E-005	-8.5357523E-001	0
2.5602898E+004	7.340719835199707E+001	-8.5544676E-001	-3.341210641990086E-002	2.8582279E-005	-8.5557532E-001	0
2.5444537E+004	7.360719834694464E+001	-8.5748261E-001	-3.370006672949305E-002	2.8897221E-005	-8.5757542E-001	0
2.5336215E+004	7.380719834189222E+001	-8.5945708E-001	-3.392207947276654E-002	2.9154571E-005	-8.5957527E-001	0
2.5054508E+004	7.400719833683979E+001	-8.6148834E-001	-3.438456356947780E-002	2.9621900E-005	-8.6157531E-001	0
2.4865959E+004	7.420719833178737E+001	-8.6346865E-001	-3.472492925013898E-002	2.9983888E-005	-8.6357534E-001	0
2.4570217E+004	7.440719832673494E+001	-8.6545581E-001	-3.522377584368219E-002	3.0484622E-005	-8.6557531E-001	0
2.4189906E+004	7.460719832168252E+001	-8.6746371E-001	-3.586056505228552E-002	3.1107738E-005	-8.6757529E-001	0
2.3920785E+004	7.480719831663009E+001	-8.6947495E-001	-3.634809376434325E-002	3.1603759E-005	-8.6957532E-001	0
2.3349441E+004	7.500719831157767E+001	-8.7146807E-001	-3.732286502956694E-002	3.2525684E-005	-8.7157536E-001	0
2.2973311E+004	7.520719830652524E+001	-8.7347370E-001	-3.802123696220153E-002	3.3210552E-005	-8.7357527E-001	0
2.2510449E+004	7.540719830147282E+001	-8.7544352E-001	-3.889054045859353E-002	3.4046472E-005	-8.7557524E-001	0
2.1852398E+004	7.560719829642039E+001	-8.7750763E-001	-4.015612533757390E-002	3.5237306E-005	-8.7757540E-001	0
2.1210127E+004	7.580719829136797E+001	-8.7949246E-001	-4.146568756286562E-002	3.6468758E-005	-8.7957531E-001	0
2.0529221E+004	7.600719828631554E+001	-8.8144821E-001	-4.293627390804833E-002	3.7846101E-005	-8.8157529E-001	0
1.9720311E+004	7.620719828126312E+001	-8.8346410E-001	-4.479970586197868E-002	3.9578932E-005	-8.8357538E-001	0
1.8877279E+004	7.640719827621069E+001	-8.8547432E-001	-4.690688325682457E-002	4.1534840E-005	-8.8557535E-001	0
1.8027625E+004	7.660719827115827E+001	-8.8750446E-001	-4.923024722913505E-002	4.3692064E-005	-8.8757521E-001	0
1.6999406E+004	7.680719826610584E+001	-8.8944995E-001	-5.232241476966215E-002	4.6538171E-005	-8.8957530E-001	0
1.6146672E+004	7.700719826105342E+001	-8.9143032E-001	-5.520830190552550E-002	4.9214355E-005	-8.9157540E-001	0
1.5193555E+004	7.720719825600099E+001	-8.9347231E-001	-5.880600781509382E-002	5.2541542E-005	-8.9357525E-001	0
1.4197023E+004	7.740719825094857E+001	-8.9550483E-001	-6.307694175525602E-002	5.6485707E-005	-8.9557534E-001	0
1.3206225E+004	7.760719824589614E+001	-8.9747894E-001	-6.795878007653214E-002	6.0991573E-005	-8.9757532E-001	0
1.2188956E+004	7.780719824084372E+001	-8.9946544E-001	-7.379347807833354E-002	6.6374683E-005	-8.9957529E-001	0
1.1105015E+004	7.801719823553867E+001	-9.0159106E-001	-8.118774434381137E-002	7.3198142E-005	-9.0167534E-001	0
9.9952988E+003	7.822719823023363E+001	-9.0364450E-001	-9.040695492203527E-002	8.1695747E-005	-9.0377539E-001	0
9.1347725E+003	7.842719822518120E+001	-9.0567487E-001	-9.914586006013298E-002	8.9793917E-005	-9.0577543E-001	0
8.3155352E+003	7.862719822012878E+001	-9.0766352E-001	-1.091527448747469E-001	9.9073965E-005	-9.0777534E-001	0
7.5345703E+003	7.882719821507635E+001	-9.0965736E-001	-1.207311507251085E-001	1.0982398E-004	-9.0977532E-001	0
6.8016504E+003	7.902719821002393E+001	-9.1166633E-001	-1.340360464887214E-001	1.2219616E-004	-9.1177541E-001	0
6.1225620E+003	7.922719820497150E+001	-9.1364348E-001	-1.492256812694272E-001	1.3633908E-004	-9.1377527E-001	0
5.4581563E+003	7.942719819991908E+001	-9.1567367E-001	-1.677624574796953E-001	1.5361566E-004	-9.1577530E-001	0
4.8099951E+003	7.962719819486665E+001	-9.1768169E-001	-1.907864161207433E-001	1.7508121E-004	-9.1777533E-001	0
4.3254858E+003	7.982719818981423E+001	-9.1968161E-001	-2.126192691505739E-001	1.9554203E-004	-9.1977531E-001	0
3.8665479E+003	8.002719818476180E+001	-9.2165607E-001	-2.383666550825074E-001	2.1969207E-004	-9.2177528E-001	0
3.4430886E+003	8.022719817970938E+001	-9.2370152E-001	-2.682770090156534E-001	2.4780788E-004	-9.2377532E-001	0
3.0714324E+003	8.042719817465695E+001	-9.2566115E-001	-3.013776836942151E-001	2.7897360E-004	-9.2577529E-001	0
2.7363730E+003	8.062719816960453E+001	-9.2766094E-001	-3.390111269011169E-001	3.1448738E-004	-9.2777532E-001	0
2.3841201E+003	8.082719816455210E+001	-9.2967665E-001	-3.899453870631118E-001	3.6252313E-004	-9.2977536E-001	0
2.1283733E+003	8.102719815949968E+001	-9.3164313E-001	-4.377254141481943E-001	4.0780386E-004	-9.3177539E-001	0
1.9014054E+003	8.122719815444725E+001	-9.3364447E-001	-4.910286201877945E-001	4.5844616E-004	-9.3377531E-001	0
1.6878713E+003	8.142719814939483E+001	-9.3566239E-001	-5.543446058107566E-001	5.1867939E-004	-9.3577534E-001	0
1.4842108E+003	8.162719814434240E+001	-9.3763113E-001	-6.317371683841455E-001	5.9233641E-004	-9.3777537E-001	0
1.3343011E+003	8.182719813928998E+001	-9.3965495E-001	-7.042300275858508E-001	6.6173321E-004	-9.3977541E-001	0
1.1779852E+003	8.202719813423755E+001	-9.4167930E-001	-7.993981835227507E-001	7.5277674E-004	-9.4177532E-001	0
1.0585531E+003	8.222719812918513E+001	-9.4366926E-001	-8.914709113487576E-001	8.4125367E-004	-9.4377530E-001	0
9.4052789E+002	8.242719812413270E+001	-9.4567651E-001	-1.005474180422397E+000	9.5085328E-004	-9.4577539E-001	0
8.4630487E+002	8.263719811882766E+001	-9.4771922E-001	-1.119831955080528E+000	1.0612863E-003	-9.4787544E-001	0
7.5058282E+002	8.284719811352261E+001	-9.4985276E-001	-1.265486966877702E+000	1.2020263E-003	-9.4997537E-001	0
6.7508948E+002	8.304719810847018E+001	-9.5184916E-001	-1.409959974785306E+000	1.3420692E-003	-9.5197535E-001	0
6.1013831E+002	8.324719810341776E+001	-9.5383638E-001	-1.563311724511738E+000	1.4911436E-003	-9.5397532E-001	0
5.5242694E+002	8.344719809836533E+001	-9.5586240E-001	-1.730296406768215E+000	1.6539253E-003	-9.5597535E-001	0
5.0014291E+002	8.364719809331291E+001	-9.5787203E-001	-1.915196704418470E+000	1.8345134E-003	-9.5797539E-001	0
4.5426303E+002	8.384719808826048E+001	-9.5984828E-001	-2.112979135664006E+000	2.0281393E-003	-9.5997542E-001	0
4.1374319E+002	8.404719808320806E+001	-9.6185547E-001	-2.324764529509206E+000	2.2360876E-003	-9.6197534E-001	0
3.7819150E+002	8.424719807815563E+001	-9.6386653E-001	-2.548620224151077E+000	2.4565298E-003	-9.6397531E-001	0
3.4682288E+002	8.444719807310321E+001	-9.6584415E-001	-2.784834022323281E+000	2.6897157E-003	-9.6597540E-001	0
3.1831888E+002	8.464719806805078E+001	-9.6787816E-001	-3.040592887048129E+000	2.9429235E-003	-9.6797526E-001	0
2.9276837E+002	8.484719806299836E+001	-9.6989822E-001	-3.312851798169469E+000	3.2131290E-003	-9.6997529E-001	0
2.7088870E+002	8.504719805794593E+001	-9.7187263E-001	-3.587719355141772E+000	3.4868063E-003	-9.7197533E-001	0
2.5045016E+002	8.524719805289351E+001	-9.7386718E-001	-3.888466918887460E+000	3.7868503E-003	-9.7397530E-001	0
2.3259749E+002	8.544719804784108E+001	-9.7583300E-001	-4.195372160160904E+000	4.0939827E-003	-9.7597533E-001	0
2.1593533E+002	8.564719804278866E+001	-9.7789472E-001	-4.528646122334749E+000	4.4285390E-003	-9.7797531E-001	0
2.0141696E+002	8.584719803773623E+001	-9.7983176E-001	-4.864693278493256E+000	4.7665811E-003	-9.7997534E-001	0
1.8816412E+002	8.604719803268381E+001	-9.8186374E-001	-5.218124239994808E+000	5.1234867E-003	-9.8197532E-001	0
1.7613345E+002	8.624719802763138E+001	-9.8380804E-001	-5.585582938425418E+000	5.4951413E-003	-9.8397535E-001	0
1.6527473E+002	8.644719802257896E+001	-9.8583597E-001	-5.964831515842548E+000	5.8803456E-003	-9.8597538E-001	0
1.5532649E+002	8.664719801752653E+001	-9.8786199E-001	-6.359906636904974E+000	6.2827100E-003	-9.8797530E-001	0
1.4616216E+002	8.684719801247411E+001	-9.8982495E-001	-6.772101511017269E+000	6.7031952E-003	-9.8997527E-001	0
1.3804422E+002	8.704719800742168E+001	-9.9185497E-001	-7.185052783513562E+000	7.1265302E-003	-9.9197537E-001	0
1.3040030E+002	8.724719800236926E+001	-9.9385232E-001	-7.621548940602864E+000	7.5746942E-003	-9.9397534E-001	0
1.2340240E+002	8.744719799731683E+001	-9.9583608E-001	-8.069827106196309E+000	8.0362251E-003	-9.9597526E-001	0
1.1705866E+002	8.764719799226441E+001	-9.9789244E-001	-8.524721256999968E+000	8.5067553E-003	-9.9797529E-001	0
1.1123981E+002	8.784719798721198E+001	-9.9988067E-001	-8.988514697740925E+000	8.9874417E-003	-9.9997526E-001	0
1.0579458E+002	8.804719798215956E+001	-1.0018841E+000	-9.470089599659133E+000	9.4879325E-003	-1.0019753E+000	0
1.0072276E+002	8.824719797710713E+001	-1.0039169E+000	-9.967130466383296E+000	1.0006171E-002	-1.0039753E+000	0
9.6119453E+001	8.844719797205471E+001	-1.0059069E+000	-1.046517566650633E+001	1.0526992E-002	-1.0059754E+000	0
9.1546432E+001	8.865719796674966E+001	-1.0080146E+000	-1.101096473944438E+001	1.1099213E-002	-1.0080754E+000	0
8.7252113E+001	8.886719796144462E+001	-1.0100708E+000	-1.157646233066410E+001	1.1693046E-002	-1.0101753E+000	0
8.3546364E+001	8.906719795639219E+001	-1.0120673E+000	-1.211384063749625E+001	1.2260023E-002	-1.0121753E+000	0
8.0055870E+001	8.926719795133977E+001	-1.0141079E+000	-1.266750252111699E+001	1.2846215E-002	-1.0141754E+000	0
7.6764221E+001	8.946719794628734E+001	-1.0161213E+000	-1.323691238391973E+001	1.3450308E-002	-1.0161754E+000	0
7.3736832E+001	8.966719794123492E+001	-1.0180514E+000	-1.380655233916787E+001	1.4055780E-002	-1.0181754E+000	0
7.0864914E+001	8.986719793618249E+001	-1.0200858E+000	-1.439479368343915E+001	1.4683925E-002	-1.0201753E+000	0
6.8166130E+001	9.006719793113007E+001	-1.0220535E+000	-1.499356831647370E+001	1.5324228E-002	-1.0221752E+000	0
6.5667694E+001	9.026719792607764E+001	-1.0240937E+000	-1.559509227429930E+001	1.5970837E-002	-1.0241753E+000	0
6.3309429E+001	9.046719792102522E+001	-1.0260485E+000	-1.620688375972566E+001	1.6629050E-002	-1.0261754E+000	0
6.1018612E+001	9.066719791597279E+001	-1.0280625E+000	-1.684834252085000E+001	1.7321149E-002	-1.0281752E+000	0
5.8856022E+001	9.086719791092037E+001	-1.0300971E+000	-1.750198402102032E+001	1.8028744E-002	-1.0301752E+000	0
5.6827587E+001	9.106719790586794E+001	-1.0320548E+000	-1.816115810717059E+001	1.8743310E-002	-1.0321753E+000	0
5.4932602E+001	9.126719790081552E+001	-1.0341085E+000	-1.882504209815244E+001	1.9467136E-002	-1.0341753E+000	0
5.3152245E+001	9.146719789576309E+001	-1.0360582E+000	-1.949227556174034E+001	2.0195132E-002	-1.0361754E+000	0
5.1464024E+001	9.166719789071067E+001	-1.0380381E+000	-2.017016996318253E+001	2.0937406E-002	-1.0381752E+000	0
4.9849277E+001	9.186719788565824E+001	-1.0400964E+000	-2.086482384037271E+001	2.1701429E-002	-1.0401752E+000	0
4.8300190E+001	9.206719788060582E+001	-1.0420736E+000	-2.157493834525280E+001	2.2482675E-002	-1.0421753E+000	0
4.6833870E+001	9.226719787555339E+001	-1.0440753E+000	-2.229316603258906E+001	2.3275742E-002	-1.0441753E+000	0
4.5446934E+001	9.246719787050097E+001	-1.0460942E+000	-2.301792641615930E+001	2.4078919E-002	-1.0461754E+000	0
4.4127792E+001	9.266719786544854E+001	-1.0480750E+000	-2.375090504044039E+001	2.4892729E-002	-1.0481753E+000	0
4.2843872E+001	9.286719786039612E+001	-1.0501221E+000	-2.451044068679788E+001	2.5738956E-002	-1.0501753E+000	0
4.1632717E+001	9.306719785534369E+001	-1.0521097E+000	-2.527122464566531E+001	2.6588101E-002	-1.0521753E+000	0
4.0505978E+001	9.326719785029127E+001	-1.0540675E+000	-2.602251722455844E+001	2.7429489E-002	-1.0541754E+000	0
3.9444504E+001	9.346719784523884E+001	-1.0560706E+000	-2.677357864379891E+001	2.8274788E-002	-1.0561754E+000	0
3.8420849E+001	9.366719784018642E+001	-1.0580970E+000	-2.753965822233897E+001	2.9139630E-002	-1.0581753E+000	0
3.7439426E+001	9.386719783513399E+001	-1.0600917E+000	-2.831484979296475E+001	3.0016338E-002	-1.0601753E+000	0
3.6511600E+001	9.406719783008157E+001	-1.0621059E+000	-2.908954697887907E+001	3.0896179E-002	-1.0621753E+000	0
3.5601971E+001	9.426719782502914E+001	-1.0641026E+000	-2.988886970673553E+001	3.1804826E-002	-1.0641754E+000	0
3.4731342E+001	9.446719781997672E+001	-1.0660715E+000	-3.069479888826271E+001	3.2722849E-002	-1.0661753E+000	0
3.3909779E+001	9.466719781492429E+001	-1.0680813E+000	-3.149773589499686E+001	3.3642143E-002	-1.0681753E+000	0
3.3097160E+001	9.486719780987187E+001	-1.0700419E+000	-3.233032231076768E+001	3.4594800E-002	-1.0701753E+000	0
3.2344902E+001	9.506719780481944E+001	-1.0720377E+000	-3.314394485355785E+001	3.5531558E-002	-1.0721753E+000	0
3.1595343E+001	9.526719779976702E+001	-1.0740682E+000	-3.399451051223299E+001	3.6512423E-002	-1.0741754E+000	0
3.0875019E+001	9.546719779471459E+001	-1.0761112E+000	-3.485378293061194E+001	3.7506547E-002	-1.0761753E+000	0
3.0194864E+001	9.566719778966217E+001	-1.0780667E+000	-3.570364395696289E+001	3.8490910E-002	-1.0781753E+000	0
2.9571712E+001	9.586719778460974E+001	-1.0801045E+000	-3.652492027434084E+001	3.9450731E-002	-1.0801754E+000	0
2.8931515E+001	9.606719777955732E+001	-1.0820900E+000	-3.740177664383748E+001	4.0472090E-002	-1.0821754E+000	0
2.8327917E+001	9.626719777450489E+001	-1.0841038E+000	-3.826980313503293E+001	4.1488439E-002	-1.0841753E+000	0
2.7763283E+001	9.646719776945247E+001	-1.0861201E+000	-3.912073864093441E+001	4.2489823E-002	-1.0861754E+000	0
2.7225824E+001	9.666719776440004E+001	-1.0881207E+000	-3.996649163001788E+001	4.3488368E-002	-1.0881754E+000	0
2.6700602E+001	9.686719775934762E+001	-1.0901630E+000	-4.082915479958463E+001	4.4510435E-002	-1.0901753E+000	0
2.6175472E+001	9.706719775429519E+001	-1.0921357E+000	-4.172362943760669E+001	4.5567863E-002	-1.0921754E+000	0
2.5669477E+001	9.726719774924277E+001	-1.0941261E+000	-4.262362222525530E+001	4.6635617E-002	-1.0941753E+000	0
2.5203667E+001	9.746719774419034E+001	-1.0960884E+000	-4.348924514576970E+001	4.7668058E-002	-1.0961754E+000	0
2.4739878E+001	9.766719773913792E+001	-1.0980821E+000	-4.438510501438795E+001	4.8738487E-002	-1.0981754E+000	0
2.4197435E+001	9.786719773408549E+001	-1.1000830E+000	-4.546279400168100E+001	5.0012846E-002	-1.1001753E+000	0
2.3744873E+001	9.806719772903307E+001	-1.1020948E+000	-4.641401070586130E+001	5.1152639E-002	-1.1021754E+000	0
2.3349775E+001	9.826719772398064E+001	-1.1040703E+000	-4.728397895662704E+001	5.2204836E-002	-1.1041753E+000	0
2.2946136E+001	9.846719771892822E+001	-1.1060594E+000	-4.820242590590669E+001	5.3314749E-002	-1.1061753E+000	0
2.2488707E+001	9.866719771387579E+001	-1.1080714E+000	-4.927235264032083E+001	5.4597288E-002	-1.1081754E+000	0
2.2137514E+001	9.886719770882337E+001	-1.1101086E+000	-5.014603953053370E+001	5.5667549E-002	-1.1101754E+000	0
2.1786015E+001	9.906719770377094E+001	-1.1120644E+000	-5.104487196388152E+001	5.6765184E-002	-1.1121752E+000	0
2.1444899E+001	9.926719769871852E+001	-1.1141479E+000	-5.195398430272814E+001	5.7884421E-002	-1.1141753E+000	0
2.1104164E+001	9.946719769366609E+001	-1.1160896E+000	-5.288480296264692E+001	5.9024177E-002	-1.1161754E+000	0
2.0815596E+001	9.966719768861367E+001	-1.1181213E+000	-5.371555543594616E+001	6.0060505E-002	-1.1181753E+000	0
2.0526695E+001	9.986719768356124E+001	-1.1200992E+000	-5.456792798063893E+001	6.1121494E-002	-1.1201754E+000	0
2.0225859E+001	1.000671976785088E+002	-1.1220607E+000	-5.547654155214343E+001	6.2248044E-002	-1.1221753E+000	0
1.9897739E+001	1.002671976734564E+002	-1.1241217E+000	-5.649494365067198E+001	6.3507192E-002	-1.1241754E+000	0
1.9525164E+001	1.004671976684040E+002	-1.1261075E+000	-5.767467376596551E+001	6.4947881E-002	-1.1261754E+000	0
1.9152803E+001	1.006671976633515E+002	-1.1281033E+000	-5.890016340668785E+001	6.6445470E-002	-1.1281753E+000	0
1.8830193E+001	1.008671976582991E+002	-1.1301209E+000	-6.001642385686068E+001	6.7825817E-002	-1.1301752E+000	0
1.8577251E+001	1.010671976532467E+002	-1.1321193E+000	-6.094116389670353E+001	6.8992667E-002	-1.1321753E+000	0
1.8284903E+001	1.012671976481943E+002	-1.1340783E+000	-6.202265515349106E+001	7.0338547E-002	-1.1341753E+000	0
1.8074701E+001	1.014671976431418E+002	-1.1361250E+000	-6.285719432636199E+001	7.1413629E-002	-1.1361754E+000	0
1.7834127E+001	1.016671976380894E+002	-1.1380628E+000	-6.381376711635659E+001	7.2624080E-002	-1.1381754E+000	0
1.7496021E+001	1.018671976330370E+002	-1.1401076E+000	-6.516382083168401E+001	7.4293770E-002	-1.1401753E+000	0
1.7276396E+001	1.020671976279846E+002	-1.1420835E+000	-6.610658476574349E+001	7.5499244E-002	-1.1421753E+000	0
1.7002542E+001	1.022671976229321E+002	-1.1441146E+000	-6.729079577387574E+001	7.6988384E-002	-1.1441754E+000	0
1.6622164E+001	1.024671976178797E+002	-1.1460640E+000	-6.894794715559169E+001	7.9018764E-002	-1.1461754E+000	0
1.6400610E+001	1.026671976128273E+002	-1.1481227E+000	-7.000487574157808E+001	8.0374181E-002	-1.1481754E+000	0
1.6124266E+001	1.028671976077749E+002	-1.1500927E+000	-7.132682583337441E+001	8.2032464E-002	-1.1501753E+000	0
1.5845263E+001	1.030671976027224E+002	-1.1521355E+000	-7.271166885683044E+001	8.3773695E-002	-1.1521753E+000	0
1.5512030E+001	1.032671975976700E+002	-1.1541467E+000	-7.440333024120150E+001	8.5872360E-002	-1.1541754E+000	0
1.5275674E+001	1.034671975926176E+002	-1.1561592E+000	-7.568629423561035E+001	8.7505400E-002	-1.1561754E+000	0
1.4864559E+001	1.036671975875652E+002	-1.1582174E+000	-7.791804533804893E+001	9.0246037E-002	-1.1581753E+000	0
1.4634143E+001	1.038671975825127E+002	-1.1601648E+000	-7.927794757073127E+001	9.1975488E-002	-1.1601753E+000	0
1.4474880E+001	1.040671975774603E+002	-1.1622027E+000	-8.029100915093557E+001	9.3314432E-002	-1.1621753E+000	0
1.4306863E+001	1.042671975724079E+002	-1.1641891E+000	-8.137277233411380E+001	9.4733298E-002	-1.1641754E+000	0
1.4114377E+001	1.044671975673555E+002	-1.1662366E+000	-8.262756918941773E+001	9.6363299E-002	-1.1661754E+000	0
1.3934659E+001	1.046671975623030E+002	-1.1682019E+000	-8.383426547266754E+001	9.7935349E-002	-1.1681753E+000	0
1.3773684E+001	1.048671975572506E+002	-1.1702048E+000	-8.495946261509744E+001	9.9419966E-002	-1.1701753E+000	0
1.3653021E+001	1.050671975521982E+002	-1.1722093E+000	-8.585713338635708E+001	1.0064252E-001	-1.1721754E+000	0
1.3502650E+001	1.052671975471458E+002	-1.1741550E+000	-8.695737313953885E+001	1.0210144E-001	-1.1741754E+000	0
1.3321842E+001	1.054671975420933E+002	-1.1760627E+000	-8.828078463666824E+001	1.0382374E-001	-1.1761754E+000	0
1.3076365E+001	1.056671975370409E+002	-1.1780922E+000	-9.009324747202322E+001	1.0613815E-001	-1.1781753E+000	0
1.2909454E+001	1.058671975319885E+002	-1.1801656E+000	-9.141870787462676E+001	1.0788922E-001	-1.1801752E+000	0
1.2794471E+001	1.060671975269361E+002	-1.1821922E+000	-9.239868228559845E+001	1.0923300E-001	-1.1821753E+000	0
1.2690737E+001	1.062671975218836E+002	-1.1842513E+000	-9.331619599616943E+001	1.1050983E-001	-1.1841754E+000	0
1.2579664E+001	1.064671975168312E+002	-1.1862216E+000	-9.429676477709063E+001	1.1185686E-001	-1.1861755E+000	0
1.2399815E+001	1.066671975117788E+002	-1.1881673E+000	-9.582137696164546E+001	1.1385183E-001	-1.1881753E+000	0
1.2251221E+001	1.068671975067264E+002	-1.1902263E+000	-9.715165012385569E+001	1.1563245E-001	-1.1901753E+000	0
1.2057531E+001	1.070671975016739E+002	-1.1921959E+000	-9.887562101065714E+001	1.1787911E-001	-1.1921754E+000	0
1.1912222E+001	1.072671974966215E+002	-1.1941931E+000	-1.002494000761417E+002	1.1971714E-001	-1.1941754E+000	0
1.1746631E+001	1.074671974915691E+002	-1.1961703E+000	-1.018309268583790E+002	1.2180714E-001	-1.1961752E+000	0
1.1571462E+001	1.076671974865167E+002	-1.1982335E+000	-1.035507436231153E+002	1.2407797E-001	-1.1981753E+000	0
1.1372466E+001	1.078671974814642E+002	-1.2002728E+000	-1.055419954799468E+002	1.2667918E-001	-1.2001753E+000	0
1.1255270E+001	1.080671974764118E+002	-1.2022842E+000	-1.068196730592084E+002	1.2842761E-001	-1.2021753E+000	0
1.1056363E+001	1.082771974711068E+002	-1.2043315E+000	-1.089265499132505E+002	1.3118368E-001	-1.2042754E+000	0
1.0776068E+001	1.084871974658017E+002	-1.2063048E+000	-1.119429430226348E+002	1.3503730E-001	-1.2063754E+000	0
1.0660401E+001	1.086871974607493E+002	-1.2082740E+000	-1.133422613933241E+002	1.3694851E-001	-1.2083753E+000	0
1.0475198E+001	1.088871974556969E+002	-1.2103194E+000	-1.155414364451452E+002	1.3984205E-001	-1.2103753E+000	0
1.0218981E+001	1.090871974506445E+002	-1.2123433E+000	-1.186364274489912E+002	1.4382808E-001	-1.2123754E+000	0
1.0138595E+001	1.092871974455920E+002	-1.2143670E+000	-1.197766675246280E+002	1.4545284E-001	-1.2143754E+000	0
9.8460493E+000	1.094871974405396E+002	-1.2163405E+000	-1.235358991752676E+002	1.5026173E-001	-1.2163752E+000	0
9.7245750E+000	1.096871974354872E+002	-1.2183272E+000	-1.252833303551020E+002	1.5263608E-001	-1.2183753E+000	0
9.6301460E+000	1.098871974304348E+002	-1.2204050E+000	-1.267275660821908E+002	1.5465896E-001	-1.2203753E+000	0
9.2650290E+000	1.100871974253823E+002	-1.2223971E+000	-1.319366767271308E+002	1.6127901E-001	-1.2223753E+000	0
9.0717001E+000	1.102871974203299E+002	-1.2244108E+000	-1.349703776420106E+002	1.6525918E-001	-1.2243754E+000	0
9.0360823E+000	1.104871974152775E+002	-1.2263744E+000	-1.357197069072945E+002	1.6644317E-001	-1.2263753E+000	0
8.9799700E+000	1.106871974102251E+002	-1.2284034E+000	-1.367937119034141E+002	1.6803786E-001	-1.2283753E+000	0
8.8811016E+000	1.108871974051726E+002	-1.2304040E+000	-1.385418221836999E+002	1.7046241E-001	-1.2303753E+000	0
8.8331461E+000	1.110871974001202E+002	-1.2323890E+000	-1.395186921301345E+002	1.7194130E-001	-1.2323754E+000	0
8.7273092E+000	1.112871973950678E+002	-1.2343677E+000	-1.414373813940554E+002	1.7458574E-001	-1.2343754E+000	0
8.7076530E+000	1.114871973900154E+002	-1.2363639E+000	-1.419858964284258E+002	1.7554623E-001	-1.2363753E+000	0
8.6784725E+000	1.116871973849629E+002	-1.2383288E+000	-1.426897168981254E+002	1.7669679E-001	-1.2383753E+000	0
8.6604919E+000	1.118871973799105E+002	-1.2403320E+000	-1.432172741576387E+002	1.7763697E-001	-1.2403753E+000	0
8.6426144E+000	1.120871973748581E+002	-1.2423292E+000	-1.437446169366642E+002	1.7857814E-001	-1.2423754E+000	0
8.5048971E+000	1.122871973698057E+002	-1.2443240E+000	-1.463067587811383E+002	1.8205300E-001	-1.2443753E+000	0
8.4011097E+000	1.124871973647532E+002	-1.2463398E+000	-1.483541851854648E+002	1.8489973E-001	-1.2463753E+000	0
8.3225851E+000	1.126871973597008E+002	-1.2483231E+000	-1.499922300909652E+002	1.8723877E-001	-1.2483754E+000	0
8.2574358E+000	1.128871973546484E+002	-1.2503147E+000	-1.514168278300579E+002	1.8931869E-001	-1.2503753E+000	0
8.1771221E+000	1.130871973495960E+002	-1.2523912E+000	-1.531579429297760E+002	1.9181366E-001	-1.2523754E+000	0
8.1240950E+000	1.132871973445435E+002	-1.2543652E+000	-1.544006025850636E+002	1.9367474E-001	-1.2543755E+000	0
7.9868937E+000	1.134871973394911E+002	-1.2563697E+000	-1.573039198927322E+002	1.9763188E-001	-1.2563754E+000	0
7.9354072E+000	1.136871973344387E+002	-1.2584267E+000	-1.585837567636485E+002	1.9956602E-001	-1.2583753E+000	0
7.9178872E+000	1.138871973293863E+002	-1.2604382E+000	-1.591887056541011E+002	2.0064753E-001	-1.2603754E+000	0
7.5738120E+000	1.140871973243338E+002	-1.2623996E+000	-1.666795501362980E+002	2.1041618E-001	-1.2623754E+000	0
7.3370829E+000	1.142871973192814E+002	-1.2643139E+000	-1.723183435355723E+002	2.1786448E-001	-1.2643754E+000	0
7.1871691E+000	1.144871973142290E+002	-1.2663184E+000	-1.761915437099349E+002	2.2311459E-001	-1.2663754E+000	0
7.1437306E+000	1.146871973091766E+002	-1.2683908E+000	-1.775529908333779E+002	2.2520657E-001	-1.2683753E+000	0
7.0002460E+000	1.148871973041241E+002	-1.2704061E+000	-1.814802051693405E+002	2.3055357E-001	-1.2703753E+000	0
6.8208084E+000	1.150871972990717E+002	-1.2724261E+000	-1.865506381858786E+002	2.3737191E-001	-1.2723755E+000	0
6.8006301E+000	1.152871972940193E+002	-1.2743826E+000	-1.873918372498088E+002	2.3880890E-001	-1.2743754E+000	0
6.7672997E+000	1.154871972889669E+002	-1.2764047E+000	-1.886135917834413E+002	2.4074729E-001	-1.2763754E+000	0
6.7094345E+000	1.156871972839144E+002	-1.2784050E+000	-1.905384083713268E+002	2.4358524E-001	-1.2783754E+000	0
6.6321306E+000	1.158871972788620E+002	-1.2804016E+000	-1.930603721395919E+002	2.4719481E-001	-1.2803754E+000	0
6.6108236E+000	1.160871972738096E+002	-1.2823441E+000	-1.939764437610595E+002	2.4874455E-001	-1.2823755E+000	0
6.6174774E+000	1.162871972687572E+002	-1.2843683E+000	-1.940872934637698E+002	2.4927956E-001	-1.2843754E+000	0
6.5722690E+000	1.164871972637047E+002	-1.2864106E+000	-1.957330952361060E+002	2.5179312E-001	-1.2863753E+000	0
6.5202947E+000	1.166871972586523E+002	-1.2884693E+000	-1.976090623613381E+002	2.5461322E-001	-1.2883754E+000	0
6.4996219E+000	1.168871972535999E+002	-1.2904370E+000	-1.985403235061358E+002	2.5620377E-001	-1.2903752E+000	0
6.4203835E+000	1.170871972485475E+002	-1.2923460E+000	-2.012879790048748E+002	2.6013371E-001	-1.2923753E+000	0
6.3880773E+000	1.172871972434950E+002	-1.2943146E+000	-2.026141078585679E+002	2.6224640E-001	-1.2943754E+000	0
6.3495007E+000	1.174871972384426E+002	-1.2963552E+000	-2.041664875380848E+002	2.6467231E-001	-1.2963753E+000	0
6.2979155E+000	1.176871972333902E+002	-1.2983629E+000	-2.061575553444236E+002	2.6766732E-001	-1.2983752E+000	0
6.2272606E+000	1.178871972283378E+002	-1.3003522E+000	-2.088160855883642E+002	2.7153447E-001	-1.3003753E+000	0
6.1397204E+000	1.180871972232853E+002	-1.3023139E+000	-2.121129069533754E+002	2.7623761E-001	-1.3023753E+000	0
6.0205159E+000	1.182871972182329E+002	-1.3043834E+000	-2.166564114023513E+002	2.8260303E-001	-1.3043754E+000	0
6.0006080E+000	1.184871972131805E+002	-1.3063830E+000	-2.177084429518163E+002	2.8441063E-001	-1.3063754E+000	0
5.9997182E+000	1.186871972081281E+002	-1.3083991E+000	-2.180767494058937E+002	2.8533143E-001	-1.3083754E+000	0
5.9517951E+000	1.188871972030756E+002	-1.3104130E+000	-2.201710471631177E+002	2.8851500E-001	-1.3103753E+000	0
5.8165865E+000	1.190871971980232E+002	-1.3124164E+000	-2.256334464598667E+002	2.9612505E-001	-1.3123753E+000	0
5.7250857E+000	1.192871971929708E+002	-1.3144445E+000	-2.295938654897432E+002	3.0178839E-001	-1.3143754E+000	0
5.6905074E+000	1.194871971879184E+002	-1.3164415E+000	-2.313399163719737E+002	3.0454546E-001	-1.3163754E+000	0
5.6808090E+000	1.196871971828659E+002	-1.3184038E+000	-2.320802974614426E+002	3.0597556E-001	-1.3183753E+000	0
5.6376891E+000	1.198871971778135E+002	-1.3204031E+000	-2.342099953324882E+002	3.0925161E-001	-1.3203753E+000	0
5.5515800E+000	1.200871971727611E+002	-1.3224558E+000	-2.382125143172234E+002	3.1502551E-001	-1.3223754E+000	0
5.4240232E+000	1.202871971677087E+002	-1.3243862E+000	-2.441704606577382E+002	3.2337600E-001	-1.3243754E+000	0
5.4142795E+000	1.204871971626562E+002	-1.3263955E+000	-2.449809759620093E+002	3.2494166E-001	-1.3263754E+000	0
5.4175687E+000	1.206871971576038E+002	-1.3284143E+000	-2.452048845788513E+002	3.2573369E-001	-1.3283753E+000	0
5.4319477E+000	1.208871971525514E+002	-1.3304144E+000	-2.449240100021528E+002	3.2585043E-001	-1.3303753E+000	0
5.3981438E+000	1.210871971474990E+002	-1.3324150E+000	-2.468283684118543E+002	3.2887781E-001	-1.3323754E+000	0
5.3733549E+000	1.212871971424465E+002	-1.3343916E+000	-2.483349059444440E+002	3.3137602E-001	-1.3343754E+000	0
5.3213663E+000	1.214871971373941E+002	-1.3364077E+000	-2.511399533689145E+002	3.3562535E-001	-1.3363754E+000	0
5.2888474E+000	1.216871971323417E+002	-1.3384312E+000	-2.530667041164402E+002	3.3871239E-001	-1.3383753E+000	0
5.2222552E+000	1.218871971272893E+002	-1.3404123E+000	-2.566730655142510E+002	3.4404773E-001	-1.3403754E+000	0
5.1254101E+000	1.220871971222368E+002	-1.3424187E+000	-2.619144041294949E+002	3.5159880E-001	-1.3423754E+000	0
5.1249142E+000	1.222871971171844E+002	-1.3444406E+000	-2.623342676919610E+002	3.5269284E-001	-1.3443755E+000	0
5.1408434E+000	1.224871971121320E+002	-1.3464330E+000	-2.619089732656671E+002	3.5264289E-001	-1.3463753E+000	0
5.1419239E+000	1.226871971070796E+002	-1.3484178E+000	-2.622399290262171E+002	3.5360897E-001	-1.3483753E+000	0
5.1233134E+000	1.228871971020271E+002	-1.3504816E+000	-2.635953600379621E+002	3.5598069E-001	-1.3503753E+000	0
5.1295214E+000	1.230871970969747E+002	-1.3524674E+000	-2.636634766368898E+002	3.5659626E-001	-1.3523754E+000	0
5.1214118E+000	1.232871970919223E+002	-1.3544220E+000	-2.644626125370285E+002	3.5819396E-001	-1.3543754E+000	0
5.0025864E+000	1.234871970868699E+002	-1.3564384E+000	-2.711474305539972E+002	3.6779478E-001	-1.3563753E+000	0
4.8348231E+000	1.236871970818174E+002	-1.3584877E+000	-2.809798058793122E+002	3.8170761E-001	-1.3583753E+000	0
4.7402382E+000	1.238871970767650E+002	-1.3604262E+000	-2.869953095896717E+002	3.9043593E-001	-1.3603753E+000	0
4.7026486E+000	1.240873970717075E+002	-1.3625158E+000	-2.897337007458548E+002	3.9476675E-001	-1.3623769E+000	0
4.7092705E+000	1.242875970666501E+002	-1.3644708E+000	-2.897414575347543E+002	3.9534378E-001	-1.3643794E+000	0
4.4760103E+000	1.244877970615926E+002	-1.3664750E+000	-3.052886110780642E+002	4.1716924E-001	-1.3663808E+000	0
4.3328381E+000	1.246879970565351E+002	-1.3684649E+000	-3.158357184691922E+002	4.3221012E-001	-1.3683829E+000	0
4.3400321E+000	1.248881970514776E+002	-1.3704574E+000	-3.157712616812541E+002	4.3275106E-001	-1.3703848E+000	0
4.3791752E+000	1.250887970464100E+002	-1.3725123E+000	-3.134180046361935E+002	4.3017009E-001	-1.3723907E+000	0
4.4164972E+000	1.252890970413500E+002	-1.3744977E+000	-3.112189415759722E+002	4.2776969E-001	-1.3743941E+000	0
4.3880610E+000	1.254893970362900E+002	-1.3764697E+000	-3.136851875468956E+002	4.3177816E-001	-1.3763968E+000	0
4.2571402E+000	1.256896970312300E+002	-1.3784627E+000	-3.238001720388289E+002	4.4634646E-001	-1.3784001E+000	0
4.2748895E+000	1.258898970261725E+002	-1.3804749E+000	-3.229264464873495E+002	4.4579187E-001	-1.3804021E+000	0
4.2907181E+000	1.260900970211151E+002	-1.3825048E+000	-3.222082498070019E+002	4.4545445E-001	-1.3824040E+000	0
4.2339439E+000	1.262902970160576E+002	-1.3845181E+000	-3.270043612579659E+002	4.5274347E-001	-1.3844061E+000	0
4.2512059E+000	1.264904970110001E+002	-1.3865323E+000	-3.261503668142473E+002	4.5221803E-001	-1.3864080E+000	0
4.2169619E+000	1.266906970059426E+002	-1.3884462E+000	-3.292527489093973E+002	4.5714974E-001	-1.3884100E+000	0
4.0920591E+000	1.268908970008852E+002	-1.3905405E+000	-3.398143679166719E+002	4.7252563E-001	-1.3904122E+000	0
4.0742559E+000	1.270911969958252E+002	-1.3925519E+000	-3.417929480411476E+002	4.7596443E-001	-1.3924149E+000	0
4.0822740E+000	1.272913969907677E+002	-1.3945755E+000	-3.416173177944029E+002	4.7641113E-001	-1.3944174E+000	0
4.0952358E+000	1.274915969857102E+002	-1.3965659E+000	-3.410220864039011E+002	4.7625983E-001	-1.3964189E+000	0
4.0474277E+000	1.276919969806477E+002	-1.3985142E+000	-3.455316066151145E+002	4.8323083E-001	-1.3984233E+000	0
4.0011311E+000	1.278921969755902E+002	-1.4005159E+000	-3.500299971614605E+002	4.9022257E-001	-1.4004250E+000	0
4.0072227E+000	1.280924969705302E+002	-1.4025623E+000	-3.500085827213888E+002	4.9090883E-001	-1.4024282E+000	0
3.9914117E+000	1.282925969654752E+002	-1.4045718E+000	-3.518984966472700E+002	4.9426669E-001	-1.4044294E+000	0
3.9018486E+000	1.284926969604203E+002	-1.4065881E+000	-3.604927358967964E+002	5.0706476E-001	-1.4064302E+000	0
3.6696789E+000	1.286929969553603E+002	-1.4085685E+000	-3.838396995597341E+002	5.4066449E-001	-1.4084328E+000	0
3.6772578E+000	1.288929969503079E+002	-1.4105296E+000	-3.835819245401181E+002	5.4105365E-001	-1.4104334E+000	0
3.6748223E+000	1.290931969452504E+002	-1.4125624E+000	-3.843892932831195E+002	5.4297388E-001	-1.4124348E+000	0
3.6836352E+000	1.292934969401904E+002	-1.4145265E+000	-3.840028624110191E+002	5.4318219E-001	-1.4144382E+000	0
3.7130845E+000	1.294935969351354E+002	-1.4165906E+000	-3.815131571773036E+002	5.4044795E-001	-1.4164389E+000	0
3.7270367E+000	1.296936969300805E+002	-1.4185134E+000	-3.806008678641570E+002	5.3988743E-001	-1.4184402E+000	0
3.7579942E+000	1.298938969250230E+002	-1.4205449E+000	-3.780061441612452E+002	5.3697467E-001	-1.4204421E+000	0
3.7670255E+000	1.300940969199655E+002	-1.4225469E+000	-3.776313326981199E+002	5.3719825E-001	-1.4224440E+000	0
3.7604246E+000	1.302941969149106E+002	-1.4245498E+000	-3.788268522664812E+002	5.3965771E-001	-1.4244454E+000	0
3.7486989E+000	1.304944969098506E+002	-1.4265387E+000	-3.805423380655229E+002	5.4285836E-001	-1.4264477E+000	0
3.6395111E+000	1.306948969047880E+002	-1.4285749E+000	-3.925183562817474E+002	5.6074190E-001	-1.4284523E+000	0
3.5705323E+000	1.308952968997255E+002	-1.4305717E+000	-4.006606112242303E+002	5.7317370E-001	-1.4304557E+000	0
3.5709894E+000	1.310955968946655E+002	-1.4326223E+000	-4.011835792882885E+002	5.7474452E-001	-1.4324592E+000	0
3.5846024E+000	1.312956968896106E+002	-1.4345913E+000	-4.002093376050834E+002	5.7413685E-001	-1.4344602E+000	0
3.5836036E+000	1.314957968845556E+002	-1.4365884E+000	-4.008781641010801E+002	5.7589692E-001	-1.4364613E+000	0
3.5747318E+000	1.316960968794956E+002	-1.4386185E+000	-4.024409643646995E+002	5.7895905E-001	-1.4384642E+000	0
3.5479131E+000	1.318962968744381E+002	-1.4406567E+000	-4.060574741499713E+002	5.8498943E-001	-1.4404662E+000	0
3.5623252E+000	1.320963968693832E+002	-1.4426314E+000	-4.049690227897788E+002	5.8422101E-001	-1.4424673E+000	0
3.5721724E+000	1.322966968643232E+002	-1.4446323E+000	-4.044128205084444E+002	5.8422780E-001	-1.4444697E+000	0
3.5962958E+000	1.324969968592632E+002	-1.4465975E+000	-4.022465246537568E+002	5.8188879E-001	-1.4464730E+000	0
3.5676932E+000	1.326974968541981E+002	-1.4486179E+000	-4.060376995648076E+002	5.8819348E-001	-1.4484777E+000	0
3.5707769E+000	1.328981968491280E+002	-1.4506211E+000	-4.062480329905247E+002	5.8931196E-001	-1.4504849E+000	0
3.5841248E+000	1.330985968440655E+002	-1.4526262E+000	-4.052945433165014E+002	5.8874148E-001	-1.4524889E+000	0
3.5782962E+000	1.332987968390080E+002	-1.4546191E+000	-4.065116287542853E+002	5.9131956E-001	-1.4544914E+000	0
3.5470839E+000	1.334987968339556E+002	-1.4566065E+000	-4.106490093629091E+002	5.9815401E-001	-1.4564915E+000	0
3.5156267E+000	1.336988968289006E+002	-1.4586414E+000	-4.149022347093360E+002	6.0519356E-001	-1.4584920E+000	0
3.3675568E+000	1.338992968238381E+002	-1.4606587E+000	-4.337443397813004E+002	6.3355243E-001	-1.4604955E+000	0
3.2646604E+000	1.340996968187756E+002	-1.4626683E+000	-4.480307606395313E+002	6.5532041E-001	-1.4625001E+000	0
3.2678642E+000	1.342997968137206E+002	-1.4646820E+000	-4.482077143878887E+002	6.5648174E-001	-1.4645013E+000	0
3.2661719E+000	1.344998968086657E+002	-1.4666784E+000	-4.490511975995651E+002	6.5861368E-001	-1.4665023E+000	0
3.2771764E+000	1.347000968036082E+002	-1.4686981E+000	-4.481596329697095E+002	6.5821123E-001	-1.4685043E+000	0
3.2729158E+000	1.349001967985532E+002	-1.4706702E+000	-4.493455615832972E+002	6.6083914E-001	-1.4705054E+000	0
3.2904830E+000	1.351002967934983E+002	-1.4726856E+000	-4.475590879597089E+002	6.5911382E-001	-1.4725060E+000	0
3.3127811E+000	1.353005967884383E+002	-1.4746956E+000	-4.451533505793243E+002	6.5646565E-001	-1.4745089E+000	0
3.2857559E+000	1.355009967833757E+002	-1.4766815E+000	-4.494191137369962E+002	6.6364890E-001	-1.4765128E+000	0
3.2575047E+000	1.357013967783132E+002	-1.4786726E+000	-4.539280252883736E+002	6.7121094E-001	-1.4785169E+000	0
3.2762733E+000	1.359018967732482E+002	-1.4806814E+000	-4.519407537910438E+002	6.6918027E-001	-1.4805222E+000	0
3.2712014E+000	1.361022967681856E+002	-1.4827131E+000	-4.532625603957404E+002	6.7205834E-001	-1.4825256E+000	0
3.2549789E+000	1.363029967631155E+002	-1.4847175E+000	-4.561373548407532E+002	6.7723513E-001	-1.4845326E+000	0
3.2563934E+000	1.365034967580505E+002	-1.4866800E+000	-4.565419047510609E+002	6.7873174E-001	-1.4865382E+000	0
3.1982083E+000	1.367037967529905E+002	-1.4886883E+000	-4.654757107100122E+002	6.9294828E-001	-1.4885406E+000	0
3.1949410E+000	1.369039967479330E+002	-1.4906973E+000	-4.665805089894479E+002	6.9553030E-001	-1.4905431E+000	0
3.1755598E+000	1.371041967428755E+002	-1.4926919E+000	-4.700562863001305E+002	7.0164919E-001	-1.4925448E+000	0
3.1599991E+000	1.373044967378155E+002	-1.4947416E+000	-4.730196160989035E+002	7.0704210E-001	-1.4945481E+000	0
3.1253474E+000	1.375046967327580E+002	-1.4967482E+000	-4.789062043962549E+002	7.1680200E-001	-1.4965503E+000	0
3.0716999E+000	1.377048967277005E+002	-1.4987364E+000	-4.879175747859549E+002	7.3125982E-001	-1.4985522E+000	0
3.0753093E+000	1.379050967226431E+002	-1.5007203E+000	-4.879900464268503E+002	7.3233652E-001	-1.5005542E+000	0
3.0990224E+000	1.381052967175856E+002	-1.5027518E+000	-4.849115618533306E+002	7.2870171E-001	-1.5025562E+000	0
3.0691643E+000	1.383053967125306E+002	-1.5047351E+000	-4.902751962873681E+002	7.3773432E-001	-1.5045573E+000	0
3.0871658E+000	1.385053967074782E+002	-1.5067481E+000	-4.880684052811175E+002	7.3539615E-001	-1.5065572E+000	0
3.1158929E+000	1.387053967024258E+002	-1.5087388E+000	-4.842075178358274E+002	7.3054266E-001	-1.5085573E+000	0
3.1044900E+000	1.389053966973734E+002	-1.5106965E+000	-4.866166535245611E+002	7.3513007E-001	-1.5105572E+000	0
3.0660608E+000	1.391053966923209E+002	-1.5127480E+000	-4.933848599500930E+002	7.4636698E-001	-1.5125573E+000	0
3.0255735E+000	1.393053966872685E+002	-1.5147063E+000	-5.006344422926450E+002	7.5831413E-001	-1.5145571E+000	0
3.0375161E+000	1.395053966822161E+002	-1.5167123E+000	-4.993264955793147E+002	7.5733465E-001	-1.5165570E+000	0
3.0288527E+000	1.397053966771637E+002	-1.5187707E+000	-5.014343261372738E+002	7.6156378E-001	-1.5185571E+000	0
3.0399477E+000	1.399053966721112E+002	-1.5207716E+000	-5.002624237337322E+002	7.6078492E-001	-1.5205572E+000	0
3.0376964E+000	1.401053966670588E+002	-1.5227374E+000	-5.012803108102880E+002	7.6331824E-001	-1.5225570E+000	0
2.9851751E+000	1.403053966620064E+002	-1.5247486E+000	-5.107735594665096E+002	7.7880126E-001	-1.5245571E+000	0
2.9730289E+000	1.405053966569540E+002	-1.5267340E+000	-5.135281385607739E+002	7.8402084E-001	-1.5265571E+000	0
2.9580348E+000	1.407053966519015E+002	-1.5287961E+000	-5.168282941095940E+002	7.9012507E-001	-1.5285571E+000	0
2.8968647E+000	1.409053966468491E+002	-1.5307820E+000	-5.284271751542219E+002	8.0890679E-001	-1.5305572E+000	0
2.8189037E+000	1.411053966417967E+002	-1.5328345E+000	-5.437697222227425E+002	8.3350903E-001	-1.5325572E+000	0
2.8305845E+000	1.413053966367443E+002	-1.5347989E+000	-5.422197731649530E+002	8.3219826E-001	-1.5345571E+000	0
2.8026505E+000	1.415053966316918E+002	-1.5367757E+000	-5.483294036631685E+002	8.4265929E-001	-1.5365571E+000	0
2.8168192E+000	1.417053966266394E+002	-1.5388440E+000	-5.463055584706435E+002	8.4067905E-001	-1.5385572E+000	0
2.8171940E+000	1.419053966215870E+002	-1.5408043E+000	-5.469286983040174E+002	8.4271008E-001	-1.5405571E+000	0
2.8234971E+000	1.421053966165346E+002	-1.5427859E+000	-5.464095982359086E+002	8.4299302E-001	-1.5425572E+000	0
2.8270380E+000	1.423053966114821E+002	-1.5448343E+000	-5.464497487420649E+002	8.4417427E-001	-1.5445571E+000	0
2.7957125E+000	1.425053966064297E+002	-1.5467654E+000	-5.532634214587224E+002	8.5576874E-001	-1.5465571E+000	0
2.7871869E+000	1.427053966013773E+002	-1.5488263E+000	-5.556951805642420E+002	8.6067533E-001	-1.5485572E+000	0
2.7927020E+000	1.429053965963249E+002	-1.5508248E+000	-5.553133653956465E+002	8.6119372E-001	-1.5505571E+000	0
2.7987385E+000	1.431053965912724E+002	-1.5527445E+000	-5.548015897322666E+002	8.6146510E-001	-1.5525571E+000	0
2.7773478E+000	1.433053965862200E+002	-1.5547801E+000	-5.598074864281516E+002	8.7037754E-001	-1.5545572E+000	0
2.7856178E+000	1.434153965834412E+002	-1.5558083E+000	-5.585146484375000E+002	8.6894172E-001	-1.5556569E+000	0
2.7849770E+000	1.434341965829663E+002	-1.5559882E+000	-5.587077579941861E+002	8.6934268E-001	-1.5558568E+000	1