EC-Lab ASCII FILE
Nb header lines : 61                          

Linear Sweep Voltammetry

Run on channel : 1 (SN 1340)
User : 
Electrode connection : standard
Potential control : Ewe
Ewe ctrl range : min = -5.00 V, max = 5.00 V
Ewe,I filtering : <None>
Channel : Grounded
Acquisition started on : 01/29/2026 17:45:27.294
Technique started on : 01/29/2026 17:45:30.132
Loaded Setting File :  NONE
Saved on :
	File : PtPdNiCoCr_oxidized_IR_02_LSV_C01.mpr
	Directory : C:\Users\volt\Documents\Platalytix\
	Host : 127.0.0.1
Device : SP-200 (SN 0262)
Address : USB
EC-LAB for windows v11.60 (software)
Internet server v11.60 (firmware)
Command interpretor v11.60 (firmware)
Electrode material : PtPdNiCoCr
Initial state : 
Electrolyte : KOH (1 M)
Comments : 
Cable : standard
Reference electrode : Hg/HgO (0.140 V)
Electrode surface area : 1.000 cm˛
Characteristic mass : 0.001 g
Equivalent Weight : 0.000 g/eq.
Density : 0.000 g/cm3
Volume (V) : 0.001 cmł
Cycle Definition : Charge/Discharge alternance
tR (h:m:s)          0:00:5.0000         
dER/dt (mV/h)       0.0                 
dER (mV)            0                   
dtR (s)             0.0000              
dE/dt               10.000              
dE/dt unit          mV/s                
Ei (V)              -0.200              
vs.                 Ref                 
EL (V)              -2.000              
vs.                 Ref                 
record              <I>                 
dI                  0.000               
unit dI             µA                  
tI (s)              0.0000              
step percent        50                  
N                   10                  
E range min (V)     -5.000              
E range max (V)     5.000               
I Range             Auto                
I Range min         Unset               
I Range max         Unset               
I Range init        Unset               
Bandwidth           8                   

Rwe/Ohm	time/s	Ewe/V	<I>/mA	Pwe/W	control/V	error	
0.0000000E+000	2.838400134787662E+000	-1.6891105E-001	0.000000000000000E+000	0.0000000E+000	0.0000000E+000	0
0.0000000E+000	7.838200008482090E+000	5.9888982E-003	0.000000000000000E+000	0.0000000E+000	-1.9986415E-001	0
9.7658374E+002	8.038200003429665E+000	-2.0170318E-001	-2.065395565330982E-001	4.1659685E-005	-2.0176393E-001	0
9.4330963E+002	8.158200000398210E+000	-2.0294251E-001	-2.151388037227551E-001	4.3660806E-005	-2.0296399E-001	0
1.1980165E+003	8.368199995093164E+000	-2.0503344E-001	-1.711440877492652E-001	3.5090259E-005	-2.0506398E-001	0
1.3848978E+003	8.568199990040739E+000	-2.0707510E-001	-1.495237378699203E-001	3.0962645E-005	-2.0706394E-001	0
1.5361517E+003	8.768199984988314E+000	-2.0909166E-001	-1.361139433589381E-001	2.8460290E-005	-2.0906387E-001	0
1.6655223E+003	8.968199979935889E+000	-2.1108061E-001	-1.267353854038644E-001	2.6751382E-005	-2.1106377E-001	0
1.7787015E+003	9.168199974883464E+000	-2.1307592E-001	-1.197929559602846E-001	2.5524994E-005	-2.1306366E-001	0
1.8821461E+003	9.368199969831039E+000	-2.1511242E-001	-1.142910314996279E-001	2.4585421E-005	-2.1506356E-001	0
1.9751841E+003	9.568199964778614E+000	-2.1708822E-001	-1.099078408695857E-001	2.3859699E-005	-2.1706343E-001	0
2.0594136E+003	9.768199959726189E+000	-2.1899845E-001	-1.063402014934457E-001	2.3288339E-005	-2.1906331E-001	0
2.1424907E+003	9.968199954673764E+000	-2.2109517E-001	-1.031953888130108E-001	2.2816002E-005	-2.2106321E-001	0
2.2176680E+003	1.016819994962134E+001	-2.2307628E-001	-1.005904845515362E-001	2.2439352E-005	-2.2306311E-001	0
2.2935608E+003	1.036819994456891E+001	-2.2506459E-001	-9.812889430331928E-002	2.2085340E-005	-2.2506301E-001	0
2.3617915E+003	1.056819993951649E+001	-2.2707285E-001	-9.614432964509834E-002	2.1831767E-005	-2.2706288E-001	0
2.4281785E+003	1.076819993446406E+001	-2.2905460E-001	-9.433186270587979E-002	2.1607148E-005	-2.2906278E-001	0
2.4923899E+003	1.096819992941164E+001	-2.3104441E-001	-9.269994896543032E-002	2.1417805E-005	-2.3106267E-001	0
2.5589453E+003	1.116819992435921E+001	-2.3305820E-001	-9.107587900743441E-002	2.1225980E-005	-2.3306257E-001	0
2.6215249E+003	1.136819991930679E+001	-2.3510359E-001	-8.968199902454843E-002	2.1084561E-005	-2.3506247E-001	0
2.6796494E+003	1.156819991425436E+001	-2.3705690E-001	-8.846564229436282E-002	2.0971391E-005	-2.3706235E-001	0
2.7404805E+003	1.176809990920447E+001	-2.3908128E-001	-8.724064107431784E-002	2.0857604E-005	-2.3906136E-001	0
2.7964937E+003	1.196799990415457E+001	-2.4105731E-001	-8.619984095153777E-002	2.0779102E-005	-2.4106212E-001	0
2.8541987E+003	1.216799989910214E+001	-2.4305071E-001	-8.515549521225912E-002	2.0697104E-005	-2.4306199E-001	0
2.9125293E+003	1.236799989404972E+001	-2.4506448E-001	-8.414146176839243E-002	2.0620084E-005	-2.4506190E-001	0
2.9668315E+003	1.256799988899729E+001	-2.4708822E-001	-8.328353516839870E-002	2.0578380E-005	-2.4706179E-001	0
3.0217031E+003	1.276799988394487E+001	-2.4906534E-001	-8.242548135839911E-002	2.0529331E-005	-2.4906169E-001	0
3.0732695E+003	1.296799987889244E+001	-2.5102943E-001	-8.168155143022648E-002	2.0504473E-005	-2.5106159E-001	0
3.1262185E+003	1.316799987384002E+001	-2.5308481E-001	-8.095557212590915E-002	2.0488626E-005	-2.5306144E-001	0
3.1826077E+003	1.336799986878759E+001	-2.5512129E-001	-8.016108678413070E-002	2.0450800E-005	-2.5506136E-001	0
3.2333289E+003	1.356799986373517E+001	-2.5705871E-001	-7.950280672636167E-002	2.0436890E-005	-2.5706124E-001	0
3.2862554E+003	1.376799985868274E+001	-2.5907502E-001	-7.883593386731791E-002	2.0424421E-005	-2.5906116E-001	0
3.3376936E+003	1.396799985363032E+001	-2.6104677E-001	-7.821172319432868E-002	2.0416917E-005	-2.6106104E-001	0
3.3870007E+003	1.416799984857789E+001	-2.6301748E-001	-7.765497770128760E-002	2.0424617E-005	-2.6306093E-001	0
3.4377600E+003	1.436799984352547E+001	-2.6505607E-001	-7.710138919273346E-002	2.0436191E-005	-2.6506081E-001	0
3.4872690E+003	1.456799983847304E+001	-2.6700833E-001	-7.656659856607612E-002	2.0443920E-005	-2.6706070E-001	0
3.5397827E+003	1.476799983342062E+001	-2.6909024E-001	-7.601885642231276E-002	2.0455933E-005	-2.6906058E-001	0
3.5879568E+003	1.496799982836819E+001	-2.7103612E-001	-7.554051812100426E-002	2.0474208E-005	-2.7106047E-001	0
3.6376841E+003	1.516799982331577E+001	-2.7304947E-001	-7.506134958891297E-002	2.0495461E-005	-2.7306038E-001	0
3.6853894E+003	1.536799981826334E+001	-2.7500194E-001	-7.461950698468267E-002	2.0520509E-005	-2.7506027E-001	0
3.7344380E+003	1.556789981321344E+001	-2.7704391E-001	-7.418623728876916E-002	2.0552845E-005	-2.7706105E-001	0
3.7818987E+003	1.576779980816355E+001	-2.7905005E-001	-7.378570100423532E-002	2.0589903E-005	-2.7906007E-001	0
3.8267200E+003	1.596779980311112E+001	-2.8105193E-001	-7.344460599082225E-002	2.0641748E-005	-2.8105992E-001	0
3.8778274E+003	1.616779979805870E+001	-2.8304091E-001	-7.298956005443336E-002	2.0659032E-005	-2.8305981E-001	0
3.9226453E+003	1.636779979300627E+001	-2.8507105E-001	-7.267316552554848E-002	2.0717016E-005	-2.8505969E-001	0
3.9733342E+003	1.656779978795385E+001	-2.8704914E-001	-7.224389784356933E-002	2.0737549E-005	-2.8705961E-001	0
4.0158491E+003	1.676779978290142E+001	-2.8905717E-001	-7.197908920556917E-002	2.0806072E-005	-2.8905949E-001	0
4.0657332E+003	1.696779977784900E+001	-2.9110685E-001	-7.160008558000353E-002	2.0843276E-005	-2.9105937E-001	0
4.1095869E+003	1.716779977279657E+001	-2.9304826E-001	-7.130844976495337E-002	2.0896818E-005	-2.9305926E-001	0
4.1554116E+003	1.736779976774415E+001	-2.9505801E-001	-7.100572483614093E-002	2.0950809E-005	-2.9505917E-001	0
4.2032290E+003	1.756779976269172E+001	-2.9712951E-001	-7.069077226174947E-002	2.1004314E-005	-2.9705906E-001	0
4.2446523E+003	1.776779975763930E+001	-2.9906243E-001	-7.045628237347967E-002	2.1070828E-005	-2.9905891E-001	0
4.2917397E+003	1.796779975258687E+001	-3.0103865E-001	-7.014373787879380E-002	2.1115977E-005	-3.0105883E-001	0
4.3366357E+003	1.816779974753445E+001	-3.0306178E-001	-6.988407678579031E-002	2.1179192E-005	-3.0305871E-001	0
4.3780317E+003	1.836779974248202E+001	-3.0504674E-001	-6.967668167247837E-002	2.1254644E-005	-3.0505860E-001	0
4.4255532E+003	1.856779973742960E+001	-3.0706730E-001	-6.938506667914042E-002	2.1305885E-005	-3.0705851E-001	0
4.4670151E+003	1.876779973237717E+001	-3.0903646E-001	-6.918187294041289E-002	2.1379721E-005	-3.0905840E-001	0
4.5092109E+003	1.896779972732475E+001	-3.1109780E-001	-6.899163106196629E-002	2.1463145E-005	-3.1105828E-001	0
4.5513945E+003	1.916769972227485E+001	-3.1305343E-001	-6.878186953377274E-002	2.1532400E-005	-3.1305838E-001	0
4.5977578E+003	1.936759971722495E+001	-3.1507084E-001	-6.852706405439757E-002	2.1590880E-005	-3.1505805E-001	0
4.6356519E+003	1.956759971217252E+001	-3.1706870E-001	-6.839786669769476E-002	2.1686823E-005	-3.1705797E-001	0
4.6829824E+003	1.976759970712010E+001	-3.1903896E-001	-6.812730356744678E-002	2.1735264E-005	-3.1905785E-001	0
4.7264028E+003	1.996759970206767E+001	-3.2110175E-001	-6.793787144335650E-002	2.1814969E-005	-3.2105774E-001	0
4.7620830E+003	2.016759969701525E+001	-3.2303450E-001	-6.783470612065734E-002	2.1912951E-005	-3.2305762E-001	0
4.8020996E+003	2.036759969196282E+001	-3.2506782E-001	-6.769285283828591E-002	2.2004768E-005	-3.2505751E-001	0
4.8453848E+003	2.056759968691040E+001	-3.2706183E-001	-6.749965865355090E-002	2.2076561E-005	-3.2705739E-001	0
4.8876084E+003	2.076759968185797E+001	-3.2905123E-001	-6.732356626500274E-002	2.2152903E-005	-3.2905731E-001	0
4.9305947E+003	2.096759967680555E+001	-3.3103549E-001	-6.713905926770590E-002	2.2225411E-005	-3.3105716E-001	0
4.9672290E+003	2.116759967175312E+001	-3.3304417E-001	-6.704828188260420E-002	2.2330039E-005	-3.3305708E-001	0
5.0102529E+003	2.136759966670070E+001	-3.3508748E-001	-6.688035045309060E-002	2.2410768E-005	-3.3505693E-001	0
5.0505898E+003	2.156759966164827E+001	-3.3706090E-001	-6.673693804855951E-002	2.2494412E-005	-3.3705685E-001	0
5.0865522E+003	2.176759965659585E+001	-3.3905369E-001	-6.665687849048207E-002	2.2600261E-005	-3.3905673E-001	0
5.1237549E+003	2.196759965154342E+001	-3.4108549E-001	-6.656943877331079E-002	2.2705870E-005	-3.4105662E-001	0
5.1606084E+003	2.216759964649100E+001	-3.4299636E-001	-6.646432506043043E-002	2.2797021E-005	-3.4305650E-001	0
5.2026230E+003	2.236759964143857E+001	-3.4509695E-001	-6.633133601445829E-002	2.2890741E-005	-3.4505638E-001	0
5.2343726E+003	2.256759963638615E+001	-3.4705725E-001	-6.630350657329037E-002	2.3011113E-005	-3.4705630E-001	0
5.2814883E+003	2.276749963133625E+001	-3.4906340E-001	-6.609186498248121E-002	2.3070252E-005	-3.4905598E-001	0
5.3117544E+003	2.296739962628635E+001	-3.5108253E-001	-6.609540299592698E-002	2.3204942E-005	-3.5105607E-001	0
5.3537427E+003	2.316739962123393E+001	-3.5306066E-001	-6.594651046920730E-002	2.3283119E-005	-3.5305598E-001	0
5.3890718E+003	2.336739961618150E+001	-3.5507417E-001	-6.588781423879420E-002	2.3395061E-005	-3.5505587E-001	0
5.4264780E+003	2.356739961112908E+001	-3.5709286E-001	-6.580563891275726E-002	2.3498724E-005	-3.5705578E-001	0
5.4617993E+003	2.376739960607665E+001	-3.5906589E-001	-6.574132172982139E-002	2.3605466E-005	-3.5905564E-001	0
5.5006934E+003	2.396739960102423E+001	-3.6105931E-001	-6.563887124260248E-002	2.3699526E-005	-3.6105555E-001	0
5.5327637E+003	2.416739959597180E+001	-3.6305800E-001	-6.561964769718869E-002	2.3823739E-005	-3.6305544E-001	0
5.5711182E+003	2.436739959091938E+001	-3.6509153E-001	-6.553290117122335E-002	2.3925508E-005	-3.6505535E-001	0
5.6014443E+003	2.456739958586695E+001	-3.6704081E-001	-6.552610008094617E-002	2.4050752E-005	-3.6705521E-001	0
5.6385449E+003	2.476739958081453E+001	-3.6900726E-001	-6.544370455308401E-002	2.4149202E-005	-3.6905509E-001	0
5.6738403E+003	2.496739957576210E+001	-3.7102482E-001	-6.539218247416201E-002	2.4262123E-005	-3.7105501E-001	0
5.7084458E+003	2.516739957070968E+001	-3.7308955E-001	-6.535746342430759E-002	2.4384186E-005	-3.7305486E-001	0
5.7425938E+003	2.536739956565725E+001	-3.7508893E-001	-6.531698780362394E-002	2.4499679E-005	-3.7505478E-001	0
5.7724893E+003	2.556739956060483E+001	-3.7705517E-001	-6.531933581407967E-002	2.4628993E-005	-3.7705463E-001	0
5.8084165E+003	2.576739955555240E+001	-3.7906832E-001	-6.526190242328811E-002	2.4738720E-005	-3.7905458E-001	0
5.8406777E+003	2.596739955049998E+001	-3.8107082E-001	-6.524427944969577E-002	2.4862691E-005	-3.8105443E-001	0
5.8727368E+003	2.616739954544755E+001	-3.8304833E-001	-6.522484174496629E-002	2.4984267E-005	-3.8305435E-001	0
5.9046255E+003	2.636729954039765E+001	-3.8504875E-001	-6.521137560747303E-002	2.5109559E-005	-3.8505355E-001	0
5.9348276E+003	2.656719953534775E+001	-3.8707864E-001	-6.522154712853079E-002	2.5245869E-005	-3.8705409E-001	0
5.9702798E+003	2.676719953029533E+001	-3.8909754E-001	-6.517241181765590E-002	2.5358426E-005	-3.8905400E-001	0
6.0062129E+003	2.696719952524290E+001	-3.9102918E-001	-6.510411721364884E-002	2.5457610E-005	-3.9105389E-001	0
6.0299692E+003	2.716719952019048E+001	-3.9306656E-001	-6.518550071276108E-002	2.5622241E-005	-3.9305380E-001	0
6.0647695E+003	2.736719951513805E+001	-3.9507523E-001	-6.514265947783027E-002	2.5736252E-005	-3.9505371E-001	0
6.0967676E+003	2.756719951008563E+001	-3.9703366E-001	-6.512199235708371E-002	2.5855623E-005	-3.9705357E-001	0
6.1229321E+003	2.776719950503320E+001	-3.9908284E-001	-6.517838736068954E-002	2.6011576E-005	-3.9905345E-001	0
6.1570166E+003	2.796719949998078E+001	-4.0106815E-001	-6.514001659660378E-002	2.6125586E-005	-4.0105337E-001	0
6.1873672E+003	2.816719949492835E+001	-4.0307558E-001	-6.514492454302934E-002	2.6258327E-005	-4.0305322E-001	0
6.2172754E+003	2.836719948987593E+001	-4.0503505E-001	-6.514671323989873E-002	2.6386702E-005	-4.0505317E-001	0
6.2486035E+003	2.856719948482350E+001	-4.0704820E-001	-6.514226426972280E-002	2.6516042E-005	-4.0705302E-001	0
6.2824258E+003	2.876719947977108E+001	-4.0908766E-001	-6.511619437302230E-002	2.6638232E-005	-4.0905294E-001	0
6.3043936E+003	2.896719947471865E+001	-4.1105962E-001	-6.520208909573322E-002	2.6801947E-005	-4.1105279E-001	0
6.3344912E+003	2.916719946966623E+001	-4.1308397E-001	-6.521186347926222E-002	2.6937976E-005	-4.1305268E-001	0
6.3630879E+003	2.936719946461380E+001	-4.1511351E-001	-6.523774503022750E-002	2.7081069E-005	-4.1505259E-001	0
6.3972109E+003	2.956719945956138E+001	-4.1706383E-001	-6.519463665935479E-002	2.7190325E-005	-4.1705245E-001	0
6.4272622E+003	2.976719945450895E+001	-4.1910052E-001	-6.520669379951616E-002	2.7328160E-005	-4.1905239E-001	0
6.4557280E+003	2.996719944945653E+001	-4.2107823E-001	-6.522552084595878E-002	2.7465047E-005	-4.2105225E-001	0
6.4895410E+003	3.016709944440663E+001	-4.2311546E-001	-6.519959660247787E-002	2.7586957E-005	-4.2305258E-001	0
6.5142324E+003	3.036699943935673E+001	-4.2507121E-001	-6.525269143131318E-002	2.7737040E-005	-4.2505205E-001	0
6.5447007E+003	3.056699943430431E+001	-4.2711636E-001	-6.526140763810795E-002	2.7874215E-005	-4.2705193E-001	0
6.5790195E+003	3.076699942925188E+001	-4.2907628E-001	-6.521888179947410E-002	2.7983875E-005	-4.2905182E-001	0
6.6105049E+003	3.096699942419946E+001	-4.3111700E-001	-6.521695350769874E-002	2.8116137E-005	-4.3105167E-001	0
6.6396812E+003	3.116699941914703E+001	-4.3306205E-001	-6.522331979598739E-002	2.8245744E-005	-4.3305162E-001	0
6.6718574E+003	3.136699941409461E+001	-4.3507138E-001	-6.520993507344763E-002	2.8370976E-005	-4.3505147E-001	0
6.7025972E+003	3.156699940904218E+001	-4.3710533E-001	-6.521432226747614E-002	2.8505528E-005	-4.3705139E-001	0
6.7288438E+003	3.176699940398976E+001	-4.3913415E-001	-6.526145529183602E-002	2.8658535E-005	-4.3905127E-001	0
6.7610742E+003	3.196699939893733E+001	-4.4110039E-001	-6.524117082587599E-002	2.8777906E-005	-4.4105116E-001	0
6.7968149E+003	3.216699939388491E+001	-4.4311988E-001	-6.519522695525526E-002	2.8889301E-005	-4.4305104E-001	0
6.8231289E+003	3.236699938883248E+001	-4.4510671E-001	-6.523498381876625E-002	2.9036530E-005	-4.4505095E-001	0
6.8560898E+003	3.256699938378006E+001	-4.4714066E-001	-6.521802991860937E-002	2.9161632E-005	-4.4705084E-001	0
6.8844194E+003	3.276699937872763E+001	-4.4910780E-001	-6.523539161873479E-002	2.9297724E-005	-4.4905069E-001	0
6.9164570E+003	3.296699937367521E+001	-4.5108613E-001	-6.521924689587399E-002	2.9419498E-005	-4.5105061E-001	0
6.9505830E+003	3.316699936862278E+001	-4.5308793E-001	-6.518703789234825E-002	2.9535460E-005	-4.5305052E-001	0
6.9871641E+003	3.336699936357036E+001	-4.5509714E-001	-6.513331115854037E-002	2.9641984E-005	-4.5505038E-001	0
7.0178428E+003	3.356699935851793E+001	-4.5709538E-001	-6.513331837259442E-002	2.9772140E-005	-4.5705032E-001	0
7.0486982E+003	3.376689935346803E+001	-4.5912665E-001	-6.513637389781740E-002	2.9905845E-005	-4.5905042E-001	0
7.0774409E+003	3.396679934841814E+001	-4.6108225E-001	-6.514816121419986E-002	3.0038660E-005	-4.6105006E-001	0
7.1135518E+003	3.416679934336571E+001	-4.6310195E-001	-6.510136922707366E-002	3.0148571E-005	-4.6304998E-001	0
7.1445615E+003	3.436679933831329E+001	-4.6509877E-001	-6.509829304485129E-002	3.0277137E-005	-4.6504983E-001	0
7.1839180E+003	3.456679933326086E+001	-4.6708328E-001	-6.501790207901476E-002	3.0368774E-005	-4.6704978E-001	0
7.2215913E+003	3.476679932820844E+001	-4.6914136E-001	-6.496370817131303E-002	3.0477162E-005	-4.6904960E-001	0
7.2534180E+003	3.496679932315601E+001	-4.7110164E-001	-6.494891726308383E-002	3.0597541E-005	-4.7104949E-001	0
7.2917886E+003	3.516679931810359E+001	-4.7316936E-001	-6.489071107042899E-002	3.0704297E-005	-4.7304940E-001	0
7.3263638E+003	3.536679931305116E+001	-4.7508490E-001	-6.484593248602977E-002	3.0807325E-005	-4.7504926E-001	0
7.3615659E+003	3.556679930799874E+001	-4.7707322E-001	-6.480594190754130E-002	3.0917181E-005	-4.7704920E-001	0
7.4009771E+003	3.576679930294631E+001	-4.7910249E-001	-6.473503288466589E-002	3.1014715E-005	-4.7904906E-001	0
7.4446758E+003	3.596679929789389E+001	-4.8116022E-001	-6.463145571676354E-002	3.1098087E-005	-4.8104897E-001	0
7.4729258E+003	3.616679929284146E+001	-4.8308235E-001	-6.464433836615535E-002	3.1228537E-005	-4.8304886E-001	0
7.5123652E+003	3.636679928778904E+001	-4.8508954E-001	-6.457214745959033E-002	3.1323274E-005	-4.8504874E-001	0
7.5494634E+003	3.656679928273661E+001	-4.8707104E-001	-6.451730482183132E-002	3.1424512E-005	-4.8704863E-001	0
7.5882358E+003	3.676679927768419E+001	-4.8908505E-001	-6.445306433784981E-002	3.1523032E-005	-4.8904848E-001	0
7.6286226E+003	3.696679927263176E+001	-4.9112046E-001	-6.437865551402755E-002	3.1617674E-005	-4.9104843E-001	0
7.6710776E+003	3.716679926757934E+001	-4.9306232E-001	-6.427549438491920E-002	3.1691823E-005	-4.9304828E-001	0
7.7036450E+003	3.736669926252944E+001	-4.9504212E-001	-6.426076401485847E-002	3.1811785E-005	-4.9504825E-001	0
7.7457461E+003	3.756659925747954E+001	-4.9710998E-001	-6.417845039472159E-002	3.1903750E-005	-4.9704811E-001	0
7.7880029E+003	3.776659925242711E+001	-4.9912843E-001	-6.408940104011640E-002	3.1988842E-005	-4.9904796E-001	0
7.8307935E+003	3.796659924737469E+001	-5.0108880E-001	-6.398952942153646E-002	3.2064436E-005	-5.0104797E-001	0
7.8704712E+003	3.816659924232226E+001	-5.0311846E-001	-6.392481911329827E-002	3.2161755E-005	-5.0304776E-001	0
7.9048379E+003	3.836659923726984E+001	-5.0506246E-001	-6.389282899063997E-002	3.2269869E-005	-5.0504774E-001	0
7.9590020E+003	3.856659923221741E+001	-5.0712866E-001	-6.371761903287143E-002	3.2313030E-005	-5.0704759E-001	0
7.9923276E+003	3.876659922716499E+001	-5.0910705E-001	-6.369947051827951E-002	3.2429849E-005	-5.0904745E-001	0
8.0416685E+003	3.896659922211256E+001	-5.1106542E-001	-6.355216363423773E-002	3.2479315E-005	-5.1104736E-001	0
8.0813618E+003	3.916659921706014E+001	-5.1314324E-001	-6.349712476617908E-002	3.2583121E-005	-5.1304722E-001	0
8.1236689E+003	3.936659921200771E+001	-5.1511264E-001	-6.340886517628486E-002	3.2662709E-005	-5.1504719E-001	0
8.1698604E+003	3.956659920695529E+001	-5.1709443E-001	-6.329293340674735E-002	3.2728425E-005	-5.1704705E-001	0
8.2152578E+003	3.976659920190286E+001	-5.1916385E-001	-6.319507305687733E-002	3.2808599E-005	-5.1904690E-001	0
8.2575547E+003	3.996659919685044E+001	-5.2109504E-001	-6.310524760171046E-002	3.2883832E-005	-5.2104682E-001	0
8.2997900E+003	4.016659919179801E+001	-5.2310944E-001	-6.302682811535854E-002	3.2969929E-005	-5.2304667E-001	0
8.3504336E+003	4.036659918674559E+001	-5.2508211E-001	-6.288082013540219E-002	3.3017594E-005	-5.2504659E-001	0
8.3904541E+003	4.056659918169316E+001	-5.2709097E-001	-6.282031294613111E-002	3.3112021E-005	-5.2704644E-001	0
8.4382598E+003	4.076659917664074E+001	-5.2910161E-001	-6.270269283817878E-002	3.3176097E-005	-5.2904642E-001	0
8.4836201E+003	4.096649917159084E+001	-5.3109592E-001	-6.260251334632277E-002	3.3247939E-005	-5.3104651E-001	0
8.5193945E+003	4.116639916654094E+001	-5.3308415E-001	-6.257301057707920E-002	3.3356679E-005	-5.3304619E-001	0
8.5730781E+003	4.136639916148852E+001	-5.3510815E-001	-6.241727129835040E-002	3.3399989E-005	-5.3504610E-001	0
8.6128164E+003	4.156639915643609E+001	-5.3707761E-001	-6.235795169952574E-002	3.3491058E-005	-5.3704590E-001	0
8.6585664E+003	4.176639915138367E+001	-5.3906685E-001	-6.225820960183448E-002	3.3561337E-005	-5.3904587E-001	0
8.6991533E+003	4.196639914633124E+001	-5.4108006E-001	-6.219916534979664E-002	3.3654727E-005	-5.4104573E-001	0
8.7495576E+003	4.216639914127882E+001	-5.4309964E-001	-6.207166678988096E-002	3.3711101E-005	-5.4304558E-001	0
8.7870850E+003	4.236639913622639E+001	-5.4505247E-001	-6.202881666884474E-002	3.3808959E-005	-5.4504550E-001	0
8.8422217E+003	4.256639913117397E+001	-5.4710317E-001	-6.187395118451489E-002	3.3851433E-005	-5.4704535E-001	0
8.8927227E+003	4.276639912612154E+001	-5.4905927E-001	-6.174253771670768E-002	3.3900313E-005	-5.4904532E-001	0
8.9288848E+003	4.296639912106912E+001	-5.5109322E-001	-6.172027565219973E-002	3.4013625E-005	-5.5104512E-001	0
8.9690186E+003	4.316639911601669E+001	-5.5307066E-001	-6.166456797151776E-002	3.4104865E-005	-5.5304503E-001	0
9.0283330E+003	4.336639911096427E+001	-5.5504900E-001	-6.147857226881193E-002	3.4123619E-005	-5.5504495E-001	0
9.0790703E+003	4.356639910591184E+001	-5.5711138E-001	-6.136216327617716E-002	3.4185559E-005	-5.5704480E-001	0
9.1223066E+003	4.376639910085942E+001	-5.5909145E-001	-6.128838633413097E-002	3.4265813E-005	-5.5904478E-001	0
9.1692402E+003	4.396639909580699E+001	-5.6113678E-001	-6.119773789391325E-002	3.4340301E-005	-5.6104457E-001	0
9.2127070E+003	4.416639909075457E+001	-5.6312090E-001	-6.112436633430357E-002	3.4420409E-005	-5.6304455E-001	0
9.2609434E+003	4.436639908570214E+001	-5.6508994E-001	-6.101861706820810E-002	3.4481007E-005	-5.6504440E-001	0
9.3033779E+003	4.456629908065224E+001	-5.6707376E-001	-6.095353674811377E-002	3.4565150E-005	-5.6704426E-001	0
9.3544980E+003	4.476619907560234E+001	-5.6907523E-001	-6.083439541568825E-002	3.4619348E-005	-5.6904417E-001	0
9.4054287E+003	4.496619907054992E+001	-5.7109582E-001	-6.071981016806224E-002	3.4676828E-005	-5.7104403E-001	0
9.4504893E+003	4.516619906549749E+001	-5.7306355E-001	-6.063850727217412E-002	3.4749719E-005	-5.7304400E-001	0
9.5091787E+003	4.536619906044507E+001	-5.7504505E-001	-6.047263145636850E-002	3.4774486E-005	-5.7504386E-001	0
9.5418643E+003	4.556619905539264E+001	-5.7707244E-001	-6.047795552711788E-002	3.4900160E-005	-5.7704371E-001	0
9.5763809E+003	4.576619905034022E+001	-5.7907963E-001	-6.046957003275821E-002	3.5016696E-005	-5.7904363E-001	0
9.6448477E+003	4.596619904528779E+001	-5.8108360E-001	-6.024808155017947E-002	3.5009172E-005	-5.8104348E-001	0
9.6840664E+003	4.616619904023537E+001	-5.8307540E-001	-6.020976821184520E-002	3.5106834E-005	-5.8304340E-001	0
9.7302441E+003	4.636619903518294E+001	-5.8508444E-001	-6.013050016127686E-002	3.5181420E-005	-5.8504325E-001	0
9.7757070E+003	4.656619903013052E+001	-5.8708513E-001	-6.005551497813089E-002	3.5257701E-005	-5.8704323E-001	0
9.8277754E+003	4.676619902507809E+001	-5.8907700E-001	-5.994001572979135E-002	3.5309284E-005	-5.8904308E-001	0
9.8637744E+003	4.696619902002567E+001	-5.9113729E-001	-5.993012880036341E-002	3.5426932E-005	-5.9104300E-001	0
9.9146445E+003	4.716619901497324E+001	-5.9309906E-001	-5.982050409090711E-002	3.5479483E-005	-5.9304291E-001	0
9.9646982E+003	4.736619900992082E+001	-5.9511155E-001	-5.972198297611753E-002	3.5541241E-005	-5.9504271E-001	0
1.0008683E+004	4.756619900486839E+001	-5.9711200E-001	-5.965939759595695E-002	3.5623343E-005	-5.9704268E-001	0
1.0044247E+004	4.776619899981597E+001	-5.9907949E-001	-5.964404434628789E-002	3.5731522E-005	-5.9904253E-001	0
1.0099729E+004	4.796619899476354E+001	-6.0107952E-001	-5.951442570761366E-002	3.5772904E-005	-6.0104239E-001	0
1.0130081E+004	4.816609898971365E+001	-6.0310870E-001	-5.953641718794012E-002	3.5906931E-005	-6.0304189E-001	0
1.0170639E+004	4.836599898466375E+001	-6.0507751E-001	-5.949257943481456E-002	3.5997622E-005	-6.0504216E-001	0
1.0213353E+004	4.856599897961132E+001	-6.0711813E-001	-5.944356702050600E-002	3.6089266E-005	-6.0704213E-001	0
1.0264313E+004	4.876599897455890E+001	-6.0911232E-001	-5.934272138159025E-002	3.6146383E-005	-6.0904199E-001	0
1.0290609E+004	4.896599896950647E+001	-6.1108303E-001	-5.938258836026850E-002	3.6287693E-005	-6.1104190E-001	0
1.0348227E+004	4.916599896445405E+001	-6.1306328E-001	-5.924331723731377E-002	3.6319903E-005	-6.1304176E-001	0
1.0380731E+004	4.936599895940162E+001	-6.1509961E-001	-5.925397407062871E-002	3.6447098E-005	-6.1504161E-001	0
1.0417460E+004	4.956599895434920E+001	-6.1711669E-001	-5.923868928900788E-002	3.6557183E-005	-6.1704153E-001	0
1.0459406E+004	4.976599894929677E+001	-6.1911142E-001	-5.919183361504521E-002	3.6646339E-005	-6.1904138E-001	0
1.0493042E+004	4.996599894424435E+001	-6.2111098E-001	-5.919265309443728E-002	3.6765206E-005	-6.2104136E-001	0
1.0536446E+004	5.016599893919192E+001	-6.2311625E-001	-5.913912886310191E-002	3.6850553E-005	-6.2304121E-001	0
1.0567146E+004	5.036599893413950E+001	-6.2511688E-001	-5.915663769371524E-002	3.6979814E-005	-6.2504113E-001	0
1.0600676E+004	5.056599892908707E+001	-6.2711346E-001	-5.915787430002853E-002	3.7098700E-005	-6.2704098E-001	0
1.0628700E+004	5.076599892403465E+001	-6.2913316E-001	-5.919192132725892E-002	3.7239603E-005	-6.2904084E-001	0
1.0673456E+004	5.096599891898222E+001	-6.3108271E-001	-5.912637157532463E-002	3.7313632E-005	-6.3104081E-001	0
1.0707838E+004	5.116599891392980E+001	-6.3312769E-001	-5.912750222363319E-002	3.7435260E-005	-6.3304061E-001	0
1.0740882E+004	5.136599890887737E+001	-6.3510472E-001	-5.912966391097030E-002	3.7553527E-005	-6.3504058E-001	0
1.0775034E+004	5.156599890382495E+001	-6.3711512E-001	-5.912882389866064E-002	3.7671867E-005	-6.3704050E-001	0
1.0806995E+004	5.176599889877252E+001	-6.3906163E-001	-5.913407380889052E-002	3.7790316E-005	-6.3904035E-001	0
1.0834898E+004	5.196579889372515E+001	-6.4112085E-001	-5.917183860878794E-002	3.7936301E-005	-6.4104021E-001	0
1.0876640E+004	5.216579888867273E+001	-6.4311463E-001	-5.912806477995325E-002	3.8026123E-005	-6.4304012E-001	0
1.0905997E+004	5.236579888362030E+001	-6.4513886E-001	-5.915450593593868E-002	3.8162871E-005	-6.4504004E-001	0
1.0937262E+004	5.256579887856788E+001	-6.4711356E-001	-5.916595664044322E-002	3.8287093E-005	-6.4703989E-001	0
1.0964392E+004	5.276579887351545E+001	-6.4910889E-001	-5.920154418555557E-002	3.8428247E-005	-6.4903980E-001	0
1.0985085E+004	5.296579886846303E+001	-6.5107572E-001	-5.926906447667568E-002	3.8588649E-005	-6.5103972E-001	0
1.1028246E+004	5.316579886341060E+001	-6.5309489E-001	-5.922019454627347E-002	3.8676408E-005	-6.5303957E-001	0
1.1055642E+004	5.336579885835818E+001	-6.5509397E-001	-5.925427133622929E-002	3.8817117E-005	-6.5503949E-001	0
1.1078586E+004	5.356579885330575E+001	-6.5715361E-001	-5.931746448356412E-002	3.8980685E-005	-6.5703934E-001	0
1.1115520E+004	5.376579884825333E+001	-6.5909392E-001	-5.929492846555795E-002	3.9080925E-005	-6.5903932E-001	0
1.1142140E+004	5.396579884320090E+001	-6.6110015E-001	-5.933332211990527E-002	3.9225270E-005	-6.6103911E-001	0
1.1166636E+004	5.416579883814848E+001	-6.6312212E-001	-5.938423725210396E-002	3.9379000E-005	-6.6303903E-001	0
1.1208509E+004	5.436579883309605E+001	-6.6511488E-001	-5.934017503796689E-002	3.9468032E-005	-6.6503894E-001	0
1.1224413E+004	5.456579882804363E+001	-6.6708291E-001	-5.943143073904428E-002	3.9645693E-005	-6.6703880E-001	0
1.1250142E+004	5.476579882299120E+001	-6.6907173E-001	-5.947229303335119E-002	3.9791230E-005	-6.6903871E-001	0
1.1273212E+004	5.496579881793878E+001	-6.7112190E-001	-5.953244601013119E-002	3.9953527E-005	-6.7103857E-001	0
1.1286503E+004	5.516579881288635E+001	-6.7306030E-001	-5.963408606614753E-002	4.0137336E-005	-6.7303842E-001	0
1.1314896E+004	5.536569880783645E+001	-6.7508638E-001	-5.966350938952192E-002	4.0278024E-005	-6.7503744E-001	0
1.1332073E+004	5.556569880278403E+001	-6.7706591E-001	-5.974775246731151E-002	4.0453167E-005	-6.7703891E-001	0
1.1361568E+004	5.576559879773413E+001	-6.7905366E-001	-5.976760076187876E-002	4.0585408E-005	-6.7903817E-001	0
1.1375005E+004	5.596559879268170E+001	-6.8103868E-001	-5.987150509590394E-002	4.0774812E-005	-6.8103802E-001	0
1.1379309E+004	5.616559878762928E+001	-6.8309969E-001	-6.002998376548133E-002	4.1006464E-005	-6.8303794E-001	0
1.1405810E+004	5.636559878257685E+001	-6.8508780E-001	-6.006480948028092E-002	4.1149669E-005	-6.8503779E-001	0
1.1430225E+004	5.656559877752443E+001	-6.8702692E-001	-6.010616135196378E-002	4.1294552E-005	-6.8703771E-001	0
1.1452820E+004	5.676559877247200E+001	-6.8905789E-001	-6.016490778826666E-002	4.1457104E-005	-6.8903762E-001	0
1.1440709E+004	5.696559876741958E+001	-6.9108844E-001	-6.040608352303611E-002	4.1745945E-005	-6.9103742E-001	0
1.1460368E+004	5.716559876236715E+001	-6.9307667E-001	-6.047595390794425E-002	4.1914474E-005	-6.9303745E-001	0
1.1472702E+004	5.736559875731473E+001	-6.9510221E-001	-6.058749035497124E-002	4.2114498E-005	-6.9503731E-001	0
1.1480231E+004	5.756559875226230E+001	-6.9709098E-001	-6.072098564656436E-002	4.2328051E-005	-6.9703716E-001	0
1.1491457E+004	5.776559874720988E+001	-6.9906020E-001	-6.083303369431764E-002	4.2525953E-005	-6.9903708E-001	0
1.1512036E+004	5.796559874215745E+001	-7.0112771E-001	-6.090388316745599E-002	4.2701398E-005	-7.0103693E-001	0
1.1507387E+004	5.816559873710503E+001	-7.0308477E-001	-6.109855927383379E-002	4.2957465E-005	-7.0303684E-001	0
1.1508148E+004	5.836559873205260E+001	-7.0507067E-001	-6.126708374886691E-002	4.3197622E-005	-7.0503676E-001	0
1.1496488E+004	5.856559872700018E+001	-7.0707148E-001	-6.150325534066980E-002	4.3487198E-005	-7.0703667E-001	0
1.1502127E+004	5.876559872194775E+001	-7.0907438E-001	-6.164723871985367E-002	4.3712476E-005	-7.0903653E-001	0
1.1497798E+004	5.896559871689533E+001	-7.1104765E-001	-6.184207103394668E-002	4.3972661E-005	-7.1103638E-001	0
1.1479502E+004	5.916549871184543E+001	-7.1307731E-001	-6.211744425159749E-002	4.4294538E-005	-7.1303707E-001	0
1.1478325E+004	5.936539870679553E+001	-7.1505785E-001	-6.229635704807132E-002	4.4545501E-005	-7.1503615E-001	0
1.1473350E+004	5.956539870174311E+001	-7.1705586E-001	-6.249751721914243E-002	4.4814209E-005	-7.1703607E-001	0
1.1458966E+004	5.976539869669068E+001	-7.1908236E-001	-6.275281215470940E-002	4.5124441E-005	-7.1903598E-001	0
1.1418533E+004	5.996539869163826E+001	-7.2104323E-001	-6.314674574225010E-002	4.5531535E-005	-7.2103590E-001	0
1.1405471E+004	6.016539868658583E+001	-7.2306681E-001	-6.339649206593367E-002	4.5839901E-005	-7.2303575E-001	0
1.1380401E+004	6.036539868153341E+001	-7.2510970E-001	-6.371564977082189E-002	4.6200836E-005	-7.2503561E-001	0
1.1353013E+004	6.056539867648098E+001	-7.2709078E-001	-6.404385927593670E-002	4.6565699E-005	-7.2703558E-001	0
1.1336351E+004	6.076539867142856E+001	-7.2903174E-001	-6.430920961475536E-002	4.6883455E-005	-7.2903538E-001	0
1.1289527E+004	6.096539866637613E+001	-7.3107040E-001	-6.475651006334693E-002	4.7341568E-005	-7.3103529E-001	0
1.1272009E+004	6.116539866132371E+001	-7.3309219E-001	-6.503651846757741E-002	4.7677764E-005	-7.3303521E-001	0
1.1234937E+004	6.136539865627128E+001	-7.3508203E-001	-6.542823223245087E-002	4.8095117E-005	-7.3503500E-001	0
1.1192500E+004	6.156539865121886E+001	-7.3710430E-001	-6.585698622614666E-002	4.8543468E-005	-7.3703504E-001	0
1.1161168E+004	6.176539864616643E+001	-7.3905909E-001	-6.621700035177969E-002	4.8938276E-005	-7.3903483E-001	0
1.1114409E+004	6.196539864111401E+001	-7.4109352E-001	-6.667862585671802E-002	4.9415099E-005	-7.4103481E-001	0
1.1069240E+004	6.216539863606158E+001	-7.4310005E-001	-6.713198203078213E-002	4.9885781E-005	-7.4303460E-001	0
1.1018877E+004	6.236539863100916E+001	-7.4513328E-001	-6.762334117518087E-002	5.0388400E-005	-7.4503452E-001	0
1.0952178E+004	6.256539862595673E+001	-7.4705416E-001	-6.821055695585589E-002	5.0956980E-005	-7.4703443E-001	0
1.0912577E+004	6.276529862090683E+001	-7.4910408E-001	-6.864593696074528E-002	5.1422950E-005	-7.4903429E-001	0
1.0858161E+004	6.296519861585693E+001	-7.5107503E-001	-6.917147389919287E-002	5.1952968E-005	-7.5103426E-001	0
1.0796369E+004	6.316519861080451E+001	-7.5306004E-001	-6.975123404140848E-002	5.2526866E-005	-7.5303406E-001	0
1.0732488E+004	6.336519860575208E+001	-7.5508171E-001	-7.035476606615887E-002	5.3123596E-005	-7.5503397E-001	0
1.0669545E+004	6.356519860069966E+001	-7.5712287E-001	-7.096111966780660E-002	5.3726286E-005	-7.5703388E-001	0
1.0630752E+004	6.376519859564723E+001	-7.5908011E-001	-7.140417929840104E-002	5.4201493E-005	-7.5903374E-001	0
1.0551379E+004	6.396519859059481E+001	-7.6110053E-001	-7.213280265865718E-002	5.4900316E-005	-7.6103365E-001	0
1.0499987E+004	6.416519858554238E+001	-7.6306444E-001	-7.267289394417698E-002	5.5454100E-005	-7.6303357E-001	0
1.0448312E+004	6.436519858048996E+001	-7.6507634E-001	-7.322487846078130E-002	5.6022622E-005	-7.6503348E-001	0
1.0361346E+004	6.456519857543753E+001	-7.6706690E-001	-7.403158954748057E-002	5.6787183E-005	-7.6703328E-001	0
1.0298860E+004	6.476519857038511E+001	-7.6911652E-001	-7.467976773776497E-002	5.7437443E-005	-7.6903319E-001	0
1.0247038E+004	6.496519856533268E+001	-7.7108407E-001	-7.524945573773541E-002	5.8023656E-005	-7.7103317E-001	0
1.0165310E+004	6.516519856028026E+001	-7.7307606E-001	-7.605041803627399E-002	5.8792757E-005	-7.7303296E-001	0
1.0094684E+004	6.536519855522783E+001	-7.7511036E-001	-7.678402044024746E-002	5.9516089E-005	-7.7503288E-001	0
1.0029798E+004	6.556519855017541E+001	-7.7705944E-001	-7.747508680644355E-002	6.0202747E-005	-7.7703279E-001	0
9.9586484E+003	6.576519854512298E+001	-7.7906495E-001	-7.822998738984932E-002	6.0946240E-005	-7.7903271E-001	0
9.8876523E+003	6.596519854007056E+001	-7.8110313E-001	-7.899783773594860E-002	6.1705461E-005	-7.8103262E-001	0
9.8162197E+003	6.616519853501813E+001	-7.8311145E-001	-7.977729368070025E-002	6.2474515E-005	-7.8303242E-001	0
9.7519775E+003	6.636509852996824E+001	-7.8507656E-001	-8.050434333752307E-002	6.3202075E-005	-7.8503197E-001	0
9.6815654E+003	6.656499852491834E+001	-7.8708869E-001	-8.129766521407317E-002	6.3988475E-005	-7.8703231E-001	0
9.6102324E+003	6.676499851986591E+001	-7.8909534E-001	-8.210991413750646E-002	6.4792548E-005	-7.8903210E-001	0
9.5460898E+003	6.696499851481349E+001	-7.9107696E-001	-8.286921595024749E-002	6.5555927E-005	-7.9103202E-001	0
9.4726621E+003	6.716499850976106E+001	-7.9304606E-001	-8.371944763157047E-002	6.6393375E-005	-7.9303193E-001	0
9.3947744E+003	6.736499850470864E+001	-7.9509580E-001	-8.463170388322774E-002	6.7290312E-005	-7.9503185E-001	0
9.3244346E+003	6.756499849965621E+001	-7.9707080E-001	-8.548194836495676E-002	6.8135167E-005	-7.9703170E-001	0
9.2595244E+003	6.776499849460379E+001	-7.9911482E-001	-8.630193253639118E-002	6.8965157E-005	-7.9903162E-001	0
9.1797646E+003	6.796499848955136E+001	-8.0106854E-001	-8.726460151448223E-002	6.9904927E-005	-8.0103147E-001	0
9.0866357E+003	6.816499848449894E+001	-8.0306381E-001	-8.837856689907264E-002	7.0973627E-005	-8.0303133E-001	0
9.0284678E+003	6.836499847944651E+001	-8.0503935E-001	-8.916677298001074E-002	7.1782757E-005	-8.0503130E-001	0
8.9460430E+003	6.856499847439409E+001	-8.0708694E-001	-9.021719656261651E-002	7.2813120E-005	-8.0703115E-001	0
8.8856123E+003	6.876499846934166E+001	-8.0906332E-001	-9.105318493913028E-002	7.3667790E-005	-8.0903113E-001	0
8.8226914E+003	6.896499846428924E+001	-8.1104475E-001	-9.192713944277287E-002	7.4557021E-005	-8.1103086E-001	0
8.7336084E+003	6.916499845923681E+001	-8.1309068E-001	-9.309905357215409E-002	7.5697972E-005	-8.1303084E-001	0
8.6582070E+003	6.936499845418439E+001	-8.1504351E-001	-9.413536914778442E-002	7.6724420E-005	-8.1503075E-001	0
8.6046836E+003	6.956499844913196E+001	-8.1707579E-001	-9.495709970057076E-002	7.7587145E-005	-8.1703055E-001	0
8.5403350E+003	6.976499844407954E+001	-8.1905645E-001	-9.590449070034213E-002	7.8551195E-005	-8.1903058E-001	0
8.4485859E+003	6.996499843902711E+001	-8.2109421E-001	-9.718718230767609E-002	7.9799836E-005	-8.2103062E-001	0
8.3812559E+003	7.016489843397721E+001	-8.2311463E-001	-9.820898852766735E-002	8.0837257E-005	-8.2303065E-001	0
8.3146504E+003	7.036479842892732E+001	-8.2509047E-001	-9.923333287251790E-002	8.1876475E-005	-8.2503015E-001	0
8.2508398E+003	7.056479842387489E+001	-8.2707155E-001	-1.002408899483012E-001	8.2906387E-005	-8.2703006E-001	0
8.1744351E+003	7.076479841882247E+001	-8.2909381E-001	-1.014252126654043E-001	8.4091014E-005	-8.2902998E-001	0
8.1140234E+003	7.096479841377004E+001	-8.3109224E-001	-1.024266486805852E-001	8.5125990E-005	-8.3102977E-001	0
8.0380786E+003	7.116479840871762E+001	-8.3309007E-001	-1.036429343979528E-001	8.6343898E-005	-8.3302981E-001	0
7.9715063E+003	7.136479840366519E+001	-8.3507657E-001	-1.047576874602257E-001	8.7480694E-005	-8.3502960E-001	0
7.9196128E+003	7.156479839861277E+001	-8.3709377E-001	-1.056988269318726E-001	8.8479828E-005	-8.3702958E-001	0
7.8567734E+003	7.176479839356034E+001	-8.3909827E-001	-1.067993477601427E-001	8.9615147E-005	-8.3902943E-001	0
7.7871035E+003	7.196479838850792E+001	-8.4104717E-001	-1.080051358533672E-001	9.0837413E-005	-8.4102929E-001	0
7.7391250E+003	7.216479838345549E+001	-8.4310859E-001	-1.089410750890183E-001	9.1849157E-005	-8.4302920E-001	0
7.6744688E+003	7.236479837840307E+001	-8.4509128E-001	-1.101172387276836E-001	9.3059120E-005	-8.4502906E-001	0
7.6000718E+003	7.256479837335064E+001	-8.4707618E-001	-1.114563388515544E-001	9.4412011E-005	-8.4702903E-001	0
7.5219702E+003	7.276479836829822E+001	-8.4906220E-001	-1.128776340783404E-001	9.5840136E-005	-8.4902883E-001	0
7.4552490E+003	7.296479836324579E+001	-8.5109073E-001	-1.141599309419505E-001	9.7160460E-005	-8.5102874E-001	0
7.3682612E+003	7.316479835819337E+001	-8.5307938E-001	-1.157775733043391E-001	9.8767458E-005	-8.5302866E-001	0
7.2719482E+003	7.336479835314094E+001	-8.5507786E-001	-1.175858037432231E-001	1.0054502E-004	-8.5502851E-001	0
7.2130596E+003	7.356479834808852E+001	-8.5710263E-001	-1.188264975774098E-001	1.0184650E-004	-8.5702842E-001	0
7.1083848E+003	7.376469834303862E+001	-8.5906619E-001	-1.208525199386965E-001	1.0382031E-004	-8.5902834E-001	0
7.0435532E+003	7.396459833798872E+001	-8.6106300E-001	-1.222483804122102E-001	1.0526356E-004	-8.6102813E-001	0
6.9550273E+003	7.416459833293629E+001	-8.6307806E-001	-1.240941308831585E-001	1.0710292E-004	-8.6302817E-001	0
6.8400293E+003	7.436459832788387E+001	-8.6512542E-001	-1.264797784081853E-001	1.0942087E-004	-8.6502796E-001	0
6.7046440E+003	7.456459832283144E+001	-8.6707681E-001	-1.293248087674581E-001	1.1213454E-004	-8.6702794E-001	0
6.5728403E+003	7.476459831777902E+001	-8.6904454E-001	-1.322175000388757E-001	1.1490290E-004	-8.6902767E-001	0
6.4309624E+003	7.496459831272659E+001	-8.7110472E-001	-1.354548019893429E-001	1.1799532E-004	-8.7102765E-001	0
6.2685073E+003	7.516459830767417E+001	-8.7307501E-001	-1.392795694960269E-001	1.2160151E-004	-8.7302756E-001	0
6.1626035E+003	7.536459830262174E+001	-8.7504023E-001	-1.419919715716996E-001	1.2424869E-004	-8.7502748E-001	0
5.9494053E+003	7.556459829756932E+001	-8.7707251E-001	-1.474218823769615E-001	1.2929967E-004	-8.7702745E-001	0
5.7091187E+003	7.576459829251689E+001	-8.7910575E-001	-1.539827436155929E-001	1.3536711E-004	-8.7902808E-001	0
5.4356655E+003	7.596459828746447E+001	-8.8108331E-001	-1.620929991760950E-001	1.4281743E-004	-8.8102806E-001	0
5.1416182E+003	7.616459828241204E+001	-8.8305002E-001	-1.717455498166722E-001	1.5165991E-004	-8.8302809E-001	0
4.8792412E+003	7.636459827735962E+001	-8.8507175E-001	-1.813953648524076E-001	1.6054792E-004	-8.8502812E-001	0
4.7056006E+003	7.656459827230719E+001	-8.8705039E-001	-1.885095038778593E-001	1.6721743E-004	-8.8702804E-001	0
4.6498760E+003	7.676459826725477E+001	-8.8912982E-001	-1.912158051243815E-001	1.7001567E-004	-8.8902801E-001	0
4.6506758E+003	7.696459826220234E+001	-8.9105672E-001	-1.915972579488114E-001	1.7072403E-004	-8.9102817E-001	0
4.6411006E+003	7.716459825714992E+001	-8.9305085E-001	-1.924222158109705E-001	1.7184282E-004	-8.9302808E-001	0
4.5829185E+003	7.736459825209749E+001	-8.9505273E-001	-1.953019177479887E-001	1.7480552E-004	-8.9502811E-001	0
4.4653438E+003	7.756459824704507E+001	-8.9708233E-001	-2.008988336678965E-001	1.8022279E-004	-8.9702815E-001	0
4.3135127E+003	7.776459824199264E+001	-8.9910376E-001	-2.084388750670759E-001	1.8740818E-004	-8.9902818E-001	0
4.1363198E+003	7.796459823694022E+001	-9.0106684E-001	-2.178426427859614E-001	1.9629078E-004	-9.0102810E-001	0
3.9744246E+003	7.816459823188779E+001	-9.0306216E-001	-2.272183458086378E-001	2.0519229E-004	-9.0302807E-001	0
3.7797014E+003	7.836459822683537E+001	-9.0510696E-001	-2.394651997213568E-001	2.1674162E-004	-9.0502816E-001	0
3.5785374E+003	7.856459822178294E+001	-9.0710890E-001	-2.534859430809373E-001	2.2993935E-004	-9.0702802E-001	0
3.3684460E+003	7.876459821673052E+001	-9.0909898E-001	-2.698867591182434E-001	2.4535379E-004	-9.0902805E-001	0
3.1600828E+003	7.896459821167809E+001	-9.1110706E-001	-2.883174641357726E-001	2.6268809E-004	-9.1102809E-001	0
2.8983757E+003	7.916459820662567E+001	-9.1310716E-001	-3.150409801003615E-001	2.8766616E-004	-9.1302806E-001	0
2.7248582E+003	7.936459820157324E+001	-9.1508687E-001	-3.358291684229628E-001	3.0731288E-004	-9.1502804E-001	0
2.5337400E+003	7.956459819652082E+001	-9.1706765E-001	-3.619422757905184E-001	3.3192555E-004	-9.1702807E-001	0
2.3492275E+003	7.976459819146839E+001	-9.1911262E-001	-3.912403418908497E-001	3.5959395E-004	-9.1902810E-001	0
2.1717207E+003	7.996459818641597E+001	-9.2111003E-001	-4.241383558016736E-001	3.9067809E-004	-9.2102808E-001	0
1.9631554E+003	8.016459818136354E+001	-9.2309988E-001	-4.702123337617481E-001	4.3405296E-004	-9.2302811E-001	0
1.8109049E+003	8.036459817631112E+001	-9.2509490E-001	-5.108467543755335E-001	4.7258174E-004	-9.2502815E-001	0
1.6650424E+003	8.056459817125869E+001	-9.2706931E-001	-5.567842233132012E-001	5.1617756E-004	-9.2702806E-001	0
1.5002301E+003	8.076459816620627E+001	-9.2910588E-001	-6.193089345575675E-001	5.7540357E-004	-9.2902809E-001	0
1.3720656E+003	8.096459816115384E+001	-9.3112075E-001	-6.786269944102035E-001	6.3188368E-004	-9.3102813E-001	0
1.2449059E+003	8.116459815610142E+001	-9.3307567E-001	-7.495150442347063E-001	6.9935428E-004	-9.3302816E-001	0
1.1249421E+003	8.136459815104899E+001	-9.3514067E-001	-8.312789221418830E-001	7.7736273E-004	-9.3502808E-001	0
1.0177570E+003	8.156459814599657E+001	-9.3708253E-001	-9.207331364353486E-001	8.6280296E-004	-9.3702805E-001	0
9.2511072E+002	8.176459814094414E+001	-9.3910563E-001	-1.015127806259054E+000	9.5331226E-004	-9.3902814E-001	0
8.2582562E+002	8.198459813538648E+001	-9.4130003E-001	-1.139829038838736E+000	1.0729211E-003	-9.4122803E-001	0
7.4417993E+002	8.218459813033405E+001	-9.4326335E-001	-1.267520546989175E+000	1.1956057E-003	-9.4322813E-001	0
6.7233398E+002	8.238459812528163E+001	-9.4529265E-001	-1.405986710073513E+000	1.3290689E-003	-9.4522816E-001	0
6.0718591E+002	8.258459812022920E+001	-9.4726372E-001	-1.560088443039774E+000	1.4778152E-003	-9.4722807E-001	0
5.4911359E+002	8.278459811517678E+001	-9.4927293E-001	-1.728736972981165E+000	1.6410432E-003	-9.4922811E-001	0
4.9767236E+002	8.298459811012435E+001	-9.5124698E-001	-1.911392034958549E+000	1.8182059E-003	-9.5122814E-001	0
4.5031992E+002	8.318459810507193E+001	-9.5329887E-001	-2.116936955356010E+000	2.0180736E-003	-9.5322818E-001	0
4.0918872E+002	8.338459810001950E+001	-9.5527476E-001	-2.334557852726817E+000	2.2301441E-003	-9.5522809E-001	0
3.7103445E+002	8.358459809496708E+001	-9.5729154E-001	-2.580061026120276E+000	2.4698705E-003	-9.5722806E-001	0
3.3759491E+002	8.378459808991465E+001	-9.5929551E-001	-2.841557877843613E+000	2.7258936E-003	-9.5922816E-001	0
3.0779773E+002	8.398459808486223E+001	-9.6129012E-001	-3.123122732300754E+000	3.0022271E-003	-9.6122801E-001	0
2.8136002E+002	8.418459807980980E+001	-9.6331793E-001	-3.423791036753158E+000	3.2981993E-003	-9.6322805E-001	0
2.5768521E+002	8.438459807475738E+001	-9.6530974E-001	-3.746081298373444E+000	3.6161288E-003	-9.6522808E-001	0
2.3650653E+002	8.458459806970495E+001	-9.6730739E-001	-4.089981696063703E+000	3.9562695E-003	-9.6722806E-001	0
2.1748476E+002	8.478459806465253E+001	-9.6930647E-001	-4.456893861902003E+000	4.3200962E-003	-9.6922803E-001	0
2.0094305E+002	8.498459805960010E+001	-9.7126305E-001	-4.833523829541512E+000	4.6946229E-003	-9.7122812E-001	0
1.8572528E+002	8.518459805454768E+001	-9.7326851E-001	-5.240366514104860E+000	5.1002838E-003	-9.7322810E-001	0
1.7202228E+002	8.538459804949525E+001	-9.7528464E-001	-5.669524981862054E+000	5.5294004E-003	-9.7522807E-001	0
1.5991550E+002	8.558459804444283E+001	-9.7728968E-001	-6.111288271827476E+000	5.9724990E-003	-9.7722811E-001	0
1.4879491E+002	8.578459803939040E+001	-9.7928971E-001	-6.581473397019209E+000	6.4451690E-003	-9.7922814E-001	0
1.3912354E+002	8.598459803433798E+001	-9.8127300E-001	-7.053249688105268E+000	6.9211633E-003	-9.8122811E-001	0
1.3015227E+002	8.618459802928555E+001	-9.8325902E-001	-7.554682458406688E+000	7.4282098E-003	-9.8322803E-001	0
1.2201502E+002	8.638459802423313E+001	-9.8531330E-001	-8.075344234367023E+000	7.9567442E-003	-9.8522812E-001	0
1.1473451E+002	8.658459801918070E+001	-9.8730052E-001	-8.605087562753511E+000	8.4958076E-003	-9.8722816E-001	0
1.0792242E+002	8.678459801412828E+001	-9.8926002E-001	-9.166398969975166E+000	9.0679517E-003	-9.8922801E-001	0
1.0181856E+002	8.698459800907585E+001	-9.9126911E-001	-9.735642561972000E+000	9.6506421E-003	-9.9122804E-001	0
9.6155991E+001	8.718459800402343E+001	-9.9328101E-001	-1.032989189718043E+001	1.0260485E-002	-9.9322814E-001	0
9.0653824E+001	8.739459799871838E+001	-9.9535036E-001	-1.097968438127816E+001	1.0928633E-002	-9.9532813E-001	0
8.5483124E+001	8.760459799341334E+001	-9.9749267E-001	-1.166888455874258E+001	1.1639627E-002	-9.9742812E-001	0
8.1172218E+001	8.780459798836091E+001	-9.9947453E-001	-1.231301215291025E+001	1.2306542E-002	-9.9942809E-001	0
7.7181320E+001	8.800459798330849E+001	-1.0014595E+000	-1.297541290900065E+001	1.2994350E-002	-1.0014281E+000	0
7.3438889E+001	8.820459797825606E+001	-1.0034525E+000	-1.366377592113821E+001	1.3710951E-002	-1.0034281E+000	0
6.9966713E+001	8.840459797320364E+001	-1.0054486E+000	-1.437038448135314E+001	1.4448683E-002	-1.0054281E+000	0
6.6828079E+001	8.860459796815121E+001	-1.0074570E+000	-1.507535500239894E+001	1.5187772E-002	-1.0074282E+000	0
6.3858696E+001	8.880459796309879E+001	-1.0095279E+000	-1.580877721944904E+001	1.5959403E-002	-1.0094281E+000	0
6.1034515E+001	8.900459795804636E+001	-1.0114594E+000	-1.657192424081617E+001	1.6761828E-002	-1.0114281E+000	0
5.8427105E+001	8.920459795299394E+001	-1.0134751E+000	-1.734597425517586E+001	1.7579712E-002	-1.0134281E+000	0
5.6025822E+001	8.940459794794151E+001	-1.0154635E+000	-1.812491841151331E+001	1.8405193E-002	-1.0154281E+000	0
5.3730728E+001	8.960459794288909E+001	-1.0175120E+000	-1.893724463896953E+001	1.9268872E-002	-1.0174280E+000	0
5.1626919E+001	8.980459793783666E+001	-1.0195243E+000	-1.974792069994129E+001	2.0133486E-002	-1.0194281E+000	0
4.9644497E+001	9.000459793278424E+001	-1.0214504E+000	-2.057529987905028E+001	2.1016648E-002	-1.0214281E+000	0
4.7778130E+001	9.020459792773181E+001	-1.0234976E+000	-2.142188468839039E+001	2.1925246E-002	-1.0234280E+000	0
4.6012363E+001	9.040459792267939E+001	-1.0255084E+000	-2.228767107822466E+001	2.2856195E-002	-1.0254281E+000	0
4.4343094E+001	9.060459791762696E+001	-1.0275156E+000	-2.317194312648707E+001	2.3809534E-002	-1.0274282E+000	0
4.2810890E+001	9.080459791257454E+001	-1.0295025E+000	-2.404767869375729E+001	2.4757145E-002	-1.0294281E+000	0
4.1355968E+001	9.100459790752211E+001	-1.0314921E+000	-2.494179646795851E+001	2.5727266E-002	-1.0314280E+000	0
3.9964520E+001	9.120459790246969E+001	-1.0335009E+000	-2.586046230549723E+001	2.6726812E-002	-1.0334281E+000	0
3.8656742E+001	9.140459789741726E+001	-1.0355268E+000	-2.678774025056356E+001	2.7739422E-002	-1.0354280E+000	0
3.7452301E+001	9.160459789236484E+001	-1.0375632E+000	-2.770359123266746E+001	2.8744226E-002	-1.0374280E+000	0
3.6292633E+001	9.180459788731241E+001	-1.0395285E+000	-2.864296241330999E+001	2.9775176E-002	-1.0394281E+000	0
3.5182110E+001	9.200459788225999E+001	-1.0415101E+000	-2.960340030988061E+001	3.0832240E-002	-1.0414281E+000	0
3.4148079E+001	9.220459787720756E+001	-1.0434947E+000	-3.055793308238594E+001	3.1887040E-002	-1.0434281E+000	0
3.3142227E+001	9.240459787215514E+001	-1.0454785E+000	-3.154520893880834E+001	3.2979835E-002	-1.0454280E+000	0
3.2179409E+001	9.260459786710271E+001	-1.0474701E+000	-3.255094218956913E+001	3.4096137E-002	-1.0474281E+000	0
3.1313473E+001	9.280459786205029E+001	-1.0494901E+000	-3.351560869589935E+001	3.5174299E-002	-1.0494282E+000	0
3.0497524E+001	9.300459785699786E+001	-1.0515567E+000	-3.448006703604904E+001	3.6257748E-002	-1.0514281E+000	0
2.9693634E+001	9.320459785194544E+001	-1.0535362E+000	-3.548020431270936E+001	3.7379678E-002	-1.0534281E+000	0
2.8887505E+001	9.340459784689301E+001	-1.0555185E+000	-3.653892973869569E+001	3.8567517E-002	-1.0554280E+000	0
2.8126719E+001	9.360459784184059E+001	-1.0574801E+000	-3.759699627763841E+001	3.9758075E-002	-1.0574281E+000	0
2.7447515E+001	9.380459783678816E+001	-1.0594853E+000	-3.860040923878717E+001	4.0896568E-002	-1.0594281E+000	0
2.6753042E+001	9.400459783173574E+001	-1.0614836E+000	-3.967711920667932E+001	4.2116612E-002	-1.0614281E+000	0
2.6089102E+001	9.420459782668331E+001	-1.0635440E+000	-4.076583535384708E+001	4.3356262E-002	-1.0634280E+000	0
2.5483271E+001	9.440459782163089E+001	-1.0655277E+000	-4.181283111015398E+001	4.4552729E-002	-1.0654280E+000	0
2.4834360E+001	9.460459781657846E+001	-1.0675265E+000	-4.298586564891190E+001	4.5888551E-002	-1.0674281E+000	0
2.4258118E+001	9.480459781152604E+001	-1.0695310E+000	-4.408961016385734E+001	4.7155201E-002	-1.0694281E+000	0
2.3707470E+001	9.500459780647361E+001	-1.0715392E+000	-4.519837697184812E+001	4.8431832E-002	-1.0714282E+000	0
2.3187639E+001	9.520459780142119E+001	-1.0735230E+000	-4.629721145754257E+001	4.9701124E-002	-1.0734282E+000	0
2.2680513E+001	9.540459779636876E+001	-1.0755284E+000	-4.742081331557961E+001	5.1002432E-002	-1.0754281E+000	0
2.2179310E+001	9.560459779131634E+001	-1.0775282E+000	-4.858258679394294E+001	5.2349109E-002	-1.0774281E+000	0
2.1727676E+001	9.580459778626391E+001	-1.0795457E+000	-4.968528162297753E+001	5.3637534E-002	-1.0794282E+000	0
2.1269228E+001	9.600459778121149E+001	-1.0815115E+000	-5.084864843945934E+001	5.4993398E-002	-1.0814282E+000	0
2.0850374E+001	9.620459777615906E+001	-1.0835648E+000	-5.196860020555334E+001	5.6311343E-002	-1.0834281E+000	0
2.0453997E+001	9.640459777110664E+001	-1.0855129E+000	-5.307094025395600E+001	5.7609189E-002	-1.0854281E+000	0
2.0057467E+001	9.660459776605421E+001	-1.0875317E+000	-5.422079184969004E+001	5.8966830E-002	-1.0874281E+000	0
1.9645081E+001	9.680459776100179E+001	-1.0895303E+000	-5.546072260430606E+001	6.0426142E-002	-1.0894282E+000	0
1.9282906E+001	9.700459775594936E+001	-1.0915252E+000	-5.660584728842156E+001	6.1786707E-002	-1.0914282E+000	0
1.8918701E+001	9.720459775089694E+001	-1.0935485E+000	-5.780251553810126E+001	6.3209854E-002	-1.0934280E+000	0
1.8557354E+001	9.740459774584451E+001	-1.0955189E+000	-5.903421928606895E+001	6.4673103E-002	-1.0954281E+000	0
1.8211149E+001	9.760459774079209E+001	-1.0975058E+000	-6.026559905075982E+001	6.6141844E-002	-1.0974282E+000	0
1.7898605E+001	9.780459773573966E+001	-1.0995402E+000	-6.143161351502332E+001	6.7546532E-002	-1.0994282E+000	0
1.7535065E+001	9.800459773068724E+001	-1.1015399E+000	-6.281926114542966E+001	6.9197923E-002	-1.1014282E+000	0
1.7233290E+001	9.820459772563481E+001	-1.1035043E+000	-6.403329258170538E+001	7.0661016E-002	-1.1034281E+000	0
1.6936596E+001	9.840459772058239E+001	-1.1055497E+000	-6.527579237219970E+001	7.2165631E-002	-1.1054280E+000	0
1.6656685E+001	9.860459771552996E+001	-1.1075027E+000	-6.648998052679212E+001	7.3637836E-002	-1.1074282E+000	0
1.6323059E+001	9.880459771047754E+001	-1.1095394E+000	-6.797373842544300E+001	7.5419538E-002	-1.1094282E+000	0
1.5856927E+001	9.900459770542511E+001	-1.1115561E+000	-7.009908381178803E+001	7.7919059E-002	-1.1114280E+000	0
1.5590704E+001	9.920459770037269E+001	-1.1135266E+000	-7.142246855575718E+001	7.9530820E-002	-1.1134281E+000	0
1.5335541E+001	9.940459769532026E+001	-1.1155204E+000	-7.274085355453724E+001	8.1143901E-002	-1.1154281E+000	0
1.5127967E+001	9.960459769026784E+001	-1.1175061E+000	-7.387021553813702E+001	8.2550421E-002	-1.1174282E+000	0
1.4936859E+001	9.980459768521541E+001	-1.1195298E+000	-7.495082136022253E+001	8.3909683E-002	-1.1194282E+000	0
1.4717197E+001	1.000045976801630E+002	-1.1215715E+000	-7.620822686943598E+001	8.5472979E-002	-1.1214280E+000	0
1.4339339E+001	1.002045976751106E+002	-1.1235610E+000	-7.835514789535870E+001	8.8036790E-002	-1.1234281E+000	0
1.3893122E+001	1.004045976700581E+002	-1.1255821E+000	-8.101722130429437E+001	9.1191538E-002	-1.1254281E+000	0
1.3664207E+001	1.006045976650057E+002	-1.1276207E+000	-8.252367955270506E+001	9.3055412E-002	-1.1274281E+000	0
1.3440652E+001	1.008045976599533E+002	-1.1295378E+000	-8.403891551143192E+001	9.4925135E-002	-1.1294281E+000	0
1.3234956E+001	1.010045976549009E+002	-1.1316150E+000	-8.550199058266708E+001	9.6755341E-002	-1.1314281E+000	0
1.3027667E+001	1.012045976498484E+002	-1.1335905E+000	-8.701407882145509E+001	9.8638326E-002	-1.1334281E+000	0
1.2870828E+001	1.014045976447960E+002	-1.1355926E+000	-8.822995907811639E+001	1.0019328E-001	-1.1354281E+000	0
1.2680593E+001	1.016045976397436E+002	-1.1375854E+000	-8.971073529185060E+001	1.0205362E-001	-1.1374282E+000	0
1.2507099E+001	1.018045976346912E+002	-1.1396165E+000	-9.111757327207397E+001	1.0383909E-001	-1.1394281E+000	0
1.2336203E+001	1.020045976296387E+002	-1.1415924E+000	-9.254001369822277E+001	1.0564297E-001	-1.1414281E+000	0
1.2175817E+001	1.022045976245863E+002	-1.1436177E+000	-9.392534063678750E+001	1.0741469E-001	-1.1434281E+000	0
1.2047037E+001	1.024045976195339E+002	-1.1456058E+000	-9.509440429680967E+001	1.0894070E-001	-1.1454281E+000	0
1.1841008E+001	1.026045976144815E+002	-1.1476164E+000	-9.691880407192753E+001	1.1122561E-001	-1.1474282E+000	0
1.1535298E+001	1.028045976094290E+002	-1.1495599E+000	-9.965584244587581E+001	1.1456036E-001	-1.1494281E+000	0
1.1215107E+001	1.030045976043766E+002	-1.1516086E+000	-1.026836915567619E+002	1.1825142E-001	-1.1514281E+000	0
1.1067227E+001	1.032045975993242E+002	-1.1535846E+000	-1.042342952233057E+002	1.2024308E-001	-1.1534281E+000	0
1.0917570E+001	1.034045975942718E+002	-1.1555481E+000	-1.058429764079401E+002	1.2230665E-001	-1.1554281E+000	0
1.0674818E+001	1.036045975892193E+002	-1.1575489E+000	-1.084373453177020E+002	1.2552153E-001	-1.1574281E+000	0
1.0547416E+001	1.038145975839143E+002	-1.1596974E+000	-1.099508593890129E+002	1.2750973E-001	-1.1595283E+000	0
1.0413304E+001	1.040245975786092E+002	-1.1617512E+000	-1.115641215988301E+002	1.2960975E-001	-1.1616281E+000	0
1.0348423E+001	1.042245975735568E+002	-1.1637796E+000	-1.124596135892020E+002	1.3087821E-001	-1.1636281E+000	0
1.0265504E+001	1.044245975685044E+002	-1.1657568E+000	-1.135606038327119E+002	1.3238405E-001	-1.1656281E+000	0
1.0165481E+001	1.046245975634520E+002	-1.1677641E+000	-1.148754452696730E+002	1.3414742E-001	-1.1676282E+000	0
9.9998741E+000	1.048245975583995E+002	-1.1697682E+000	-1.169782904778476E+002	1.3683748E-001	-1.1696281E+000	0
9.9366112E+000	1.050245975533471E+002	-1.1717792E+000	-1.179254360663915E+002	1.3818257E-001	-1.1716281E+000	0
9.8990402E+000	1.052245975482947E+002	-1.1737684E+000	-1.185739627273715E+002	1.3917837E-001	-1.1736281E+000	0
9.7592974E+000	1.054245975432423E+002	-1.1757562E+000	-1.204755039020463E+002	1.4164983E-001	-1.1756281E+000	0
9.4141359E+000	1.056245975381898E+002	-1.1777052E+000	-1.250996514188464E+002	1.4733051E-001	-1.1776282E+000	0
9.0755997E+000	1.058245975331374E+002	-1.1797556E+000	-1.299920296387882E+002	1.5335882E-001	-1.1796281E+000	0
9.0179195E+000	1.060245975280850E+002	-1.1817577E+000	-1.310454906638788E+002	1.5486401E-001	-1.1816281E+000	0
8.9737892E+000	1.062245975230326E+002	-1.1837453E+000	-1.319114182368421E+002	1.5614952E-001	-1.1836281E+000	0
8.8573151E+000	1.064245975179801E+002	-1.1857860E+000	-1.338764659931330E+002	1.5874884E-001	-1.1856282E+000	0
8.7566090E+000	1.066245975129277E+002	-1.1877284E+000	-1.356379420081503E+002	1.6110104E-001	-1.1876281E+000	0
8.7311401E+000	1.068245975078753E+002	-1.1897368E+000	-1.362636309816176E+002	1.6211787E-001	-1.1896281E+000	0
8.7133331E+000	1.070245975028229E+002	-1.1916970E+000	-1.367670633441462E+002	1.6298489E-001	-1.1916281E+000	0
8.5554838E+000	1.072245974977704E+002	-1.1937233E+000	-1.395272690076681E+002	1.6655695E-001	-1.1936280E+000	0
8.2974539E+000	1.074245974927180E+002	-1.1957440E+000	-1.441097607547740E+002	1.7231838E-001	-1.1956280E+000	0
8.2619257E+000	1.076245974876656E+002	-1.1977088E+000	-1.449672718988804E+002	1.7362858E-001	-1.1976281E+000	0
8.0658789E+000	1.078245974826132E+002	-1.1997745E+000	-1.487469027350551E+002	1.7846274E-001	-1.1996281E+000	0
7.8554802E+000	1.080245974775607E+002	-1.2017534E+000	-1.529828046519735E+002	1.8384761E-001	-1.2016281E+000	0
7.6894217E+000	1.082245974725083E+002	-1.2037963E+000	-1.565522477048330E+002	1.8845701E-001	-1.2036281E+000	0
7.5507884E+000	1.084245974674559E+002	-1.2057381E+000	-1.596837331248526E+002	1.9253676E-001	-1.2056282E+000	0
7.4849329E+000	1.086245974624035E+002	-1.2077092E+000	-1.613520355300287E+002	1.9486633E-001	-1.2076281E+000	0
7.4698405E+000	1.088245974573510E+002	-1.2097661E+000	-1.619534140941502E+002	1.9592576E-001	-1.2096280E+000	0
7.4846911E+000	1.090245974522986E+002	-1.2117605E+000	-1.618985337854242E+002	1.9618225E-001	-1.2116281E+000	0
7.4800892E+000	1.092245974472462E+002	-1.2136868E+000	-1.622556632522012E+002	1.9692756E-001	-1.2136281E+000	0
7.3555632E+000	1.094245974421938E+002	-1.2157530E+000	-1.652834659271498E+002	2.0094386E-001	-1.2156280E+000	0
7.0809073E+000	1.096245974371413E+002	-1.2177620E+000	-1.719782362395131E+002	2.0942856E-001	-1.2176281E+000	0
6.9126024E+000	1.098245974320889E+002	-1.2197610E+000	-1.764546789355288E+002	2.1523254E-001	-1.2196281E+000	0
6.8675137E+000	1.100245974270365E+002	-1.2217638E+000	-1.779048359410299E+002	2.1735770E-001	-1.2216281E+000	0
6.7834182E+000	1.102245974219841E+002	-1.2237611E+000	-1.804047775009039E+002	2.2077234E-001	-1.2236280E+000	0
6.7855935E+000	1.104245974169316E+002	-1.2257782E+000	-1.806442188535411E+002	2.2142975E-001	-1.2256281E+000	0
6.7343211E+000	1.106245974118792E+002	-1.2277294E+000	-1.823093070432442E+002	2.2382650E-001	-1.2276281E+000	0
6.7447104E+000	1.108245974068268E+002	-1.2298135E+000	-1.823374750965581E+002	2.2424108E-001	-1.2296281E+000	0
6.7256303E+000	1.110245974017744E+002	-1.2318070E+000	-1.831511577456986E+002	2.2560687E-001	-1.2316281E+000	0
6.4328279E+000	1.112245973967219E+002	-1.2337723E+000	-1.917931339994846E+002	2.3662905E-001	-1.2336280E+000	0
6.4108715E+000	1.114245973916695E+002	-1.2357897E+000	-1.927646911225347E+002	2.3821661E-001	-1.2356281E+000	0
6.3875437E+000	1.116245973866171E+002	-1.2377371E+000	-1.937735543413232E+002	2.3984072E-001	-1.2376281E+000	0
6.1878943E+000	1.118245973815647E+002	-1.2397527E+000	-2.003512962756522E+002	2.4838606E-001	-1.2396281E+000	0
6.1808295E+000	1.120245973765122E+002	-1.2417846E+000	-2.009090401072076E+002	2.4948575E-001	-1.2416282E+000	0
6.1401296E+000	1.122245973714598E+002	-1.2437814E+000	-2.025659882724954E+002	2.5194782E-001	-1.2436280E+000	0
5.9957371E+000	1.124245973664074E+002	-1.2457871E+000	-2.077788156457500E+002	2.5884819E-001	-1.2456281E+000	0
6.0067053E+000	1.126245973613550E+002	-1.2478048E+000	-2.077352986995338E+002	2.5921309E-001	-1.2476281E+000	0
6.0355859E+000	1.128245973563025E+002	-1.2497827E+000	-2.070689894877328E+002	2.5879124E-001	-1.2496281E+000	0
5.9878521E+000	1.130245973512501E+002	-1.2517928E+000	-2.090553989453656E+002	2.6169404E-001	-1.2516282E+000	0
5.9221129E+000	1.132245973461977E+002	-1.2537682E+000	-2.117096032858435E+002	2.6543477E-001	-1.2536281E+000	0
5.7699575E+000	1.134245973411453E+002	-1.2557760E+000	-2.176404317609313E+002	2.7330765E-001	-1.2556281E+000	0
5.5978765E+000	1.136245973360928E+002	-1.2577926E+000	-2.246910261145530E+002	2.8261471E-001	-1.2576282E+000	0
5.6242828E+000	1.138245973310404E+002	-1.2597942E+000	-2.239919690934448E+002	2.8218380E-001	-1.2596282E+000	0
5.5807624E+000	1.140245973259880E+002	-1.2617875E+000	-2.260959088872623E+002	2.8528500E-001	-1.2616280E+000	0
5.5280457E+000	1.142245973209356E+002	-1.2637612E+000	-2.286090305246198E+002	2.8890720E-001	-1.2636281E+000	0
5.4058452E+000	1.144245973158831E+002	-1.2658038E+000	-2.341546639358104E+002	2.9639387E-001	-1.2656282E+000	0
5.2638664E+000	1.146245973108307E+002	-1.2678150E+000	-2.408524293250764E+002	3.0535632E-001	-1.2676282E+000	0
5.2087874E+000	1.148245973057783E+002	-1.2697538E+000	-2.437714780323095E+002	3.0952975E-001	-1.2696282E+000	0
5.1958008E+000	1.150245973007259E+002	-1.2717912E+000	-2.447729077371619E+002	3.1130004E-001	-1.2716281E+000	0
5.1497059E+000	1.152245972956734E+002	-1.2737746E+000	-2.473490082379635E+002	3.1506690E-001	-1.2736281E+000	0
5.0948515E+000	1.154245972906210E+002	-1.2758422E+000	-2.504179326768895E+002	3.1949377E-001	-1.2756282E+000	0
5.0854893E+000	1.156245972855686E+002	-1.2777832E+000	-2.512606079573002E+002	3.2105657E-001	-1.2776282E+000	0
5.0135846E+000	1.158245972805162E+002	-1.2798148E+000	-2.552694167809696E+002	3.2669759E-001	-1.2796283E+000	0
5.0343132E+000	1.160245972754637E+002	-1.2818475E+000	-2.546221062666709E+002	3.2638669E-001	-1.2816281E+000	0
5.0812750E+000	1.162245972704113E+002	-1.2838155E+000	-2.526561816187404E+002	3.2436392E-001	-1.2836280E+000	0
5.0755539E+000	1.164245972653589E+002	-1.2858082E+000	-2.533335644187841E+002	3.2573837E-001	-1.2856281E+000	0
5.0323334E+000	1.166245972603065E+002	-1.2878307E+000	-2.559112509686393E+002	3.2957038E-001	-1.2876282E+000	0
4.9083052E+000	1.168245972552540E+002	-1.2898568E+000	-2.627906598525806E+002	3.3896232E-001	-1.2896280E+000	0
4.8515077E+000	1.170247972501966E+002	-1.2918468E+000	-2.662773810118611E+002	3.4398958E-001	-1.2916297E+000	0
4.7343016E+000	1.172249972451391E+002	-1.2938005E+000	-2.732822216687023E+002	3.5357267E-001	-1.2936321E+000	0
4.6297283E+000	1.174249972400867E+002	-1.2958199E+000	-2.798911198293818E+002	3.6268848E-001	-1.2956321E+000	0
4.6511621E+000	1.176249972350342E+002	-1.2978277E+000	-2.790329868679946E+002	3.6213675E-001	-1.2976321E+000	0
4.5748162E+000	1.178251972299768E+002	-1.2998772E+000	-2.841375791592077E+002	3.6934397E-001	-1.2996340E+000	0
4.5335255E+000	1.180252972249218E+002	-1.3018445E+000	-2.871593924969743E+002	3.7383687E-001	-1.3016348E+000	0
4.4929624E+000	1.182255972198618E+002	-1.3038391E+000	-2.901958630302458E+002	3.7836871E-001	-1.3036376E+000	0
4.4631066E+000	1.184258972148018E+002	-1.3058289E+000	-2.925829500042030E+002	3.8206327E-001	-1.3056409E+000	0
4.4552741E+000	1.186259972097469E+002	-1.3078488E+000	-2.935506829955943E+002	3.8391992E-001	-1.3076421E+000	0
4.4199033E+000	1.188259972046944E+002	-1.3098600E+000	-2.963548925533858E+002	3.8818341E-001	-1.3096421E+000	0
4.3934765E+000	1.190260971996395E+002	-1.3118249E+000	-2.985847260616210E+002	3.9169088E-001	-1.3116429E+000	0
4.4095030E+000	1.192262971945820E+002	-1.3138618E+000	-2.979614495695118E+002	3.9148018E-001	-1.3136450E+000	0
4.3856382E+000	1.194263971895271E+002	-1.3158491E+000	-3.000359250066485E+002	3.9480200E-001	-1.3156462E+000	0
4.2435069E+000	1.196264971844721E+002	-1.3178332E+000	-3.105528481710935E+002	4.0925685E-001	-1.3176469E+000	0
4.2199249E+000	1.198265971794171E+002	-1.3198638E+000	-3.127695054964688E+002	4.1281316E-001	-1.3196481E+000	0
4.1709709E+000	1.200267971743597E+002	-1.3218737E+000	-3.169222987312935E+002	4.1893125E-001	-1.3216497E+000	0
4.1705718E+000	1.202270971692997E+002	-1.3238709E+000	-3.174315254846092E+002	4.2023835E-001	-1.3236529E+000	0
4.1218514E+000	1.204274971642371E+002	-1.3258919E+000	-3.216738636253799E+002	4.2650476E-001	-1.3256563E+000	0
4.1159549E+000	1.206279971591721E+002	-1.3278805E+000	-3.226178354928902E+002	4.2839792E-001	-1.3276616E+000	0
4.0886455E+000	1.208284971541070E+002	-1.3298916E+000	-3.252645894571674E+002	4.3256664E-001	-1.3296663E+000	0
4.0998654E+000	1.210288971490445E+002	-1.3318998E+000	-3.248642548708051E+002	4.3268663E-001	-1.3316708E+000	0
4.0890999E+000	1.212290971439870E+002	-1.3339164E+000	-3.262127459042013E+002	4.3514055E-001	-1.3336729E+000	0
4.0010376E+000	1.214291971389321E+002	-1.3359246E+000	-3.338945593801475E+002	4.4605798E-001	-1.3356742E+000	0
3.9078848E+000	1.216292971338771E+002	-1.3379259E+000	-3.423657565509627E+002	4.5806003E-001	-1.3376750E+000	0
3.9187644E+000	1.218294971288196E+002	-1.3398941E+000	-3.419174786835480E+002	4.5813319E-001	-1.3396769E+000	0
3.8794384E+000	1.220296971237622E+002	-1.3418812E+000	-3.458957257433131E+002	4.6415097E-001	-1.3416789E+000	0
3.8760593E+000	1.222297971187072E+002	-1.3439265E+000	-3.467249785853626E+002	4.6597290E-001	-1.3436800E+000	0
3.8848014E+000	1.224298971136523E+002	-1.3459059E+000	-3.464542322463240E+002	4.6629480E-001	-1.3456810E+000	0
3.9052594E+000	1.226300971085948E+002	-1.3478868E+000	-3.451465471029418E+002	4.6521848E-001	-1.3476828E+000	0
3.8013592E+000	1.228301971035398E+002	-1.3499545E+000	-3.551241697778505E+002	4.7940147E-001	-1.3496841E+000	0
3.8233979E+000	1.230302970984849E+002	-1.3519275E+000	-3.535932093175070E+002	4.7803238E-001	-1.3516849E+000	0
3.7667751E+000	1.232306970934224E+002	-1.3539023E+000	-3.594327500386298E+002	4.8663685E-001	-1.3536884E+000	0
3.7054925E+000	1.234310970883598E+002	-1.3559791E+000	-3.659376185870374E+002	4.9620375E-001	-1.3556929E+000	0
3.6688685E+000	1.236311970833049E+002	-1.3579693E+000	-3.701329804915677E+002	5.0262922E-001	-1.3576941E+000	0
3.6741371E+000	1.238312970782499E+002	-1.3599588E+000	-3.701437206889514E+002	5.0338018E-001	-1.3596950E+000	0
3.6405005E+000	1.240313970731950E+002	-1.3619996E+000	-3.741242650328306E+002	5.0955713E-001	-1.3616961E+000	0
3.6950641E+000	1.242313970681425E+002	-1.3639840E+000	-3.691367612631147E+002	5.0349665E-001	-1.3636961E+000	0
3.7191112E+000	1.244313970630901E+002	-1.3659579E+000	-3.672807126034404E+002	5.0168997E-001	-1.3656962E+000	0
3.6238582E+000	1.246313970580377E+002	-1.3679823E+000	-3.774933302072714E+002	5.1640421E-001	-1.3676960E+000	0
3.6337931E+000	1.248314970529827E+002	-1.3700405E+000	-3.770276591447528E+002	5.1654315E-001	-1.3696970E+000	0
3.5822256E+000	1.250317970479227E+002	-1.3720051E+000	-3.830035524671021E+002	5.2548283E-001	-1.3716996E+000	0
3.5012925E+000	1.252321970428602E+002	-1.3739971E+000	-3.924256806830763E+002	5.3919172E-001	-1.3737040E+000	0
3.5130181E+000	1.254321970378078E+002	-1.3760048E+000	-3.916873651491533E+002	5.3896368E-001	-1.3757041E+000	0
3.4507813E+000	1.256321970327554E+002	-1.3780038E+000	-3.993309536369488E+002	5.5027956E-001	-1.3777041E+000	0
3.4102895E+000	1.258321970277029E+002	-1.3799787E+000	-4.046514521272275E+002	5.5841035E-001	-1.3797041E+000	0
3.4662058E+000	1.260321970226505E+002	-1.3819603E+000	-3.986953733275527E+002	5.5098116E-001	-1.3817041E+000	0
3.4357057E+000	1.262321970175981E+002	-1.3839693E+000	-4.028195333113208E+002	5.5748987E-001	-1.3837042E+000	0
3.3690023E+000	1.264321970125457E+002	-1.3859835E+000	-4.113928546126998E+002	5.7018369E-001	-1.3857042E+000	0
3.3618038E+000	1.266322970074907E+002	-1.3879591E+000	-4.128614406801826E+002	5.7303482E-001	-1.3877050E+000	0
3.3659699E+000	1.268323970024358E+002	-1.3899641E+000	-4.129460866672907E+002	5.7398021E-001	-1.3897061E+000	0
3.3470359E+000	1.270324969973808E+002	-1.3919791E+000	-4.158841315924160E+002	5.7890201E-001	-1.3917069E+000	0
3.3266263E+000	1.272325969923259E+002	-1.3939990E+000	-4.190428478907013E+002	5.8414531E-001	-1.3937082E+000	0
3.2425208E+000	1.274325969872734E+002	-1.3960086E+000	-4.305319034093809E+002	6.0102624E-001	-1.3957080E+000	0
3.2756627E+000	1.276325969822210E+002	-1.3980299E+000	-4.267930040770384E+002	5.9666938E-001	-1.3977082E+000	0
3.2123160E+000	1.278326969771661E+002	-1.4000032E+000	-4.358236278000168E+002	6.1015445E-001	-1.3997089E+000	0
3.1820571E+000	1.280327969721111E+002	-1.4020253E+000	-4.406034408664491E+002	6.1773717E-001	-1.4017102E+000	0
3.2429168E+000	1.282330969670511E+002	-1.4039851E+000	-4.329390056717202E+002	6.0783994E-001	-1.4037125E+000	0
3.2073436E+000	1.284333969619911E+002	-1.4059954E+000	-4.383675628541005E+002	6.1634278E-001	-1.4057162E+000	0
3.1892509E+000	1.286335969569336E+002	-1.4080178E+000	-4.414885473550230E+002	6.2162369E-001	-1.4077177E+000	0
3.1245034E+000	1.288337969518761E+002	-1.4100047E+000	-4.512732400915775E+002	6.3629740E-001	-1.4097201E+000	0
3.1470659E+000	1.290337969468237E+002	-1.4120166E+000	-4.486771702928618E+002	6.3353962E-001	-1.4117199E+000	0
3.1341169E+000	1.292337969417713E+002	-1.4139892E+000	-4.511603167354397E+002	6.3793582E-001	-1.4137198E+000	0
3.1444778E+000	1.294337969367189E+002	-1.4160241E+000	-4.503208930605924E+002	6.3766521E-001	-1.4157199E+000	0
3.2016327E+000	1.296337969316664E+002	-1.4179791E+000	-4.428924996296028E+002	6.2801230E-001	-1.4177200E+000	0
3.1129422E+000	1.298337969266140E+002	-1.4199715E+000	-4.561509344658889E+002	6.4772129E-001	-1.4197201E+000	0
3.0581863E+000	1.300337969215616E+002	-1.4219948E+000	-4.649797728748285E+002	6.6119879E-001	-1.4217199E+000	0
3.0146520E+000	1.302337969165092E+002	-1.4240530E+000	-4.723772113998984E+002	6.7269015E-001	-1.4237198E+000	0
3.0387964E+000	1.304337969114567E+002	-1.4260122E+000	-4.692687262623758E+002	6.6918290E-001	-1.4257199E+000	0
2.9919884E+000	1.306337969064043E+002	-1.4280047E+000	-4.772761775036233E+002	6.8155265E-001	-1.4277200E+000	0
3.0167274E+000	1.308337969013519E+002	-1.4300208E+000	-4.740305142521584E+002	6.7787349E-001	-1.4297198E+000	0
3.0669303E+000	1.310337968962995E+002	-1.4320562E+000	-4.669347063138102E+002	6.6867673E-001	-1.4317199E+000	0
3.1193902E+000	1.312337968912470E+002	-1.4339905E+000	-4.597021708845277E+002	6.5920854E-001	-1.4337199E+000	0
3.0362177E+000	1.314337968861946E+002	-1.4360441E+000	-4.729713947702712E+002	6.7920780E-001	-1.4357198E+000	0
2.9434326E+000	1.316337968811422E+002	-1.4380651E+000	-4.885673579391182E+002	7.0259166E-001	-1.4377199E+000	0
2.9225211E+000	1.318337968760898E+002	-1.4400641E+000	-4.927472115341516E+002	7.0958757E-001	-1.4397200E+000	0
2.9101617E+000	1.320337968710373E+002	-1.4420213E+000	-4.955124109142762E+002	7.1453941E-001	-1.4417199E+000	0
2.8839571E+000	1.322337968659849E+002	-1.4440264E+000	-5.007100775020194E+002	7.2303855E-001	-1.4437199E+000	0
2.8893247E+000	1.324337968609325E+002	-1.4460074E+000	-5.004655265764850E+002	7.2367686E-001	-1.4457198E+000	0
2.8783751E+000	1.326337968558801E+002	-1.4480370E+000	-5.030744578000363E+002	7.2847044E-001	-1.4477199E+000	0
2.8761196E+000	1.328337968508276E+002	-1.4500366E+000	-5.041642450864630E+002	7.3105663E-001	-1.4497200E+000	0
2.8603683E+000	1.330337968457752E+002	-1.4520760E+000	-5.076535035563711E+002	7.3715144E-001	-1.4517199E+000	0
2.8812091E+000	1.332337968407228E+002	-1.4540225E+000	-5.046570669463968E+002	7.3378277E-001	-1.4537199E+000	0
2.8054068E+000	1.334337968356704E+002	-1.4560696E+000	-5.190226351376823E+002	7.5573307E-001	-1.4557199E+000	0
2.8135395E+000	1.336337968306179E+002	-1.4580483E+000	-5.182256342007731E+002	7.5559801E-001	-1.4577199E+000	0
2.8593099E+000	1.338337968255655E+002	-1.4600303E+000	-5.106233195263781E+002	7.4552554E-001	-1.4597199E+000	0
2.8690660E+000	1.340337968205131E+002	-1.4620399E+000	-5.095874197953399E+002	7.4503714E-001	-1.4617200E+000	0
2.7658353E+000	1.342337968154607E+002	-1.4640453E+000	-5.293320804128825E+002	7.7496612E-001	-1.4637198E+000	0
2.7265165E+000	1.344337968104082E+002	-1.4660465E+000	-5.376994689803014E+002	7.8829241E-001	-1.4657199E+000	0
2.7355473E+000	1.346337968053558E+002	-1.4680306E+000	-5.366496534282669E+002	7.8781807E-001	-1.4677199E+000	0
2.7625940E+000	1.348337968003034E+002	-1.4700592E+000	-5.321300235454200E+002	7.8226262E-001	-1.4697199E+000	0
2.7278883E+000	1.350337967952510E+002	-1.4720410E+000	-5.396265400737320E+002	7.9435241E-001	-1.4717200E+000	0
2.7068157E+000	1.352337967901985E+002	-1.4742992E+000	-5.446618446644188E+002	8.0299449E-001	-1.4737198E+000	0
2.6937687E+000	1.354337967851461E+002	-1.4765899E+000	-5.481502240369118E+002	8.0939311E-001	-1.4757199E+000	0
2.7083249E+000	1.356337967800937E+002	-1.4786141E+000	-5.459515335792321E+002	8.0725163E-001	-1.4777200E+000	0
2.6817937E+000	1.358337967750413E+002	-1.4805810E+000	-5.520861089797263E+002	8.1740820E-001	-1.4797199E+000	0
2.6907504E+000	1.360337967699888E+002	-1.4826038E+000	-5.510001227320448E+002	8.1691486E-001	-1.4817200E+000	0
2.7092004E+000	1.362337967649364E+002	-1.4845786E+000	-5.479766956121757E+002	8.1351447E-001	-1.4837198E+000	0
2.6789532E+000	1.364337967598840E+002	-1.4865705E+000	-5.549072271550320E+002	8.2490867E-001	-1.4857199E+000	0
2.6120291E+000	1.366337967548316E+002	-1.4885854E+000	-5.698961824905846E+002	8.4833908E-001	-1.4877200E+000	0
2.5852416E+000	1.368337967497791E+002	-1.4906110E+000	-5.765847864215884E+002	8.5946357E-001	-1.4897199E+000	0
2.5937948E+000	1.370337967447267E+002	-1.4926405E+000	-5.754659349869712E+002	8.5896379E-001	-1.4917200E+000	0
2.6026895E+000	1.372337967396743E+002	-1.4946053E+000	-5.742541641183470E+002	8.5828334E-001	-1.4937198E+000	0
2.6105063E+000	1.373637967363902E+002	-1.4959238E+000	-5.730397245446029E+002	8.5722375E-001	-1.4950196E+000	0
2.6022689E+000	1.373841967358749E+002	-1.4962767E+000	-5.749892883300781E+002	8.6034310E-001	-1.4954196E+000	1