EC-Lab ASCII FILE
Nb header lines : 61                          

Linear Sweep Voltammetry

Run on channel : 1 (SN 1340)
User : 
Electrode connection : standard
Potential control : Ewe
Ewe ctrl range : min = -5.00 V, max = 5.00 V
Ewe,I filtering : <None>
Channel : Grounded
Acquisition started on : 02/09/2026 18:03:24.326
Technique started on : 02/09/2026 18:03:27.008
Loaded Setting File :  NONE
Saved on :
	File : PtPd_40NiCo_01_02_LSV_C01.mpr
	Directory : C:\Users\volt\Documents\Platalytix\
	Host : 127.0.0.1
Device : SP-200 (SN 0262)
Address : USB
EC-LAB for windows v11.60 (software)
Internet server v11.60 (firmware)
Command interpretor v11.60 (firmware)
Electrode material : Pt20Pd40Ni20Co20
Initial state : 
Electrolyte : 1 M KOH
Comments : 
Cable : standard
Reference electrode : Hg/HgO (0.140 V)
Electrode surface area : 1.000 cm˛
Characteristic mass : 0.001 g
Equivalent Weight : 0.000 g/eq.
Density : 0.000 g/cm3
Volume (V) : 0.001 cmł
Cycle Definition : Charge/Discharge alternance
tR (h:m:s)          0:00:5.0000         
dER/dt (mV/h)       0.0                 
dER (mV)            0                   
dtR (s)             0.0000              
dE/dt               10.000              
dE/dt unit          mV/s                
Ei (V)              -0.200              
vs.                 Ref                 
EL (V)              -2.000              
vs.                 Ref                 
record              <I>                 
dI                  0.000               
unit dI             µA                  
tI (s)              0.0000              
step percent        50                  
N                   10                  
E range min (V)     -5.000              
E range max (V)     5.000               
I Range             Auto                
I Range min         Unset               
I Range max         Unset               
I Range init        Unset               
Bandwidth           8                   

Rwe/Ohm	time/s	Ewe/V	<I>/mA	Pwe/W	control/V	error	
0.0000000E+000	2.682400127378060E+000	-1.7309162E-001	0.000000000000000E+000	0.0000000E+000	0.0000000E+000	0
0.0000000E+000	7.682200001072488E+000	-1.6178876E-002	0.000000000000000E+000	0.0000000E+000	-1.9998829E-001	0
1.1079747E+003	7.882199996020063E+000	-2.0175269E-001	-1.820914246141916E-001	3.6737434E-005	-2.0188807E-001	0
1.2339974E+003	8.002199992988608E+000	-2.0287023E-001	-1.644008574636686E-001	3.3352040E-005	-2.0308813E-001	0
1.6028481E+003	8.212199987683562E+000	-2.0503111E-001	-1.279167420591931E-001	2.6226911E-005	-2.0518810E-001	0
1.8563510E+003	8.412199982631137E+000	-2.0707990E-001	-1.115521273571500E-001	2.3100203E-005	-2.0718798E-001	0
2.0567271E+003	8.612199977578712E+000	-2.0904213E-001	-1.016382422897957E-001	2.1246675E-005	-2.0918790E-001	0
2.2231938E+003	8.812199972526287E+000	-2.1105421E-001	-9.493288090621554E-002	2.0035985E-005	-2.1118777E-001	0
2.3662437E+003	9.012199967473862E+000	-2.1310219E-001	-9.005927675627490E-002	1.9191830E-005	-2.1318766E-001	0
2.4928418E+003	9.212199962421437E+000	-2.1509238E-001	-8.628400584340701E-002	1.8559032E-005	-2.1518753E-001	0
2.6093918E+003	9.412199957369012E+000	-2.1708833E-001	-8.319498715624440E-002	1.8060660E-005	-2.1718745E-001	0
2.7164448E+003	9.612199952316587E+000	-2.1909086E-001	-8.065352640051371E-002	1.7670451E-005	-2.1918735E-001	0
2.8157886E+003	9.812199947264162E+000	-2.2102317E-001	-7.849423805106004E-002	1.7349046E-005	-2.2118722E-001	0
2.9130808E+003	1.001219994221174E+001	-2.2307386E-001	-7.657661263159396E-002	1.7082240E-005	-2.2318713E-001	0
3.0019409E+003	1.021219993715931E+001	-2.2510487E-001	-7.498644359088807E-002	1.6879814E-005	-2.2518700E-001	0
3.0882561E+003	1.041219993210689E+001	-2.2707959E-001	-7.353003813289605E-002	1.6697171E-005	-2.2718690E-001	0
3.1675278E+003	1.061219992705446E+001	-2.2906534E-001	-7.231675655488112E-002	1.6565262E-005	-2.2918677E-001	0
3.2470063E+003	1.081219992200204E+001	-2.3104474E-001	-7.115623404751231E-002	1.6440274E-005	-2.3118667E-001	0
3.3270110E+003	1.101219991694961E+001	-2.3312113E-001	-7.006924017966043E-002	1.6334619E-005	-2.3318657E-001	0
3.4028293E+003	1.121219991189719E+001	-2.3504111E-001	-6.907225896334013E-002	1.6234821E-005	-2.3518647E-001	0
3.4753208E+003	1.141209990684729E+001	-2.3708647E-001	-6.822002531836036E-002	1.6174045E-005	-2.3718569E-001	0
3.5476968E+003	1.161199990179739E+001	-2.3911962E-001	-6.740137076801511E-002	1.6116990E-005	-2.3918626E-001	0
3.6177700E+003	1.181199989674496E+001	-2.4104193E-001	-6.662720999503047E-002	1.6059952E-005	-2.4118611E-001	0
3.6924856E+003	1.201199989169254E+001	-2.4305891E-001	-6.582528203482962E-002	1.5999422E-005	-2.4318604E-001	0
3.7622942E+003	1.221199988664011E+001	-2.4512380E-001	-6.515274870013005E-002	1.5970489E-005	-2.4518593E-001	0
3.8275066E+003	1.241199988158769E+001	-2.4706990E-001	-6.455113702873924E-002	1.5948643E-005	-2.4718583E-001	0
3.8908579E+003	1.261199987653526E+001	-2.4906734E-001	-6.401347455224388E-002	1.5943666E-005	-2.4918570E-001	0
3.9650676E+003	1.281199987148284E+001	-2.5104228E-001	-6.331349048360146E-002	1.5894362E-005	-2.5118560E-001	0
4.0304707E+003	1.301199986643041E+001	-2.5308090E-001	-6.279189824739112E-002	1.5891430E-005	-2.5318548E-001	0
4.0930732E+003	1.321199986137799E+001	-2.5510275E-001	-6.232548133858704E-002	1.5899403E-005	-2.5518537E-001	0
4.1369771E+003	1.341199985632556E+001	-2.5706074E-001	-6.213733645645986E-002	1.5973070E-005	-2.5718528E-001	0
4.2057646E+003	1.361199985127314E+001	-2.5903037E-001	-6.158936397561104E-002	1.5953516E-005	-2.5918517E-001	0
4.2856831E+003	1.381199984622072E+001	-2.6110482E-001	-6.092489919680133E-002	1.5907784E-005	-2.6118505E-001	0
4.3487231E+003	1.401199984116829E+001	-2.6295137E-001	-6.046634191507788E-002	1.5899708E-005	-2.6318493E-001	0
4.4161245E+003	1.421199983611587E+001	-2.6500061E-001	-6.000750587594256E-002	1.5902026E-005	-2.6518485E-001	0
4.4770415E+003	1.441199983106344E+001	-2.6704052E-001	-5.964665000628933E-002	1.5928072E-005	-2.6718470E-001	0
4.5479746E+003	1.461199982601102E+001	-2.6909521E-001	-5.916813996519132E-002	1.5921863E-005	-2.6918462E-001	0
4.6072764E+003	1.481199982095859E+001	-2.7103537E-001	-5.882767834457781E-002	1.5944383E-005	-2.7118450E-001	0
4.6743535E+003	1.501199981590617E+001	-2.7303177E-001	-5.841059444943131E-002	1.5947948E-005	-2.7318439E-001	0
4.7342178E+003	1.521179981085879E+001	-2.7505437E-001	-5.809922011811741E-002	1.5980444E-005	-2.7518407E-001	0
4.7981953E+003	1.541179980580637E+001	-2.7705637E-001	-5.774178719961089E-002	1.5997730E-005	-2.7718419E-001	0
4.8600410E+003	1.561179980075394E+001	-2.7905953E-001	-5.741917092486126E-002	1.6023367E-005	-2.7918407E-001	0
4.9271270E+003	1.581179979570152E+001	-2.8110766E-001	-5.705305690087314E-002	1.6038051E-005	-2.8118396E-001	0
4.9927988E+003	1.601179979064909E+001	-2.8307965E-001	-5.669758972910377E-002	1.6049935E-005	-2.8318384E-001	0
5.0500352E+003	1.621179978559667E+001	-2.8503278E-001	-5.644174404241720E-002	1.6087748E-005	-2.8518373E-001	0
5.1152881E+003	1.641179978054424E+001	-2.8708473E-001	-5.612288367281970E-002	1.6112022E-005	-2.8718364E-001	0
5.1763428E+003	1.661179977549182E+001	-2.8908935E-001	-5.584818313833817E-002	1.6145115E-005	-2.8918350E-001	0
5.2405210E+003	1.681179977043939E+001	-2.9111695E-001	-5.555114674470607E-002	1.6171880E-005	-2.9118341E-001	0
5.2992534E+003	1.701179976538697E+001	-2.9298961E-001	-5.528884825440306E-002	1.6199057E-005	-2.9318333E-001	0
5.3640874E+003	1.721179976033454E+001	-2.9502502E-001	-5.500003906513828E-002	1.6226388E-005	-2.9518321E-001	0
5.4213418E+003	1.741179975528212E+001	-2.9707998E-001	-5.479824032566949E-002	1.6279460E-005	-2.9718310E-001	0
5.4895835E+003	1.761179975022969E+001	-2.9913858E-001	-5.449203341774844E-002	1.6300670E-005	-2.9918295E-001	0
5.5462686E+003	1.781179974517727E+001	-3.0109632E-001	-5.428809002348034E-002	1.6345944E-005	-3.0118287E-001	0
5.5783486E+003	1.801179974012484E+001	-3.0305257E-001	-5.432657293591003E-002	1.6463808E-005	-3.0318275E-001	0
5.6180576E+003	1.821179973507242E+001	-3.0505192E-001	-5.429846916955960E-002	1.6563852E-005	-3.0518264E-001	0
5.6776372E+003	1.841179973001999E+001	-3.0712852E-001	-5.409442421467026E-002	1.6613940E-005	-3.0718252E-001	0
5.7659434E+003	1.861179972496757E+001	-3.0904344E-001	-5.359807007158346E-002	1.6564132E-005	-3.0918244E-001	0
5.8375215E+003	1.881169971991767E+001	-3.1111249E-001	-5.329530594479537E-002	1.6580836E-005	-3.1118232E-001	0
5.8670107E+003	1.901159971486777E+001	-3.1305701E-001	-5.335885819624231E-002	1.6704364E-005	-3.1318223E-001	0
5.9432915E+003	1.921159970981535E+001	-3.1502938E-001	-5.300587570493231E-002	1.6698408E-005	-3.1518212E-001	0
6.0218521E+003	1.941159970476292E+001	-3.1701598E-001	-5.264426298891411E-002	1.6689073E-005	-3.1718200E-001	0
6.0855791E+003	1.961159969971050E+001	-3.1899497E-001	-5.241817826998596E-002	1.6721135E-005	-3.1918186E-001	0
6.1532246E+003	1.981159969465807E+001	-3.2113838E-001	-5.219025901030943E-002	1.6760296E-005	-3.2118180E-001	0
6.2194819E+003	2.001159968960565E+001	-3.2304883E-001	-5.194143543353530E-002	1.6779621E-005	-3.2318166E-001	0
6.2810815E+003	2.021159968455322E+001	-3.2507005E-001	-5.175383466764732E-002	1.6823622E-005	-3.2518157E-001	0
6.3431138E+003	2.041159967950080E+001	-3.2702971E-001	-5.155665236799778E-002	1.6860557E-005	-3.2718146E-001	0
6.4071396E+003	2.061159967444837E+001	-3.2910460E-001	-5.136529263214529E-002	1.6904554E-005	-3.2918134E-001	0
6.4613086E+003	2.081159966939595E+001	-3.3105388E-001	-5.123635276976768E-002	1.6961994E-005	-3.3118123E-001	0
6.5249399E+003	2.101159966434352E+001	-3.3307105E-001	-5.104584372475651E-002	1.7001892E-005	-3.3318111E-001	0
6.5941621E+003	2.121159965929110E+001	-3.3500165E-001	-5.080276153413610E-002	1.7019009E-005	-3.3518103E-001	0
6.6592637E+003	2.141159965423867E+001	-3.3706892E-001	-5.061654505940782E-002	1.7061264E-005	-3.3718091E-001	0
6.7160737E+003	2.161159964918625E+001	-3.3904979E-001	-5.048333252136050E-002	1.7116363E-005	-3.3918080E-001	0
6.7838857E+003	2.181159964413382E+001	-3.4103894E-001	-5.027191603161363E-002	1.7144681E-005	-3.4118071E-001	0
6.8476460E+003	2.201159963908140E+001	-3.4308141E-001	-5.010209469411875E-002	1.7189097E-005	-3.4318057E-001	0
6.9152168E+003	2.221159963402897E+001	-3.4510726E-001	-4.990548767041747E-002	1.7222746E-005	-3.4518048E-001	0
6.9753403E+003	2.241149962897907E+001	-3.4706002E-001	-4.975528058071044E-002	1.7268068E-005	-3.4717971E-001	0
7.0337759E+003	2.261139962392917E+001	-3.4908900E-001	-4.963038230416239E-002	1.7325421E-005	-3.4918028E-001	0
7.0988130E+003	2.281139961887675E+001	-3.5107562E-001	-4.945553694492677E-002	1.7362634E-005	-3.5118017E-001	0
7.1599897E+003	2.301139961382432E+001	-3.5311165E-001	-4.931734158982706E-002	1.7414528E-005	-3.5318008E-001	0
7.2141621E+003	2.321139960877190E+001	-3.5503778E-001	-4.921400121649699E-002	1.7472830E-005	-3.5517994E-001	0
7.2783740E+003	2.341139960371947E+001	-3.5710186E-001	-4.906341148056759E-002	1.7520635E-005	-3.5717982E-001	0
7.3455347E+003	2.361139959866705E+001	-3.5900638E-001	-4.887409706477541E-002	1.7546112E-005	-3.5917971E-001	0
7.3991836E+003	2.381139959361462E+001	-3.6107090E-001	-4.879874900398362E-002	1.7619808E-005	-3.6117959E-001	0
7.4635620E+003	2.401139958856220E+001	-3.6313558E-001	-4.865446062510403E-002	1.7668166E-005	-3.6317950E-001	0
7.5246470E+003	2.421139958350977E+001	-3.6505219E-001	-4.851419622603337E-002	1.7710214E-005	-3.6517939E-001	0
7.5861274E+003	2.441139957845735E+001	-3.6709270E-001	-4.838999976401936E-002	1.7763616E-005	-3.6717924E-001	0
7.6379224E+003	2.461139957340492E+001	-3.6909479E-001	-4.832397775181786E-002	1.7836128E-005	-3.6917916E-001	0
7.6920107E+003	2.481139956835250E+001	-3.7107128E-001	-4.824112924296287E-002	1.7900897E-005	-3.7117904E-001	0
7.7530864E+003	2.501139956330007E+001	-3.7313148E-001	-4.812683276684293E-002	1.7957636E-005	-3.7317896E-001	0
7.8136011E+003	2.521139955824765E+001	-3.7508884E-001	-4.800460671783191E-002	1.8005992E-005	-3.7517887E-001	0
7.8631055E+003	2.541139955319522E+001	-3.7702918E-001	-4.794914424107888E-002	1.8078226E-005	-3.7717873E-001	0
7.9232422E+003	2.561139954814280E+001	-3.7903363E-001	-4.783819721301041E-002	1.8132285E-005	-3.7917861E-001	0
7.9877588E+003	2.581139954309037E+001	-3.8104996E-001	-4.770423968078663E-002	1.8177700E-005	-3.8117853E-001	0
8.0426846E+003	2.601139953803795E+001	-3.8308111E-001	-4.763100138794651E-002	1.8246537E-005	-3.8317838E-001	0
8.1011987E+003	2.621129953298805E+001	-3.8505259E-001	-4.753032198229445E-002	1.8301673E-005	-3.8517898E-001	0
8.1510762E+003	2.641119952793815E+001	-3.8710806E-001	-4.749164974096254E-002	1.8384400E-005	-3.8717818E-001	0
8.2118545E+003	2.661119952288573E+001	-3.8903421E-001	-4.737470880263772E-002	1.8430383E-005	-3.8917810E-001	0
8.2603623E+003	2.681119951783330E+001	-3.9111143E-001	-4.734797356940601E-002	1.8518334E-005	-3.9117798E-001	0
8.3227754E+003	2.701119951278088E+001	-3.9306432E-001	-4.722755298846304E-002	1.8563465E-005	-3.9317784E-001	0
8.3749844E+003	2.721119950772845E+001	-3.9505032E-001	-4.717027541707197E-002	1.8634631E-005	-3.9517775E-001	0
8.4305352E+003	2.741119950267603E+001	-3.9699364E-001	-4.708996915908914E-002	1.8694418E-005	-3.9717767E-001	0
8.4819990E+003	2.761119949762360E+001	-3.9906111E-001	-4.704800442646784E-002	1.8775028E-005	-3.9917755E-001	0
8.5404648E+003	2.781119949257118E+001	-4.0107679E-001	-4.696194181860758E-002	1.8835344E-005	-4.0117747E-001	0
8.5943281E+003	2.801119948751875E+001	-4.0310350E-001	-4.690343349334736E-002	1.8906938E-005	-4.0317732E-001	0
8.6463750E+003	2.821119948246633E+001	-4.0508124E-001	-4.684983763675865E-002	1.8977991E-005	-4.0517721E-001	0
8.7014316E+003	2.841119947741390E+001	-4.0707931E-001	-4.678302598444531E-002	1.9044403E-005	-4.0717709E-001	0
8.7553701E+003	2.861119947236148E+001	-4.0904346E-001	-4.671915152713091E-002	1.9110163E-005	-4.0917704E-001	0
8.8136113E+003	2.881119946730905E+001	-4.1106504E-001	-4.663979939962237E-002	1.9171992E-005	-4.1117689E-001	0
8.8499424E+003	2.901119946225663E+001	-4.1310984E-001	-4.667937948211165E-002	1.9283711E-005	-4.1317677E-001	0
8.9013105E+003	2.921119945720420E+001	-4.1508728E-001	-4.663215184139705E-002	1.9356414E-005	-4.1517669E-001	0
8.9600068E+003	2.941119945215178E+001	-4.1710064E-001	-4.655137425077371E-002	1.9416608E-005	-4.1717654E-001	0
9.0231885E+003	2.961119944709935E+001	-4.1911510E-001	-4.644866684312302E-002	1.9467338E-005	-4.1917649E-001	0
9.0612207E+003	2.981109944204945E+001	-4.2110571E-001	-4.647339744865286E-002	1.9570212E-005	-4.2117569E-001	0
9.1263486E+003	3.001099943699955E+001	-4.2312863E-001	-4.636340703611430E-002	1.9617684E-005	-4.2317626E-001	0
9.1836436E+003	3.021099943194713E+001	-4.2508575E-001	-4.628726382963683E-002	1.9676056E-005	-4.2517611E-001	0
9.2141533E+003	3.041099942689470E+001	-4.2711484E-001	-4.635421621777930E-002	1.9798574E-005	-4.2717600E-001	0
9.2782070E+003	3.061099942184228E+001	-4.2915359E-001	-4.625393475179915E-002	1.9850042E-005	-4.2917591E-001	0
9.3203594E+003	3.081099941678985E+001	-4.3108338E-001	-4.625179735461116E-002	1.9938381E-005	-4.3117577E-001	0
9.3744951E+003	3.101099941173743E+001	-4.3302032E-001	-4.619132395640493E-002	2.0001782E-005	-4.3317571E-001	0
9.4432021E+003	3.121099940668500E+001	-4.3508783E-001	-4.607418418599019E-002	2.0046316E-005	-4.3517557E-001	0
9.4755869E+003	3.141099940163258E+001	-4.3711028E-001	-4.613015532616094E-002	2.0163965E-005	-4.3717548E-001	0
9.5293965E+003	3.161099939658016E+001	-4.3913767E-001	-4.608241958721060E-002	2.0236526E-005	-4.3917537E-001	0
9.5796934E+003	3.181099939152773E+001	-4.4106871E-001	-4.604204956895130E-002	2.0307707E-005	-4.4117525E-001	0
9.6260586E+003	3.201099938647531E+001	-4.4307902E-001	-4.602912029693865E-002	2.0394538E-005	-4.4317514E-001	0
9.6913027E+003	3.221099938142288E+001	-4.4507653E-001	-4.592535673728312E-002	2.0440299E-005	-4.4517499E-001	0
9.7380576E+003	3.241099937637046E+001	-4.4713044E-001	-4.591577265479185E-002	2.0530340E-005	-4.4717500E-001	0
9.7889326E+003	3.261099937131803E+001	-4.4908077E-001	-4.587637659087318E-002	2.0602198E-005	-4.4917479E-001	0
9.8290322E+003	3.281099936626561E+001	-4.5110667E-001	-4.589533015358088E-002	2.0703690E-005	-4.5117474E-001	0
9.8889297E+003	3.301099936121318E+001	-4.5312721E-001	-4.582166139911781E-002	2.0763042E-005	-4.5317462E-001	0
9.9263975E+003	3.321099935616076E+001	-4.5512637E-001	-4.585010781720533E-002	2.0867594E-005	-4.5517448E-001	0
9.9886045E+003	3.341099935110833E+001	-4.5711890E-001	-4.576403897069836E-002	2.0919608E-005	-4.5717442E-001	0
1.0036244E+004	3.361089934605843E+001	-4.5915249E-001	-4.574943585237756E-002	2.1005968E-005	-4.5917493E-001	0
1.0095501E+004	3.381079934100853E+001	-4.6111038E-001	-4.567483858239180E-002	2.1061142E-005	-4.6117422E-001	0
1.0143373E+004	3.401079933595611E+001	-4.6304542E-001	-4.565004453135879E-002	2.1138045E-005	-4.6317407E-001	0
1.0197663E+004	3.421079933090368E+001	-4.6508253E-001	-4.560677563721971E-002	2.1210915E-005	-4.6517393E-001	0
1.0250314E+004	3.441079932585126E+001	-4.6708721E-001	-4.556808474894947E-002	2.1284270E-005	-4.6717387E-001	0
1.0299743E+004	3.461079932079883E+001	-4.6908802E-001	-4.554366013837691E-002	2.1363985E-005	-4.6917373E-001	0
1.0344143E+004	3.481079931574641E+001	-4.7109231E-001	-4.554193976383814E-002	2.1454458E-005	-4.7117367E-001	0
1.0398965E+004	3.501079931069398E+001	-4.7311941E-001	-4.549677859011925E-002	2.1525409E-005	-4.7317350E-001	0
1.0448129E+004	3.521079930564156E+001	-4.7513872E-001	-4.547596271276527E-002	2.1607391E-005	-4.7517338E-001	0
1.0501278E+004	3.541079930058913E+001	-4.7704515E-001	-4.542734171343055E-002	2.1670892E-005	-4.7717330E-001	0
1.0562983E+004	3.561079929553671E+001	-4.7912639E-001	-4.535900214354394E-002	2.1732694E-005	-4.7917315E-001	0
1.0611936E+004	3.581079929048428E+001	-4.8104975E-001	-4.533101112503690E-002	2.1806471E-005	-4.8117310E-001	0
1.0650519E+004	3.601079928543186E+001	-4.8306486E-001	-4.535599314246541E-002	2.1909886E-005	-4.8317295E-001	0
1.0723087E+004	3.621079928037943E+001	-4.8507115E-001	-4.523614714742596E-002	2.1942749E-005	-4.8517287E-001	0
1.0764230E+004	3.641079927532701E+001	-4.8704508E-001	-4.524662145049163E-002	2.2037144E-005	-4.8717275E-001	0
1.0811606E+004	3.661079927027458E+001	-4.8911124E-001	-4.523946041222282E-002	2.2127129E-005	-4.8917264E-001	0
1.0869433E+004	3.681079926522216E+001	-4.9109343E-001	-4.518114797989531E-002	2.2188166E-005	-4.9117258E-001	0
1.0917526E+004	3.701079926016973E+001	-4.9301875E-001	-4.515846655387334E-002	2.2263970E-005	-4.9317238E-001	0
1.0980663E+004	3.721069925511983E+001	-4.9513641E-001	-4.509166785326912E-002	2.2326527E-005	-4.9517259E-001	0
1.1049790E+004	3.741059925006994E+001	-4.9712819E-001	-4.498983244728433E-002	2.2365713E-005	-4.9717218E-001	0
1.1089534E+004	3.761059924501751E+001	-4.9907556E-001	-4.500419477290163E-002	2.2460494E-005	-4.9917209E-001	0
1.1150343E+004	3.781059923996509E+001	-5.0104839E-001	-4.493569470482695E-002	2.2514958E-005	-5.0117201E-001	0
1.1184274E+004	3.801059923491266E+001	-5.0302696E-001	-4.497627083522582E-002	2.2624277E-005	-5.0317186E-001	0
1.1352899E+004	3.823059922935499E+001	-5.0530350E-001	-4.450876057660946E-002	2.2490432E-005	-5.0537181E-001	0
1.1509468E+004	3.845059922379733E+001	-5.0753027E-001	-4.409676219115988E-002	2.2380442E-005	-5.0757170E-001	0
1.1571864E+004	3.865059921874490E+001	-5.0947613E-001	-4.402714147857578E-002	2.2430777E-005	-5.0957155E-001	0
1.1619507E+004	3.885059921369248E+001	-5.1145047E-001	-4.401653919204251E-002	2.2512280E-005	-5.1157147E-001	0
1.1682040E+004	3.905059920864005E+001	-5.1350498E-001	-4.395678958484950E-002	2.2572031E-005	-5.1357132E-001	0
1.1734928E+004	3.925059920358763E+001	-5.1547718E-001	-4.392674470414304E-002	2.2643235E-005	-5.1557124E-001	0
1.1789822E+004	3.945059919853520E+001	-5.1746333E-001	-4.389067917039047E-002	2.2711816E-005	-5.1757109E-001	0
1.1853675E+004	3.965059919348278E+001	-5.1948988E-001	-4.382521846931409E-002	2.2766757E-005	-5.1957095E-001	0
1.1917829E+004	3.985059918843035E+001	-5.2145588E-001	-4.375426643586122E-002	2.2815919E-005	-5.2157092E-001	0
1.1971525E+004	4.005059918337793E+001	-5.2343917E-001	-4.372368050979919E-002	2.2886687E-005	-5.2357078E-001	0
1.2037488E+004	4.025059917832550E+001	-5.2545649E-001	-4.365167301491352E-002	2.2937054E-005	-5.2557069E-001	0
1.2090776E+004	4.045059917327308E+001	-5.2753633E-001	-4.363130315052766E-002	2.3017097E-005	-5.2757061E-001	0
1.2146429E+004	4.065059916822065E+001	-5.2956009E-001	-4.359800577514261E-002	2.3087763E-005	-5.2957046E-001	0
1.2199615E+004	4.085049916317075E+001	-5.3141266E-001	-4.355978978753103E-002	2.3148224E-005	-5.3157067E-001	0
1.2255739E+004	4.105039915812085E+001	-5.3347170E-001	-4.352831597758844E-002	2.3221124E-005	-5.3357017E-001	0
1.2334923E+004	4.125039915306843E+001	-5.3543311E-001	-4.340790040408793E-002	2.3242028E-005	-5.3557020E-001	0
1.2392963E+004	4.145039914801600E+001	-5.3747594E-001	-4.336944838342738E-002	2.3310035E-005	-5.3757000E-001	0
1.2467007E+004	4.165039914296358E+001	-5.3955656E-001	-4.327875676236476E-002	2.3351336E-005	-5.3956991E-001	0
1.2520878E+004	4.185039913791115E+001	-5.4155016E-001	-4.325177100916816E-002	2.3423003E-005	-5.4156983E-001	0
1.2560903E+004	4.205039913285873E+001	-5.4343092E-001	-4.326368027124883E-002	2.3510822E-005	-5.4356968E-001	0
1.2638142E+004	4.225039912780630E+001	-5.4549611E-001	-4.316268197620871E-002	2.3545075E-005	-5.4556960E-001	0
1.2703255E+004	4.245039912275388E+001	-5.4733437E-001	-4.308615215154343E-002	2.3582532E-005	-5.4756945E-001	0
1.2765324E+004	4.265039911770145E+001	-5.4945785E-001	-4.304299974558523E-002	2.3650315E-005	-5.4956943E-001	0
1.2815955E+004	4.285039911264903E+001	-5.5151320E-001	-4.303332745301369E-002	2.3733448E-005	-5.5156928E-001	0
1.2881109E+004	4.305039910759660E+001	-5.5345714E-001	-4.296657528892966E-002	2.3780158E-005	-5.5356914E-001	0
1.2946712E+004	4.325039910254418E+001	-5.5549067E-001	-4.290592739761911E-002	2.3833842E-005	-5.5556905E-001	0
1.3013912E+004	4.345039909749175E+001	-5.5747736E-001	-4.283703136777320E-002	2.3880675E-005	-5.5756891E-001	0
1.3058416E+004	4.365039909243933E+001	-5.5945295E-001	-4.284232733940141E-002	2.3968267E-005	-5.5956882E-001	0
1.3132856E+004	4.385039908738690E+001	-5.6145203E-001	-4.275170786178506E-002	2.4003033E-005	-5.6156868E-001	0
1.3182375E+004	4.405039908233448E+001	-5.6352270E-001	-4.274819083057796E-002	2.4089575E-005	-5.6356859E-001	0
1.3245717E+004	4.425039907728205E+001	-5.6550395E-001	-4.269334607939240E-002	2.4143255E-005	-5.6556851E-001	0
1.3302508E+004	4.445029907223216E+001	-5.6746548E-001	-4.265853518785745E-002	2.4207246E-005	-5.6756771E-001	0
1.3362341E+004	4.465019906718226E+001	-5.6950784E-001	-4.262036575604233E-002	2.4272633E-005	-5.6956828E-001	0
1.3434901E+004	4.485019906212983E+001	-5.7150161E-001	-4.253857890054247E-002	2.4310866E-005	-5.7156813E-001	0
1.3504634E+004	4.505019905707741E+001	-5.7347864E-001	-4.246532273016312E-002	2.4352956E-005	-5.7356811E-001	0
1.3543599E+004	4.525019905202498E+001	-5.7551777E-001	-4.249371241096031E-002	2.4455887E-005	-5.7556796E-001	0
1.3624482E+004	4.545019904697256E+001	-5.7748270E-001	-4.238566100838154E-002	2.4476985E-005	-5.7756782E-001	0
1.3682746E+004	4.565019904192013E+001	-5.7949752E-001	-4.235242785597659E-002	2.4543127E-005	-5.7956779E-001	0
1.3734084E+004	4.585019903686771E+001	-5.8143175E-001	-4.233494851935654E-002	2.4614883E-005	-5.8156759E-001	0
1.3790928E+004	4.605019903181528E+001	-5.8348352E-001	-4.230922863310815E-002	2.4686737E-005	-5.8356756E-001	0
1.3848591E+004	4.625019902676286E+001	-5.8546716E-001	-4.227629745782457E-002	2.4751384E-005	-5.8556741E-001	0
1.3885631E+004	4.645019902171043E+001	-5.8752954E-001	-4.231205096789337E-002	2.4859581E-005	-5.8756733E-001	0
1.3934980E+004	4.665019901665801E+001	-5.8941597E-001	-4.229758001173389E-002	2.4930869E-005	-5.8956718E-001	0
1.3976454E+004	4.685019901160558E+001	-5.9145677E-001	-4.231808385088420E-002	2.5029318E-005	-5.9156704E-001	0
1.3883581E+004	4.705019900655316E+001	-5.9351683E-001	-4.274954976880369E-002	2.5372578E-005	-5.9356701E-001	0
1.3125736E+004	4.725019900150073E+001	-5.9546494E-001	-4.536621228347229E-002	2.7013990E-005	-5.9556687E-001	0
1.3930862E+004	4.745019899644831E+001	-5.9742105E-001	-4.288471465647359E-002	2.5620231E-005	-5.9756678E-001	0
1.4120292E+004	4.765019899139588E+001	-5.9947282E-001	-4.245470548148933E-002	2.5450441E-005	-5.9956664E-001	0
1.4215000E+004	4.785019898634346E+001	-6.0150331E-001	-4.231468928067642E-002	2.5452426E-005	-6.0156649E-001	0
1.4284152E+004	4.805019898129103E+001	-6.0348171E-001	-4.224833920244297E-002	2.5496100E-005	-6.0356647E-001	0
1.4345047E+004	4.825009897624113E+001	-6.0543412E-001	-4.220510016540147E-002	2.5552408E-005	-6.0556716E-001	0
1.4399006E+004	4.844999897119123E+001	-6.0747385E-001	-4.218859523650925E-002	2.5628467E-005	-6.0756624E-001	0
1.4450218E+004	4.864999896613881E+001	-6.0948128E-001	-4.217799854002358E-002	2.5706700E-005	-6.0956609E-001	0
1.4508325E+004	4.884999896108639E+001	-6.1145657E-001	-4.214522206407165E-002	2.5769974E-005	-6.1156601E-001	0
1.4552520E+004	4.904999895603396E+001	-6.1357242E-001	-4.216262383086611E-002	2.5869824E-005	-6.1356586E-001	0
1.4586638E+004	4.924999895098154E+001	-6.1547714E-001	-4.219458570842188E-002	2.5969803E-005	-6.1556572E-001	0
1.4633929E+004	4.944999894592911E+001	-6.1747015E-001	-4.219441986700856E-002	2.6053794E-005	-6.1756569E-001	0
1.4680666E+004	4.964999894087669E+001	-6.1950028E-001	-4.219837775775981E-002	2.6141906E-005	-6.1956555E-001	0
1.4732358E+004	4.984999893582426E+001	-6.2149757E-001	-4.218588464353823E-002	2.6218424E-005	-6.2156546E-001	0
1.4763521E+004	5.004999893077184E+001	-6.2352210E-001	-4.223397021290647E-002	2.6333813E-005	-6.2356538E-001	0
1.4805103E+004	5.024999892571941E+001	-6.2551850E-001	-4.225019670446362E-002	2.6428279E-005	-6.2556523E-001	0
1.4840367E+004	5.044999892066699E+001	-6.2751353E-001	-4.228423193282943E-002	2.6533928E-005	-6.2756515E-001	0
1.4904004E+004	5.064999891561456E+001	-6.2951761E-001	-4.223815475214621E-002	2.6589663E-005	-6.2956500E-001	0
1.4938600E+004	5.084999891056214E+001	-6.3159138E-001	-4.227915703759344E-002	2.6703152E-005	-6.3156497E-001	0
1.4961134E+004	5.104999890550971E+001	-6.3353115E-001	-4.234512999723516E-002	2.6826960E-005	-6.3356477E-001	0
1.4994718E+004	5.124999890045729E+001	-6.3550013E-001	-4.238159879366299E-002	2.6933512E-005	-6.3556474E-001	0
1.5017010E+004	5.144999889540486E+001	-6.3747084E-001	-4.244991821868338E-002	2.7060585E-005	-6.3756460E-001	0
1.5062549E+004	5.164999889035244E+001	-6.3947529E-001	-4.245465315187819E-002	2.7148701E-005	-6.3956445E-001	0
1.5094572E+004	5.184989888530254E+001	-6.4150238E-001	-4.249887784103557E-002	2.7263131E-005	-6.4156419E-001	0
1.5141213E+004	5.204979888025264E+001	-6.4356142E-001	-4.250395416372954E-002	2.7353904E-005	-6.4356428E-001	0
1.5157896E+004	5.224979887520021E+001	-6.4551371E-001	-4.258597015018872E-002	2.7489828E-005	-6.4556420E-001	0
1.5174611E+004	5.244979887014779E+001	-6.4748335E-001	-4.266886010289794E-002	2.7627377E-005	-6.4756399E-001	0
1.5209380E+004	5.264979886509536E+001	-6.4945650E-001	-4.270104980471073E-002	2.7732474E-005	-6.4956397E-001	0
1.5236532E+004	5.284979886004294E+001	-6.5156519E-001	-4.276335310183532E-002	2.7863112E-005	-6.5156382E-001	0
1.5258247E+004	5.304979885499051E+001	-6.5354395E-001	-4.283217685545271E-002	2.7992710E-005	-6.5356368E-001	0
1.5289752E+004	5.324979884993809E+001	-6.5549558E-001	-4.287156447886484E-002	2.8102122E-005	-6.5556359E-001	0
1.5311427E+004	5.344979884488566E+001	-6.5748107E-001	-4.294054987766441E-002	2.8232598E-005	-6.5756345E-001	0
1.5333735E+004	5.364979883983324E+001	-6.5950853E-001	-4.301029776092058E-002	2.8365657E-005	-6.5956336E-001	0
1.5363853E+004	5.384979883478081E+001	-6.6159290E-001	-4.306165479036990E-002	2.8489285E-005	-6.6156328E-001	0
1.5377187E+004	5.404979882972839E+001	-6.6347349E-001	-4.314661138509401E-002	2.8626633E-005	-6.6356313E-001	0
1.5395631E+004	5.424979882467596E+001	-6.6540253E-001	-4.322021934066522E-002	2.8758843E-005	-6.6556305E-001	0
1.5402607E+004	5.444979881962354E+001	-6.6740823E-001	-4.333085952856747E-002	2.8919372E-005	-6.6756290E-001	0
1.5431092E+004	5.464979881457111E+001	-6.6956717E-001	-4.339078390102846E-002	2.9053044E-005	-6.6956282E-001	0
1.5457403E+004	5.484979880951869E+001	-6.7149609E-001	-4.344171450880951E-002	2.9170942E-005	-6.7156273E-001	0
1.5459452E+004	5.504979880446626E+001	-6.7346996E-001	-4.356363643929062E-002	2.9338800E-005	-6.7356259E-001	0
1.5471235E+004	5.524979879941384E+001	-6.7545801E-001	-4.365895880869863E-002	2.9489793E-005	-6.7556250E-001	0
1.5489303E+004	5.544969879436394E+001	-6.7747611E-001	-4.373832210765904E-002	2.9631668E-005	-6.7756176E-001	0
1.5495800E+004	5.564959878931404E+001	-6.7954451E-001	-4.385346517116484E-002	2.9800382E-005	-6.7956209E-001	0
1.5529017E+004	5.584959878426162E+001	-6.8157685E-001	-4.389053590562989E-002	2.9914772E-005	-6.8156219E-001	0
1.5538570E+004	5.604959877920919E+001	-6.8352872E-001	-4.398916408846210E-002	3.0067857E-005	-6.8356204E-001	0
1.5554109E+004	5.624959877415677E+001	-6.8548387E-001	-4.407091751507791E-002	3.0209903E-005	-6.8556195E-001	0
1.5557861E+004	5.644959876910434E+001	-6.8744355E-001	-4.418625054926362E-002	3.0375553E-005	-6.8756181E-001	0
1.5564484E+004	5.664959876405192E+001	-6.8948513E-001	-4.429861570232232E-002	3.0543237E-005	-6.8956178E-001	0
1.5571112E+004	5.684959875899949E+001	-6.9148660E-001	-4.440829787897516E-002	3.0707743E-005	-6.9156164E-001	0
1.5576301E+004	5.704959875394707E+001	-6.9351357E-001	-4.452363725608038E-002	3.0877745E-005	-6.9356155E-001	0
1.5586039E+004	5.724959874889464E+001	-6.9546050E-001	-4.462073295764729E-002	3.1031956E-005	-6.9556141E-001	0
1.5586729E+004	5.744959874384222E+001	-6.9739890E-001	-4.474312197649322E-002	3.1203803E-005	-6.9756132E-001	0
1.5599911E+004	5.764959873878979E+001	-6.9950867E-001	-4.484055378915675E-002	3.1366355E-005	-6.9956124E-001	0
1.5597512E+004	5.784959873373737E+001	-7.0152670E-001	-4.497683320148027E-002	3.1552448E-005	-7.0156103E-001	0
1.5608055E+004	5.804959872868494E+001	-7.0351648E-001	-4.507393795044473E-002	3.1710257E-005	-7.0356107E-001	0
1.5593598E+004	5.824959872363252E+001	-7.0550984E-001	-4.524355805415631E-002	3.1919775E-005	-7.0556086E-001	0
1.5602162E+004	5.844959871858009E+001	-7.0737410E-001	-4.533821100167423E-002	3.2071075E-005	-7.0756084E-001	0
1.5587935E+004	5.864959871352767E+001	-7.0948833E-001	-4.551522378744283E-002	3.2292519E-005	-7.0956063E-001	0
1.5550671E+004	5.884959870847524E+001	-7.1149939E-001	-4.575361481676588E-002	3.2553668E-005	-7.1156055E-001	0
1.5595288E+004	5.904959870342282E+001	-7.1348792E-001	-4.575022261340567E-002	3.2642231E-005	-7.1356046E-001	0
1.5598893E+004	5.924949869837292E+001	-7.1552187E-001	-4.587004230764835E-002	3.2821019E-005	-7.1556103E-001	0
1.5594094E+004	5.944939869332302E+001	-7.1746993E-001	-4.600908185905506E-002	3.3010132E-005	-7.1756029E-001	0
1.5595869E+004	5.964939868827059E+001	-7.1957302E-001	-4.613869414081928E-002	3.3200158E-005	-7.1956009E-001	0
1.5582600E+004	5.984939868321817E+001	-7.2149491E-001	-4.630131854901687E-002	3.3406166E-005	-7.2156006E-001	0
1.5574404E+004	6.004939867816574E+001	-7.2346652E-001	-4.645227473530111E-002	3.3606666E-005	-7.2355998E-001	0
1.5560012E+004	6.024939867311332E+001	-7.2556913E-001	-4.663037271143788E-002	3.3833559E-005	-7.2555977E-001	0
1.5560929E+004	6.044939866806089E+001	-7.2751588E-001	-4.675272898880511E-002	3.4013352E-005	-7.2755969E-001	0
1.5567380E+004	6.064939866300847E+001	-7.2944760E-001	-4.685744113719648E-002	3.4180048E-005	-7.2955960E-001	0
1.5543168E+004	6.084939865795604E+001	-7.3153406E-001	-4.706467095791012E-002	3.4429409E-005	-7.3155951E-001	0
1.5541059E+004	6.104939865290362E+001	-7.3348516E-001	-4.719660242506296E-002	3.4618006E-005	-7.3355937E-001	0
1.5522219E+004	6.124939864785119E+001	-7.3543942E-001	-4.737978835343082E-002	3.4844965E-005	-7.3555923E-001	0
1.5504324E+004	6.144939864279877E+001	-7.3756361E-001	-4.757147824788754E-002	3.5086992E-005	-7.3755920E-001	0
1.5500585E+004	6.164939863774634E+001	-7.3952788E-001	-4.770967545111349E-002	3.5282636E-005	-7.3955899E-001	0
1.5483154E+004	6.184939863269392E+001	-7.4151170E-001	-4.789151299756472E-002	3.5512116E-005	-7.4155891E-001	0
1.5453515E+004	6.204939862764149E+001	-7.4343157E-001	-4.810760520127244E-002	3.5764711E-005	-7.4355882E-001	0
1.5431843E+004	6.224939862258907E+001	-7.4551874E-001	-4.831041707319367E-002	3.6016321E-005	-7.4555874E-001	0
1.5426373E+004	6.244939861753664E+001	-7.4756902E-001	-4.846045166721824E-002	3.6227531E-005	-7.4755859E-001	0
1.5391890E+004	6.264939861248422E+001	-7.4953038E-001	-4.869644887784452E-002	3.6499467E-005	-7.4955845E-001	0
1.5390173E+004	6.284929860743432E+001	-7.5150222E-001	-4.883000442860386E-002	3.6695856E-005	-7.5155818E-001	0
1.5347992E+004	6.304919860238442E+001	-7.5357622E-001	-4.909933646011022E-002	3.7000093E-005	-7.5355822E-001	0
1.5337413E+004	6.324919859733200E+001	-7.5552869E-001	-4.926050305915619E-002	3.7217724E-005	-7.5555813E-001	0
1.5300229E+004	6.344919859227957E+001	-7.5752228E-001	-4.951051874308010E-002	3.7505321E-005	-7.5755805E-001	0
1.5263073E+004	6.364919858722715E+001	-7.5945753E-001	-4.975783697682146E-002	3.7788963E-005	-7.5955796E-001	0
1.5244503E+004	6.384919858217472E+001	-7.6155180E-001	-4.995583082747790E-002	3.8043952E-005	-7.6155788E-001	0
1.5216254E+004	6.404919857712230E+001	-7.6354045E-001	-5.017926668285766E-002	3.8313901E-005	-7.6355767E-001	0
1.5168129E+004	6.424919857206987E+001	-7.6543885E-001	-5.046363179191785E-002	3.8626826E-005	-7.6555765E-001	0
1.5163759E+004	6.444919856701745E+001	-7.6749057E-001	-5.061347921412707E-002	3.8845366E-005	-7.6755750E-001	0
1.5109586E+004	6.464919856196502E+001	-7.6942569E-001	-5.092301787629028E-002	3.9181479E-005	-7.6955736E-001	0
1.5086558E+004	6.484919855691260E+001	-7.7149528E-001	-5.113792636372605E-002	3.9452669E-005	-7.7155727E-001	0
1.5035963E+004	6.504919855186017E+001	-7.7346271E-001	-5.144085142605181E-002	3.9787581E-005	-7.7355719E-001	0
1.4979584E+004	6.524919854680775E+001	-7.7546537E-001	-5.176815021014386E-002	4.0144409E-005	-7.7555710E-001	0
1.4927519E+004	6.544919854175532E+001	-7.7749580E-001	-5.208473119466572E-002	4.0495659E-005	-7.7755690E-001	0
1.4881978E+004	6.564919853670290E+001	-7.7945614E-001	-5.237584271417545E-002	4.0824671E-005	-7.7955687E-001	0
1.4837203E+004	6.584919853165047E+001	-7.8149712E-001	-5.267145765455372E-002	4.1162592E-005	-7.8155679E-001	0
1.4805903E+004	6.604919852659805E+001	-7.8346461E-001	-5.291569097254800E-002	4.1457570E-005	-7.8355670E-001	0
1.4743085E+004	6.624919852154562E+001	-7.8546041E-001	-5.327653083601819E-002	4.1846604E-005	-7.8555661E-001	0
1.4680500E+004	6.644909851649572E+001	-7.8746945E-001	-5.364050477947035E-002	4.2240259E-005	-7.8755552E-001	0
1.4628680E+004	6.664899851144583E+001	-7.8948545E-001	-5.396833434878334E-002	4.2607215E-005	-7.8955632E-001	0
1.4555274E+004	6.684899850639340E+001	-7.9144865E-001	-5.437538583019541E-002	4.3035325E-005	-7.9155630E-001	0
1.4519786E+004	6.704899850134098E+001	-7.9352927E-001	-5.465158219808242E-002	4.3367629E-005	-7.9355609E-001	0
1.4433855E+004	6.724899849628855E+001	-7.9545039E-001	-5.511004269775621E-002	4.3837306E-005	-7.9555601E-001	0
1.4368017E+004	6.744899849123613E+001	-7.9747713E-001	-5.550363386691881E-002	4.4262877E-005	-7.9755580E-001	0
1.4333011E+004	6.764899848618370E+001	-7.9951268E-001	-5.578120891743965E-002	4.4597786E-005	-7.9955584E-001	0
1.4225465E+004	6.784899848113128E+001	-8.0152267E-001	-5.634421754212404E-002	4.5161167E-005	-8.0155569E-001	0
1.4181294E+004	6.804899847607885E+001	-8.0349982E-001	-5.665913455994953E-002	4.5525605E-005	-8.0355561E-001	0
1.4092987E+004	6.824899847102643E+001	-8.0543053E-001	-5.715115535307402E-002	4.6031284E-005	-8.0555546E-001	0
1.4008396E+004	6.844899846597400E+001	-8.0747145E-001	-5.764196675308797E-002	4.6544243E-005	-8.0755532E-001	0
1.3951259E+004	6.864899846092158E+001	-8.0949044E-001	-5.802275143170921E-002	4.6968864E-005	-8.0955529E-001	0
1.3866622E+004	6.884899845586915E+001	-8.1151456E-001	-5.852287402640521E-002	4.7492165E-005	-8.1155515E-001	0
1.3787619E+004	6.904899845081673E+001	-8.1350899E-001	-5.900286344490335E-002	4.7999361E-005	-8.1355512E-001	0
1.3714057E+004	6.924899844576430E+001	-8.1552768E-001	-5.946655357161501E-002	4.8496619E-005	-8.1555486E-001	0
1.3630273E+004	6.944899844071188E+001	-8.1746781E-001	-5.997442686983123E-002	4.9027163E-005	-8.1755483E-001	0
1.3541348E+004	6.964899843565945E+001	-8.1944913E-001	-6.051459385382030E-002	4.9588631E-005	-8.1955475E-001	0
1.3444789E+004	6.984899843060703E+001	-8.2154018E-001	-6.110472908262538E-002	5.0199989E-005	-8.2155454E-001	0
1.3375978E+004	7.004899842555460E+001	-8.2352513E-001	-6.156747225859927E-002	5.0702361E-005	-8.2355458E-001	0
1.3296717E+004	7.024889842050470E+001	-8.2548141E-001	-6.208159620431686E-002	5.1247203E-005	-8.2555401E-001	0
1.3197001E+004	7.044879841545480E+001	-8.2749200E-001	-6.270303603054769E-002	5.1886262E-005	-8.2755429E-001	0
1.3116383E+004	7.064879841040238E+001	-8.2961774E-001	-6.325049878440203E-002	5.2473737E-005	-8.2955414E-001	0
1.3039484E+004	7.084879840534995E+001	-8.3154237E-001	-6.377110715222678E-002	5.3028376E-005	-8.3155406E-001	0
1.2917765E+004	7.104879840029753E+001	-8.3343744E-001	-6.451870338271137E-002	5.3772303E-005	-8.3355397E-001	0
1.2842492E+004	7.124879839524510E+001	-8.3528906E-001	-6.504104266158575E-002	5.4328073E-005	-8.3555377E-001	0
1.2752146E+004	7.144879839019268E+001	-8.3766270E-001	-6.568797595815878E-002	5.5024368E-005	-8.3755380E-001	0
1.2655761E+004	7.164879838514025E+001	-8.3960730E-001	-6.634190616349867E-002	5.5701148E-005	-8.3955359E-001	0
1.2561078E+004	7.184879838008783E+001	-8.4145665E-001	-6.698920821735155E-002	5.6368513E-005	-8.4155357E-001	0
1.2462016E+004	7.204879837503540E+001	-8.4346598E-001	-6.768295091160820E-002	5.7088266E-005	-8.4355342E-001	0
1.2363067E+004	7.224879836998298E+001	-8.4543788E-001	-6.838415456194469E-002	5.7814555E-005	-8.4555328E-001	0
1.2235650E+004	7.244879836493055E+001	-8.4753704E-001	-6.926783716861507E-002	5.8707057E-005	-8.4755319E-001	0
1.2151419E+004	7.264879835987813E+001	-8.4951782E-001	-6.991099519391120E-002	5.9390637E-005	-8.4955311E-001	0
1.2047669E+004	7.284879835482570E+001	-8.5149515E-001	-7.067716750527497E-002	6.0181264E-005	-8.5155302E-001	0
1.1926438E+004	7.304879834977328E+001	-8.5355902E-001	-7.156865146484148E-002	6.1088067E-005	-8.5355282E-001	0
1.1810682E+004	7.324879834472085E+001	-8.5549980E-001	-7.243441279857210E-002	6.1967628E-005	-8.5555273E-001	0
1.1691270E+004	7.344879833966843E+001	-8.5749203E-001	-7.334464939380847E-002	6.2892454E-005	-8.5755265E-001	0
1.1544219E+004	7.364879833461600E+001	-8.5945487E-001	-7.444894145128822E-002	6.3985506E-005	-8.5955250E-001	0
1.1425308E+004	7.384869832956610E+001	-8.6151469E-001	-7.540406988858009E-002	6.4961714E-005	-8.6155158E-001	0
1.1297952E+004	7.404869832451368E+001	-8.6343420E-001	-7.642395892512144E-002	6.5987057E-005	-8.6355299E-001	0
1.1138740E+004	7.424859831946378E+001	-8.6547613E-001	-7.769964475505686E-002	6.7247187E-005	-8.6555213E-001	0
1.0989662E+004	7.444859831441136E+001	-8.6749941E-001	-7.893777046249140E-002	6.8478468E-005	-8.6755216E-001	0
1.0831813E+004	7.464859830935893E+001	-8.6947411E-001	-8.027041482035902E-002	6.9793045E-005	-8.6955196E-001	0
1.0651692E+004	7.484859830430651E+001	-8.7147510E-001	-8.181564519635910E-002	7.1300296E-005	-8.7155193E-001	0
1.0506152E+004	7.504859829925408E+001	-8.7343097E-001	-8.313518890249394E-002	7.2612849E-005	-8.7355173E-001	0
1.0302547E+004	7.524859829420166E+001	-8.7542605E-001	-8.497180936429349E-002	7.4386538E-005	-8.7555164E-001	0
1.0101939E+004	7.544859828914923E+001	-8.7753451E-001	-8.686792435094937E-002	7.6229604E-005	-8.7755156E-001	0
9.8854961E+003	7.564859828409681E+001	-8.7946570E-001	-8.896525655588050E-002	7.8241894E-005	-8.7955147E-001	0
9.6601982E+003	7.584859827904438E+001	-8.8142729E-001	-9.124319066870057E-002	8.0424237E-005	-8.8155138E-001	0
9.4348623E+003	7.605859827373934E+001	-8.8348484E-001	-9.364046413396254E-002	8.2729930E-005	-8.8365126E-001	0
9.1607715E+003	7.626859826843429E+001	-8.8566351E-001	-9.668001273167626E-002	8.5625958E-005	-8.8575107E-001	0
8.8975723E+003	7.646859826338186E+001	-8.8767350E-001	-9.976581027498987E-002	8.8559464E-005	-8.8775098E-001	0
8.6346084E+003	7.666859825832944E+001	-8.8968170E-001	-1.030367199477245E-001	9.1669885E-005	-8.8975078E-001	0
8.3427734E+003	7.686859825327701E+001	-8.9163864E-001	-1.068755713958809E-001	9.5294388E-005	-8.9175081E-001	0
8.0565625E+003	7.706859824822459E+001	-8.9371926E-001	-1.109305954846613E-001	9.9140809E-005	-8.9375067E-001	0
7.7652983E+003	7.726859824317216E+001	-8.9571291E-001	-1.153481637493048E-001	1.0331884E-004	-8.9575058E-001	0
7.4506558E+003	7.746859823811974E+001	-8.9770097E-001	-1.204861723532791E-001	1.0816055E-004	-8.9775050E-001	0
7.1419019E+003	7.766849823306984E+001	-8.9970458E-001	-1.259754869666574E-001	1.1334072E-004	-8.9975059E-001	0
6.8330591E+003	7.786839822801994E+001	-9.0170074E-001	-1.319614995108362E-001	1.1898978E-004	-9.0175033E-001	0
6.5243447E+003	7.806839822296752E+001	-9.0371907E-001	-1.385149164695525E-001	1.2517857E-004	-9.0375030E-001	0
6.2167178E+003	7.826839821791509E+001	-9.0563536E-001	-1.456774073481868E-001	1.3193062E-004	-9.0575022E-001	0
5.9130640E+003	7.846839821286267E+001	-9.0770847E-001	-1.535089942394356E-001	1.3934141E-004	-9.0775025E-001	0
5.6095415E+003	7.866839820781024E+001	-9.0964502E-001	-1.621603097802544E-001	1.4750831E-004	-9.0975022E-001	0
5.3203115E+003	7.886839820275782E+001	-9.1164643E-001	-1.713520772279982E-001	1.5621251E-004	-9.1175020E-001	0
5.0368193E+003	7.906839819770539E+001	-9.1368240E-001	-1.814006774437082E-001	1.6574260E-004	-9.1375023E-001	0
4.7641675E+003	7.926839819265297E+001	-9.1570836E-001	-1.922074155554672E-001	1.7600594E-004	-9.1575027E-001	0
4.5003223E+003	7.946839818760054E+001	-9.1765654E-001	-2.039090806656350E-001	1.8711851E-004	-9.1775024E-001	0
4.2521440E+003	7.966839818254812E+001	-9.1960454E-001	-2.162684473502627E-001	1.9888145E-004	-9.1975021E-001	0
4.0168923E+003	7.986839817749569E+001	-9.2165756E-001	-2.294454194896796E-001	2.1147011E-004	-9.2175025E-001	0
3.7909702E+003	8.006839817244327E+001	-9.2367232E-001	-2.436506367962217E-001	2.2505334E-004	-9.2375022E-001	0
3.5800017E+003	8.026839816739084E+001	-9.2565405E-001	-2.585624654306384E-001	2.3933940E-004	-9.2575020E-001	0
3.3313335E+003	8.046839816233842E+001	-9.2770481E-001	-2.784785133387366E-001	2.5834586E-004	-9.2775029E-001	0
3.1627261E+003	8.066839815728599E+001	-9.2970091E-001	-2.939555576164050E-001	2.7329076E-004	-9.2975026E-001	0
2.9949280E+003	8.086839815223357E+001	-9.3164897E-001	-3.110755953996898E-001	2.8981327E-004	-9.3175024E-001	0
2.8366245E+003	8.106839814718114E+001	-9.3364763E-001	-3.291403593077344E-001	3.0730112E-004	-9.3375021E-001	0
2.6877512E+003	8.126839814212872E+001	-9.3568569E-001	-3.481295699773199E-001	3.2573985E-004	-9.3575031E-001	0
2.5477444E+003	8.146839813707629E+001	-9.3769073E-001	-3.680474193082497E-001	3.4511465E-004	-9.3775034E-001	0
2.4169968E+003	8.166839813202387E+001	-9.3964124E-001	-3.887639511461103E-001	3.6529865E-004	-9.3975025E-001	0
2.2690313E+003	8.186839812697144E+001	-9.4169807E-001	-4.150220695291709E-001	3.9082547E-004	-9.4175023E-001	0
2.1622732E+003	8.206839812191902E+001	-9.4371891E-001	-4.364475934278382E-001	4.1188384E-004	-9.4375032E-001	0
2.0587114E+003	8.226839811686659E+001	-9.4567269E-001	-4.593517542806134E-001	4.3439641E-004	-9.4575018E-001	0
1.9611392E+003	8.246839811181417E+001	-9.4767219E-001	-4.832253681449323E-001	4.5793926E-004	-9.4775021E-001	0
1.8688304E+003	8.266839810676174E+001	-9.4965780E-001	-5.081562231465870E-001	4.8257451E-004	-9.4975024E-001	0
1.7728195E+003	8.286839810170932E+001	-9.5170867E-001	-5.368333964982392E-001	5.1090901E-004	-9.5175022E-001	0
1.6897050E+003	8.306839809665689E+001	-9.5370221E-001	-5.644193869464240E-001	5.3828803E-004	-9.5375019E-001	0
1.6160947E+003	8.326839809160447E+001	-9.5568901E-001	-5.913570576353733E-001	5.6515343E-004	-9.5575023E-001	0
1.5466550E+003	8.346839808655204E+001	-9.5769590E-001	-6.192045827436345E-001	5.9300970E-004	-9.5775020E-001	0
1.4811237E+003	8.366839808149962E+001	-9.5970446E-001	-6.479570262446621E-001	6.2184723E-004	-9.5975018E-001	0
1.4079799E+003	8.386839807644719E+001	-9.6170515E-001	-6.830390083166381E-001	6.5688213E-004	-9.6175027E-001	0
1.3518153E+003	8.406839807139477E+001	-9.6366322E-001	-7.128660340926540E-001	6.8696280E-004	-9.6375030E-001	0
1.2981451E+003	8.426839806634234E+001	-9.6572191E-001	-7.439244748505001E-001	7.1842415E-004	-9.6575022E-001	0
1.2467955E+003	8.446839806128992E+001	-9.6769434E-001	-7.761451875550218E-001	7.5107132E-004	-9.6775025E-001	0
1.1904734E+003	8.466839805623749E+001	-9.6970505E-001	-8.145541744792393E-001	7.8987732E-004	-9.6975029E-001	0
1.1455623E+003	8.486839805118507E+001	-9.7169542E-001	-8.482257250164214E-001	8.2421704E-004	-9.7175032E-001	0
1.1031049E+003	8.506839804613264E+001	-9.7374016E-001	-8.827267411564073E-001	8.5954648E-004	-9.7375023E-001	0
1.0614709E+003	8.526839804108022E+001	-9.7568530E-001	-9.191822400168773E-001	8.9683261E-004	-9.7575021E-001	0
1.0180157E+003	8.546839803602779E+001	-9.7769183E-001	-9.603896702633423E-001	9.3896512E-004	-9.7775030E-001	0
9.8199890E+002	8.566839803097537E+001	-9.7971779E-001	-9.976770865082609E-001	9.7744202E-004	-9.7975016E-001	0
9.4729175E+002	8.586839802592294E+001	-9.8164320E-001	-1.036262768542480E+000	1.0172403E-003	-9.8175019E-001	0
9.0696466E+002	8.607839802061790E+001	-9.8380959E-001	-1.084727608617772E+000	1.0671654E-003	-9.8385024E-001	0
8.7388928E+002	8.628839801531285E+001	-9.8590976E-001	-1.128186100405427E+000	1.1122897E-003	-9.8595023E-001	0
8.4376776E+002	8.648839801026043E+001	-9.8780924E-001	-1.170712257593937E+000	1.1564404E-003	-9.8795021E-001	0
8.1167578E+002	8.668839800520800E+001	-9.8989224E-001	-1.219566075752176E+000	1.2072390E-003	-9.8995030E-001	0
7.8511133E+002	8.688839800015558E+001	-9.9188113E-001	-1.263363696862845E+000	1.2531066E-003	-9.9195033E-001	0
7.5888922E+002	8.708839799510315E+001	-9.9382746E-001	-1.309581770665114E+000	1.3014984E-003	-9.9395025E-001	0
7.3071234E+002	8.728839799005073E+001	-9.9581498E-001	-1.362800264397379E+000	1.3570969E-003	-9.9595022E-001	0
7.0767365E+002	8.748839798499830E+001	-9.9791604E-001	-1.410135928575215E+000	1.4071972E-003	-9.9795020E-001	0
6.8369684E+002	8.768849797994335E+001	-9.9995160E-001	-1.462565778713119E+000	1.4624950E-003	-9.9995095E-001	0
6.6137543E+002	8.788869797488587E+001	-1.0019048E+000	-1.514880631980130E+000	1.5177663E-003	-1.0019530E+000	0
6.4099640E+002	8.808899796982587E+001	-1.0038768E+000	-1.566119219593206E+000	1.5721908E-003	-1.0039557E+000	0
6.1885828E+002	8.828929796476586E+001	-1.0058672E+000	-1.625359580932020E+000	1.6348959E-003	-1.0059590E+000	0
6.0040784E+002	8.848949795970839E+001	-1.0078723E+000	-1.678646131418340E+000	1.6918610E-003	-1.0079610E+000	0
5.8119849E+002	8.868979795464838E+001	-1.0099173E+000	-1.737646143248561E+000	1.7548788E-003	-1.0099641E+000	0
5.6360480E+002	8.889009794958838E+001	-1.0119075E+000	-1.795420154223027E+000	1.8167990E-003	-1.0119669E+000	0
5.4571277E+002	8.909049794452585E+001	-1.0138688E+000	-1.857879883106766E+000	1.8836465E-003	-1.0139705E+000	0
5.2996399E+002	8.929089793946332E+001	-1.0158544E+000	-1.916836543875576E+000	1.9472267E-003	-1.0159751E+000	0
5.1379980E+002	8.949109793440584E+001	-1.0178889E+000	-1.981100258426508E+000	2.0165399E-003	-1.0179771E+000	0
4.9921494E+002	8.969159792934079E+001	-1.0199453E+000	-2.043098440111403E+000	2.0838485E-003	-1.0199815E+000	0
4.8494736E+002	8.989219792427321E+001	-1.0218990E+000	-2.107236930764017E+000	2.1533833E-003	-1.0219878E+000	0
4.7071786E+002	9.009249791921320E+001	-1.0239291E+000	-2.175250214397991E+000	2.2273019E-003	-1.0239911E+000	0
4.5686188E+002	9.029259791415825E+001	-1.0259663E+000	-2.245681560651107E+000	2.3039936E-003	-1.0259923E+000	0
4.4451697E+002	9.049289790909825E+001	-1.0279652E+000	-2.312544295039181E+000	2.3772151E-003	-1.0279944E+000	0
4.3169379E+002	9.069329790403572E+001	-1.0299566E+000	-2.385849903726552E+000	2.4573219E-003	-1.0299990E+000	0
4.2021442E+002	9.089379789897066E+001	-1.0319748E+000	-2.455829098491922E+000	2.5343536E-003	-1.0320036E+000	0
4.0782437E+002	9.109409789391066E+001	-1.0339425E+000	-2.535264069798764E+000	2.6213173E-003	-1.0340070E+000	0
3.9704990E+002	9.129429788885318E+001	-1.0359160E+000	-2.609032192689607E+000	2.7027382E-003	-1.0360090E+000	0
3.8628873E+002	9.149459788379318E+001	-1.0379602E+000	-2.687006049219928E+000	2.7890052E-003	-1.0380119E+000	0
3.7538821E+002	9.169489787873317E+001	-1.0398797E+000	-2.770144629091682E+000	2.8806170E-003	-1.0400152E+000	0
3.6531686E+002	9.189519787367317E+001	-1.0419425E+000	-2.852160791682238E+000	2.9717875E-003	-1.0420178E+000	0
3.5523264E+002	9.209559786861064E+001	-1.0439845E+000	-2.938875590714844E+000	3.0681407E-003	-1.0440218E+000	0
3.4567358E+002	9.229619786354306E+001	-1.0459409E+000	-3.025804961591579E+000	3.1648132E-003	-1.0460279E+000	0
3.3660345E+002	9.249659785848053E+001	-1.0479878E+000	-3.113419572859598E+000	3.2628258E-003	-1.0480318E+000	0
3.2788126E+002	9.269699785341800E+001	-1.0499752E+000	-3.202303064424498E+000	3.3623388E-003	-1.0500357E+000	0
3.1914297E+002	9.289749784835294E+001	-1.0520266E+000	-3.296411684240454E+000	3.4679128E-003	-1.0520408E+000	0
3.1119223E+002	9.309779784329294E+001	-1.0540142E+000	-3.387019514496117E+000	3.5699666E-003	-1.0540439E+000	0
3.0267636E+002	9.329819783823041E+001	-1.0559857E+000	-3.488827690969697E+000	3.6841522E-003	-1.0560478E+000	0
2.9481146E+002	9.349859783316788E+001	-1.0579895E+000	-3.588698655477053E+000	3.7968054E-003	-1.0580518E+000	0
2.8701007E+002	9.369909782810282E+001	-1.0599082E+000	-3.692930307716658E+000	3.9141667E-003	-1.0600569E+000	0
2.7960257E+002	9.389939782304282E+001	-1.0619397E+000	-3.798032554548872E+000	4.0332815E-003	-1.0620601E+000	0
2.7245389E+002	9.409979781798029E+001	-1.0640314E+000	-3.905362967817162E+000	4.1554286E-003	-1.0640637E+000	0
2.6546780E+002	9.430009781292028E+001	-1.0659847E+000	-4.015495171178955E+000	4.2804563E-003	-1.0660670E+000	0
2.5881836E+002	9.450039780786028E+001	-1.0680109E+000	-4.126488221949698E+000	4.4071344E-003	-1.0680698E+000	0
2.5185669E+002	9.470059780280280E+001	-1.0700166E+000	-4.248513748383566E+000	4.5459801E-003	-1.0700723E+000	0
2.4534555E+002	9.490089779774280E+001	-1.0719895E+000	-4.369305008826757E+000	4.6838494E-003	-1.0720745E+000	0
2.3926984E+002	9.510129779268027E+001	-1.0739923E+000	-4.488623773608523E+000	4.8207473E-003	-1.0740790E+000	0
2.3320857E+002	9.530159778762027E+001	-1.0760105E+000	-4.613940558548421E+000	4.9646483E-003	-1.0760821E+000	0
2.2733186E+002	9.550199778255774E+001	-1.0780112E+000	-4.742015253597792E+000	5.1119453E-003	-1.0780857E+000	0
2.2154411E+002	9.570229777749773E+001	-1.0800135E+000	-4.874936617407489E+000	5.2649975E-003	-1.0800891E+000	0
2.1581619E+002	9.590249777244026E+001	-1.0820467E+000	-5.013742010110857E+000	5.4251030E-003	-1.0820911E+000	0
2.1041348E+002	9.610269776738278E+001	-1.0840163E+000	-5.151838672255437E+000	5.5846772E-003	-1.0840932E+000	0
2.0501135E+002	9.630279776232783E+001	-1.0860221E+000	-5.297375632217687E+000	5.7530673E-003	-1.0860944E+000	0
1.9976810E+002	9.650289775727288E+001	-1.0880108E+000	-5.446369279648344E+000	5.9257085E-003	-1.0880951E+000	0
1.9485597E+002	9.670319775221287E+001	-1.0900451E+000	-5.594106834594186E+000	6.0978285E-003	-1.0900978E+000	0
1.8986012E+002	9.690369774714782E+001	-1.0920420E+000	-5.751823993625216E+000	6.2812334E-003	-1.0921025E+000	0
1.8502530E+002	9.710419774208276E+001	-1.0939703E+000	-5.912544656404037E+000	6.4681484E-003	-1.0941081E+000	0
1.8036490E+002	9.730439773702528E+001	-1.0960257E+000	-6.076712736125188E+000	6.6602333E-003	-1.0961101E+000	0
1.7614337E+002	9.750459773196781E+001	-1.0980788E+000	-6.234005987993228E+000	6.8454300E-003	-1.0981117E+000	0
1.7192197E+002	9.770489772690780E+001	-1.1000310E+000	-6.398432093389530E+000	7.0384736E-003	-1.1001151E+000	0
1.6770740E+002	9.790499772185285E+001	-1.1020643E+000	-6.571351429637595E+000	7.2420514E-003	-1.1021162E+000	0
1.6344856E+002	9.810519771679537E+001	-1.1040288E+000	-6.754594563061985E+000	7.4572670E-003	-1.1041181E+000	0
1.5937793E+002	9.830549771173537E+001	-1.1060249E+000	-6.939636041852040E+000	7.6754098E-003	-1.1061207E+000	0
1.5541039E+002	9.850579770667537E+001	-1.1080410E+000	-7.129774842064961E+000	7.9000834E-003	-1.1081243E+000	0
1.5163699E+002	9.870609770161536E+001	-1.1100249E+000	-7.320278077677536E+000	8.1256907E-003	-1.1101265E+000	0
1.4790953E+002	9.890659769655031E+001	-1.1120638E+000	-7.518539959050671E+000	8.3610956E-003	-1.1121318E+000	0
1.4412056E+002	9.910689769149030E+001	-1.1140541E+000	-7.730015080326581E+000	8.6116549E-003	-1.1141350E+000	0
1.4045084E+002	9.930709768643283E+001	-1.1160817E+000	-7.946422747279968E+000	8.8688573E-003	-1.1161370E+000	0
1.3705377E+002	9.950739768137282E+001	-1.1180346E+000	-8.157634560845594E+000	9.1205174E-003	-1.1181401E+000	0
1.3369254E+002	9.970779767631029E+001	-1.1200879E+000	-8.378087959735222E+000	9.3841944E-003	-1.1201438E+000	0
1.3020818E+002	9.990799767125282E+001	-1.1220758E+000	-8.617552871404037E+000	9.6695479E-003	-1.1221462E+000	0
1.2691676E+002	1.001081976661953E+002	-1.1240796E+000	-8.856825029725741E+000	9.9557759E-003	-1.1241479E+000	0
1.2366954E+002	1.003084976611353E+002	-1.1260872E+000	-9.105614680784324E+000	1.0253716E-002	-1.1261512E+000	0
1.2064840E+002	1.005086976560779E+002	-1.1281393E+000	-9.350635686310824E+000	1.0548819E-002	-1.1281531E+000	0
1.1767905E+002	1.007088976510204E+002	-1.1301364E+000	-9.603548151929566E+000	1.0853319E-002	-1.1301551E+000	0
1.1479764E+002	1.009091976459604E+002	-1.1321219E+000	-9.861891815583938E+000	1.1164864E-002	-1.1321577E+000	0
1.1182269E+002	1.011094976409004E+002	-1.1340828E+000	-1.014179523488906E+001	1.1501635E-002	-1.1341611E+000	0
1.0906388E+002	1.013096976358429E+002	-1.1360921E+000	-1.041675827210742E+001	1.1834396E-002	-1.1361630E+000	0
1.0644159E+002	1.015099976307829E+002	-1.1380982E+000	-1.069223230627276E+001	1.2168811E-002	-1.1381657E+000	0
1.0351365E+002	1.017204976254652E+002	-1.1401733E+000	-1.101471441650389E+001	1.2558684E-002	-1.1402711E+000	0
1.0058683E+002	1.019307976201526E+002	-1.1423160E+000	-1.135651622159043E+001	1.2972730E-002	-1.1423738E+000	0
9.8013100E+001	1.021309976150951E+002	-1.1442119E+000	-1.167407103933712E+001	1.3357610E-002	-1.1443763E+000	0
9.5607552E+001	1.023309976100427E+002	-1.1463513E+000	-1.199017587777169E+001	1.3744954E-002	-1.1463763E+000	0
9.3285278E+001	1.025310976049877E+002	-1.1483409E+000	-1.230999142176145E+001	1.4136068E-002	-1.1483771E+000	0
9.0992989E+001	1.027313975999277E+002	-1.1503420E+000	-1.264209428472185E+001	1.4542731E-002	-1.1503799E+000	0
8.8302361E+001	1.029316975948677E+002	-1.1522503E+000	-1.304891841625735E+001	1.5035620E-002	-1.1523832E+000	0
8.5896759E+001	1.031317975898128E+002	-1.1542742E+000	-1.343792520561458E+001	1.5511051E-002	-1.1543843E+000	0
8.3803413E+001	1.033318975847578E+002	-1.1563445E+000	-1.379829839013513E+001	1.5955586E-002	-1.1563851E+000	0
8.1667000E+001	1.035319975797029E+002	-1.1582962E+000	-1.418316104487772E+001	1.6428301E-002	-1.1583862E+000	0
7.9481712E+001	1.037320975746479E+002	-1.1602657E+000	-1.459789558729046E+001	1.6937437E-002	-1.1603870E+000	0
7.7574486E+001	1.039322975695904E+002	-1.1622839E+000	-1.498281193000842E+001	1.7414281E-002	-1.1623890E+000	0
7.5735985E+001	1.041326975645279E+002	-1.1643182E+000	-1.537338139400156E+001	1.7899508E-002	-1.1643929E+000	0
7.3810188E+001	1.043328975594704E+002	-1.1663492E+000	-1.580200733146921E+001	1.8430658E-002	-1.1663951E+000	0
7.2067039E+001	1.045329975544155E+002	-1.1683139E+000	-1.621148744935090E+001	1.8940106E-002	-1.1683962E+000	0
7.0301231E+001	1.047332975493555E+002	-1.1702765E+000	-1.664660122162513E+001	1.9481126E-002	-1.1703990E+000	0
6.8549042E+001	1.049335975442955E+002	-1.1722587E+000	-1.710102222382665E+001	2.0046823E-002	-1.1724019E+000	0
6.6792755E+001	1.051339975392330E+002	-1.1743789E+000	-1.758242957833940E+001	2.0648433E-002	-1.1744057E+000	0
6.5086372E+001	1.053342975341729E+002	-1.1763492E+000	-1.807366308055248E+001	2.1260938E-002	-1.1764090E+000	0
6.3496471E+001	1.055344975291155E+002	-1.1783487E+000	-1.855770298460500E+001	2.1867445E-002	-1.1784111E+000	0
6.1899574E+001	1.057347975240555E+002	-1.1802734E+000	-1.906755267350453E+001	2.2504926E-002	-1.1804138E+000	0
6.0378643E+001	1.059350975189955E+002	-1.1823815E+000	-1.958277768376820E+001	2.3154315E-002	-1.1824172E+000	0
5.8800434E+001	1.061352975139380E+002	-1.1843092E+000	-2.014116441163799E+001	2.3853367E-002	-1.1844190E+000	0
5.7224754E+001	1.063355975088780E+002	-1.1863337E+000	-2.073112702709102E+001	2.4594033E-002	-1.1864216E+000	0
5.5767277E+001	1.065359975038155E+002	-1.1883020E+000	-2.130823157830172E+001	2.5320616E-002	-1.1884258E+000	0
5.4429844E+001	1.067362974987554E+002	-1.1903917E+000	-2.187020136739642E+001	2.6034106E-002	-1.1904290E+000	0
5.3029697E+001	1.069363974937005E+002	-1.1923792E+000	-2.248512157574805E+001	2.6810791E-002	-1.1924303E+000	0
5.1715744E+001	1.071363974886481E+002	-1.1943847E+000	-2.309518500966544E+001	2.7584536E-002	-1.1944302E+000	0
5.0289665E+001	1.073363974835956E+002	-1.1964190E+000	-2.379055463443274E+001	2.8463472E-002	-1.1964302E+000	0
4.9083469E+001	1.075363974785432E+002	-1.1984069E+000	-2.441569275393778E+001	2.9259935E-002	-1.1984302E+000	0
4.7902756E+001	1.077365974734857E+002	-1.2003628E+000	-2.505832409381895E+001	3.0079080E-002	-1.2004317E+000	0
4.6745556E+001	1.079369974684232E+002	-1.2025124E+000	-2.572463582166822E+001	3.0934192E-002	-1.2024357E+000	0
4.5588490E+001	1.081375974633556E+002	-1.2044437E+000	-2.641990753293624E+001	3.1821292E-002	-1.2044418E+000	0
4.4560482E+001	1.083379974582931E+002	-1.2064245E+000	-2.707386489001317E+001	3.2662574E-002	-1.2064458E+000	0
4.3513721E+001	1.085383974532306E+002	-1.2084417E+000	-2.777151001357799E+001	3.3560250E-002	-1.2084497E+000	0
4.2543110E+001	1.087385974481731E+002	-1.2103602E+000	-2.845020440105949E+001	3.4434993E-002	-1.2104522E+000	0
4.1598454E+001	1.089387974431156E+002	-1.2124293E+000	-2.914601783909740E+001	3.5337485E-002	-1.2124537E+000	0
4.0691353E+001	1.091391974380531E+002	-1.2144536E+000	-2.984549487378857E+001	3.6245968E-002	-1.2144581E+000	0
3.9749191E+001	1.093393974329956E+002	-1.2164263E+000	-3.060254013255667E+001	3.7225734E-002	-1.2164599E+000	0
3.8897888E+001	1.095396974279356E+002	-1.2184409E+000	-3.132408844051042E+001	3.8166549E-002	-1.2184631E+000	0
3.7832302E+001	1.097399974228756E+002	-1.2204828E+000	-3.226033825058457E+001	3.9373189E-002	-1.2204659E+000	0
3.6932301E+001	1.099402974178156E+002	-1.2224761E+000	-3.310045920025578E+001	4.0464520E-002	-1.2224691E+000	0
3.6072079E+001	1.101404974127581E+002	-1.2243924E+000	-3.394294039489006E+001	4.1559480E-002	-1.2244711E+000	0
3.5235615E+001	1.103408974076956E+002	-1.2264367E+000	-3.480673706347511E+001	4.2688262E-002	-1.2264744E+000	0
3.4458794E+001	1.105414974026280E+002	-1.2284292E+000	-3.564922201236618E+001	4.3792546E-002	-1.2284809E+000	0
3.3774044E+001	1.107415973975731E+002	-1.2304288E+000	-3.643119434677817E+001	4.4825990E-002	-1.2304822E+000	0
3.3064301E+001	1.109418973925131E+002	-1.2324637E+000	-3.727475335122695E+001	4.5939781E-002	-1.2324847E+000	0
3.2166435E+001	1.111422973874505E+002	-1.2344356E+000	-3.837650951728824E+001	4.7373328E-002	-1.2344892E+000	0
3.1255732E+001	1.113425973823905E+002	-1.2364731E+000	-3.955988275528046E+001	4.8914731E-002	-1.2364917E+000	0
3.0580273E+001	1.115428973773305E+002	-1.2384459E+000	-4.049819587865795E+001	5.0154824E-002	-1.2384950E+000	0
3.0009996E+001	1.117430973722730E+002	-1.2404752E+000	-4.133539938521642E+001	5.1275536E-002	-1.2404970E+000	0
2.9368456E+001	1.119432973672156E+002	-1.2425015E+000	-4.230734908822694E+001	5.2566946E-002	-1.2424990E+000	0
2.8798285E+001	1.121436973621530E+002	-1.2444711E+000	-4.321337591316717E+001	5.3777795E-002	-1.2445025E+000	0
2.8259510E+001	1.123440973570905E+002	-1.2464648E+000	-4.410780075793650E+001	5.4978821E-002	-1.2465070E+000	0
2.7707512E+001	1.125446973520229E+002	-1.2485027E+000	-4.506008196325240E+001	5.6257635E-002	-1.2485125E+000	0
2.7131199E+001	1.127451973469579E+002	-1.2504756E+000	-4.608995048821576E+001	5.7634361E-002	-1.2505178E+000	0
2.6583035E+001	1.129457973418903E+002	-1.2524891E+000	-4.711610767638322E+001	5.9012409E-002	-1.2525238E+000	0
2.6024221E+001	1.131461973368278E+002	-1.2545245E+000	-4.820603363753935E+001	6.0475647E-002	-1.2545277E+000	0
2.5479221E+001	1.133464973317678E+002	-1.2564870E+000	-4.931418331748409E+001	6.1962631E-002	-1.2565310E+000	0
2.4950254E+001	1.135469973267027E+002	-1.2585672E+000	-5.044306011530716E+001	6.3485980E-002	-1.2585355E+000	0
2.4411152E+001	1.137475973216351E+002	-1.2605242E+000	-5.163722624832820E+001	6.5089971E-002	-1.2605418E+000	0
2.3548504E+001	1.139479973165726E+002	-1.2625544E+000	-5.361505653230915E+001	6.7691922E-002	-1.2625457E+000	0
2.3031176E+001	1.141486973115025E+002	-1.2645056E+000	-5.490408547956577E+001	6.9426522E-002	-1.2645526E+000	0
2.2623013E+001	1.143491973064374E+002	-1.2665439E+000	-5.598475834274313E+001	7.0907153E-002	-1.2665578E+000	0
2.2226681E+001	1.145495973013749E+002	-1.2685709E+000	-5.707424020100302E+001	7.2402723E-002	-1.2685618E+000	0
2.1823702E+001	1.147500972963098E+002	-1.2705364E+000	-5.821819084333720E+001	7.3968329E-002	-1.2705669E+000	0
2.1175535E+001	1.149501972912549E+002	-1.2726179E+000	-6.009850173526365E+001	7.6482430E-002	-1.2725682E+000	0
2.0391981E+001	1.151505972861924E+002	-1.2745119E+000	-6.250064247627870E+001	7.9657815E-002	-1.2745717E+000	0
2.0014557E+001	1.153509972811298E+002	-1.2765729E+000	-6.378222415189862E+001	8.1422664E-002	-1.2765758E+000	0
1.9655054E+001	1.155511972760723E+002	-1.2785879E+000	-6.505135515812106E+001	8.3173878E-002	-1.2785783E+000	0
1.9279119E+001	1.157513972710149E+002	-1.2805506E+000	-6.642163325065189E+001	8.5056260E-002	-1.2805798E+000	0
1.8965405E+001	1.159516972659549E+002	-1.2825567E+000	-6.762611648528491E+001	8.6734325E-002	-1.2825831E+000	0
1.8660244E+001	1.161519972608949E+002	-1.2846606E+000	-6.884478800704963E+001	8.8442184E-002	-1.2845858E+000	0
1.8344973E+001	1.163525972558273E+002	-1.2865261E+000	-7.012962994342422E+001	9.0223595E-002	-1.2865916E+000	0
1.7978966E+001	1.165528972507673E+002	-1.2886014E+000	-7.167272226045506E+001	9.2357568E-002	-1.2885950E+000	0
1.7678080E+001	1.167532972457047E+002	-1.2906291E+000	-7.300731740416200E+001	9.4225369E-002	-1.2905984E+000	0
1.7415659E+001	1.169536972406422E+002	-1.2925863E+000	-7.421977786307093E+001	9.5935471E-002	-1.2926030E+000	0
1.7118736E+001	1.171540972355797E+002	-1.2946408E+000	-7.562712622306663E+001	9.7909965E-002	-1.2946069E+000	0
1.6782637E+001	1.173543972305197E+002	-1.2965882E+000	-7.725771376056184E+001	1.0017144E-001	-1.2966101E+000	0
1.6455351E+001	1.175546972254597E+002	-1.2986090E+000	-7.891712710126626E+001	1.0248249E-001	-1.2986130E+000	0
1.6178932E+001	1.177549972203997E+002	-1.3005998E+000	-8.038848312706500E+001	1.0455325E-001	-1.3006159E+000	0
1.5937783E+001	1.179553972153371E+002	-1.3026122E+000	-8.173107658001982E+001	1.0646389E-001	-1.3026197E+000	0
1.5452623E+001	1.181557972102746E+002	-1.3046337E+000	-8.442797833947209E+001	1.1014759E-001	-1.3046238E+000	0
1.5161934E+001	1.183560972052146E+002	-1.3066572E+000	-8.618011481527748E+001	1.1260787E-001	-1.3066269E+000	0
1.4702731E+001	1.185565972001496E+002	-1.3086672E+000	-8.900844089789712E+001	1.1648243E-001	-1.3086318E+000	0
1.4368152E+001	1.187569971950870E+002	-1.3106595E+000	-9.121977541861361E+001	1.1955807E-001	-1.3106358E+000	0
1.4085736E+001	1.189573971900245E+002	-1.3126904E+000	-9.319288485774121E+001	1.2233340E-001	-1.3126397E+000	0
1.3896372E+001	1.191577971849620E+002	-1.3146800E+000	-9.460598864593385E+001	1.2437660E-001	-1.3146437E+000	0
1.3719114E+001	1.193579971799045E+002	-1.3166763E+000	-9.597385120121544E+001	1.2636650E-001	-1.3166462E+000	0
1.3525321E+001	1.195582971748445E+002	-1.3186830E+000	-9.749735656680605E+001	1.2856811E-001	-1.3186489E+000	0
1.3316803E+001	1.197585971697845E+002	-1.3206592E+000	-9.917238819712247E+001	1.3097292E-001	-1.3206519E+000	0
1.3120007E+001	1.199588971647245E+002	-1.3226774E+000	-1.008137770392541E+002	1.3334410E-001	-1.3226551E+000	0
1.2934970E+001	1.201590971596670E+002	-1.3246876E+000	-1.024113420698345E+002	1.3566303E-001	-1.3246571E+000	0
1.2715350E+001	1.203592971546095E+002	-1.3266202E+000	-1.043321844266961E+002	1.3840918E-001	-1.3266591E+000	0
1.2564753E+001	1.205594971495520E+002	-1.3286219E+000	-1.057419804043320E+002	1.4049111E-001	-1.3286612E+000	0
1.2383887E+001	1.207598971444895E+002	-1.3306696E+000	-1.074516902732880E+002	1.4298271E-001	-1.3306645E+000	0
1.2209145E+001	1.209602971394270E+002	-1.3327296E+000	-1.091583052012061E+002	1.4547850E-001	-1.3326690E+000	0
1.1933483E+001	1.211806971338592E+002	-1.3348404E+000	-1.118567318844780E+002	1.4931089E-001	-1.3348730E+000	0
1.1763004E+001	1.213810971287967E+002	-1.3367695E+000	-1.136418412644284E+002	1.5191294E-001	-1.3368764E+000	0
1.1631500E+001	1.215815971237316E+002	-1.3389130E+000	-1.151109475673406E+002	1.5412354E-001	-1.3388817E+000	0
1.1476402E+001	1.217820971186666E+002	-1.3408288E+000	-1.168335509965403E+002	1.5665379E-001	-1.3408868E+000	0
1.1327598E+001	1.219823971136066E+002	-1.3428637E+000	-1.185479687192444E+002	1.5919375E-001	-1.3428897E+000	0
1.1156324E+001	1.221827971085440E+002	-1.3448249E+000	-1.205437302700402E+002	1.6211021E-001	-1.3448938E+000	0
1.1039560E+001	1.223831971034815E+002	-1.3468614E+000	-1.220031689590205E+002	1.6432135E-001	-1.3468978E+000	0
1.0937299E+001	1.225834970984215E+002	-1.3488371E+000	-1.233245222926755E+002	1.6634470E-001	-1.3489012E+000	0
1.0707887E+001	1.227837970933615E+002	-1.3508847E+000	-1.261579121430495E+002	1.7042479E-001	-1.3509037E+000	0
1.0491549E+001	1.229842970882964E+002	-1.3528681E+000	-1.289483679209616E+002	1.7445013E-001	-1.3529084E+000	0
1.0409911E+001	1.231845970832364E+002	-1.3549241E+000	-1.301571232823831E+002	1.7635302E-001	-1.3549122E+000	0
1.0283758E+001	1.233847970781790E+002	-1.3568892E+000	-1.319448865569260E+002	1.7903459E-001	-1.3569138E+000	0
1.0161694E+001	1.235851970731164E+002	-1.3589512E+000	-1.337327465604239E+002	1.8173628E-001	-1.3589178E+000	0
1.0072583E+001	1.237854970680564E+002	-1.3609385E+000	-1.351131565549795E+002	1.8388070E-001	-1.3609210E+000	0
9.8692675E+000	1.239858970629939E+002	-1.3629479E+000	-1.381002193827034E+002	1.8822341E-001	-1.3629249E+000	0
9.7301683E+000	1.241861970579339E+002	-1.3649442E+000	-1.402796039307293E+002	1.9147384E-001	-1.3649279E+000	0
9.6439629E+000	1.243864970528739E+002	-1.3669405E+000	-1.417405408048453E+002	1.9375089E-001	-1.3669312E+000	0
9.5393124E+000	1.245868970478114E+002	-1.3689860E+000	-1.435099224382702E+002	1.9646308E-001	-1.3689345E+000	0
9.4169903E+000	1.247873970427463E+002	-1.3709443E+000	-1.455820028192661E+002	1.9958481E-001	-1.3709396E+000	0
9.3255644E+000	1.249879970376787E+002	-1.3729583E+000	-1.472252165722205E+002	2.0213409E-001	-1.3729457E+000	0
9.2565041E+000	1.251883970326162E+002	-1.3748878E+000	-1.485320861932885E+002	2.0421496E-001	-1.3749498E+000	0
9.1641645E+000	1.253887970275537E+002	-1.3769403E+000	-1.502526743906833E+002	2.0688896E-001	-1.3769536E+000	0
9.0999842E+000	1.255890970224937E+002	-1.3789492E+000	-1.515331447066558E+002	2.0895651E-001	-1.3789570E+000	0
9.0013952E+000	1.257894970174311E+002	-1.3809271E+000	-1.534125658554391E+002	2.1185157E-001	-1.3809609E+000	0
8.9207783E+000	1.259895970123762E+002	-1.3829757E+000	-1.550285919237026E+002	2.1440077E-001	-1.3829622E+000	0
8.8610821E+000	1.261896970073212E+002	-1.3849922E+000	-1.563005718270542E+002	2.1647508E-001	-1.3849630E+000	0
8.4523172E+000	1.263900970022587E+002	-1.3869529E+000	-1.640914309692558E+002	2.2758709E-001	-1.3869669E+000	0
8.3017673E+000	1.265705969976989E+002	-1.3888495E+000	-1.672956328058826E+002	2.3234846E-001	-1.3887713E+000	0
8.1759071E+000	1.267111969941470E+002	-1.3902419E+000	-1.700412897512218E+002	2.3639852E-001	-1.3901770E+000	0
8.0060091E+000	1.267920969921033E+002	-1.3910177E+000	-1.737466959895014E+002	2.4168472E-001	-1.3909858E+000	0
7.9631381E+000	1.268730969900571E+002	-1.3918030E+000	-1.747807240439106E+002	2.4326034E-001	-1.3917958E+000	0
7.9334235E+000	1.269938969870054E+002	-1.3930187E+000	-1.755885997664077E+002	2.4459821E-001	-1.3930039E+000	0
7.8825750E+000	1.271244969837062E+002	-1.3943689E+000	-1.768925639266014E+002	2.4665348E-001	-1.3943100E+000	0
7.8368921E+000	1.272352969809072E+002	-1.3954592E+000	-1.780628312933750E+002	2.4847941E-001	-1.3954176E+000	0
7.8061390E+000	1.273163969788584E+002	-1.3962418E+000	-1.788645782937144E+002	2.4973820E-001	-1.3962296E+000	0
7.7950587E+000	1.274073969765595E+002	-1.3972442E+000	-1.792474250860296E+002	2.5045243E-001	-1.3971392E+000	0
7.7696009E+000	1.275379969732603E+002	-1.3984373E+000	-1.799883059881781E+002	2.5170237E-001	-1.3984448E+000	0
7.7458577E+000	1.276687969699560E+002	-1.3997838E+000	-1.807138625283537E+002	2.5296035E-001	-1.3997530E+000	0
7.7206888E+000	1.277598969676546E+002	-1.4007111E+000	-1.814230637717468E+002	2.5412130E-001	-1.4006643E+000	0
7.7212658E+000	1.277914969668564E+002	-1.4009792E+000	-1.814442313087975E+002	2.5419959E-001	-1.4009793E+000	0
7.7189126E+000	1.279022969640573E+002	-1.4021070E+000	-1.816456616312649E+002	2.5468665E-001	-1.4020880E+000	0
7.6945009E+000	1.280430969605004E+002	-1.4034804E+000	-1.824004457079013E+002	2.5599545E-001	-1.4034957E+000	0
7.6748338E+000	1.281738969571961E+002	-1.4048281E+000	-1.830434486399568E+002	2.5714457E-001	-1.4048040E+000	0
7.5972862E+000	1.282946969541445E+002	-1.4059885E+000	-1.850645619456971E+002	2.6019862E-001	-1.4060117E+000	0
7.5040779E+000	1.284055969513429E+002	-1.4072328E+000	-1.875290696110000E+002	2.6389706E-001	-1.4071205E+000	0
7.4593878E+000	1.284868969492891E+002	-1.4079945E+000	-1.887547056815765E+002	2.6576558E-001	-1.4079335E+000	0
7.4323363E+000	1.286176969459848E+002	-1.4092549E+000	-1.896112966116345E+002	2.6721066E-001	-1.4092424E+000	0
7.3910561E+000	1.287187969434308E+002	-1.4102967E+000	-1.908112510578292E+002	2.6910049E-001	-1.4102521E+000	0
7.3758292E+000	1.288396969403766E+002	-1.4114430E+000	-1.913605897063972E+002	2.7009457E-001	-1.4114622E+000	0
7.3264775E+000	1.289406969378251E+002	-1.4124944E+000	-1.927931107181412E+002	2.7231920E-001	-1.4124714E+000	0
6.9934516E+000	1.290118969360265E+002	-1.4132379E+000	-2.020801737876386E+002	2.8558737E-001	-1.4131839E+000	0
6.8407388E+000	1.291027969337301E+002	-1.4141145E+000	-2.067195609926418E+002	2.9232511E-001	-1.4140927E+000	0
6.8141775E+000	1.291937969314313E+002	-1.4150720E+000	-2.076658545952287E+002	2.9386213E-001	-1.4150034E+000	0
6.8600144E+000	1.292947969288798E+002	-1.4160595E+000	-2.064222353641767E+002	2.9230615E-001	-1.4160120E+000	0
6.8657670E+000	1.293957969263283E+002	-1.4171152E+000	-2.064030429155805E+002	2.9249689E-001	-1.4170225E+000	0
6.8511801E+000	1.295165969232767E+002	-1.4182702E+000	-2.070110798623632E+002	2.9359764E-001	-1.4182311E+000	0
6.8333650E+000	1.296669969194772E+002	-1.4197387E+000	-2.077656629664452E+002	2.9497296E-001	-1.4197350E+000	0
6.7992792E+000	1.297779969166731E+002	-1.4208567E+000	-2.089716730500354E+002	2.9691881E-001	-1.4208446E+000	0
6.7846465E+000	1.298886969138766E+002	-1.4219446E+000	-2.095827126480181E+002	2.9801500E-001	-1.4219517E+000	0
6.7778196E+000	1.299698969118253E+002	-1.4227891E+000	-2.099184100475567E+002	2.9866964E-001	-1.4227635E+000	0
6.7486024E+000	1.300409969100292E+002	-1.4235030E+000	-2.109330067137926E+002	3.0026376E-001	-1.4234747E+000	0
6.7140050E+000	1.301318969077329E+002	-1.4243965E+000	-2.121530359783474E+002	3.0219004E-001	-1.4243836E+000	0
6.6884193E+000	1.302127969056892E+002	-1.4252347E+000	-2.130899091441543E+002	3.0370313E-001	-1.4251928E+000	0
6.6613250E+000	1.302739969041431E+002	-1.4257835E+000	-2.140390231639763E+002	3.0517331E-001	-1.4258045E+000	0
6.6566262E+000	1.303847969013441E+002	-1.4268918E+000	-2.143565999150101E+002	3.0586368E-001	-1.4269127E+000	0
6.6544862E+000	1.305151968980499E+002	-1.4282364E+000	-2.146275978766539E+002	3.0653894E-001	-1.4282174E+000	0
6.6317368E+000	1.306457968947507E+002	-1.4295830E+000	-2.155668952457752E+002	3.0817077E-001	-1.4295226E+000	0
6.6193190E+000	1.307565968919516E+002	-1.4306782E+000	-2.161367726537378E+002	3.0922219E-001	-1.4306313E+000	0
6.5902114E+000	1.308771968889050E+002	-1.4318435E+000	-2.172682267919904E+002	3.1109411E-001	-1.4318372E+000	0
6.5645700E+000	1.309879968861060E+002	-1.4330046E+000	-2.182937574189550E+002	3.1281596E-001	-1.4329447E+000	0
6.5162311E+000	1.310690968840572E+002	-1.4337683E+000	-2.200303025974047E+002	3.1547245E-001	-1.4337560E+000	0
6.5034018E+000	1.311798968812582E+002	-1.4349073E+000	-2.206395062070274E+002	3.1659725E-001	-1.4348636E+000	0
6.5149956E+000	1.313105968779564E+002	-1.4362228E+000	-2.204487806424841E+002	3.1661355E-001	-1.4361712E+000	0
6.4868360E+000	1.314313968749047E+002	-1.4374191E+000	-2.215901624440468E+002	3.1851792E-001	-1.4373786E+000	0
6.4553819E+000	1.315617968716106E+002	-1.4387009E+000	-2.228684517992158E+002	3.2064104E-001	-1.4386832E+000	0
6.4383984E+000	1.316527968693117E+002	-1.4396123E+000	-2.235978812485851E+002	3.2189426E-001	-1.4395926E+000	0
6.4300995E+000	1.316844968685109E+002	-1.4399180E+000	-2.239340264565408E+002	3.2244664E-001	-1.4399093E+000	0
6.4312105E+000	1.316864968684604E+002	-1.4400032E+000	-2.239085747963854E+002	3.2242906E-001	-1.4399294E+000	0
6.4330592E+000	1.317378968671619E+002	-1.4404782E+000	-2.239180695641953E+002	3.2254910E-001	-1.4404442E+000	0
6.4370046E+000	1.318488968643578E+002	-1.4416239E+000	-2.239588123381095E+002	3.2286438E-001	-1.4415540E+000	0
6.3379574E+000	1.319299968623091E+002	-1.4424452E+000	-2.275883268940806E+002	3.2828367E-001	-1.4423646E+000	0
6.2852573E+000	1.320112968602552E+002	-1.4432373E+000	-2.296226282443231E+002	3.3139995E-001	-1.4431772E+000	0
6.2681160E+000	1.320824968584566E+002	-1.4438596E+000	-2.303498457571977E+002	3.3259284E-001	-1.4438899E+000	0
6.2467895E+000	1.322030968554100E+002	-1.4451050E+000	-2.313356353940826E+002	3.3430427E-001	-1.4450965E+000	0
6.2466588E+000	1.323036968528686E+002	-1.4461348E+000	-2.315053291171937E+002	3.3478791E-001	-1.4461020E+000	0
6.2473178E+000	1.324044968503222E+002	-1.4471014E+000	-2.316356274664504E+002	3.3520022E-001	-1.4471098E+000	0
6.0862780E+000	1.325152968475231E+002	-1.4482468E+000	-2.379527972597325E+002	3.4461439E-001	-1.4482175E+000	0
5.9254346E+000	1.326061968452268E+002	-1.4491743E+000	-2.445684296205063E+002	3.5442227E-001	-1.4491267E+000	0
5.8803096E+000	1.327068968426829E+002	-1.4501947E+000	-2.466187620196692E+002	3.5764521E-001	-1.4501338E+000	0
5.8437495E+000	1.327977968403866E+002	-1.4510963E+000	-2.483159692512727E+002	3.6033037E-001	-1.4510423E+000	0
5.6116514E+000	1.328983968378452E+002	-1.4520552E+000	-2.587572008951626E+002	3.7572974E-001	-1.4520488E+000	0
5.3902617E+000	1.329892968355489E+002	-1.4530371E+000	-2.695670844451065E+002	3.9169100E-001	-1.4529577E+000	0
5.3981242E+000	1.330602968337553E+002	-1.4537593E+000	-2.693082333314219E+002	3.9150935E-001	-1.4536673E+000	0
5.4620781E+000	1.331315968319541E+002	-1.4544009E+000	-2.662724550344878E+002	3.8726690E-001	-1.4543812E+000	0
5.4784207E+000	1.332622968286523E+002	-1.4557208E+000	-2.657190576879145E+002	3.8681275E-001	-1.4556881E+000	0
5.4371881E+000	1.333632968261009E+002	-1.4568032E+000	-2.679331961717577E+002	3.9032593E-001	-1.4566972E+000	0
5.4280081E+000	1.334639968235570E+002	-1.4578127E+000	-2.685723077288239E+002	3.9152810E-001	-1.4577050E+000	0
5.4481244E+000	1.335747968207579E+002	-1.4588715E+000	-2.677749986093158E+002	3.9064932E-001	-1.4588127E+000	0
5.4352508E+000	1.336956968177037E+002	-1.4601859E+000	-2.686510702633295E+002	3.9228049E-001	-1.4600216E+000	0
5.4165301E+000	1.337966968151522E+002	-1.4611061E+000	-2.697494663450561E+002	3.9413258E-001	-1.4610317E+000	0
5.4212570E+000	1.338478968138588E+002	-1.4615705E+000	-2.695999183558829E+002	3.9403927E-001	-1.4615440E+000	0
5.4151306E+000	1.339090968123128E+002	-1.4622073E+000	-2.700225322035749E+002	3.9482892E-001	-1.4621556E+000	0
5.4148798E+000	1.340098968097664E+002	-1.4631587E+000	-2.702107565606836E+002	3.9536121E-001	-1.4631644E+000	0
5.4134912E+000	1.341204968069724E+002	-1.4643375E+000	-2.704978064952431E+002	3.9610007E-001	-1.4642696E+000	0
5.4073014E+000	1.342212968044259E+002	-1.4653754E+000	-2.709994055819525E+002	3.9711586E-001	-1.4652779E+000	0
5.3917327E+000	1.342726968031275E+002	-1.4658442E+000	-2.718688389848824E+002	3.9851734E-001	-1.4657913E+000	0
5.4006152E+000	1.343437968013313E+002	-1.4665774E+000	-2.715574661552317E+002	3.9826006E-001	-1.4665033E+000	0
5.3999968E+000	1.344744967980296E+002	-1.4678997E+000	-2.718334275791694E+002	3.9902419E-001	-1.4678102E+000	0
5.3623896E+000	1.345852967952305E+002	-1.4690050E+000	-2.739459554103676E+002	4.0242797E-001	-1.4689177E+000	0
5.3621745E+000	1.347057967921864E+002	-1.4702239E+000	-2.741842727643302E+002	4.0311226E-001	-1.4701227E+000	0
5.3778758E+000	1.348165967893874E+002	-1.4713197E+000	-2.735875097023363E+002	4.0253469E-001	-1.4712313E+000	0
5.4001045E+000	1.349469967860932E+002	-1.4725976E+000	-2.726979738559203E+002	4.0157437E-001	-1.4725351E+000	0
5.4210787E+000	1.350873967825464E+002	-1.4740230E+000	-2.719058526359530E+002	4.0079549E-001	-1.4739382E+000	0
5.4193044E+000	1.352080967794973E+002	-1.4752462E+000	-2.722205826108788E+002	4.0159237E-001	-1.4751459E+000	0
5.3877149E+000	1.353088967769509E+002	-1.4762143E+000	-2.739963621082743E+002	4.0447736E-001	-1.4761539E+000	0
5.3646941E+000	1.354098967743994E+002	-1.4773047E+000	-2.753753796875508E+002	4.0681335E-001	-1.4771637E+000	0
5.3464856E+000	1.354812967725957E+002	-1.4780091E+000	-2.764449739108509E+002	4.0858820E-001	-1.4778774E+000	0
5.3246989E+000	1.355624967705444E+002	-1.4788088E+000	-2.777262592684547E+002	4.1070402E-001	-1.4786892E+000	0
5.3160620E+000	1.355842967699937E+002	-1.4789679E+000	-2.782074168821182E+002	4.1145983E-001	-1.4789075E+000	0
5.3163333E+000	1.355862967699431E+002	-1.4790344E+000	-2.782057410577945E+002	4.1147587E-001	-1.4789274E+000	0
5.3186369E+000	1.356574967681445E+002	-1.4797207E+000	-2.782142718921823E+002	4.1167942E-001	-1.4796402E+000	0
5.3089981E+000	1.357581967656006E+002	-1.4806563E+000	-2.788956051230607E+002	4.1294852E-001	-1.4806466E+000	0
5.3075509E+000	1.358587967630592E+002	-1.4816687E+000	-2.791624196457710E+002	4.1362622E-001	-1.4816526E+000	0
5.2966352E+000	1.359693967602652E+002	-1.4827981E+000	-2.799509691198318E+002	4.1511077E-001	-1.4827589E+000	0
5.3151164E+000	1.360305967587192E+002	-1.4834443E+000	-2.790991155979063E+002	4.1402799E-001	-1.4833707E+000	0
5.3042712E+000	1.361115967566730E+002	-1.4843044E+000	-2.798319356121278E+002	4.1535577E-001	-1.4841805E+000	0
5.3009095E+000	1.362319967536314E+002	-1.4854800E+000	-2.802311342225798E+002	4.1627774E-001	-1.4853847E+000	0
5.2855926E+000	1.363526967505823E+002	-1.4867065E+000	-2.812752722105063E+002	4.1817376E-001	-1.4865918E+000	0
5.2719326E+000	1.364933967470279E+002	-1.4880167E+000	-2.822526128547943E+002	4.1999662E-001	-1.4879987E+000	0
5.2818341E+000	1.366339967434760E+002	-1.4894772E+000	-2.819999845701568E+002	4.2003253E-001	-1.4894055E+000	0
5.2931309E+000	1.367445967406820E+002	-1.4906247E+000	-2.816149281163543E+002	4.1978216E-001	-1.4905115E+000	0
5.3163638E+000	1.368553967378830E+002	-1.4917201E+000	-2.805903025747444E+002	4.1856217E-001	-1.4916189E+000	0
5.3081141E+000	1.369465967355791E+002	-1.4925834E+000	-2.811890113738045E+002	4.1969806E-001	-1.4925307E+000	0
5.3087158E+000	1.370477967330226E+002	-1.4935523E+000	-2.813396630399136E+002	4.2019552E-001	-1.4935429E+000	0
5.3199372E+000	1.371582967302311E+002	-1.4946784E+000	-2.809579064001355E+002	4.1994169E-001	-1.4946477E+000	0
5.3332281E+000	1.372490967279373E+002	-1.4956517E+000	-2.804402245811989E+002	4.1944090E-001	-1.4955554E+000	0
5.3172421E+000	1.373695967248932E+002	-1.4967083E+000	-2.814820516511454E+002	4.2129651E-001	-1.4967605E+000	0
5.3008227E+000	1.374803967220942E+002	-1.4979314E+000	-2.825846946295842E+002	4.2329249E-001	-1.4978689E+000	0
5.2956052E+000	1.375615967200429E+002	-1.4987231E+000	-2.830126309249852E+002	4.2415759E-001	-1.4986802E+000	0
5.2665730E+000	1.376526967177415E+002	-1.4996886E+000	-2.847560788299829E+002	4.2704546E-001	-1.4995915E+000	0
5.2884398E+000	1.377335967156978E+002	-1.5005132E+000	-2.837345846580242E+002	4.2574748E-001	-1.5004008E+000	0
5.1299267E+000	1.377848967144018E+002	-1.5009406E+000	-2.925851904153824E+002	4.3915299E-001	-1.5009133E+000	0
5.0086274E+000	1.378164967136036E+002	-1.5013568E+000	-2.997541516799150E+002	4.5003796E-001	-1.5012295E+000	0
4.8226080E+000	1.379175967110496E+002	-1.5022856E+000	-3.115089445996625E+002	4.6797541E-001	-1.5022410E+000	0
4.7532439E+000	1.380184967085006E+002	-1.5033648E+000	-3.162818677782984E+002	4.7548702E-001	-1.5032499E+000	0
4.7904844E+000	1.381095967061992E+002	-1.5042613E+000	-3.140102738025553E+002	4.7235349E-001	-1.5041610E+000	0
4.8011088E+000	1.381807967044006E+002	-1.5049236E+000	-3.134533379053782E+002	4.7172332E-001	-1.5048726E+000	0
4.8110914E+000	1.382124967035998E+002	-1.5053240E+000	-3.128861737714878E+002	4.7099507E-001	-1.5051893E+000	0
4.8183417E+000	1.382936967015485E+002	-1.5060385E+000	-3.125636626807259E+002	4.7073293E-001	-1.5060012E+000	0
4.8171492E+000	1.383946966989970E+002	-1.5070585E+000	-3.128527798547921E+002	4.7148743E-001	-1.5070112E+000	0
4.8229194E+000	1.384560966974459E+002	-1.5077578E+000	-3.126234669634532E+002	4.7136047E-001	-1.5076252E+000	0
4.8237138E+000	1.384876966966476E+002	-1.5080495E+000	-3.126324700518176E+002	4.7146523E-001	-1.5079420E+000	0
4.8114586E+000	1.385588966948490E+002	-1.5087373E+000	-3.135717164264790E+002	4.7309735E-001	-1.5086540E+000	0
4.8350959E+000	1.386796966917973E+002	-1.5099332E+000	-3.122861006434058E+002	4.7153115E-001	-1.5098616E+000	0
4.8348818E+000	1.387807966892433E+002	-1.5109636E+000	-3.125130356165682E+002	4.7219580E-001	-1.5108724E+000	0
4.8385978E+000	1.388716966869470E+002	-1.5119344E+000	-3.124736606098379E+002	4.7243968E-001	-1.5117816E+000	0
4.8350849E+000	1.389329966853984E+002	-1.5123459E+000	-3.127857959606441E+002	4.7304031E-001	-1.5123965E+000	0
4.8417945E+000	1.389942966838498E+002	-1.5131284E+000	-3.125139712521604E+002	4.7287378E-001	-1.5130074E+000	0
4.8625302E+000	1.391050966810508E+002	-1.5141907E+000	-3.113997316560353E+002	4.7151858E-001	-1.5141157E+000	0
4.8684721E+000	1.392158966782517E+002	-1.5152804E+000	-3.112435029817123E+002	4.7162116E-001	-1.5152246E+000	0
4.8392553E+000	1.393064966759630E+002	-1.5161217E+000	-3.132964973327153E+002	4.7499564E-001	-1.5161302E+000	0
4.7997556E+000	1.394072966734166E+002	-1.5172527E+000	-3.161104188104218E+002	4.7961938E-001	-1.5171373E+000	0
4.8038540E+000	1.395080966708701E+002	-1.5182126E+000	-3.160405210785502E+002	4.7981668E-001	-1.5181457E+000	0
4.8228078E+000	1.395986966685814E+002	-1.5190586E+000	-3.149739132179898E+002	4.7846383E-001	-1.5190519E+000	0
4.8389187E+000	1.396991966660426E+002	-1.5201383E+000	-3.141483536128717E+002	4.7754893E-001	-1.5200565E+000	0
4.8399725E+000	1.397998966634987E+002	-1.5211135E+000	-3.142814351268380E+002	4.7805774E-001	-1.5210636E+000	0
4.8281875E+000	1.399205966604495E+002	-1.5223548E+000	-3.153056764633884E+002	4.8000711E-001	-1.5222706E+000	0
4.8310881E+000	1.400017966583982E+002	-1.5231864E+000	-3.152884767850692E+002	4.8024315E-001	-1.5230826E+000	0
4.8307505E+000	1.400727966566046E+002	-1.5239267E+000	-3.154637547505872E+002	4.8074365E-001	-1.5237933E+000	0
4.7742596E+000	1.402427966523101E+002	-1.5255685E+000	-3.195403439614778E+002	4.8748067E-001	-1.5254941E+000	0
4.7649055E+000	1.404427966472576E+002	-1.5275660E+000	-3.205868452573850E+002	4.8971754E-001	-1.5274940E+000	0
4.7196388E+000	1.406427966422052E+002	-1.5296260E+000	-3.240981065161909E+002	4.9574891E-001	-1.5294940E+000	0
4.7340980E+000	1.408427966371528E+002	-1.5315183E+000	-3.235079602935680E+002	4.9545836E-001	-1.5314940E+000	0
4.7486148E+000	1.410427966321004E+002	-1.5334994E+000	-3.229361311616276E+002	4.9522236E-001	-1.5334940E+000	0
4.7639418E+000	1.412427966270479E+002	-1.5356252E+000	-3.223434207963828E+002	4.9499869E-001	-1.5354941E+000	0
4.7611270E+000	1.414427966219955E+002	-1.5375385E+000	-3.229358289463448E+002	4.9652627E-001	-1.5374939E+000	0
4.7435856E+000	1.416427966169431E+002	-1.5395340E+000	-3.245506990091062E+002	4.9965683E-001	-1.5394940E+000	0
4.7209039E+000	1.418427966118907E+002	-1.5415938E+000	-3.265463286592301E+002	5.0340182E-001	-1.5414940E+000	0
4.7230229E+000	1.420427966068382E+002	-1.5435498E+000	-3.268139337033645E+002	5.0445360E-001	-1.5434940E+000	0
4.7122803E+000	1.422427966017858E+002	-1.5455379E+000	-3.279808950813459E+002	5.0690693E-001	-1.5454941E+000	0
4.6891661E+000	1.424427965967334E+002	-1.5475852E+000	-3.300342168570119E+002	5.1075608E-001	-1.5474942E+000	0
4.4679947E+000	1.426427965916810E+002	-1.5496503E+000	-3.468335321019840E+002	5.3747070E-001	-1.5494940E+000	0
4.4628544E+000	1.428427965866285E+002	-1.5515656E+000	-3.476621741513272E+002	5.3942066E-001	-1.5514940E+000	0
4.4485846E+000	1.430427965815761E+002	-1.5536146E+000	-3.492379731137203E+002	5.4258120E-001	-1.5534941E+000	0
4.4412856E+000	1.432427965765237E+002	-1.5555778E+000	-3.502539320078577E+002	5.4484725E-001	-1.5554941E+000	0
4.4473863E+000	1.434427965714713E+002	-1.5576485E+000	-3.502390818931071E+002	5.4554939E-001	-1.5574942E+000	0
4.4305024E+000	1.436427965664188E+002	-1.5595604E+000	-3.520053150951180E+002	5.4897356E-001	-1.5594940E+000	0
4.4484692E+000	1.438427965613664E+002	-1.5615439E+000	-3.510295152729063E+002	5.4814804E-001	-1.5614940E+000	0
4.3788033E+000	1.440427965563140E+002	-1.5635746E+000	-3.570780557558928E+002	5.5831814E-001	-1.5634941E+000	0
4.3485999E+000	1.442427965512616E+002	-1.5656284E+000	-3.600304727813837E+002	5.6367391E-001	-1.5654941E+000	0
4.3600879E+000	1.444427965462091E+002	-1.5676107E+000	-3.595364835548826E+002	5.6361324E-001	-1.5674942E+000	0
4.3587933E+000	1.446427965411567E+002	-1.5695568E+000	-3.600897814194906E+002	5.6518137E-001	-1.5694941E+000	0
4.3508577E+000	1.448427965361043E+002	-1.5715761E+000	-3.612106284446445E+002	5.6766999E-001	-1.5714941E+000	0
4.3603210E+000	1.450427965310519E+002	-1.5735555E+000	-3.608806390697446E+002	5.6786573E-001	-1.5734941E+000	0
4.3582530E+000	1.452427965259994E+002	-1.5755960E+000	-3.615200824002294E+002	5.6960958E-001	-1.5754942E+000	0
4.3547239E+000	1.454427965209470E+002	-1.5775827E+000	-3.622692893973287E+002	5.7150978E-001	-1.5774940E+000	0
4.3753581E+000	1.456427965158946E+002	-1.5795969E+000	-3.610211551951720E+002	5.7026792E-001	-1.5794941E+000	0
4.4061985E+000	1.458427965108422E+002	-1.5816296E+000	-3.589555965280865E+002	5.6773484E-001	-1.5814941E+000	0
4.4135947E+000	1.460427965057897E+002	-1.5835260E+000	-3.587837280372923E+002	5.6814337E-001	-1.5834941E+000	0
4.3773222E+000	1.462427965007373E+002	-1.5855399E+000	-3.622168559833437E+002	5.7430929E-001	-1.5854942E+000	0
4.3830395E+000	1.464427964956849E+002	-1.5876063E+000	-3.622158369617928E+002	5.7505614E-001	-1.5874940E+000	0
4.3123956E+000	1.466427964906325E+002	-1.5895873E+000	-3.686088767451765E+002	5.8593601E-001	-1.5894941E+000	0
4.3118963E+000	1.468427964855800E+002	-1.5916326E+000	-3.691259024354076E+002	5.8751285E-001	-1.5914942E+000	0
4.2992344E+000	1.470427964805276E+002	-1.5936120E+000	-3.706734460259795E+002	5.9070963E-001	-1.5934941E+000	0
4.2003021E+000	1.472427964754752E+002	-1.5955883E+000	-3.798746666594695E+002	6.0612357E-001	-1.5954942E+000	0
3.9743910E+000	1.474427964704228E+002	-1.5978299E+000	-4.020313841739753E+002	6.4237779E-001	-1.5974940E+000	0
3.8188469E+000	1.476427964653703E+002	-1.6000960E+000	-4.189997666590334E+002	6.7043984E-001	-1.5994941E+000	0
3.8303654E+000	1.478427964603179E+002	-1.6021210E+000	-4.182684517468988E+002	6.7011666E-001	-1.6014940E+000	0
3.8459644E+000	1.480427964552655E+002	-1.6040521E+000	-4.170740825540597E+002	6.6900855E-001	-1.6034940E+000	0
3.8506372E+000	1.482427964502131E+002	-1.6060963E+000	-4.170988248881295E+002	6.6990089E-001	-1.6054941E+000	0
3.8267467E+000	1.484427964451606E+002	-1.6081597E+000	-4.202419871418915E+002	6.7581624E-001	-1.6074942E+000	0
3.8400140E+000	1.486427964401082E+002	-1.6101494E+000	-4.193082001744483E+002	6.7514884E-001	-1.6094941E+000	0
3.8611860E+000	1.488427964350558E+002	-1.6120644E+000	-4.175049833699977E+002	6.7304492E-001	-1.6114939E+000	0
3.5964108E+000	1.490427964300034E+002	-1.6140836E+000	-4.488040372108917E+002	7.2440726E-001	-1.6134940E+000	0
3.5752871E+000	1.492427964249509E+002	-1.6162204E+000	-4.520533002520351E+002	7.3061776E-001	-1.6154941E+000	0
3.6073127E+000	1.494427964198985E+002	-1.6181866E+000	-4.485850687351376E+002	7.2589433E-001	-1.6174942E+000	0
3.6224444E+000	1.496427964148461E+002	-1.6201165E+000	-4.472439808661711E+002	7.2458732E-001	-1.6194941E+000	0
3.6527078E+000	1.498427964097937E+002	-1.6221087E+000	-4.440838960747062E+002	7.2035235E-001	-1.6214941E+000	0
3.6607351E+000	1.500427964047412E+002	-1.6242410E+000	-4.436925825045491E+002	7.2066367E-001	-1.6234940E+000	0
3.6754134E+000	1.502427963996888E+002	-1.6261404E+000	-4.424374035988822E+002	7.1946532E-001	-1.6254941E+000	0
3.7014050E+000	1.504427963946364E+002	-1.6280191E+000	-4.398381439433897E+002	7.1606487E-001	-1.6274942E+000	0
3.7100549E+000	1.506427963895840E+002	-1.6300807E+000	-4.393683614795700E+002	7.1620589E-001	-1.6294941E+000	0
3.7054465E+000	1.508427963845315E+002	-1.6321874E+000	-4.404833234107946E+002	7.1895134E-001	-1.6314940E+000	0
3.7069418E+000	1.510427963794791E+002	-1.6341107E+000	-4.408244782748397E+002	7.2035599E-001	-1.6334940E+000	0
3.7251313E+000	1.512427963744267E+002	-1.6361084E+000	-4.392082422477051E+002	7.1859229E-001	-1.6354941E+000	0
3.7448368E+000	1.514427963693743E+002	-1.6380877E+000	-4.374256707578552E+002	7.1654165E-001	-1.6374942E+000	0
3.7208674E+000	1.516427963643218E+002	-1.6401327E+000	-4.407930850723137E+002	7.2295916E-001	-1.6394941E+000	0
3.6881750E+000	1.518427963592694E+002	-1.6420999E+000	-4.452337201393102E+002	7.3111820E-001	-1.6414940E+000	0
3.7084012E+000	1.520427963542170E+002	-1.6441605E+000	-4.433609993257778E+002	7.2895664E-001	-1.6434941E+000	0
3.7065425E+000	1.522427963491646E+002	-1.6460693E+000	-4.440983244145507E+002	7.3101664E-001	-1.6454941E+000	0
3.7202523E+000	1.524427963441121E+002	-1.6480314E+000	-4.429891507111988E+002	7.3005998E-001	-1.6474942E+000	0
3.7131195E+000	1.526427963390597E+002	-1.6501338E+000	-4.444063407179989E+002	7.3332995E-001	-1.6494941E+000	0
3.6689129E+000	1.528427963340073E+002	-1.6521430E+000	-4.503085978025747E+002	7.4397421E-001	-1.6514940E+000	0
3.6629820E+000	1.530427963289549E+002	-1.6541098E+000	-4.515746574920850E+002	7.4695408E-001	-1.6534941E+000	0
3.6729310E+000	1.532427963239024E+002	-1.6560827E+000	-4.508886254282497E+002	7.4670887E-001	-1.6554941E+000	0
3.6968162E+000	1.534427963188500E+002	-1.6581573E+000	-4.485365889499510E+002	7.4374425E-001	-1.6574942E+000	0
3.7229662E+000	1.536427963137976E+002	-1.6601324E+000	-4.459165823929980E+002	7.4028057E-001	-1.6594942E+000	0
3.7323968E+000	1.538427963087452E+002	-1.6622063E+000	-4.453455321815818E+002	7.4025613E-001	-1.6614940E+000	0
3.7389278E+000	1.540427963036927E+002	-1.6641357E+000	-4.450836547064405E+002	7.4067962E-001	-1.6634941E+000	0
3.6992033E+000	1.542427962986403E+002	-1.6660870E+000	-4.503907728043805E+002	7.5039023E-001	-1.6654942E+000	0
3.6750367E+000	1.544427962935879E+002	-1.6681416E+000	-4.539115486231549E+002	7.5718874E-001	-1.6674941E+000	0
3.1774223E+000	1.546427962885355E+002	-1.6701503E+000	-5.256305657687381E+002	8.7788206E-001	-1.6694942E+000	0
3.2080250E+000	1.548427962834830E+002	-1.6722492E+000	-5.212706389178511E+002	8.7169439E-001	-1.6714940E+000	0
3.2267621E+000	1.550427962784306E+002	-1.6741886E+000	-5.188447739867088E+002	8.6864400E-001	-1.6734941E+000	0
3.2625873E+000	1.552427962733782E+002	-1.6762228E+000	-5.137710086277530E+002	8.6119467E-001	-1.6754942E+000	0
3.2531679E+000	1.554427962683258E+002	-1.6782204E+000	-5.158726691377960E+002	8.6574805E-001	-1.6774940E+000	0
3.2874937E+000	1.556427962632733E+002	-1.6801971E+000	-5.110875682744318E+002	8.5872787E-001	-1.6794939E+000	0
3.3098226E+000	1.558427962582209E+002	-1.6821610E+000	-5.082329677616360E+002	8.5492969E-001	-1.6814940E+000	0
3.3398042E+000	1.560427962531685E+002	-1.6840774E+000	-5.042443503035975E+002	8.4918648E-001	-1.6834941E+000	0
3.3443608E+000	1.562427962481161E+002	-1.6861315E+000	-5.041715290822176E+002	8.5009950E-001	-1.6854942E+000	0
3.3312931E+000	1.564427962430636E+002	-1.6881838E+000	-5.067653047860076E+002	8.5551298E-001	-1.6874940E+000	0
3.3238859E+000	1.566427962380112E+002	-1.6901988E+000	-5.085008398648570E+002	8.5946751E-001	-1.6894940E+000	0
3.3353612E+000	1.568427962329588E+002	-1.6921415E+000	-5.073338071905278E+002	8.5848063E-001	-1.6914940E+000	0
3.3617880E+000	1.570427962279064E+002	-1.6941688E+000	-5.039487251705591E+002	8.5377419E-001	-1.6934941E+000	0
3.3872819E+000	1.572427962228539E+002	-1.6961001E+000	-5.007260025872120E+002	8.4928143E-001	-1.6954942E+000	0
3.3781774E+000	1.574427962178015E+002	-1.6982088E+000	-5.026997225452178E+002	8.5368907E-001	-1.6974940E+000	0
3.3878663E+000	1.576427962127491E+002	-1.7002119E+000	-5.018533155393707E+002	8.5325694E-001	-1.6994940E+000	0
3.4096324E+000	1.578427962076967E+002	-1.7021645E+000	-4.992222774964084E+002	8.4975845E-001	-1.7014940E+000	0
3.4334278E+000	1.580427962026442E+002	-1.7041190E+000	-4.963316858858216E+002	8.4580827E-001	-1.7034941E+000	0
3.4445028E+000	1.582427961975918E+002	-1.7061303E+000	-4.953197400748322E+002	8.4508002E-001	-1.7054942E+000	0
3.4381180E+000	1.584427961925394E+002	-1.7082293E+000	-4.968501170584386E+002	8.4873390E-001	-1.7074940E+000	0
3.4450099E+000	1.586427961874870E+002	-1.7102127E+000	-4.964318730879804E+002	8.4900409E-001	-1.7094941E+000	0
3.4297125E+000	1.588427961824345E+002	-1.7121462E+000	-4.992098103910355E+002	8.5472018E-001	-1.7114941E+000	0
3.4605474E+000	1.590427961773821E+002	-1.7141552E+000	-4.953421936035156E+002	8.4909338E-001	-1.7134941E+000	0
3.4598229E+000	1.592427961723297E+002	-1.7161592E+000	-4.960251581274169E+002	8.5125816E-001	-1.7154942E+000	0
3.3993611E+000	1.594427961672773E+002	-1.7181764E+000	-5.054409476213178E+002	8.6843669E-001	-1.7174941E+000	0
3.4033024E+000	1.596427961622248E+002	-1.7201257E+000	-5.054284032704884E+002	8.6940038E-001	-1.7194941E+000	0
3.3918979E+000	1.598427961571724E+002	-1.7221750E+000	-5.077319801918748E+002	8.7440330E-001	-1.7214941E+000	0
3.4106135E+000	1.600427961521200E+002	-1.7242091E+000	-5.055421850329894E+002	8.7166041E-001	-1.7234939E+000	0
3.4135747E+000	1.602427961470676E+002	-1.7262286E+000	-5.056952622688259E+002	8.7294561E-001	-1.7254941E+000	0
3.3938961E+000	1.604427961420151E+002	-1.7281507E+000	-5.091937518087370E+002	8.7996358E-001	-1.7274941E+000	0
3.4064639E+000	1.606427961369627E+002	-1.7302278E+000	-5.079249127619405E+002	8.7882584E-001	-1.7294941E+000	0
3.3963728E+000	1.608427961319103E+002	-1.7322307E+000	-5.100237032918440E+002	8.8347870E-001	-1.7314941E+000	0
3.4026632E+000	1.610427961268579E+002	-1.7341788E+000	-5.096533680394678E+002	8.8383007E-001	-1.7334939E+000	0
3.4302170E+000	1.612427961218054E+002	-1.7361867E+000	-5.061448571125102E+002	8.7876201E-001	-1.7354940E+000	0
3.4443979E+000	1.614427961167530E+002	-1.7382146E+000	-5.046497735869029E+002	8.7718964E-001	-1.7374942E+000	0
3.4182739E+000	1.616427961117006E+002	-1.7401878E+000	-5.090837714093612E+002	8.8590133E-001	-1.7394942E+000	0
3.3892643E+000	1.618427961066482E+002	-1.7422116E+000	-5.140382616341503E+002	8.9556342E-001	-1.7414941E+000	0
3.3820391E+000	1.620427961015957E+002	-1.7441170E+000	-5.156998455497451E+002	8.9944088E-001	-1.7434942E+000	0
3.4112840E+000	1.622427960965433E+002	-1.7461721E+000	-5.118811682184262E+002	8.9383262E-001	-1.7454940E+000	0
3.3702674E+000	1.624427960914909E+002	-1.7481693E+000	-5.187034308375157E+002	9.0678144E-001	-1.7474941E+000	0
3.3725686E+000	1.626427960864385E+002	-1.7501669E+000	-5.189418249065357E+002	9.0823478E-001	-1.7494942E+000	0
3.3662174E+000	1.628427960813860E+002	-1.7521582E+000	-5.205125010570418E+002	9.1202021E-001	-1.7514941E+000	0
3.4055600E+000	1.630427960763336E+002	-1.7542051E+000	-5.151003213739714E+002	9.0359163E-001	-1.7534941E+000	0
3.4389186E+000	1.632427960712812E+002	-1.7561759E+000	-5.106767876077947E+002	8.9683825E-001	-1.7554940E+000	0
3.4250531E+000	1.634427960662288E+002	-1.7581892E+000	-5.133319653405106E+002	9.0253472E-001	-1.7574941E+000	0
3.4042859E+000	1.636427960611763E+002	-1.7601955E+000	-5.170527815916084E+002	9.1011399E-001	-1.7594942E+000	0
3.3627551E+000	1.638427960561239E+002	-1.7621790E+000	-5.240283777492123E+002	9.2343181E-001	-1.7614940E+000	0
3.2018859E+000	1.640427960510715E+002	-1.7641847E+000	-5.509829841406163E+002	9.7203577E-001	-1.7634941E+000	0
3.0609133E+000	1.642228960465218E+002	-1.7660170E+000	-5.769575400676804E+002	1.0189168E+000	-1.7652951E+000	0
3.1217747E+000	1.644227960414719E+002	-1.7680600E+000	-5.663637550596213E+002	1.0013651E+000	-1.7672940E+000	0
3.1164565E+000	1.646227960364195E+002	-1.7699850E+000	-5.679479261688084E+002	1.0052593E+000	-1.7692940E+000	0
3.1137633E+000	1.648227960313670E+002	-1.7720318E+000	-5.690965077320207E+002	1.0084571E+000	-1.7712939E+000	0
3.0397408E+000	1.649827960273251E+002	-1.7737167E+000	-5.835092100104494E+002	1.0349801E+000	-1.7728940E+000	0
3.0410414E+000	1.650339960260317E+002	-1.7742990E+000	-5.834511210123701E+002	1.0352168E+000	-1.7735938E+000	1