EC-Lab ASCII FILE
Nb header lines : 63                          

Linear Sweep Voltammetry

Run on channel : 1 (SN 1340)
User : 
Electrode connection : standard
Potential control : Ewe
Ewe ctrl range : min = -5.00 V, max = 5.00 V
Ewe,I filtering : <None>
Safety Limits :
	Do not start on E overload
Channel : Floating
Acquisition started on : 02/11/2026 18:34:08.497
Technique started on : 02/11/2026 18:34:11.179
Loaded Setting File :  NONE
Saved on :
	File : PtPdNi_2_11_02_LSV_C01.mpr
	Directory : C:\Users\volt\Documents\Platalytix\
	Host : 127.0.0.1
Device : SP-200 (SN 0262)
Address : USB
EC-LAB for windows v11.60 (software)
Internet server v11.60 (firmware)
Command interpretor v11.60 (firmware)
Electrode material : PtPdNi
Initial state : 
Electrolyte : KOH (1M)
Comments : 
Cable : standard
Reference electrode : Hg/HgO (0.140 V)
Electrode surface area : 1.000 cm˛
Characteristic mass : 0.001 g
Equivalent Weight : 0.000 g/eq.
Density : 0.000 g/cm3
Volume (V) : 0.001 cmł
Cycle Definition : Charge/Discharge alternance
tR (h:m:s)          0:00:5.0000         
dER/dt (mV/h)       0.0                 
dER (mV)            0                   
dtR (s)             0.0000              
dE/dt               10.000              
dE/dt unit          mV/s                
Ei (V)              -0.200              
vs.                 Ref                 
EL (V)              -2.500              
vs.                 Ref                 
record              <I>                 
dI                  0.000               
unit dI             µA                  
tI (s)              0.0000              
step percent        50                  
N                   10                  
E range min (V)     -5.000              
E range max (V)     5.000               
I Range             Auto                
I Range min         Unset               
I Range max         Unset               
I Range init        Unset               
Bandwidth           8                   

Rwe/Ohm	time/s	Ewe/V	<I>/mA	Pwe/W	control/V	error	
0.0000000E+000	2.682400127378060E+000	-1.5185222E-001	0.000000000000000E+000	0.0000000E+000	0.0000000E+000	0
0.0000000E+000	7.682200001072488E+000	-2.5477547E-002	0.000000000000000E+000	0.0000000E+000	-1.9995624E-001	0
3.8416763E+003	7.882199996020063E+000	-2.0173042E-001	-5.251103821210568E-002	1.0593074E-005	-2.0185602E-001	0
1.2846218E+003	8.002199992988608E+000	-2.0287326E-001	-1.579245062991601E-001	3.2038661E-005	-2.0305608E-001	0
1.3699283E+003	8.212199987683562E+000	-2.0502055E-001	-1.496578567448039E-001	3.0682935E-005	-2.0515604E-001	0
1.5000100E+003	8.412199982631137E+000	-2.0700502E-001	-1.380024277488965E-001	2.8567196E-005	-2.0715596E-001	0
1.6154034E+003	8.612199977578712E+000	-2.0903684E-001	-1.294022470516252E-001	2.7049837E-005	-2.0915586E-001	0
1.7186119E+003	8.812199972526287E+000	-2.1103577E-001	-1.227943126657083E-001	2.5913992E-005	-2.1115576E-001	0
1.8112170E+003	9.012199967473862E+000	-2.1306673E-001	-1.176373256927943E-001	2.5064601E-005	-2.1315569E-001	0
1.8972848E+003	9.212199962421437E+000	-2.1506268E-001	-1.133528685518237E-001	2.4377972E-005	-2.1515559E-001	0
1.9778220E+003	9.412199957369012E+000	-2.1699180E-001	-1.097124959775110E-001	2.3806711E-005	-2.1715549E-001	0
2.0540483E+003	9.612199952316587E+000	-2.1902107E-001	-1.066289717213265E-001	2.3353990E-005	-2.1915539E-001	0
2.1272256E+003	9.812199947264162E+000	-2.2102658E-001	-1.039036920520133E-001	2.2965478E-005	-2.2115529E-001	0
2.1974785E+003	1.001219994221174E+001	-2.2303568E-001	-1.014961785860700E-001	2.2637269E-005	-2.2315522E-001	0
2.2664883E+003	1.021219993715931E+001	-2.2500701E-001	-9.927561735341517E-002	2.2337710E-005	-2.2515512E-001	0
2.3317212E+003	1.041219993210689E+001	-2.2703227E-001	-9.736681771791977E-002	2.2105411E-005	-2.2715501E-001	0
2.3962559E+003	1.061219992705446E+001	-2.2897369E-001	-9.555477224757158E-002	2.1879529E-005	-2.2915494E-001	0
2.4620100E+003	1.081219992200204E+001	-2.3100275E-001	-9.382689080270795E-002	2.1674270E-005	-2.3115484E-001	0
2.5238518E+003	1.101219991694961E+001	-2.3303223E-001	-9.233197248688674E-002	2.1516325E-005	-2.3315476E-001	0
2.5863574E+003	1.121219991189719E+001	-2.3505408E-001	-9.088228976664459E-002	2.1362253E-005	-2.3515466E-001	0
2.6471040E+003	1.141219990684476E+001	-2.3697789E-001	-8.952345061295430E-002	2.1215079E-005	-2.3715456E-001	0
2.7081128E+003	1.161219990179234E+001	-2.3897552E-001	-8.824430159219188E-002	2.1088228E-005	-2.3915447E-001	0
2.7696860E+003	1.181219989673991E+001	-2.4102539E-001	-8.702263561111212E-002	2.0974665E-005	-2.4115439E-001	0
2.8305569E+003	1.201209989169001E+001	-2.4304062E-001	-8.586318084544819E-002	2.0868241E-005	-2.4315341E-001	0
2.8889128E+003	1.221199988664011E+001	-2.4505275E-001	-8.482524963062010E-002	2.0786661E-005	-2.4515419E-001	0
2.9491125E+003	1.241199988158769E+001	-2.4703895E-001	-8.376721275364232E-002	2.0693764E-005	-2.4715412E-001	0
3.0088694E+003	1.261199987653526E+001	-2.4905993E-001	-8.277525656746709E-002	2.0616000E-005	-2.4915402E-001	0
3.0689026E+003	1.281199987148284E+001	-2.5103211E-001	-8.179865992636515E-002	2.0534091E-005	-2.5115395E-001	0
3.1278281E+003	1.301199986643041E+001	-2.5298926E-001	-8.088336302212484E-002	2.0462623E-005	-2.5315386E-001	0
3.1865779E+003	1.321199986137799E+001	-2.5500157E-001	-8.002364692170516E-002	2.0406156E-005	-2.5515375E-001	0
3.2470664E+003	1.341199985632556E+001	-2.5702956E-001	-7.915747033795362E-002	2.0345809E-005	-2.5715366E-001	0
3.3072871E+003	1.361199985127314E+001	-2.5903657E-001	-7.832297487786288E-002	2.0288515E-005	-2.5915357E-001	0
3.3641626E+003	1.381199984622072E+001	-2.6098540E-001	-7.757811833599604E-002	2.0246756E-005	-2.6115346E-001	0
3.4260627E+003	1.401199984116829E+001	-2.6300046E-001	-7.676463547509044E-002	2.0189134E-005	-2.6315337E-001	0
3.4861223E+003	1.421199983611587E+001	-2.6501232E-001	-7.601922593615873E-002	2.0146032E-005	-2.6515329E-001	0
3.5447212E+003	1.441199983106344E+001	-2.6700234E-001	-7.532393396990433E-002	2.0111667E-005	-2.6715320E-001	0
3.6060056E+003	1.461199982601102E+001	-2.6900464E-001	-7.459906563099444E-002	2.0067495E-005	-2.6915312E-001	0
3.6679824E+003	1.481199982095859E+001	-2.7106470E-001	-7.390021657900625E-002	2.0031739E-005	-2.7115303E-001	0
3.7266604E+003	1.501199981590617E+001	-2.7298000E-001	-7.325057034558125E-002	1.9995941E-005	-2.7315292E-001	0
3.7872944E+003	1.521199981085374E+001	-2.7500463E-001	-7.261242478707897E-002	1.9968753E-005	-2.7515283E-001	0
3.8469751E+003	1.541199980580132E+001	-2.7702245E-001	-7.201046289088353E-002	1.9948515E-005	-2.7715275E-001	0
3.9082449E+003	1.561199980074889E+001	-2.7901116E-001	-7.139039900029276E-002	1.9918718E-005	-2.7915266E-001	0
3.9700559E+003	1.581199979569647E+001	-2.8101227E-001	-7.078295141931568E-002	1.9890878E-005	-2.8115255E-001	0
4.0309941E+003	1.601199979064404E+001	-2.8303111E-001	-7.021372224406952E-002	1.9872667E-005	-2.8315246E-001	0
4.0920503E+003	1.621199978559162E+001	-2.8503129E-001	-6.965488285911770E-002	1.9853822E-005	-2.8515241E-001	0
4.1531479E+003	1.641189978054172E+001	-2.8700262E-001	-6.910483735555650E-002	1.9833269E-005	-2.8715274E-001	0
4.2141035E+003	1.661179977549182E+001	-2.8898498E-001	-6.857567051026425E-002	1.9817338E-005	-2.8915218E-001	0
4.2752832E+003	1.681179977043939E+001	-2.9102191E-001	-6.807078945116807E-002	1.9810092E-005	-2.9115209E-001	0
4.3384116E+003	1.701179976538697E+001	-2.9302400E-001	-6.754177037886258E-002	1.9791360E-005	-2.9315200E-001	0
4.4014692E+003	1.721179976033454E+001	-2.9501510E-001	-6.702650554400025E-002	1.9773832E-005	-2.9515192E-001	0
4.4626973E+003	1.741179975528212E+001	-2.9702124E-001	-6.655644080305989E-002	1.9768677E-005	-2.9715180E-001	0
4.5214404E+003	1.761179975022969E+001	-2.9904968E-001	-6.614035383646151E-002	1.9779251E-005	-2.9915172E-001	0
4.5877666E+003	1.781179974517727E+001	-3.0102378E-001	-6.561444758526275E-002	1.9751509E-005	-3.0115166E-001	0
4.6462944E+003	1.801179974012484E+001	-3.0302799E-001	-6.521928340329650E-002	1.9763269E-005	-3.0315155E-001	0
4.7120503E+003	1.821179973507242E+001	-3.0502352E-001	-6.473265715099708E-002	1.9744983E-005	-3.0515146E-001	0
4.7724277E+003	1.841179973001999E+001	-3.0698276E-001	-6.432423124125763E-002	1.9746431E-005	-3.0715135E-001	0
4.8346860E+003	1.861179972496757E+001	-3.0902541E-001	-6.391840261489568E-002	1.9752410E-005	-3.0915126E-001	0
4.8933018E+003	1.881179971991514E+001	-3.1105787E-001	-6.356809493692817E-002	1.9773355E-005	-3.1115121E-001	0
4.9600898E+003	1.901179971486272E+001	-3.1300822E-001	-6.310535260674671E-002	1.9752493E-005	-3.1315109E-001	0
5.0188145E+003	1.921179970981029E+001	-3.1498146E-001	-6.276013011264875E-002	1.9768277E-005	-3.1515101E-001	0
5.0826704E+003	1.941179970475787E+001	-3.1703109E-001	-6.237490716930938E-002	1.9774785E-005	-3.1715089E-001	0
5.1414360E+003	1.961179969970544E+001	-3.1905740E-001	-6.205608762954862E-002	1.9799454E-005	-3.1915084E-001	0
5.2062466E+003	1.981179969465302E+001	-3.2097337E-001	-6.165158459357079E-002	1.9788517E-005	-3.2115075E-001	0
5.2699639E+003	2.001179968960059E+001	-3.2301110E-001	-6.129284852180139E-002	1.9798270E-005	-3.2315060E-001	0
5.3344434E+003	2.021179968454817E+001	-3.2502487E-001	-6.092948329058445E-002	1.9803598E-005	-3.2515052E-001	0
5.3916064E+003	2.041179967949574E+001	-3.2698941E-001	-6.064786181400827E-002	1.9831208E-005	-3.2715043E-001	0
5.4543076E+003	2.061179967444332E+001	-3.2902142E-001	-6.032322276522978E-002	1.9847632E-005	-3.2915035E-001	0
5.5154888E+003	2.081159966939595E+001	-3.3106852E-001	-6.002523375065098E-002	1.9872465E-005	-3.3115026E-001	0
5.5735513E+003	2.101159966434352E+001	-3.3299747E-001	-5.974601303035088E-002	1.9895271E-005	-3.3315015E-001	0
5.6372700E+003	2.121159965929110E+001	-3.3506411E-001	-5.943729849046497E-002	1.9915306E-005	-3.3515006E-001	0
5.6985474E+003	2.141159965423867E+001	-3.3703330E-001	-5.914372428639236E-002	1.9933404E-005	-3.3714998E-001	0
5.7543438E+003	2.161159964918625E+001	-3.3896598E-001	-5.890610630892179E-002	1.9967167E-005	-3.3914989E-001	0
5.8179937E+003	2.181159964413382E+001	-3.4102455E-001	-5.861548899647628E-002	1.9989320E-005	-3.4114981E-001	0
5.8787720E+003	2.201159963908140E+001	-3.4301454E-001	-5.834799124531953E-002	2.0014209E-005	-3.4314969E-001	0
5.9308760E+003	2.221159963402897E+001	-3.4499505E-001	-5.816932606126424E-002	2.0068130E-005	-3.4514964E-001	0
6.0008232E+003	2.241159962897655E+001	-3.4699908E-001	-5.782524429477087E-002	2.0065307E-005	-3.4714952E-001	0
6.0572202E+003	2.261159962392412E+001	-3.4903407E-001	-5.762281468087427E-002	2.0112326E-005	-3.4914944E-001	0
6.1137119E+003	2.281159961887170E+001	-3.5099122E-001	-5.741049163729850E-002	2.0150579E-005	-3.5114932E-001	0
6.1719673E+003	2.301159961381927E+001	-3.5301214E-001	-5.719605144039397E-002	2.0190901E-005	-3.5314924E-001	0
6.2263765E+003	2.321159960876685E+001	-3.5501665E-001	-5.701817999553777E-002	2.0242403E-005	-3.5514918E-001	0
6.2829199E+003	2.341159960371442E+001	-3.5701600E-001	-5.682326250291425E-002	2.0286814E-005	-3.5714906E-001	0
6.3470532E+003	2.361159959866200E+001	-3.5900921E-001	-5.656313083489384E-002	2.0306685E-005	-3.5914898E-001	0
6.3929595E+003	2.381159959360957E+001	-3.6097819E-001	-5.646495721007261E-002	2.0382618E-005	-3.6114889E-001	0
6.4584268E+003	2.401159958855715E+001	-3.6304116E-001	-5.621201389040476E-002	2.0407275E-005	-3.6314878E-001	0
6.5064775E+003	2.421159958350472E+001	-3.6500341E-001	-5.609846757006853E-002	2.0476131E-005	-3.6514869E-001	0
6.5626128E+003	2.441159957845230E+001	-3.6699405E-001	-5.592194400451111E-002	2.0523021E-005	-3.6714864E-001	0
6.6195474E+003	2.461159957339987E+001	-3.6901188E-001	-5.574578820208273E-002	2.0570858E-005	-3.6914852E-001	0
6.6671831E+003	2.481159956834745E+001	-3.7099168E-001	-5.564444000851765E-002	2.0643623E-005	-3.7114844E-001	0
6.7232305E+003	2.501149956329755E+001	-3.7304258E-001	-5.548561415063785E-002	2.0698497E-005	-3.7314767E-001	0
6.7677441E+003	2.521139955824765E+001	-3.7503284E-001	-5.541474859667384E-002	2.0782350E-005	-3.7514824E-001	0
6.8302734E+003	2.541139955319522E+001	-3.7711453E-001	-5.521221638999274E-002	2.0821330E-005	-3.7714812E-001	0
6.8785894E+003	2.561139954814280E+001	-3.7900585E-001	-5.509935815812272E-002	2.0882979E-005	-3.7914804E-001	0
6.9258130E+003	2.581139954309037E+001	-3.8097766E-001	-5.500836519085184E-002	2.0956959E-005	-3.8114798E-001	0
6.9717397E+003	2.601139953803795E+001	-3.8306078E-001	-5.494478911471878E-002	2.1047194E-005	-3.8314787E-001	0
7.0196245E+003	2.621139953298552E+001	-3.8501412E-001	-5.484825133001792E-002	2.1117352E-005	-3.8514778E-001	0
7.0619185E+003	2.641139952793310E+001	-3.8701344E-001	-5.480287423729036E-002	2.1209449E-005	-3.8714769E-001	0
7.1058877E+003	2.661139952288067E+001	-3.8901794E-001	-5.474585913282204E-002	2.1297121E-005	-3.8914758E-001	0
7.1616240E+003	2.681139951782825E+001	-3.9102829E-001	-5.460050375181794E-002	2.1350341E-005	-3.9114749E-001	0
7.1990195E+003	2.701139951277582E+001	-3.9307028E-001	-5.460053064138182E-002	2.1461847E-005	-3.9314744E-001	0
7.2384253E+003	2.721139950772340E+001	-3.9503950E-001	-5.457533539859913E-002	2.1559414E-005	-3.9514732E-001	0
7.2868032E+003	2.741139950267097E+001	-3.9702484E-001	-5.448546341742855E-002	2.1632082E-005	-3.9714727E-001	0
7.3207300E+003	2.761139949761855E+001	-3.9902020E-001	-5.450552053244828E-002	2.1748803E-005	-3.9914712E-001	0
7.3683569E+003	2.781139949256612E+001	-4.0100408E-001	-5.442245451621541E-002	2.1823626E-005	-4.0114704E-001	0
7.4061538E+003	2.801139948751370E+001	-4.0303776E-001	-5.441930672774697E-002	2.1933036E-005	-4.0314698E-001	0
7.4506924E+003	2.821139948246127E+001	-4.0500063E-001	-5.435744738111220E-002	2.2014799E-005	-4.0514684E-001	0
7.4844863E+003	2.841139947740885E+001	-4.0700334E-001	-5.437959454448937E-002	2.2132677E-005	-4.0714678E-001	0
7.5162905E+003	2.861139947235642E+001	-4.0902713E-001	-5.441874907987698E-002	2.2258744E-005	-4.0914667E-001	0
7.5530527E+003	2.881139946730400E+001	-4.1098440E-001	-5.441301703757172E-002	2.2362901E-005	-4.1114658E-001	0
7.5818022E+003	2.901139946225157E+001	-4.1303241E-001	-5.447681043920027E-002	2.2500688E-005	-4.1314650E-001	0
7.6172275E+003	2.921139945719915E+001	-4.1506591E-001	-5.449041821402567E-002	2.2617116E-005	-4.1514644E-001	0
7.6545034E+003	2.941129945214925E+001	-4.1702867E-001	-5.448147799431968E-002	2.2720338E-005	-4.1714588E-001	0
7.6887188E+003	2.961119944709935E+001	-4.1902640E-001	-5.449885872874804E-002	2.2836461E-005	-4.1914624E-001	0
7.7213442E+003	2.981119944204693E+001	-4.2102942E-001	-5.452799321787927E-002	2.2957889E-005	-4.2114612E-001	0
7.7508896E+003	3.001119943699450E+001	-4.2300031E-001	-5.457442032718096E-002	2.3084996E-005	-4.2314607E-001	0
7.7865840E+003	3.021119943194208E+001	-4.2503083E-001	-5.458501809648320E-002	2.3200315E-005	-4.2514592E-001	0
7.8108525E+003	3.041119942688965E+001	-4.2705056E-001	-5.467399987318219E-002	2.3348563E-005	-4.2714584E-001	0
7.8428887E+003	3.061119942183723E+001	-4.2904231E-001	-5.470462750100769E-002	2.3470600E-005	-4.2914578E-001	0
7.8676846E+003	3.081119941678480E+001	-4.3104881E-001	-5.478724985607308E-002	2.3615979E-005	-4.3114564E-001	0
7.8950898E+003	3.101119941173238E+001	-4.3303102E-001	-5.484814363924584E-002	2.3750948E-005	-4.3314558E-001	0
7.9258604E+003	3.121119940667995E+001	-4.3505430E-001	-5.489048126624596E-002	2.3880340E-005	-4.3514544E-001	0
7.9555283E+003	3.141119940162753E+001	-4.3707490E-001	-5.493977137834938E-002	2.4012796E-005	-4.3714538E-001	0
7.9720796E+003	3.161119939657510E+001	-4.3905643E-001	-5.507426674724830E-002	2.4180710E-005	-4.3914530E-001	0
8.0024521E+003	3.181119939152268E+001	-4.4104832E-001	-5.511414698618644E-002	2.4308003E-005	-4.4114524E-001	0
8.0244395E+003	3.201119938647025E+001	-4.4306549E-001	-5.521451159752055E-002	2.4463645E-005	-4.4314510E-001	0
8.0506929E+003	3.221119938141783E+001	-4.4503409E-001	-5.527898093396200E-002	2.4601031E-005	-4.4514504E-001	0
8.0801123E+003	3.241119937636540E+001	-4.4706953E-001	-5.532961872843445E-002	2.4736186E-005	-4.4714493E-001	0
8.1058540E+003	3.261119937131298E+001	-4.4906229E-001	-5.539975193056734E-002	2.4877940E-005	-4.4914493E-001	0
8.1247910E+003	3.281119936626055E+001	-4.5104617E-001	-5.551480245195739E-002	2.5039739E-005	-4.5114473E-001	0
8.1457212E+003	3.301119936120813E+001	-4.5304531E-001	-5.561758041626841E-002	2.5197283E-005	-4.5314467E-001	0
8.1758413E+003	3.321119935615570E+001	-4.5512062E-001	-5.566651902748632E-002	2.5334981E-005	-4.5514458E-001	0
8.1921729E+003	3.341119935110328E+001	-4.5703042E-001	-5.578867153131561E-002	2.5497120E-005	-4.5714447E-001	0
8.2140156E+003	3.361119934605085E+001	-4.5907605E-001	-5.588935589620514E-002	2.5657464E-005	-4.5914438E-001	0
8.2389297E+003	3.381109934100095E+001	-4.6106201E-001	-5.596139680188125E-002	2.5801673E-005	-4.6114448E-001	0
8.2593945E+003	3.401099933595106E+001	-4.6305585E-001	-5.606413944708832E-002	2.5960828E-005	-4.6314424E-001	0
8.2810430E+003	3.421099933089863E+001	-4.6502823E-001	-5.615575534667472E-002	2.6114012E-005	-4.6514410E-001	0
8.3033926E+003	3.441099932584621E+001	-4.6698689E-001	-5.624049312124657E-002	2.6263573E-005	-4.6714404E-001	0
8.3232021E+003	3.461099932079378E+001	-4.6901530E-001	-5.635034178685694E-002	2.6429172E-005	-4.6914390E-001	0
8.3504453E+003	3.481099931574136E+001	-4.7101334E-001	-5.640577698124327E-002	2.6567874E-005	-4.7114387E-001	0
8.3733066E+003	3.501099931068893E+001	-4.7301701E-001	-5.649106662409997E-002	2.6721234E-005	-4.7314373E-001	0
8.3945918E+003	3.521099930563651E+001	-4.7502270E-001	-5.658675207969766E-002	2.6879992E-005	-4.7514367E-001	0
8.4201953E+003	3.541099930058408E+001	-4.7700843E-001	-5.665051752317041E-002	2.7022774E-005	-4.7714353E-001	0
8.4447451E+003	3.561099929553166E+001	-4.7899249E-001	-5.672077686196431E-002	2.7168826E-005	-4.7914347E-001	0
8.4637959E+003	3.581099929047923E+001	-4.8104724E-001	-5.683587702854953E-002	2.7340742E-005	-4.8114339E-001	0
8.4849941E+003	3.601099928542681E+001	-4.8300454E-001	-5.692456100746357E-002	2.7494822E-005	-4.8314327E-001	0
8.5094248E+003	3.621099928037438E+001	-4.8505571E-001	-5.700217656286477E-002	2.7649232E-005	-4.8514318E-001	0
8.5385459E+003	3.641099927532196E+001	-4.8697549E-001	-5.703260265860943E-002	2.7773480E-005	-4.8714304E-001	0
8.5514170E+003	3.661099927026953E+001	-4.8905185E-001	-5.718956699187272E-002	2.7968663E-005	-4.8914304E-001	0
8.5788232E+003	3.681099926521711E+001	-4.9106082E-001	-5.724104659583273E-002	2.8108836E-005	-4.9114290E-001	0
8.6099443E+003	3.701099926016468E+001	-4.9302486E-001	-5.726225880954539E-002	2.8231716E-005	-4.9314287E-001	0
8.6326777E+003	3.721099925511226E+001	-4.9505669E-001	-5.734682727136242E-002	2.8389930E-005	-4.9514270E-001	0
8.6654053E+003	3.741099925005983E+001	-4.9703971E-001	-5.735908479951399E-002	2.8509743E-005	-4.9714267E-001	0
8.6833369E+003	3.761099924500741E+001	-4.9904120E-001	-5.747113492215250E-002	2.8680464E-005	-4.9914253E-001	0
8.7211543E+003	3.781099923995498E+001	-5.0104696E-001	-5.745190546569123E-002	2.8786102E-005	-5.0114250E-001	0
8.7422578E+003	3.801099923490256E+001	-5.0301558E-001	-5.753840316327774E-002	2.8942713E-005	-5.0314236E-001	0
8.7749443E+003	3.821089922985266E+001	-5.0498968E-001	-5.754904740209782E-002	2.9061675E-005	-5.0514299E-001	0
8.7997529E+003	3.841079922480276E+001	-5.0702208E-001	-5.761776488198331E-002	2.9213479E-005	-5.0714219E-001	0
8.8296553E+003	3.861079921975033E+001	-5.0902843E-001	-5.764986412196360E-002	2.9345420E-005	-5.0914216E-001	0
8.8647041E+003	3.881079921469791E+001	-5.1101106E-001	-5.764558329827707E-002	2.9457531E-005	-5.1114202E-001	0
8.8909707E+003	3.901079920964548E+001	-5.1303971E-001	-5.770345223442441E-002	2.9604162E-005	-5.1314193E-001	0
8.9183271E+003	3.921079920459306E+001	-5.1501226E-001	-5.774763122131243E-002	2.9740739E-005	-5.1514184E-001	0
8.9455820E+003	3.941079919954063E+001	-5.1702267E-001	-5.779642642627703E-002	2.9882063E-005	-5.1714176E-001	0
8.9822764E+003	3.961079919448821E+001	-5.1902854E-001	-5.778363394358771E-002	2.9991355E-005	-5.1914167E-001	0
9.0162676E+003	3.981079918943578E+001	-5.2105784E-001	-5.779085671919845E-002	3.0112380E-005	-5.2114159E-001	0
9.0561641E+003	4.001079918438336E+001	-5.2301610E-001	-5.775249803960431E-002	3.0205487E-005	-5.2314150E-001	0
9.0829170E+003	4.021079917933093E+001	-5.2505493E-001	-5.780685936098706E-002	3.0351777E-005	-5.2514136E-001	0
9.1302393E+003	4.041079917427851E+001	-5.2706164E-001	-5.772703587470363E-002	3.0425706E-005	-5.2714133E-001	0
9.1525137E+003	4.061079916922608E+001	-5.2902281E-001	-5.780081952501792E-002	3.0577950E-005	-5.2914119E-001	0
9.1947471E+003	4.081079916417366E+001	-5.3105450E-001	-5.775629201283050E-002	3.0671737E-005	-5.3114116E-001	0
9.2263574E+003	4.101079915912123E+001	-5.3304297E-001	-5.777393396872010E-002	3.0795989E-005	-5.3314102E-001	0
9.2674678E+003	4.121079915406881E+001	-5.3507602E-001	-5.773702649876918E-002	3.0893698E-005	-5.3514093E-001	0
9.3080752E+003	4.141079914901638E+001	-5.3709620E-001	-5.770217778653253E-002	3.0991621E-005	-5.3714085E-001	0
9.3369502E+003	4.161079914396396E+001	-5.3906417E-001	-5.773450024457666E-002	3.1122599E-005	-5.3914076E-001	0
9.3716855E+003	4.181079913891153E+001	-5.4105544E-001	-5.773299266087945E-002	3.1236748E-005	-5.4114068E-001	0
9.4187100E+003	4.201079913385911E+001	-5.4307026E-001	-5.765866730869051E-002	3.1312706E-005	-5.4314053E-001	0
9.4480781E+003	4.221079912880668E+001	-5.4500490E-001	-5.768420555271919E-002	3.1438176E-005	-5.4514050E-001	0
9.4972119E+003	4.241069912375679E+001	-5.4702824E-001	-5.759882739159483E-002	3.1508185E-005	-5.4713947E-001	0
9.5447051E+003	4.261059911870689E+001	-5.4902905E-001	-5.752184482601719E-002	3.1581163E-005	-5.4914027E-001	0
9.5755225E+003	4.281059911365446E+001	-5.5102307E-001	-5.754496014725563E-002	3.1708601E-005	-5.5114013E-001	0
9.6245605E+003	4.301059910860204E+001	-5.5307418E-001	-5.746487498519884E-002	3.1782340E-005	-5.5314016E-001	0
9.6650107E+003	4.321059910354961E+001	-5.5504984E-001	-5.742878616996538E-002	3.1875839E-005	-5.5514002E-001	0
9.7012266E+003	4.341059909849719E+001	-5.5704600E-001	-5.742016183465837E-002	3.1985670E-005	-5.5713993E-001	0
9.7550908E+003	4.361059909344476E+001	-5.5908519E-001	-5.731214346499280E-002	3.2042371E-005	-5.5913979E-001	0
9.7992842E+003	4.381059908839234E+001	-5.6102598E-001	-5.725172994227523E-002	3.2119708E-005	-5.6113976E-001	0
9.8446592E+003	4.401059908333991E+001	-5.6304270E-001	-5.719270637943136E-002	3.2201937E-005	-5.6313968E-001	0
9.8851699E+003	4.421059907828749E+001	-5.6507182E-001	-5.716359388250081E-002	3.2301537E-005	-5.6513953E-001	0
9.9256221E+003	4.441059907323506E+001	-5.6703520E-001	-5.712843204366957E-002	3.2393833E-005	-5.6713951E-001	0
9.9705869E+003	4.461059906818264E+001	-5.6901342E-001	-5.706919769887428E-002	3.2473141E-005	-5.6913936E-001	0
1.0014423E+004	4.481059906313021E+001	-5.7096291E-001	-5.701406151710953E-002	3.2552914E-005	-5.7113928E-001	0
1.0064730E+004	4.501059905807779E+001	-5.7306391E-001	-5.693782923073676E-002	3.2629014E-005	-5.7313919E-001	0
1.0111355E+004	4.521059905302536E+001	-5.7502234E-001	-5.686896893432358E-002	3.2700929E-005	-5.7513911E-001	0
1.0153895E+004	4.541059904797294E+001	-5.7704264E-001	-5.682968503485109E-002	3.2793152E-005	-5.7713896E-001	0
1.0197115E+004	4.561059904292051E+001	-5.7903141E-001	-5.678384546021575E-002	3.2879630E-005	-5.7913893E-001	0
1.0246238E+004	4.581059903786809E+001	-5.8103728E-001	-5.670737715801222E-002	3.2949101E-005	-5.8113879E-001	0
1.0288530E+004	4.601059903281566E+001	-5.8301210E-001	-5.666621652159343E-002	3.3037089E-005	-5.8313876E-001	0
1.0339004E+004	4.621059902776324E+001	-5.8506125E-001	-5.658777636083068E-002	3.3107317E-005	-5.8513862E-001	0
1.0390388E+004	4.641059902271081E+001	-5.8702433E-001	-5.649686381516461E-002	3.3165034E-005	-5.8713853E-001	0
1.0432120E+004	4.661059901765839E+001	-5.8901858E-001	-5.646201994379887E-002	3.3257180E-005	-5.8913845E-001	0
1.0474427E+004	4.681049901260849E+001	-5.9101802E-001	-5.642485488246618E-002	3.3348108E-005	-5.9113818E-001	0
1.0520976E+004	4.701039900755859E+001	-5.9304321E-001	-5.636769946286560E-002	3.3428481E-005	-5.9313828E-001	0
1.0566064E+004	4.721039900250616E+001	-5.9501010E-001	-5.631331312934751E-002	3.3506989E-005	-5.9513813E-001	0
1.0624776E+004	4.741039899745374E+001	-5.9698480E-001	-5.618798791941931E-002	3.3543376E-005	-5.9713811E-001	0
1.0664866E+004	4.761039899240131E+001	-5.9896952E-001	-5.616287322653668E-002	3.3639848E-005	-5.9913790E-001	0
1.0712798E+004	4.781039898734889E+001	-6.0095972E-001	-5.609736388259878E-002	3.3712255E-005	-6.0113788E-001	0
1.0764631E+004	4.801039898229647E+001	-6.0302383E-001	-5.601899482387940E-002	3.3780787E-005	-6.0313779E-001	0
1.0806772E+004	4.821039897724404E+001	-6.0502994E-001	-5.598618217338447E-002	3.3873315E-005	-6.0513777E-001	0
1.0853439E+004	4.841039897219162E+001	-6.0699254E-001	-5.592628669409749E-002	3.3946839E-005	-6.0713762E-001	0
1.0905104E+004	4.861039896713919E+001	-6.0901642E-001	-5.584691753748205E-002	3.4011689E-005	-6.0913754E-001	0
1.0942454E+004	4.881039896208677E+001	-6.1105752E-001	-5.584282439007771E-002	3.4123179E-005	-6.1113739E-001	0
1.0984058E+004	4.901039895703434E+001	-6.1299258E-001	-5.580748126012125E-002	3.4209574E-005	-6.1313736E-001	0
1.1029813E+004	4.921039895198192E+001	-6.1503822E-001	-5.576143572011927E-002	3.4295415E-005	-6.1513728E-001	0
1.1075535E+004	4.941039894692949E+001	-6.1701334E-001	-5.570957273173049E-002	3.4373548E-005	-6.1713713E-001	0
1.1109704E+004	4.961039894187707E+001	-6.1901462E-001	-5.571837341011630E-002	3.4490487E-005	-6.1913705E-001	0
1.1151014E+004	4.981039893682464E+001	-6.2101203E-001	-5.569108464446793E-002	3.4584835E-005	-6.2113696E-001	0
1.1193951E+004	5.001039893177222E+001	-6.2301987E-001	-5.565683562266301E-002	3.4675315E-005	-6.2313688E-001	0
1.1234623E+004	5.021039892671979E+001	-6.2506956E-001	-5.563778442947301E-002	3.4777484E-005	-6.2513673E-001	0
1.1274114E+004	5.041039892166737E+001	-6.2701875E-001	-5.561578814246504E-002	3.4872141E-005	-6.2713671E-001	0
1.1302775E+004	5.061039891661494E+001	-6.2901008E-001	-5.565093886878025E-002	3.5005003E-005	-6.2913662E-001	0
1.1354580E+004	5.081039891156252E+001	-6.3103831E-001	-5.557565997056890E-002	3.5070370E-005	-6.3113654E-001	0
1.1398678E+004	5.101039890651009E+001	-6.3302213E-001	-5.553470062653720E-002	3.5154695E-005	-6.3313639E-001	0
1.1433128E+004	5.121019890146272E+001	-6.3502586E-001	-5.554262036233037E-002	3.5271001E-005	-6.3513571E-001	0
1.1460771E+004	5.141019889641029E+001	-6.3702142E-001	-5.558276836561793E-002	3.5407415E-005	-6.3713622E-001	0
1.1489046E+004	5.161019889135787E+001	-6.3904732E-001	-5.562231517523597E-002	3.5545290E-005	-6.3913614E-001	0
1.1523011E+004	5.181019888630544E+001	-6.4099324E-001	-5.562723563696825E-002	3.5656682E-005	-6.4113605E-001	0
1.1553904E+004	5.201019888125302E+001	-6.4305496E-001	-5.565694064934579E-002	3.5790472E-005	-6.4313602E-001	0
1.1600751E+004	5.221019887620059E+001	-6.4506024E-001	-5.560504275536733E-002	3.5868601E-005	-6.4513588E-001	0
1.1625678E+004	5.241019887114817E+001	-6.4704263E-001	-5.565633427704375E-002	3.6012021E-005	-6.4713573E-001	0
1.1649586E+004	5.261019886609574E+001	-6.4905071E-001	-5.571448908645715E-002	3.6161528E-005	-6.4913571E-001	0
1.1672028E+004	5.281019886104332E+001	-6.5105999E-001	-5.577950909007311E-002	3.6315807E-005	-6.5113556E-001	0
1.1705825E+004	5.301019885599089E+001	-6.5302944E-001	-5.578670663814028E-002	3.6430363E-005	-6.5313548E-001	0
1.1734435E+004	5.321019885093847E+001	-6.5503389E-001	-5.582151405487967E-002	3.6564983E-005	-6.5513539E-001	0
1.1762562E+004	5.341019884588604E+001	-6.5705103E-001	-5.585951701887870E-002	3.6702553E-005	-6.5713531E-001	0
1.1780862E+004	5.361019884083362E+001	-6.5906012E-001	-5.594328507968976E-002	3.6869988E-005	-6.5913522E-001	0
1.1799158E+004	5.381019883578119E+001	-6.6106117E-001	-5.602612937198714E-002	3.7036698E-005	-6.6113514E-001	0
1.1813014E+004	5.401019883072877E+001	-6.6302299E-001	-5.612648895871997E-002	3.7213154E-005	-6.6313499E-001	0
1.1849715E+004	5.421019882567634E+001	-6.6503310E-001	-5.612228859412383E-002	3.7323181E-005	-6.6513503E-001	0
1.1861637E+004	5.441019882062392E+001	-6.6702831E-001	-5.623408860702278E-002	3.7509730E-005	-6.6713488E-001	0
1.1883244E+004	5.461019881557149E+001	-6.6903466E-001	-5.630067462321220E-002	3.7667101E-005	-6.6913474E-001	0
1.1882563E+004	5.481019881051907E+001	-6.7100215E-001	-5.646947915444089E-002	3.7891143E-005	-6.7113465E-001	0
1.1898937E+004	5.501019880546664E+001	-6.7300397E-001	-5.656000970104616E-002	3.8065111E-005	-6.7313462E-001	0
1.1923671E+004	5.521019880041422E+001	-6.7500341E-001	-5.661036749423165E-002	3.8212191E-005	-6.7513448E-001	0
1.1919744E+004	5.541019879536179E+001	-6.7702013E-001	-5.679821031469801E-002	3.8453531E-005	-6.7713463E-001	0
1.1942326E+004	5.560999879031442E+001	-6.7906046E-001	-5.686165781076172E-002	3.8612503E-005	-6.7913413E-001	0
1.1946021E+004	5.580999878526200E+001	-6.8106765E-001	-5.701209595870386E-002	3.8829094E-005	-6.8113422E-001	0
1.1946187E+004	5.600999878020957E+001	-6.8306530E-001	-5.717852230916576E-002	3.9056664E-005	-6.8313414E-001	0
1.1960968E+004	5.620999877515715E+001	-6.8502122E-001	-5.727138976110324E-002	3.9232116E-005	-6.8513399E-001	0
1.1958478E+004	5.640999877010472E+001	-6.8705529E-001	-5.745340997982518E-002	3.9473671E-005	-6.8713397E-001	0
1.1960553E+004	5.660999876505230E+001	-6.8901873E-001	-5.760760025687217E-002	3.9692717E-005	-6.8913382E-001	0
1.1957170E+004	5.680999875999987E+001	-6.9102871E-001	-5.779199683595259E-002	3.9935931E-005	-6.9113374E-001	0
1.1948357E+004	5.700999875494745E+001	-6.9299883E-001	-5.799950441016122E-002	4.0193587E-005	-6.9313365E-001	0
1.1961435E+004	5.720999874989502E+001	-6.9503766E-001	-5.810654530821210E-002	4.0386236E-005	-6.9513363E-001	0
1.1946204E+004	5.740999874484260E+001	-6.9707292E-001	-5.835099587567533E-002	4.0674899E-005	-6.9713348E-001	0
1.1939669E+004	5.760999873979017E+001	-6.9902366E-001	-5.854632016619804E-002	4.0925264E-005	-6.9913340E-001	0
1.1937256E+004	5.780999873473775E+001	-7.0100731E-001	-5.872432794949856E-002	4.1166182E-005	-7.0113331E-001	0
1.1919184E+004	5.800999872968532E+001	-7.0295739E-001	-5.897697526803197E-002	4.1458301E-005	-7.0313323E-001	0
1.1920806E+004	5.820999872463290E+001	-7.0500499E-001	-5.914071633516399E-002	4.1694500E-005	-7.0513314E-001	0
1.1899138E+004	5.840999871958047E+001	-7.0703691E-001	-5.941917172151612E-002	4.2011547E-005	-7.0713300E-001	0
1.1885610E+004	5.860999871452805E+001	-7.0898789E-001	-5.965094751617173E-002	4.2291798E-005	-7.0913291E-001	0
1.1883489E+004	5.880999870947562E+001	-7.1102613E-001	-5.983311168705874E-002	4.2542906E-005	-7.1113282E-001	0
1.1855383E+004	5.900999870442320E+001	-7.1297860E-001	-6.013965326764736E-002	4.2878284E-005	-7.1313280E-001	0
1.1831267E+004	5.920999869937077E+001	-7.1500230E-001	-6.043328575329554E-002	4.3209937E-005	-7.1513259E-001	0
1.1818186E+004	5.940999869431835E+001	-7.1704155E-001	-6.067272624140269E-002	4.3504864E-005	-7.1713263E-001	0
1.1802406E+004	5.960999868926592E+001	-7.1900719E-001	-6.092038874613648E-002	4.3802196E-005	-7.1913248E-001	0
1.1780939E+004	5.980989868421602E+001	-7.2104138E-001	-6.120406252430555E-002	4.4130662E-005	-7.2113198E-001	0
1.1739908E+004	6.000979867916612E+001	-7.2302753E-001	-6.158715388484193E-002	4.4529206E-005	-7.2313231E-001	0
1.1717460E+004	6.020979867411370E+001	-7.2503173E-001	-6.187618711526133E-002	4.4862198E-005	-7.2513223E-001	0
1.1701972E+004	6.040979866906127E+001	-7.2701001E-001	-6.212713563911917E-002	4.5167049E-005	-7.2713208E-001	0
1.1664629E+004	6.060979866400885E+001	-7.2902340E-001	-6.249863692810623E-002	4.5562967E-005	-7.2913200E-001	0
1.1637028E+004	6.080979865895642E+001	-7.3101139E-001	-6.281770550267862E-002	4.5920457E-005	-7.3113191E-001	0
1.1610280E+004	6.100979865390400E+001	-7.3300326E-001	-6.313398368329282E-002	4.6277415E-005	-7.3313183E-001	0
1.1574851E+004	6.120979864885157E+001	-7.3500878E-001	-6.350049914479627E-002	4.6673424E-005	-7.3513180E-001	0
1.1561288E+004	6.140979864379915E+001	-7.3700851E-001	-6.374795643650771E-002	4.6982786E-005	-7.3713160E-001	0
1.1512967E+004	6.160979863874672E+001	-7.3901105E-001	-6.418945153915434E-002	4.7436715E-005	-7.3913163E-001	0
1.1483515E+004	6.180979863369430E+001	-7.4104393E-001	-6.453110842992993E-002	4.7820387E-005	-7.4113142E-001	0
1.1444464E+004	6.200979862864187E+001	-7.4303353E-001	-6.492514826374263E-002	4.8241563E-005	-7.4313140E-001	0
1.1409735E+004	6.220979862358945E+001	-7.4503583E-001	-6.529825708993586E-002	4.8649541E-005	-7.4513119E-001	0
1.1360511E+004	6.240979861853702E+001	-7.4698615E-001	-6.575286878608666E-002	4.9116483E-005	-7.4713123E-001	0
1.1333761E+004	6.260979861348460E+001	-7.4895269E-001	-6.608156906440843E-002	4.9491970E-005	-7.4913108E-001	0
1.1304274E+004	6.280979860843217E+001	-7.5102198E-001	-6.643699037646045E-002	4.9895640E-005	-7.5113100E-001	0
1.1270001E+004	6.300979860337975E+001	-7.5301731E-001	-6.681608176175580E-002	5.0313665E-005	-7.5313091E-001	0
1.1222435E+004	6.320979859832732E+001	-7.5503415E-001	-6.727899741296972E-002	5.0797942E-005	-7.5513083E-001	0
1.1167642E+004	6.340979859327490E+001	-7.5702351E-001	-6.778723040813181E-002	5.1316529E-005	-7.5713074E-001	0
1.1111825E+004	6.360979858822247E+001	-7.5895703E-001	-6.830174286106439E-002	5.1838088E-005	-7.5913060E-001	0
1.1072197E+004	6.380979858317005E+001	-7.6105106E-001	-6.873532287489226E-002	5.2311090E-005	-7.6113051E-001	0
1.1023345E+004	6.400979857811762E+001	-7.6295871E-001	-6.921299301402506E-002	5.2806656E-005	-7.6313043E-001	0
1.0989109E+004	6.420969857306773E+001	-7.6498365E-001	-6.961289083724240E-002	5.3252723E-005	-7.6513064E-001	0
1.0944470E+004	6.440959856801783E+001	-7.6698196E-001	-7.007940998934448E-002	5.3749642E-005	-7.6713020E-001	0
1.0904771E+004	6.460959856296540E+001	-7.6902086E-001	-7.052150577551752E-002	5.4232507E-005	-7.6913023E-001	0
1.0850299E+004	6.480959855791298E+001	-7.7097738E-001	-7.105586766117505E-002	5.4782467E-005	-7.7113008E-001	0
1.0811238E+004	6.500959855286055E+001	-7.7300090E-001	-7.149975249900686E-002	5.5269371E-005	-7.7313000E-001	0
1.0758978E+004	6.520959854780813E+001	-7.7500844E-001	-7.203365099941567E-002	5.5826687E-005	-7.7512991E-001	0
1.0689006E+004	6.540959854275570E+001	-7.7698916E-001	-7.269050015237954E-002	5.6479730E-005	-7.7712983E-001	0
1.0637729E+004	6.560959853770328E+001	-7.7902186E-001	-7.323197327404296E-002	5.7049307E-005	-7.7912974E-001	0
1.0589055E+004	6.580959853265085E+001	-7.8100562E-001	-7.375593592049534E-002	5.7603800E-005	-7.8112960E-001	0
1.0515974E+004	6.600959852759843E+001	-7.8297263E-001	-7.445555417048810E-002	5.8296660E-005	-7.8312957E-001	0
1.0464638E+004	6.620959852254600E+001	-7.8501529E-001	-7.501600162007871E-002	5.8888709E-005	-7.8512943E-001	0
1.0424813E+004	6.640959851749358E+001	-7.8701210E-001	-7.549412735334515E-002	5.9414793E-005	-7.8712940E-001	0
1.0359400E+004	6.660959851244115E+001	-7.8902477E-001	-7.616510373263596E-002	6.0096154E-005	-7.8912920E-001	0
1.0300167E+004	6.680959850738873E+001	-7.9105049E-001	-7.679977282341112E-002	6.0752500E-005	-7.9112923E-001	0
1.0243521E+004	6.700959850233630E+001	-7.9300475E-001	-7.741525090540313E-002	6.1390660E-005	-7.9312909E-001	0
1.0174625E+004	6.720959849728388E+001	-7.9501379E-001	-7.813691460293093E-002	6.2119921E-005	-7.9512900E-001	0
1.0106224E+004	6.740959849223145E+001	-7.9701710E-001	-7.886398412432916E-002	6.2855943E-005	-7.9712892E-001	0
1.0050175E+004	6.760959848717903E+001	-7.9894412E-001	-7.949554077518561E-002	6.3512496E-005	-7.9912883E-001	0
9.9773359E+003	6.780959848212660E+001	-8.0102772E-001	-8.028472960734385E-002	6.4310290E-005	-8.0112880E-001	0
9.9018301E+003	6.800959847707418E+001	-8.0302995E-001	-8.109914273015129E-002	6.5125038E-005	-8.0312872E-001	0
9.8390195E+003	6.820959847202175E+001	-8.0499029E-001	-8.181610905835623E-002	6.5861175E-005	-8.0512851E-001	0
9.7754199E+003	6.840959846696933E+001	-8.0698454E-001	-8.255242015437858E-002	6.6618530E-005	-8.0712843E-001	0
9.7023320E+003	6.860939846192196E+001	-8.0903691E-001	-8.338581757451913E-002	6.7462206E-005	-8.0912822E-001	0
9.6263574E+003	6.880939845686953E+001	-8.1101811E-001	-8.424973685364123E-002	6.8328060E-005	-8.1112832E-001	0
9.5635146E+003	6.900939845181711E+001	-8.1299073E-001	-8.500961824468078E-002	6.9112029E-005	-8.1312823E-001	0
9.5049014E+003	6.920939844676468E+001	-8.1499922E-001	-8.574515456479492E-002	6.9882233E-005	-8.1512809E-001	0
9.4344570E+003	6.940939844171226E+001	-8.1701458E-001	-8.659900197138426E-002	7.0752649E-005	-8.1712800E-001	0
9.3481230E+003	6.960939843665983E+001	-8.1903899E-001	-8.761534351346589E-002	7.1760383E-005	-8.1912792E-001	0
9.2625166E+003	6.980939843160741E+001	-8.2097405E-001	-8.863401660999815E-002	7.2766226E-005	-8.2112789E-001	0
9.1885205E+003	7.000939842655498E+001	-8.2301337E-001	-8.956973548226799E-002	7.3717092E-005	-8.2312769E-001	0
9.1292832E+003	7.020939842150256E+001	-8.2500714E-001	-9.036932571246314E-002	7.4555341E-005	-8.2512772E-001	0
9.0657734E+003	7.040939841645013E+001	-8.2705510E-001	-9.122830230104961E-002	7.5450829E-005	-8.2712752E-001	0
8.9951416E+003	7.060939841139771E+001	-8.2903236E-001	-9.216446028557734E-002	7.6407319E-005	-8.2912749E-001	0
8.9358857E+003	7.080939840634528E+001	-8.3100975E-001	-9.299690944465749E-002	7.7281336E-005	-8.3112735E-001	0
8.8534541E+003	7.100939840129286E+001	-8.3300596E-001	-9.408824645667013E-002	7.8376070E-005	-8.3312720E-001	0
8.8001279E+003	7.120939839624043E+001	-8.3502662E-001	-9.488801184203188E-002	7.9234014E-005	-8.3512723E-001	0
8.7496572E+003	7.140939839118801E+001	-8.3703697E-001	-9.566512052708909E-002	8.0075246E-005	-8.3712703E-001	0
8.6333760E+003	7.160939838613558E+001	-8.3904183E-001	-9.718583732349284E-002	8.1542981E-005	-8.3912700E-001	0
8.5231357E+003	7.180939838108316E+001	-8.4098011E-001	-9.867027628524849E-002	8.2979743E-005	-8.4112680E-001	0
8.4025254E+003	7.200939837603073E+001	-8.4300321E-001	-1.003273659704625E-001	8.4576292E-005	-8.4312683E-001	0
8.2836943E+003	7.220939837097831E+001	-8.4499210E-001	-1.020066708182736E-001	8.6194828E-005	-8.4512669E-001	0
8.1639287E+003	7.240939836592588E+001	-8.4707201E-001	-1.037578904787984E-001	8.7890403E-005	-8.4712660E-001	0
8.0416929E+003	7.260939836087346E+001	-8.4903485E-001	-1.055791175896790E-001	8.9640351E-005	-8.4912652E-001	0
7.9089692E+003	7.280939835582103E+001	-8.5105222E-001	-1.076059627184079E-001	9.1578295E-005	-8.5112643E-001	0
7.7730322E+003	7.300929835077113E+001	-8.5301787E-001	-1.097406806270709E-001	9.3610761E-005	-8.5312676E-001	0
7.6276021E+003	7.320919834572123E+001	-8.5504490E-001	-1.120987805578004E-001	9.5849493E-005	-8.5512632E-001	0
7.4888477E+003	7.340919834066881E+001	-8.5702157E-001	-1.144397154750298E-001	9.8077304E-005	-8.5712612E-001	0
7.3633018E+003	7.360919833561638E+001	-8.5902917E-001	-1.166635808047084E-001	1.0021742E-004	-8.5912603E-001	0
7.2238491E+003	7.380919833056396E+001	-8.6105365E-001	-1.191959598105895E-001	1.0263411E-004	-8.6112601E-001	0
7.0820791E+003	7.400919832551153E+001	-8.6303002E-001	-1.218611123927296E-001	1.0516980E-004	-8.6312592E-001	0
6.9325479E+003	7.420919832045911E+001	-8.6502260E-001	-1.247770069399317E-001	1.0793493E-004	-8.6512583E-001	0
6.8179370E+003	7.440919831540668E+001	-8.6704439E-001	-1.271710798562484E-001	1.1026297E-004	-8.6712569E-001	0
6.6989009E+003	7.460919831035426E+001	-8.6902785E-001	-1.297269282649240E-001	1.1273631E-004	-8.6912560E-001	0
6.5806367E+003	7.480919830530183E+001	-8.7099373E-001	-1.323570587467442E-001	1.1528217E-004	-8.7112552E-001	0
6.4732397E+003	7.500919830024941E+001	-8.7301493E-001	-1.348652233889162E-001	1.1773935E-004	-8.7312549E-001	0
6.3481563E+003	7.520919829519698E+001	-8.7504536E-001	-1.378424426777256E-001	1.2061839E-004	-8.7512529E-001	0
6.2232310E+003	7.540919829014456E+001	-8.7705487E-001	-1.409323947343657E-001	1.2360544E-004	-8.7712520E-001	0
6.0854341E+003	7.560919828509213E+001	-8.7901229E-001	-1.444452881090794E-001	1.2696919E-004	-8.7912512E-001	0
5.9513066E+003	7.580919828003971E+001	-8.8100952E-001	-1.480363146011252E-001	1.3042141E-004	-8.8112509E-001	0
5.8116411E+003	7.600919827498728E+001	-8.8300818E-001	-1.519378425549215E-001	1.3416236E-004	-8.8312495E-001	0
5.6494312E+003	7.620919826993486E+001	-8.8499278E-001	-1.566516616637234E-001	1.3863559E-004	-8.8512546E-001	0
5.4901689E+003	7.640919826488243E+001	-8.8704550E-001	-1.615698054905923E-001	1.4331978E-004	-8.8712621E-001	0
5.3226812E+003	7.660919825983001E+001	-8.8901889E-001	-1.670246455858533E-001	1.4848806E-004	-8.8912612E-001	0
5.1389492E+003	7.680919825477758E+001	-8.9104372E-001	-1.733902595111525E-001	1.5449830E-004	-8.9112610E-001	0
4.9548667E+003	7.700919824972516E+001	-8.9298916E-001	-1.802246604418876E-001	1.6093867E-004	-8.9312625E-001	0
4.7696665E+003	7.720919824467273E+001	-8.9502019E-001	-1.876483807950597E-001	1.6794910E-004	-8.9512616E-001	0
4.5641152E+003	7.740919823962031E+001	-8.9702964E-001	-1.965396473978283E-001	1.7630190E-004	-8.9712620E-001	0
4.3516821E+003	7.760919823456788E+001	-8.9903641E-001	-2.065951579256735E-001	1.8573657E-004	-8.9912623E-001	0
4.1409966E+003	7.780919822951546E+001	-9.0103656E-001	-2.175892960225267E-001	1.9605592E-004	-9.0112627E-001	0
3.9277903E+003	7.800919822446303E+001	-9.0299606E-001	-2.298992503721631E-001	2.0759812E-004	-9.0312618E-001	0
3.7116877E+003	7.820919821941061E+001	-9.0508276E-001	-2.438466940434179E-001	2.2070143E-004	-9.0512615E-001	0
3.4928540E+003	7.840919821435818E+001	-9.0704757E-001	-2.596866590057472E-001	2.3554816E-004	-9.0712625E-001	0
3.2839731E+003	7.860919820930576E+001	-9.0900421E-001	-2.768001339024533E-001	2.5161248E-004	-9.0912610E-001	0
3.0770701E+003	7.880919820425333E+001	-9.1104686E-001	-2.960760907128523E-001	2.6973919E-004	-9.1112614E-001	0
2.8201501E+003	7.900919819920091E+001	-9.1297293E-001	-3.237320407338080E-001	2.9555860E-004	-9.1312617E-001	0
2.6387078E+003	7.920919819414848E+001	-9.1502953E-001	-3.467718313623420E-001	3.1730646E-004	-9.1512614E-001	0
2.4586926E+003	7.940919818909606E+001	-9.1702497E-001	-3.729725905214671E-001	3.4202519E-004	-9.1712612E-001	0
2.2852085E+003	7.960919818404363E+001	-9.1905087E-001	-4.021737441661308E-001	3.6961812E-004	-9.1912621E-001	0
2.1167480E+003	7.980919817899121E+001	-9.2106104E-001	-4.351302236234105E-001	4.0078149E-004	-9.2112619E-001	0
1.9291100E+003	8.000919817393878E+001	-9.2301899E-001	-4.784688364013258E-001	4.4163581E-004	-9.2312616E-001	0
1.7811078E+003	8.020919816888636E+001	-9.2506886E-001	-5.193783518797002E-001	4.8046073E-004	-9.2512619E-001	0
1.6514177E+003	8.040919816383393E+001	-9.2708898E-001	-5.613897488180073E-001	5.2045827E-004	-9.2712623E-001	0
1.5241820E+003	8.060919815878151E+001	-9.2903179E-001	-6.095281056341726E-001	5.6627096E-004	-9.2912620E-001	0
1.3846780E+003	8.080919815372908E+001	-9.3103665E-001	-6.723849657002203E-001	6.2601507E-004	-9.3112618E-001	0
1.2872775E+003	8.100919814867666E+001	-9.3303496E-001	-7.248126040603537E-001	6.7627552E-004	-9.3312621E-001	0
1.1796361E+003	8.120919814362423E+001	-9.3505174E-001	-7.926611557450833E-001	7.4117922E-004	-9.3512625E-001	0
1.0880071E+003	8.140919813857181E+001	-9.3704450E-001	-8.612485461089072E-001	8.0702821E-004	-9.3712616E-001	0
1.0076044E+003	8.160919813351939E+001	-9.3904185E-001	-9.319548672508624E-001	8.7514461E-004	-9.3912613E-001	0
9.2943359E+002	8.180919812846696E+001	-9.4109833E-001	-1.012550364630698E+000	9.5290947E-004	-9.4112623E-001	0
8.5622144E+002	8.201919812316191E+001	-9.4312221E-001	-1.101493361060431E+000	1.0388428E-003	-9.4322628E-001	0
7.9650110E+002	8.222919811785687E+001	-9.4524670E-001	-1.186748774042208E+000	1.1217704E-003	-9.4532621E-001	0
7.3838171E+002	8.242919811280444E+001	-9.4723016E-001	-1.282846210841218E+000	1.2151506E-003	-9.4732624E-001	0
6.9144879E+002	8.262919810775202E+001	-9.4923258E-001	-1.372816884218629E+000	1.3031225E-003	-9.4932616E-001	0
6.4347778E+002	8.282919810269959E+001	-9.5124036E-001	-1.478280034566676E+000	1.4061996E-003	-9.5132619E-001	0
6.0303229E+002	8.302919809764717E+001	-9.5325834E-001	-1.580774905189634E+000	1.5068869E-003	-9.5332623E-001	0
5.6821851E+002	8.322919809259474E+001	-9.5523560E-001	-1.681106128288508E+000	1.6058524E-003	-9.5532626E-001	0
5.3316510E+002	8.342919808754232E+001	-9.5722848E-001	-1.795369821171910E+000	1.7185791E-003	-9.5732617E-001	0
5.0271780E+002	8.362919808248989E+001	-9.5922035E-001	-1.908069210578937E+000	1.8302589E-003	-9.5932615E-001	0
4.7624527E+002	8.382919807743747E+001	-9.6123028E-001	-2.018351309677233E+000	1.9401003E-003	-9.6132624E-001	0
4.5124515E+002	8.402919807238504E+001	-9.6325642E-001	-2.134663284196591E+000	2.0562280E-003	-9.6332622E-001	0
4.2719070E+002	8.422919806733262E+001	-9.6521866E-001	-2.259456219924559E+000	2.1808692E-003	-9.6532613E-001	0
4.0671057E+002	8.442919806228019E+001	-9.6724248E-001	-2.378208364607122E+000	2.3003041E-003	-9.6732616E-001	0
3.8803149E+002	8.462919805722777E+001	-9.6923989E-001	-2.497838191248803E+000	2.4210045E-003	-9.6932614E-001	0
3.7053406E+002	8.482919805217534E+001	-9.7119462E-001	-2.621067109477643E+000	2.5455663E-003	-9.7132623E-001	0
3.5446848E+002	8.502919804712292E+001	-9.7327173E-001	-2.745721574509501E+000	2.6723333E-003	-9.7332621E-001	0
3.3920447E+002	8.522919804207049E+001	-9.7523904E-001	-2.875077101277398E+000	2.8038875E-003	-9.7532618E-001	0
3.2551434E+002	8.542919803701807E+001	-9.7721994E-001	-3.002079405143945E+000	2.9336920E-003	-9.7732615E-001	0
3.1284076E+002	8.562919803196564E+001	-9.7923517E-001	-3.130139498534234E+000	3.0651428E-003	-9.7932619E-001	0
3.0113428E+002	8.582919802691322E+001	-9.8121995E-001	-3.258413368679772E+000	3.1972202E-003	-9.8132622E-001	0
2.9024768E+002	8.602919802186079E+001	-9.8321879E-001	-3.387516583343483E+000	3.3306701E-003	-9.8332620E-001	0
2.7976492E+002	8.622919801680837E+001	-9.8520201E-001	-3.521535281860629E+000	3.4694236E-003	-9.8532611E-001	0
2.6999496E+002	8.642919801175594E+001	-9.8724896E-001	-3.656545915300892E+000	3.6099211E-003	-9.8732620E-001	0
2.6099414E+002	8.662919800670352E+001	-9.8924279E-001	-3.790287265972222E+000	3.7495145E-003	-9.8932624E-001	0
2.5272412E+002	8.682919800165109E+001	-9.9125916E-001	-3.922297459036582E+000	3.8880133E-003	-9.9132615E-001	0
2.4474307E+002	8.702919799659867E+001	-9.9321377E-001	-4.058189458418617E+000	4.0306496E-003	-9.9332613E-001	0
2.3717572E+002	8.722919799154624E+001	-9.9526513E-001	-4.196319597141816E+000	4.1764504E-003	-9.9532622E-001	0
2.3026569E+002	8.742919798649382E+001	-9.9723142E-001	-4.330786085013884E+000	4.3187961E-003	-9.9732608E-001	0
2.2365514E+002	8.762919798144139E+001	-9.9922419E-001	-4.467700643435364E+000	4.4642347E-003	-9.9932611E-001	0
2.1729205E+002	8.782919797638897E+001	-1.0012429E+000	-4.607820955263509E+000	4.6135481E-003	-1.0013262E+000	0
2.1129292E+002	8.802919797133654E+001	-1.0032339E+000	-4.748071504963775E+000	4.7634263E-003	-1.0033262E+000	0
2.0552338E+002	8.822919796628412E+001	-1.0052228E+000	-4.891038741755892E+000	4.9165837E-003	-1.0053262E+000	0
2.0014844E+002	8.842919796123169E+001	-1.0072234E+000	-5.032381869092276E+000	5.0687324E-003	-1.0073261E+000	0
1.9509245E+002	8.862919795617927E+001	-1.0092469E+000	-5.173172568112555E+000	5.2210088E-003	-1.0093262E+000	0
1.9007545E+002	8.882919795112684E+001	-1.0112767E+000	-5.320396305887591E+000	5.3803930E-003	-1.0113262E+000	0
1.8543019E+002	8.902919794607442E+001	-1.0132176E+000	-5.464145495372577E+000	5.5363681E-003	-1.0133262E+000	0
1.8094592E+002	8.922919794102199E+001	-1.0152174E+000	-5.610612229256134E+000	5.6959912E-003	-1.0153261E+000	0
1.7662923E+002	8.942919793596957E+001	-1.0172315E+000	-5.759134297772320E+000	5.8583724E-003	-1.0173261E+000	0
1.7245853E+002	8.962919793091714E+001	-1.0192370E+000	-5.910041535961682E+000	6.0237334E-003	-1.0193261E+000	0
1.6841159E+002	8.982919792586472E+001	-1.0212492E+000	-6.064007930812380E+000	6.1928630E-003	-1.0213262E+000	0
1.6462518E+002	9.002919792081229E+001	-1.0232527E+000	-6.215651494237566E+000	6.3601825E-003	-1.0233263E+000	0
1.6098862E+002	9.022919791575987E+001	-1.0252584E+000	-6.368515274962618E+000	6.5293740E-003	-1.0253261E+000	0
1.5746542E+002	9.042919791070744E+001	-1.0272537E+000	-6.523678470158018E+000	6.7014731E-003	-1.0273261E+000	0
1.5395576E+002	9.062919790565502E+001	-1.0292287E+000	-6.685223337879521E+000	6.8806238E-003	-1.0293262E+000	0
1.5063292E+002	9.082919790060259E+001	-1.0312502E+000	-6.846114842867308E+000	7.0600575E-003	-1.0313262E+000	0
1.4745259E+002	9.102919789555017E+001	-1.0332559E+000	-7.007377399203449E+000	7.2404142E-003	-1.0333261E+000	0
1.4435255E+002	9.122919789049774E+001	-1.0352347E+000	-7.171571858683407E+000	7.4242600E-003	-1.0353261E+000	0
1.4130219E+002	9.142919788544532E+001	-1.0372522E+000	-7.340666387694739E+000	7.6141222E-003	-1.0373261E+000	0
1.3839383E+002	9.162919788039289E+001	-1.0392623E+000	-7.509455318150870E+000	7.8042937E-003	-1.0393262E+000	0
1.3563614E+002	9.182919787534047E+001	-1.0412660E+000	-7.676906439925546E+000	7.9937018E-003	-1.0413262E+000	0
1.3276007E+002	9.202919787028804E+001	-1.0432878E+000	-7.858445360344263E+000	8.1986198E-003	-1.0433261E+000	0
1.2995876E+002	9.222919786523562E+001	-1.0452662E+000	-8.043061028126957E+000	8.4071392E-003	-1.0453262E+000	0
1.2735378E+002	9.242919786018319E+001	-1.0473582E+000	-8.224005048372334E+000	8.6134784E-003	-1.0473262E+000	0
1.2482729E+002	9.262919785513077E+001	-1.0492249E+000	-8.405412365519737E+000	8.8191675E-003	-1.0493262E+000	0
1.2235090E+002	9.282919785007834E+001	-1.0512707E+000	-8.592260111756872E+000	9.0327915E-003	-1.0513263E+000	0
1.1993687E+002	9.302919784502592E+001	-1.0532773E+000	-8.781930225573973E+000	9.2498073E-003	-1.0533262E+000	0
1.1752002E+002	9.322919783997349E+001	-1.0552566E+000	-8.979377105663161E+000	9.4755469E-003	-1.0553262E+000	0
1.1523437E+002	9.342919783492107E+001	-1.0573136E+000	-9.175332155898019E+000	9.7012036E-003	-1.0573262E+000	0
1.1295087E+002	9.362919782986864E+001	-1.0593094E+000	-9.378496375754310E+000	9.9347290E-003	-1.0593262E+000	0
1.1074571E+002	9.382919782481622E+001	-1.0612910E+000	-9.583133815975671E+000	1.0170493E-002	-1.0613263E+000	0
1.0853825E+002	9.402919781976379E+001	-1.0632430E+000	-9.796021176235968E+000	1.0415551E-002	-1.0633262E+000	0
1.0642679E+002	9.422919781471137E+001	-1.0652796E+000	-1.000950642048367E+001	1.0662923E-002	-1.0653262E+000	0
1.0439005E+002	9.442919780965894E+001	-1.0672523E+000	-1.022369781123000E+001	1.0911264E-002	-1.0673262E+000	0
1.0235883E+002	9.462919780460652E+001	-1.0692644E+000	-1.044623539385611E+001	1.1169787E-002	-1.0693262E+000	0
1.0035548E+002	9.482919779955409E+001	-1.0712699E+000	-1.067475230988458E+001	1.1435540E-002	-1.0713263E+000	0
9.8173065E+001	9.503919779424905E+001	-1.0733532E+000	-1.093327579297591E+001	1.1735266E-002	-1.0734262E+000	0
9.5978821E+001	9.524919778894400E+001	-1.0754344E+000	-1.120491407031104E+001	1.2050151E-002	-1.0755262E+000	0
9.4149078E+001	9.544919778389158E+001	-1.0774462E+000	-1.144404408876316E+001	1.2330342E-002	-1.0775262E+000	0
9.2332619E+001	9.564919777883915E+001	-1.0794184E+000	-1.169054244070095E+001	1.2618987E-002	-1.0795262E+000	0
9.0510338E+001	9.584919777378673E+001	-1.0814379E+000	-1.194822566586294E+001	1.2921264E-002	-1.0815263E+000	0
8.8731407E+001	9.604919776873430E+001	-1.0833879E+000	-1.220974513868086E+001	1.3227889E-002	-1.0835263E+000	0
8.7076645E+001	9.624919776368188E+001	-1.0854244E+000	-1.246516081508327E+001	1.3529990E-002	-1.0855262E+000	0
8.5282394E+001	9.644919775862945E+001	-1.0874559E+000	-1.275123530585751E+001	1.3866406E-002	-1.0875262E+000	0
8.3680527E+001	9.664919775357703E+001	-1.0894377E+000	-1.301901139680490E+001	1.4183402E-002	-1.0895262E+000	0
8.2033707E+001	9.684919774852460E+001	-1.0914218E+000	-1.330455413710774E+001	1.4520881E-002	-1.0915263E+000	0
8.0400223E+001	9.704919774347218E+001	-1.0934588E+000	-1.360019618245747E+001	1.4871254E-002	-1.0935262E+000	0
7.8843948E+001	9.724919773841975E+001	-1.0954442E+000	-1.389382707545548E+001	1.5219912E-002	-1.0955262E+000	0
7.7284378E+001	9.744919773336733E+001	-1.0974296E+000	-1.419989009657684E+001	1.5583380E-002	-1.0975262E+000	0
7.5743980E+001	9.764919772831490E+001	-1.0994039E+000	-1.451473609660483E+001	1.5957557E-002	-1.0995262E+000	0
7.4259949E+001	9.784919772326248E+001	-1.1014228E+000	-1.483199009387131E+001	1.6336292E-002	-1.1015263E+000	0
7.2819778E+001	9.804919771821005E+001	-1.1033955E+000	-1.515241478832948E+001	1.6719107E-002	-1.1035262E+000	0
7.1341583E+001	9.824919771315763E+001	-1.1054238E+000	-1.549480404564588E+001	1.7128326E-002	-1.1055262E+000	0
6.9967316E+001	9.844919770810520E+001	-1.1074550E+000	-1.582817688401860E+001	1.7528994E-002	-1.1075261E+000	0
6.8506638E+001	9.864919770305278E+001	-1.1094147E+000	-1.619426539655175E+001	1.7966157E-002	-1.1095263E+000	0
6.7179497E+001	9.884919769800035E+001	-1.1114500E+000	-1.654448145479299E+001	1.8388363E-002	-1.1115263E+000	0
6.5850006E+001	9.904919769294793E+001	-1.1134398E+000	-1.690872803972425E+001	1.8826852E-002	-1.1135261E+000	0
6.4470825E+001	9.924919768789550E+001	-1.1154407E+000	-1.730148108043367E+001	1.9298777E-002	-1.1155262E+000	0
6.3203968E+001	9.944919768284308E+001	-1.1174269E+000	-1.767969518129510E+001	1.9755766E-002	-1.1175262E+000	0
6.1911758E+001	9.964919767779065E+001	-1.1194106E+000	-1.808074331891774E+001	2.0239776E-002	-1.1195263E+000	0
6.0719067E+001	9.984919767273823E+001	-1.1214696E+000	-1.846980991317565E+001	2.0713331E-002	-1.1215262E+000	0
5.9485916E+001	1.000491976676858E+002	-1.1234144E+000	-1.888538415888809E+001	2.1216113E-002	-1.1235261E+000	0
5.8259747E+001	1.002491976626334E+002	-1.1254683E+000	-1.931811137237252E+001	2.1741921E-002	-1.1255262E+000	0
5.7159706E+001	1.004491976575810E+002	-1.1274420E+000	-1.972441865311190E+001	2.2238137E-002	-1.1275262E+000	0
5.5952808E+001	1.006491976525285E+002	-1.1294299E+000	-2.018540174971899E+001	2.2797996E-002	-1.1295261E+000	0
5.4848797E+001	1.008491976474761E+002	-1.1314541E+000	-2.062860441167334E+001	2.3340318E-002	-1.1315262E+000	0
5.3719471E+001	1.010491976424237E+002	-1.1334519E+000	-2.109946191391981E+001	2.3915226E-002	-1.1335262E+000	0
5.2634796E+001	1.012491976373713E+002	-1.1354603E+000	-2.157242606962079E+001	2.4494633E-002	-1.1355262E+000	0
5.1589947E+001	1.014491976323188E+002	-1.1374571E+000	-2.204803830533885E+001	2.5078699E-002	-1.1375262E+000	0
5.0524914E+001	1.016491976272664E+002	-1.1394421E+000	-2.255208311262049E+001	2.5696792E-002	-1.1395262E+000	0
4.9497402E+001	1.018491976222140E+002	-1.1414311E+000	-2.306042457424321E+001	2.6321886E-002	-1.1415262E+000	0
4.8480198E+001	1.020491976171616E+002	-1.1434828E+000	-2.358659474798344E+001	2.6970865E-002	-1.1435262E+000	0
4.7460442E+001	1.022491976121091E+002	-1.1454403E+000	-2.413463226318903E+001	2.7644781E-002	-1.1455262E+000	0
4.6531330E+001	1.024491976070567E+002	-1.1474441E+000	-2.465960251636261E+001	2.8295517E-002	-1.1475261E+000	0
4.5559322E+001	1.026491976020043E+002	-1.1494385E+000	-2.522948973681650E+001	2.8999748E-002	-1.1495262E+000	0
4.4647957E+001	1.028491975969519E+002	-1.1514462E+000	-2.578945046920080E+001	2.9695164E-002	-1.1515262E+000	0
4.3678535E+001	1.030491975918994E+002	-1.1534344E+000	-2.640735123541333E+001	3.0459147E-002	-1.1535262E+000	0
4.2790459E+001	1.032491975868470E+002	-1.1554476E+000	-2.700245946199720E+001	3.1199927E-002	-1.1555262E+000	0
4.1880947E+001	1.034491975817946E+002	-1.1574407E+000	-2.763644917697866E+001	3.1987552E-002	-1.1575261E+000	0
4.0943199E+001	1.036491975767422E+002	-1.1594344E+000	-2.831811971999622E+001	3.2833003E-002	-1.1595262E+000	0
4.0089939E+001	1.038491975716897E+002	-1.1614529E+000	-2.897118089501834E+001	3.3648662E-002	-1.1615262E+000	0
3.9268177E+001	1.040491975666373E+002	-1.1634057E+000	-2.962718861416630E+001	3.4468438E-002	-1.1635262E+000	0
3.8448254E+001	1.042491975615849E+002	-1.1654203E+000	-3.031139879567280E+001	3.5325520E-002	-1.1655262E+000	0
3.7645893E+001	1.044491975565325E+002	-1.1674252E+000	-3.101069092939770E+001	3.6202662E-002	-1.1675262E+000	0
3.6827774E+001	1.046491975514800E+002	-1.1694785E+000	-3.175534019529690E+001	3.7137188E-002	-1.1695262E+000	0
3.6056232E+001	1.048491975464276E+002	-1.1714174E+000	-3.248862193798539E+001	3.8057737E-002	-1.1715262E+000	0
3.5294827E+001	1.050491975413752E+002	-1.1734550E+000	-3.324722215837357E+001	3.9014120E-002	-1.1735263E+000	0
3.4569958E+001	1.052491975363228E+002	-1.1754445E+000	-3.400190687720203E+001	3.9967354E-002	-1.1755261E+000	0
3.3838509E+001	1.054491975312703E+002	-1.1774626E+000	-3.479652727136778E+001	4.0971607E-002	-1.1775261E+000	0
3.3142635E+001	1.056491975262179E+002	-1.1794618E+000	-3.558744777789735E+001	4.1974038E-002	-1.1795262E+000	0
3.2376797E+001	1.058491975211655E+002	-1.1814264E+000	-3.648991119266918E+001	4.3110143E-002	-1.1815263E+000	0
3.1698626E+001	1.060491975161131E+002	-1.1834819E+000	-3.733543384318458E+001	4.4185810E-002	-1.1835262E+000	0
3.1064901E+001	1.062491975110606E+002	-1.1855260E+000	-3.816287634729524E+001	4.5243084E-002	-1.1855261E+000	0
3.0421801E+001	1.064491975060082E+002	-1.1874361E+000	-3.903240613926576E+001	4.6348490E-002	-1.1875262E+000	0
2.9764198E+001	1.066491975009558E+002	-1.1894909E+000	-3.996381384418117E+001	4.7536593E-002	-1.1895262E+000	0
2.9130466E+001	1.068491974959034E+002	-1.1914797E+000	-4.090149695208282E+001	4.8733301E-002	-1.1915262E+000	0
2.8528902E+001	1.070491974908509E+002	-1.1934783E+000	-4.183400979415069E+001	4.9927983E-002	-1.1935261E+000	0
2.7917324E+001	1.072491974857985E+002	-1.1954991E+000	-4.282283825831081E+001	5.1194664E-002	-1.1955261E+000	0
2.7331455E+001	1.074491974807461E+002	-1.1974603E+000	-4.381253371081925E+001	5.2463770E-002	-1.1975261E+000	0
2.6738216E+001	1.076491974756937E+002	-1.1995347E+000	-4.486217870301401E+001	5.3813737E-002	-1.1995262E+000	0
2.6195143E+001	1.078491974706412E+002	-1.2015477E+000	-4.586910397476618E+001	5.5113919E-002	-1.2015263E+000	0
2.5642015E+001	1.080491974655888E+002	-1.2034898E+000	-4.693428956867638E+001	5.6484938E-002	-1.2035261E+000	0
2.5137007E+001	1.082491974605364E+002	-1.2055110E+000	-4.795762005765971E+001	5.7813436E-002	-1.2055261E+000	0
2.4608212E+001	1.084491974554840E+002	-1.2075014E+000	-4.906904440699259E+001	5.9250940E-002	-1.2075262E+000	0
2.4086891E+001	1.086491974504315E+002	-1.2094960E+000	-5.021387088298778E+001	6.0733479E-002	-1.2095263E+000	0
2.3581152E+001	1.088491974453791E+002	-1.2115197E+000	-5.137661230591152E+001	6.2243778E-002	-1.2115262E+000	0
2.3088373E+001	1.090491974403267E+002	-1.2134939E+000	-5.255866054720900E+001	6.3779615E-002	-1.2135261E+000	0
2.2607157E+001	1.092491974352743E+002	-1.2154883E+000	-5.376564239806851E+001	6.5351509E-002	-1.2155262E+000	0
2.2156282E+001	1.094491974302218E+002	-1.2174785E+000	-5.494958313414281E+001	6.6899940E-002	-1.2175262E+000	0
2.1700996E+001	1.096491974251694E+002	-1.2194625E+000	-5.619384929274213E+001	6.8526290E-002	-1.2195262E+000	0
2.1215387E+001	1.098491974201170E+002	-1.2214882E+000	-5.757557851873548E+001	7.0327893E-002	-1.2215261E+000	0
2.0801397E+001	1.100491974150646E+002	-1.2234823E+000	-5.881731183512704E+001	7.1961939E-002	-1.2235262E+000	0
2.0397850E+001	1.102491974100121E+002	-1.2254691E+000	-6.007834904156027E+001	7.3624164E-002	-1.2255262E+000	0
1.9985516E+001	1.104491974049597E+002	-1.2274795E+000	-6.141845403939419E+001	7.5389892E-002	-1.2275262E+000	0
1.9596502E+001	1.106491973999073E+002	-1.2295061E+000	-6.274110269762775E+001	7.7140570E-002	-1.2295263E+000	0
1.9236971E+001	1.108491973948549E+002	-1.2315311E+000	-6.401897676731755E+001	7.8841366E-002	-1.2315263E+000	0
1.8826368E+001	1.110491973898024E+002	-1.2334778E+000	-6.551862953958062E+001	8.0815777E-002	-1.2335262E+000	0
1.8443312E+001	1.112491973847500E+002	-1.2355287E+000	-6.699060849591987E+001	8.2768820E-002	-1.2355262E+000	0
1.8056221E+001	1.114491973796976E+002	-1.2374812E+000	-6.853489623642838E+001	8.4810652E-002	-1.2375262E+000	0
1.7658596E+001	1.116491973746452E+002	-1.2395004E+000	-7.019246554104359E+001	8.7003589E-002	-1.2395263E+000	0
1.7335777E+001	1.118491973695927E+002	-1.2415062E+000	-7.161526401026742E+001	8.8910796E-002	-1.2415262E+000	0
1.6988695E+001	1.120491973645403E+002	-1.2435035E+000	-7.319593258779878E+001	9.1019392E-002	-1.2435261E+000	0
1.6657555E+001	1.122491973594879E+002	-1.2455322E+000	-7.477281046994960E+001	9.3131937E-002	-1.2455262E+000	0
1.6327765E+001	1.124491973544355E+002	-1.2474997E+000	-7.640358183335320E+001	9.5313445E-002	-1.2475262E+000	0
1.5951146E+001	1.126491973493830E+002	-1.2495047E+000	-7.833322103277587E+001	9.7877726E-002	-1.2495263E+000	0
1.5638464E+001	1.128491973443306E+002	-1.2515426E+000	-8.002976359748004E+001	1.0016066E-001	-1.2515262E+000	0
1.5337566E+001	1.130491973392782E+002	-1.2535247E+000	-8.172904341345213E+001	1.0244937E-001	-1.2535262E+000	0
1.5037446E+001	1.132491973342258E+002	-1.2555364E+000	-8.349399498314534E+001	1.0482975E-001	-1.2555262E+000	0
1.4763862E+001	1.134491973291733E+002	-1.2575639E+000	-8.517852623933027E+001	1.0711744E-001	-1.2575263E+000	0
1.4498658E+001	1.136491973241209E+002	-1.2594908E+000	-8.686947868957009E+001	1.0941131E-001	-1.2595263E+000	0
1.4247932E+001	1.138491973190685E+002	-1.2615187E+000	-8.854047350926732E+001	1.1169546E-001	-1.2615262E+000	0
1.3972078E+001	1.140491973140161E+002	-1.2635311E+000	-9.043258176098607E+001	1.1426438E-001	-1.2635262E+000	0
1.3738558E+001	1.142491973089636E+002	-1.2655190E+000	-9.211440160106883E+001	1.1657253E-001	-1.2655262E+000	0
1.3466714E+001	1.144491973039112E+002	-1.2675573E+000	-9.412520916391622E+001	1.1930909E-001	-1.2675261E+000	0
1.3232454E+001	1.146491972988588E+002	-1.2695059E+000	-9.593880721879395E+001	1.2179488E-001	-1.2695264E+000	0
1.2976532E+001	1.148491972938064E+002	-1.2715412E+000	-9.798775858295221E+001	1.2459548E-001	-1.2715261E+000	0
1.2689106E+001	1.150491972887539E+002	-1.2735215E+000	-1.003633768304405E+002	1.2781492E-001	-1.2735262E+000	0
1.2447140E+001	1.152491972837015E+002	-1.2755262E+000	-1.024754406243494E+002	1.3071011E-001	-1.2755262E+000	0
1.2193651E+001	1.154491972786491E+002	-1.2775036E+000	-1.047679333643578E+002	1.3384141E-001	-1.2775263E+000	0
1.2012752E+001	1.156491972735967E+002	-1.2794750E+000	-1.065097307445239E+002	1.3627653E-001	-1.2795264E+000	0
1.1816071E+001	1.158491972685442E+002	-1.2815264E+000	-1.084562265791865E+002	1.3898952E-001	-1.2815262E+000	0
1.1524951E+001	1.160591972632392E+002	-1.2835929E+000	-1.113751282195651E+002	1.4296032E-001	-1.2836263E+000	0
1.1324575E+001	1.162691972579341E+002	-1.2856652E+000	-1.135287728990825E+002	1.4595999E-001	-1.2857261E+000	0
1.1135187E+001	1.164691972528817E+002	-1.2876723E+000	-1.156399350533952E+002	1.4890634E-001	-1.2877262E+000	0
1.0951736E+001	1.166691972478293E+002	-1.2896804E+000	-1.177603504219833E+002	1.5187322E-001	-1.2897263E+000	0
1.0802518E+001	1.168691972427769E+002	-1.2917374E+000	-1.195774434969817E+002	1.5446267E-001	-1.2917261E+000	0
1.0646753E+001	1.170691972377244E+002	-1.2937442E+000	-1.215153757006678E+002	1.5720981E-001	-1.2937262E+000	0
1.0478501E+001	1.172691972326720E+002	-1.2956809E+000	-1.236513541366508E+002	1.6021270E-001	-1.2957262E+000	0
1.0309283E+001	1.174691972276196E+002	-1.2977223E+000	-1.258790095117356E+002	1.6335601E-001	-1.2977262E+000	0
1.0114281E+001	1.176691972225672E+002	-1.2996899E+000	-1.285004757050756E+002	1.6701077E-001	-1.2997262E+000	0
9.8970966E+000	1.178691972175147E+002	-1.3016688E+000	-1.315202586948194E+002	1.7119581E-001	-1.3017262E+000	0
9.7388554E+000	1.180691972124623E+002	-1.3037007E+000	-1.338659072668376E+002	1.7452107E-001	-1.3037262E+000	0
9.5299177E+000	1.182691972074099E+002	-1.3057296E+000	-1.370137293095488E+002	1.7890288E-001	-1.3057262E+000	0
9.3612652E+000	1.184691972023575E+002	-1.3076812E+000	-1.396906441236566E+002	1.8267083E-001	-1.3077261E+000	0
9.1960363E+000	1.186691971973050E+002	-1.3096820E+000	-1.424181029801998E+002	1.8652242E-001	-1.3097262E+000	0
9.0507374E+000	1.188691971922526E+002	-1.3116947E+000	-1.449268376205512E+002	1.9009978E-001	-1.3117262E+000	0
8.9065123E+000	1.190691971872002E+002	-1.3136976E+000	-1.474985377458761E+002	1.9376847E-001	-1.3137262E+000	0
8.7778320E+000	1.192691971821478E+002	-1.3156606E+000	-1.498844588402987E+002	1.9719708E-001	-1.3157262E+000	0
8.6138058E+000	1.194691971770953E+002	-1.3176975E+000	-1.529750680015197E+002	2.0157486E-001	-1.3177263E+000	0
8.4643316E+000	1.196691971720429E+002	-1.3197201E+000	-1.559154618137813E+002	2.0576477E-001	-1.3197262E+000	0
8.3754969E+000	1.198691971669905E+002	-1.3217061E+000	-1.578062775378321E+002	2.0857352E-001	-1.3217262E+000	0
8.2708302E+000	1.200691971619381E+002	-1.3236498E+000	-1.600383157092156E+002	2.1183468E-001	-1.3237262E+000	0
8.1451645E+000	1.202691971568856E+002	-1.3257157E+000	-1.627610638330850E+002	2.1577489E-001	-1.3257262E+000	0
7.9683080E+000	1.204691971518332E+002	-1.3277439E+000	-1.666280845709132E+002	2.2123942E-001	-1.3277262E+000	0
7.8276925E+000	1.206691971467808E+002	-1.3296880E+000	-1.698697197940076E+002	2.2587372E-001	-1.3297262E+000	0
7.7270083E+000	1.208691971417284E+002	-1.3316910E+000	-1.723423782605976E+002	2.2950681E-001	-1.3317263E+000	0
7.6318030E+000	1.210691971366759E+002	-1.3337203E+000	-1.747582221496129E+002	2.3307860E-001	-1.3337262E+000	0
7.5256777E+000	1.212691971316235E+002	-1.3357106E+000	-1.774870920332650E+002	2.3707139E-001	-1.3357263E+000	0
7.3822317E+000	1.214691971265711E+002	-1.3376921E+000	-1.812043048843502E+002	2.4239558E-001	-1.3377262E+000	0
7.2345557E+000	1.216691971215187E+002	-1.3397723E+000	-1.851906845326325E+002	2.4811336E-001	-1.3397263E+000	0
7.1400681E+000	1.218691971164662E+002	-1.3417000E+000	-1.879113655814776E+002	2.5212067E-001	-1.3417262E+000	0
7.0184102E+000	1.220691971114138E+002	-1.3437005E+000	-1.914536916685211E+002	2.5725642E-001	-1.3437262E+000	0
6.9791055E+000	1.222691971063614E+002	-1.3457038E+000	-1.928189588295900E+002	2.5947723E-001	-1.3457261E+000	0
6.9144549E+000	1.224691971013090E+002	-1.3476868E+000	-1.949086034216853E+002	2.6267573E-001	-1.3477262E+000	0
6.8323932E+000	1.226691970962565E+002	-1.3496976E+000	-1.975439057685348E+002	2.6662454E-001	-1.3497262E+000	0
6.7362094E+000	1.228691970912041E+002	-1.3517079E+000	-2.006629976415313E+002	2.7123776E-001	-1.3517262E+000	0
6.6385860E+000	1.230691970861517E+002	-1.3537494E+000	-2.039213472266856E+002	2.7605841E-001	-1.3537261E+000	0
6.5209131E+000	1.232691970810993E+002	-1.3557420E+000	-2.079067629989313E+002	2.8186792E-001	-1.3557261E+000	0
6.4032454E+000	1.234691970760468E+002	-1.3577166E+000	-2.120356824468317E+002	2.8788435E-001	-1.3577262E+000	0
6.3063669E+000	1.236691970709944E+002	-1.3597281E+000	-2.156119603721454E+002	2.9317364E-001	-1.3597263E+000	0
6.2146173E+000	1.238693970659369E+002	-1.3617319E+000	-2.191175725003909E+002	2.9837939E-001	-1.3617278E+000	0
6.1072683E+000	1.240697970608744E+002	-1.3637555E+000	-2.233003977804276E+002	3.0452713E-001	-1.3637320E+000	0
6.0127726E+000	1.242599970560696E+002	-1.3656721E+000	-2.271285133038568E+002	3.1018308E-001	-1.3656340E+000	0
5.8295517E+000	1.244400970515198E+002	-1.3674687E+000	-2.345752808709308E+002	3.2077435E-001	-1.3674347E+000	0
5.7687039E+000	1.246204970469626E+002	-1.3692455E+000	-2.373575667165792E+002	3.2500079E-001	-1.3692387E+000	0
5.7234154E+000	1.248007970424078E+002	-1.3710718E+000	-2.395548270953905E+002	3.2844687E-001	-1.3710418E+000	0
5.6361423E+000	1.249810970378530E+002	-1.3728874E+000	-2.435863584498816E+002	3.3441663E-001	-1.3728445E+000	0
5.5384092E+000	1.251717970330355E+002	-1.3747584E+000	-2.482226146209850E+002	3.4124613E-001	-1.3747516E+000	0
5.4706359E+000	1.253422970287284E+002	-1.3764428E+000	-2.516056349762957E+002	3.4632075E-001	-1.3764570E+000	0
5.4168787E+000	1.255323970239260E+002	-1.3783863E+000	-2.544613472764686E+002	3.5074604E-001	-1.3783576E+000	0
5.3662868E+000	1.257328970188610E+002	-1.3804328E+000	-2.572417329558130E+002	3.5510492E-001	-1.3803625E+000	0
5.2926898E+000	1.259233970140485E+002	-1.3822823E+000	-2.611681875415384E+002	3.6100814E-001	-1.3822680E+000	0
5.2346015E+000	1.261137970092386E+002	-1.3842162E+000	-2.644358223929290E+002	3.6603636E-001	-1.3841716E+000	0
5.1184692E+000	1.263142970041736E+002	-1.3862026E+000	-2.708236656132131E+002	3.7541646E-001	-1.3861763E+000	0
5.0416694E+000	1.264949969996087E+002	-1.3880128E+000	-2.753081665715017E+002	3.8213125E-001	-1.3879836E+000	0
4.9925938E+000	1.266654969953015E+002	-1.3896737E+000	-2.783470399016778E+002	3.8681155E-001	-1.3896888E+000	0
4.9084687E+000	1.268562969904815E+002	-1.3916438E+000	-2.835189144074293E+002	3.9455733E-001	-1.3915966E+000	0
4.8924918E+000	1.270566969854190E+002	-1.3936621E+000	-2.848573039022103E+002	3.9699483E-001	-1.3936008E+000	0
4.8402967E+000	1.272568969803615E+002	-1.3956698E+000	-2.883438402945378E+002	4.0243280E-001	-1.3956031E+000	0
4.8161068E+000	1.274473969755491E+002	-1.3975594E+000	-2.901844827783143E+002	4.0555006E-001	-1.3975074E+000	0
4.7754054E+000	1.276380969707316E+002	-1.3994929E+000	-2.930626216802556E+002	4.1013905E-001	-1.3994150E+000	0
4.7514100E+000	1.278384969656690E+002	-1.4014826E+000	-2.949614179226346E+002	4.1338328E-001	-1.4014184E+000	0
4.6803522E+000	1.280290969608541E+002	-1.4033842E+000	-2.998458646041636E+002	4.2079896E-001	-1.4033247E+000	0
4.6040244E+000	1.282194969560442E+002	-1.4052880E+000	-3.052303400126057E+002	4.2893654E-001	-1.4052285E+000	0
4.5337310E+000	1.284099969512317E+002	-1.4071934E+000	-3.103830977091620E+002	4.3676907E-001	-1.4071336E+000	0
4.4744825E+000	1.286004969464193E+002	-1.4090489E+000	-3.149076636612717E+002	4.4372031E-001	-1.4090389E+000	0
4.4337640E+000	1.288005969413643E+002	-1.4111127E+000	-3.182651912521319E+002	4.4910803E-001	-1.4110401E+000	0
4.4192066E+000	1.290010969362993E+002	-1.4130831E+000	-3.197594622245174E+002	4.5184669E-001	-1.4130445E+000	0
4.3772302E+000	1.291915969314869E+002	-1.4150252E+000	-3.232695612770818E+002	4.5743459E-001	-1.4149495E+000	0
4.3289728E+000	1.293819969266769E+002	-1.4168953E+000	-3.273051988051807E+002	4.6375719E-001	-1.4168537E+000	0
4.2775249E+000	1.295725969218620E+002	-1.4188323E+000	-3.316946751552739E+002	4.7061911E-001	-1.4187597E+000	0
4.2178421E+000	1.297629969170521E+002	-1.4206624E+000	-3.368221039826140E+002	4.7851050E-001	-1.4206637E+000	0
4.1912007E+000	1.299432969124973E+002	-1.4225526E+000	-3.394140963164882E+002	4.8283440E-001	-1.4224668E+000	0
4.1419811E+000	1.301235969079426E+002	-1.4243029E+000	-3.438699730924318E+002	4.8977500E-001	-1.4242697E+000	0
4.0824227E+000	1.303142969031251E+002	-1.4262389E+000	-3.493608952685918E+002	4.9827209E-001	-1.4261763E+000	0
4.0346751E+000	1.305047968983126E+002	-1.4281330E+000	-3.539648065975939E+002	5.0550884E-001	-1.4280818E+000	0
3.9631851E+000	1.307052968932476E+002	-1.4301821E+000	-3.608668415173088E+002	5.1610529E-001	-1.4300866E+000	0
3.9199095E+000	1.309057968881825E+002	-1.4321474E+000	-3.653521542748822E+002	5.2323812E-001	-1.4320918E+000	0
3.8669672E+000	1.311062968831175E+002	-1.4341432E+000	-3.708702694991574E+002	5.3188109E-001	-1.4340966E+000	0
3.8312268E+000	1.313067968780524E+002	-1.4361510E+000	-3.748540806285982E+002	5.3834707E-001	-1.4361014E+000	0
3.7930665E+000	1.315073968729848E+002	-1.4381735E+000	-3.791585261752571E+002	5.4529577E-001	-1.4381078E+000	0
3.7736003E+000	1.316977968681749E+002	-1.4401321E+000	-3.816334630901856E+002	5.4960263E-001	-1.4400116E+000	0
3.7532258E+000	1.318881968633650E+002	-1.4419956E+000	-3.842016654427866E+002	5.5401713E-001	-1.4419159E+000	0
3.7160695E+000	1.320785968585551E+002	-1.4439348E+000	-3.885650704920085E+002	5.6106263E-001	-1.4438195E+000	0
3.6379271E+000	1.322690968537427E+002	-1.4458092E+000	-3.974266787206352E+002	5.7460314E-001	-1.4457244E+000	0
3.5953660E+000	1.324697968486726E+002	-1.4477876E+000	-4.026815687323242E+002	5.8299738E-001	-1.4477316E+000	0
3.5506785E+000	1.326602968438601E+002	-1.4497396E+000	-4.082992986956478E+002	5.9192765E-001	-1.4496362E+000	0
3.5078242E+000	1.328508968390452E+002	-1.4515835E+000	-4.138130659989292E+002	6.0068423E-001	-1.4515424E+000	0
3.4889152E+000	1.330511968339852E+002	-1.4536757E+000	-4.166555153290963E+002	6.0568202E-001	-1.4535463E+000	0
3.4726059E+000	1.332516968289201E+002	-1.4556504E+000	-4.191810173225895E+002	6.1018103E-001	-1.4555506E+000	0
3.4507861E+000	1.334520968238576E+002	-1.4577341E+000	-4.224353718270040E+002	6.1579847E-001	-1.4575548E+000	0
3.3720281E+000	1.336521968188026E+002	-1.4596543E+000	-4.328713506711592E+002	6.3184255E-001	-1.4595560E+000	0
3.3322353E+000	1.338521968137502E+002	-1.4616665E+000	-4.386444130938607E+002	6.4115185E-001	-1.4615561E+000	0
3.2811038E+000	1.340521968086978E+002	-1.4636496E+000	-4.460845136361295E+002	6.5291142E-001	-1.4635559E+000	0
3.2627132E+000	1.342521968036453E+002	-1.4656732E+000	-4.492191224390162E+002	6.5840840E-001	-1.4655560E+000	0
3.2576530E+000	1.344422967988430E+002	-1.4675772E+000	-4.505014103551689E+002	6.6114563E-001	-1.4674569E+000	0
3.2373402E+000	1.346321967940457E+002	-1.4695195E+000	-4.539280391809896E+002	6.6705608E-001	-1.4693559E+000	0
3.2033825E+000	1.348321967889933E+002	-1.4715000E+000	-4.593582012020806E+002	6.7594564E-001	-1.4713560E+000	0
3.1654334E+000	1.350321967839409E+002	-1.4734766E+000	-4.654897173105184E+002	6.8588823E-001	-1.4733559E+000	0
3.1144533E+000	1.352321967788885E+002	-1.4755224E+000	-4.737660832870040E+002	6.9905245E-001	-1.4753560E+000	0
3.0875080E+000	1.354321967738360E+002	-1.4775149E+000	-4.785460849640858E+002	7.0705897E-001	-1.4773561E+000	0
3.0632391E+000	1.356321967687836E+002	-1.4794666E+000	-4.829745712756021E+002	7.1454471E-001	-1.4793559E+000	0
3.0249760E+000	1.358321967637312E+002	-1.4815183E+000	-4.897620041862338E+002	7.2559136E-001	-1.4813560E+000	0
3.0055795E+000	1.360321967586788E+002	-1.4834572E+000	-4.935677984198719E+002	7.3218673E-001	-1.4833559E+000	0
2.9887400E+000	1.362321967536263E+002	-1.4854773E+000	-4.970246321879276E+002	7.3831880E-001	-1.4853560E+000	0
2.9721239E+000	1.364321967485739E+002	-1.4875519E+000	-5.005013284704837E+002	7.4452174E-001	-1.4873561E+000	0
2.9535975E+000	1.366321967435215E+002	-1.4894959E+000	-5.042988636293658E+002	7.5115108E-001	-1.4893559E+000	0
2.9290204E+000	1.368321967384691E+002	-1.4914969E+000	-5.092135844587483E+002	7.5949049E-001	-1.4913559E+000	0
2.9191589E+000	1.370321967334166E+002	-1.4935242E+000	-5.116282652381312E+002	7.6412922E-001	-1.4933559E+000	0
2.9172130E+000	1.372321967283642E+002	-1.4955050E+000	-5.126485629006045E+002	7.6666850E-001	-1.4953560E+000	0
2.9062214E+000	1.374221967235644E+002	-1.4974293E+000	-5.152495352623573E+002	7.7154970E-001	-1.4972558E+000	0
2.9078200E+000	1.376121967187646E+002	-1.4993491E+000	-5.156265467170160E+002	7.7310419E-001	-1.4991560E+000	0
2.8926296E+000	1.378121967137122E+002	-1.5013083E+000	-5.190115890286643E+002	7.7919644E-001	-1.5011560E+000	0
2.8890491E+000	1.380121967086598E+002	-1.5033268E+000	-5.203535122730832E+002	7.8226137E-001	-1.5031559E+000	0
2.8193078E+000	1.382121967036073E+002	-1.5052949E+000	-5.339235901129728E+002	8.0371249E-001	-1.5051560E+000	0
2.7868621E+000	1.384121966985549E+002	-1.5076765E+000	-5.409942827808627E+002	8.1564438E-001	-1.5071560E+000	0
2.7595425E+000	1.386121966935025E+002	-1.5098288E+000	-5.471301234541561E+002	8.2607281E-001	-1.5091560E+000	0
2.7446811E+000	1.388121966884501E+002	-1.5118204E+000	-5.508182498386950E+002	8.3273828E-001	-1.5111561E+000	0
2.7327204E+000	1.390121966833976E+002	-1.5137955E+000	-5.539518270514163E+002	8.3856976E-001	-1.5131559E+000	0
2.7377596E+000	1.392121966783452E+002	-1.5158556E+000	-5.536846990260933E+002	8.3930600E-001	-1.5151560E+000	0
2.7109125E+000	1.394121966732928E+002	-1.5178133E+000	-5.598901933855996E+002	8.4980881E-001	-1.5171560E+000	0
2.6861806E+000	1.396121966682404E+002	-1.5198423E+000	-5.658004558416178E+002	8.5992748E-001	-1.5191560E+000	0
2.6540053E+000	1.397421966649563E+002	-1.5211961E+000	-5.731699628051429E+002	8.7190396E-001	-1.5204557E+000	0
2.6498609E+000	1.397631966644258E+002	-1.5215509E+000	-5.742003173828125E+002	8.7367499E-001	-1.5208557E+000	1