EC-Lab ASCII FILE
Nb header lines : 63                          

Linear Sweep Voltammetry

Run on channel : 1 (SN 1340)
User : 
Electrode connection : standard
Potential control : Ewe
Ewe ctrl range : min = -5.00 V, max = 5.00 V
Ewe,I filtering : <None>
Safety Limits :
	Do not start on E overload
Channel : Floating
Acquisition started on : 02/19/2026 12:47:43.408
Technique started on : 02/19/2026 12:47:46.246
Loaded Setting File :  NONE
Saved on :
	File : PtPdCoNi_yellowtest_2-19_02_LSV_C01.mpr
	Directory : C:\Users\volt\Documents\Platalytix\
	Host : 127.0.0.1
Device : SP-200 (SN 0262)
Address : USB
EC-LAB for windows v11.60 (software)
Internet server v11.60 (firmware)
Command interpretor v11.60 (firmware)
Electrode material : PtPdNiCo
Initial state : 
Electrolyte : KOH (1 M)
Comments : 
Cable : standard
Reference electrode : Hg/HgO (0.140 V)
Electrode surface area : 1.000 cm˛
Characteristic mass : 0.001 g
Equivalent Weight : 0.000 g/eq.
Density : 0.000 g/cm3
Volume (V) : 0.001 cmł
Cycle Definition : Charge/Discharge alternance
tR (h:m:s)          0:00:5.0000         
dER/dt (mV/h)       0.0                 
dER (mV)            0                   
dtR (s)             0.0000              
dE/dt               10.000              
dE/dt unit          mV/s                
Ei (V)              -0.200              
vs.                 Ref                 
EL (V)              -2.000              
vs.                 Ref                 
record              <I>                 
dI                  0.000               
unit dI             µA                  
tI (s)              0.0000              
step percent        50                  
N                   10                  
E range min (V)     -5.000              
E range max (V)     5.000               
I Range             Auto                
I Range min         Unset               
I Range max         Unset               
I Range init        Unset               
Bandwidth           8                   

Rwe/Ohm	time/s	Ewe/V	<I>/mA	Pwe/W	control/V	error	
0.0000000E+000	2.838400134787662E+000	-1.6255170E-001	0.000000000000000E+000	0.0000000E+000	0.0000000E+000	0
0.0000000E+000	7.838200008482090E+000	-3.9645080E-002	0.000000000000000E+000	0.0000000E+000	-1.9990289E-001	0
4.6141089E+003	8.038200003429665E+000	-2.0167789E-001	-4.370895912870765E-002	8.8151310E-006	-2.0180267E-001	0
1.4184030E+003	8.158200000398210E+000	-2.0292209E-001	-1.430637868425373E-001	2.9030803E-005	-2.0300274E-001	0
1.4875035E+003	8.368199995093164E+000	-2.0501854E-001	-1.378272619803773E-001	2.8257144E-005	-2.0510273E-001	0
1.6120513E+003	8.568199990040739E+000	-2.0701587E-001	-1.284176756283624E-001	2.6584497E-005	-2.0710272E-001	0
1.7207740E+003	8.768199984988314E+000	-2.0898585E-001	-1.214487463945433E-001	2.5381070E-005	-2.0910273E-001	0
1.8150555E+003	8.968199979935889E+000	-2.1096598E-001	-1.162311368687353E-001	2.4520816E-005	-2.1110272E-001	0
1.8996660E+003	9.168199974883464E+000	-2.1298604E-001	-1.121176256209001E-001	2.3879489E-005	-2.1310273E-001	0
1.9778673E+003	9.368199969831039E+000	-2.1501330E-001	-1.087096660522546E-001	2.3374023E-005	-2.1510273E-001	0
2.0493049E+003	9.568199964778614E+000	-2.1701486E-001	-1.058968127580555E-001	2.2981183E-005	-2.1710271E-001	0
2.1148838E+003	9.768199959726189E+000	-2.1900648E-001	-1.035548482204274E-001	2.2679184E-005	-2.1910273E-001	0
2.1785679E+003	9.968199954673764E+000	-2.2103035E-001	-1.014567264661934E-001	2.2425016E-005	-2.2110273E-001	0
2.2405691E+003	1.016819994962134E+001	-2.2300646E-001	-9.953117231963027E-002	2.2196095E-005	-2.2310273E-001	0
2.2994187E+003	1.036819994456891E+001	-2.2503965E-001	-9.786805920535269E-002	2.2024193E-005	-2.2510271E-001	0
2.3552322E+003	1.056819993951649E+001	-2.2701174E-001	-9.638613945954466E-002	2.1880785E-005	-2.2710274E-001	0
2.4102637E+003	1.076819993446406E+001	-2.2901288E-001	-9.501569298604973E-002	2.1759817E-005	-2.2910272E-001	0
2.4633857E+003	1.096819992941164E+001	-2.3097885E-001	-9.376479350632350E-002	2.1657685E-005	-2.3110271E-001	0
2.5187566E+003	1.116819992435921E+001	-2.3306064E-001	-9.253003661702430E-002	2.1565111E-005	-2.3310274E-001	0
2.5694868E+003	1.136819991930679E+001	-2.3501933E-001	-9.146547007803196E-002	2.1496153E-005	-2.3510271E-001	0
2.6216399E+003	1.156819991425436E+001	-2.3703960E-001	-9.041653461796573E-002	2.1432299E-005	-2.3710272E-001	0
2.6715703E+003	1.176819990920194E+001	-2.3900086E-001	-8.946081280841356E-002	2.1381211E-005	-2.3910272E-001	0
2.7221804E+003	1.196819990414951E+001	-2.4100329E-001	-8.853318099652663E-002	2.1336788E-005	-2.4110273E-001	0
2.7693511E+003	1.216819989909709E+001	-2.4299808E-001	-8.774549337769177E-002	2.1321986E-005	-2.4310271E-001	0
2.8210825E+003	1.236819989404466E+001	-2.4505334E-001	-8.686500230789318E-002	2.1286558E-005	-2.4510272E-001	0
2.8696521E+003	1.256819988899224E+001	-2.4703054E-001	-8.608379239024258E-002	2.1265327E-005	-2.4710272E-001	0
2.9198457E+003	1.276819988393981E+001	-2.4903359E-001	-8.528997769469480E-002	2.1240068E-005	-2.4910271E-001	0
2.9693093E+003	1.296819987888739E+001	-2.5103325E-001	-8.454264170234715E-002	2.1223013E-005	-2.5110272E-001	0
3.0161357E+003	1.316819987383496E+001	-2.5298965E-001	-8.387873263379164E-002	2.1220450E-005	-2.5310272E-001	0
3.0674958E+003	1.336819986878254E+001	-2.5504956E-001	-8.314585097529059E-002	2.1206313E-005	-2.5510272E-001	0
3.1164570E+003	1.356819986373011E+001	-2.5702718E-001	-8.247415894693177E-002	2.1198101E-005	-2.5710273E-001	0
3.1651548E+003	1.376819985867769E+001	-2.5898570E-001	-8.182402020647633E-002	2.1191250E-005	-2.5910270E-001	0
3.2116550E+003	1.396819985362527E+001	-2.6099107E-001	-8.126372835058251E-002	2.1209107E-005	-2.6110274E-001	0
3.2615376E+003	1.416819984857284E+001	-2.6297906E-001	-8.063039369194824E-002	2.1204105E-005	-2.6310271E-001	0
3.3130105E+003	1.436819984352042E+001	-2.6496476E-001	-7.997703544168289E-002	2.1191096E-005	-2.6510274E-001	0
3.3611074E+003	1.456819983846799E+001	-2.6703489E-001	-7.944848295037210E-002	2.1215517E-005	-2.6710272E-001	0
3.4107434E+003	1.476819983341557E+001	-2.6901776E-001	-7.887364152709112E-002	2.1218410E-005	-2.6910272E-001	0
3.4595923E+003	1.496819982836314E+001	-2.7097034E-001	-7.832435706721164E-002	2.1223577E-005	-2.7110273E-001	0
3.5115710E+003	1.516819982331072E+001	-2.7299523E-001	-7.774162103048177E-002	2.1223092E-005	-2.7310270E-001	0
3.5615825E+003	1.536819981825829E+001	-2.7502358E-001	-7.721948637648181E-002	2.1237180E-005	-2.7510273E-001	0
3.6110798E+003	1.556819981320587E+001	-2.7700201E-001	-7.670891123492263E-002	2.1248523E-005	-2.7710274E-001	0
3.6619871E+003	1.576819980815344E+001	-2.7900723E-001	-7.619011585543656E-002	2.1257592E-005	-2.7910274E-001	0
3.7146304E+003	1.596819980310102E+001	-2.8102425E-001	-7.565335267225515E-002	2.1260426E-005	-2.8110272E-001	0
3.7658728E+003	1.616819979804859E+001	-2.8297919E-001	-7.514305544178723E-002	2.1263921E-005	-2.8310272E-001	0
3.8157874E+003	1.636819979299617E+001	-2.8500834E-001	-7.469188210938760E-002	2.1287809E-005	-2.8510273E-001	0
3.8674453E+003	1.656819978794374E+001	-2.8702033E-001	-7.421444871044680E-002	2.1301055E-005	-2.8710273E-001	0
3.9179731E+003	1.676819978289132E+001	-2.8900555E-001	-7.376404671165293E-002	2.1318219E-005	-2.8910270E-001	0
3.9738250E+003	1.696819977783889E+001	-2.9101819E-001	-7.323377026147848E-002	2.1312359E-005	-2.9110271E-001	0
4.0235120E+003	1.716819977278647E+001	-2.9299876E-001	-7.282164713627598E-002	2.1336653E-005	-2.9310271E-001	0
4.0778506E+003	1.736819976773404E+001	-2.9500097E-001	-7.234226917698024E-002	2.1341040E-005	-2.9510272E-001	0
4.1277373E+003	1.756819976268162E+001	-2.9702079E-001	-7.195728879354357E-002	2.1372811E-005	-2.9710272E-001	0
4.1807256E+003	1.776819975762919E+001	-2.9901496E-001	-7.152226646304077E-002	2.1386228E-005	-2.9910275E-001	0
4.2275000E+003	1.796819975257677E+001	-3.0105683E-001	-7.121391549902845E-002	2.1439435E-005	-3.0110270E-001	0
4.2826406E+003	1.816819974752434E+001	-3.0303636E-001	-7.075923168134191E-002	2.1442620E-005	-3.0310273E-001	0
4.3311768E+003	1.836819974247192E+001	-3.0498615E-001	-7.041646417097314E-002	2.1476046E-005	-3.0510274E-001	0
4.3879136E+003	1.856819973741949E+001	-3.0704376E-001	-6.997488655546991E-002	2.1485352E-005	-3.0710271E-001	0
4.4370225E+003	1.876819973236707E+001	-3.0903769E-001	-6.964979251760078E-002	2.1524411E-005	-3.0910271E-001	0
4.4829883E+003	1.896819972731464E+001	-3.1097627E-001	-6.936807239474602E-002	2.1571825E-005	-3.1110272E-001	0
4.5409170E+003	1.916819972226222E+001	-3.1302476E-001	-6.893426260135893E-002	2.1578131E-005	-3.1310272E-001	0
4.5887637E+003	1.936819971720979E+001	-3.1503800E-001	-6.865421791672899E-002	2.1628688E-005	-3.1510273E-001	0
4.6410781E+003	1.956819971215737E+001	-3.1701812E-001	-6.830700258502631E-002	2.1654558E-005	-3.1710273E-001	0
4.6915566E+003	1.976819970710494E+001	-3.1902418E-001	-6.799964022309524E-002	2.1693530E-005	-3.1910273E-001	0
4.7375879E+003	1.996819970205252E+001	-3.2101983E-001	-6.776018319820420E-002	2.1752363E-005	-3.2110274E-001	0
4.7935405E+003	2.016819969700009E+001	-3.2302544E-001	-6.738765377502731E-002	2.1767926E-005	-3.2310271E-001	0
4.8347378E+003	2.036819969194767E+001	-3.2501593E-001	-6.722514292113324E-002	2.1849242E-005	-3.2510272E-001	0
4.8921406E+003	2.056819968689524E+001	-3.2700226E-001	-6.684236876009786E-002	2.1857606E-005	-3.2710272E-001	0
4.9389912E+003	2.076819968184282E+001	-3.2907596E-001	-6.662817352109263E-002	2.1925731E-005	-3.2910272E-001	0
4.9875566E+003	2.096819967679039E+001	-3.3098421E-001	-6.636199515361474E-002	2.1964772E-005	-3.3110273E-001	0
5.0460723E+003	2.116819967173797E+001	-3.3300763E-001	-6.599343050737971E-002	2.1976317E-005	-3.3310273E-001	0
5.0868062E+003	2.136819966668554E+001	-3.3498353E-001	-6.585340803941020E-002	2.2059807E-005	-3.3510274E-001	0
5.1405713E+003	2.156819966163312E+001	-3.3712393E-001	-6.558102394650578E-002	2.2108932E-005	-3.3710274E-001	0
5.1773955E+003	2.176819965658069E+001	-3.3900455E-001	-6.547781795869384E-002	2.2197279E-005	-3.3910275E-001	0
5.2333467E+003	2.196819965152827E+001	-3.4103882E-001	-6.516649078761483E-002	2.2224303E-005	-3.4110275E-001	0
5.2800166E+003	2.216819964647584E+001	-3.4300172E-001	-6.496224626888208E-002	2.2282162E-005	-3.4310272E-001	0
5.3211895E+003	2.236819964142342E+001	-3.4502563E-001	-6.483994319067743E-002	2.2371441E-005	-3.4510273E-001	0
5.3742700E+003	2.256819963637099E+001	-3.4708151E-001	-6.458207412967121E-002	2.2415245E-005	-3.4710270E-001	0
5.4128325E+003	2.276819963131857E+001	-3.4902456E-001	-6.448094650275182E-002	2.2505434E-005	-3.4910274E-001	0
5.4591099E+003	2.296819962626614E+001	-3.5103032E-001	-6.430175034023078E-002	2.2571863E-005	-3.5110271E-001	0
5.4982441E+003	2.316819962121372E+001	-3.5302004E-001	-6.420596145080770E-002	2.2665990E-005	-3.5310271E-001	0
5.5416084E+003	2.336819961616129E+001	-3.5504520E-001	-6.406897940734169E-002	2.2747383E-005	-3.5510275E-001	0
5.5904033E+003	2.356819961110887E+001	-3.5704145E-001	-6.386684872317749E-002	2.2803111E-005	-3.5710272E-001	0
5.6282153E+003	2.376819960605644E+001	-3.5900357E-001	-6.378639364338423E-002	2.2899543E-005	-3.5910276E-001	0
5.6775854E+003	2.396819960100402E+001	-3.6107177E-001	-6.359600910469199E-002	2.2962724E-005	-3.6110273E-001	0
5.7089731E+003	2.416819959595159E+001	-3.6305979E-001	-6.359458912920002E-002	2.3088638E-005	-3.6310276E-001	0
5.7519897E+003	2.436819959089917E+001	-3.6498863E-001	-6.345432387800065E-002	2.3160106E-005	-3.6510274E-001	0
5.7885732E+003	2.456819958584674E+001	-3.6701691E-001	-6.340368979878708E-002	2.3270226E-005	-3.6710271E-001	0
5.8248687E+003	2.476819958079432E+001	-3.6904439E-001	-6.335668973762001E-002	2.3381432E-005	-3.6910275E-001	0
5.8629561E+003	2.496819957574189E+001	-3.7098590E-001	-6.327625525093161E-002	2.3474598E-005	-3.7110272E-001	0
5.8911733E+003	2.516819957068947E+001	-3.7298259E-001	-6.331210544484900E-002	2.3614313E-005	-3.7310272E-001	0
5.9294199E+003	2.536819956563704E+001	-3.7502491E-001	-6.324816348090290E-002	2.3719636E-005	-3.7510273E-001	0
5.9571934E+003	2.556819956058462E+001	-3.7701523E-001	-6.328739364137337E-002	2.3860312E-005	-3.7710273E-001	0
5.9930293E+003	2.576819955553219E+001	-3.7902746E-001	-6.324472190081548E-002	2.3971486E-005	-3.7910271E-001	0
6.0205479E+003	2.596819955047977E+001	-3.8104957E-001	-6.329151389638876E-002	2.4117204E-005	-3.8110274E-001	0
6.0545952E+003	2.616819954542734E+001	-3.8303083E-001	-6.326283304899283E-002	2.4231616E-005	-3.8310272E-001	0
6.0829404E+003	2.636819954037492E+001	-3.8502225E-001	-6.329541602604888E-002	2.4370143E-005	-3.8510275E-001	0
6.1067563E+003	2.656819953532249E+001	-3.8702184E-001	-6.337600881328842E-002	2.4527899E-005	-3.8710272E-001	0
6.1362822E+003	2.676819953027007E+001	-3.8910243E-001	-6.341012522088305E-002	2.4673034E-005	-3.8910276E-001	0
6.1552163E+003	2.696819952521764E+001	-3.9097667E-001	-6.351956494296163E-002	2.4834668E-005	-3.9110270E-001	0
6.1857993E+003	2.716819952016522E+001	-3.9301774E-001	-6.353547940898663E-002	2.4970570E-005	-3.9310277E-001	0
6.2099805E+003	2.736819951511279E+001	-3.9503077E-001	-6.361223739421890E-002	2.5128791E-005	-3.9510274E-001	0
6.2303057E+003	2.756819951006037E+001	-3.9699987E-001	-6.372077018392103E-002	2.5297137E-005	-3.9710274E-001	0
6.2489893E+003	2.776819950500794E+001	-3.9899597E-001	-6.384967779687867E-002	2.5475763E-005	-3.9910275E-001	0
6.2674917E+003	2.796819949995552E+001	-4.0100455E-001	-6.398166637063069E-002	2.5656940E-005	-4.0110278E-001	0
6.2912368E+003	2.816819949490309E+001	-4.0304175E-001	-6.406399065601232E-002	2.5820464E-005	-4.0310273E-001	0
6.3032744E+003	2.836819948985067E+001	-4.0500921E-001	-6.425377890117068E-002	2.6023372E-005	-4.0510276E-001	0
6.3293667E+003	2.856819948479824E+001	-4.0701860E-001	-6.430636841461657E-002	2.6173888E-005	-4.0710279E-001	0
6.3383042E+003	2.876819947974582E+001	-4.0904123E-001	-6.453480727467986E-002	2.6397396E-005	-4.0910277E-001	0
6.3529468E+003	2.896819947469339E+001	-4.1099292E-001	-6.469327297173605E-002	2.6588477E-005	-4.1110274E-001	0
6.3672349E+003	2.916819946964097E+001	-4.1307956E-001	-6.487581812060705E-002	2.6798874E-005	-4.1310278E-001	0
6.3779663E+003	2.936819946458854E+001	-4.1506588E-001	-6.507809300402234E-002	2.7011696E-005	-4.1510275E-001	0
6.3935039E+003	2.956819945953612E+001	-4.1708574E-001	-6.523586206228960E-002	2.7208947E-005	-4.1710275E-001	0
6.4006191E+003	2.976819945448369E+001	-4.1907430E-001	-6.547402502554983E-002	2.7438480E-005	-4.1910276E-001	0
6.4145181E+003	2.996819944943127E+001	-4.2109355E-001	-6.564695143685695E-002	2.7643508E-005	-4.2110276E-001	0
6.4262861E+003	3.016819944437884E+001	-4.2309111E-001	-6.583757753813407E-002	2.7855294E-005	-4.2310274E-001	0
6.4389829E+003	3.036819943932642E+001	-4.2510006E-001	-6.601975157977327E-002	2.8065000E-005	-4.2510271E-001	0
6.4510962E+003	3.056819943427399E+001	-4.2706090E-001	-6.619974166522302E-002	2.8271321E-005	-4.2710274E-001	0
6.4514707E+003	3.076819942922157E+001	-4.2903873E-001	-6.650246753855765E-002	2.8532135E-005	-4.2910278E-001	0
6.4619517E+003	3.096819942416914E+001	-4.3114030E-001	-6.671982765189277E-002	2.8765608E-005	-4.3110275E-001	0
6.4739458E+003	3.116819941911672E+001	-4.3303850E-001	-6.688942247315377E-002	2.8965695E-005	-4.3310273E-001	0
6.4823179E+003	3.136819941406429E+001	-4.3506387E-001	-6.711548027506442E-002	2.9199520E-005	-4.3510276E-001	0
6.4869404E+003	3.156819940901187E+001	-4.3706691E-001	-6.737643420324574E-002	2.9448011E-005	-4.3710271E-001	0
6.4942295E+003	3.176819940395944E+001	-4.3906659E-001	-6.760872881901761E-002	2.9684734E-005	-4.3910277E-001	0
6.5089658E+003	3.196819939890702E+001	-4.4102955E-001	-6.775723588853544E-002	2.9882944E-005	-4.4110277E-001	0
6.5163281E+003	3.216819939385459E+001	-4.4309926E-001	-6.799830542402138E-002	3.0129999E-005	-4.4310278E-001	0
6.5213350E+003	3.236819938880217E+001	-4.4506940E-001	-6.824820245565433E-002	3.0375186E-005	-4.4510272E-001	0
6.5368315E+003	3.256819938374974E+001	-4.4708496E-001	-6.839475103615944E-002	3.0578263E-005	-4.4710276E-001	0
6.5455132E+003	3.276819937869732E+001	-4.4906819E-001	-6.860702603214908E-002	3.0809231E-005	-4.4910279E-001	0
6.5444165E+003	3.296819937364489E+001	-4.5105723E-001	-6.892245030347377E-002	3.1087970E-005	-4.5110273E-001	0
6.5628413E+003	3.316819936859247E+001	-4.5304352E-001	-6.903161297926053E-002	3.1274325E-005	-4.5310274E-001	0
6.5734673E+003	3.336819936354004E+001	-4.5505339E-001	-6.922577910205518E-002	3.1501426E-005	-4.5510277E-001	0
6.5841694E+003	3.356819935848762E+001	-4.5709273E-001	-6.942299194792323E-002	3.1732747E-005	-4.5710275E-001	0
6.5873296E+003	3.376819935343519E+001	-4.5908242E-001	-6.969173212510318E-002	3.1994248E-005	-4.5910275E-001	0
6.6046938E+003	3.396819934838277E+001	-4.6108183E-001	-6.981123220217732E-002	3.2188691E-005	-4.6110278E-001	0
6.6130728E+003	3.416819934333034E+001	-4.6306455E-001	-7.002260298003549E-002	3.2424985E-005	-4.6310276E-001	0
6.6230386E+003	3.436819933827792E+001	-4.6499142E-001	-7.020817171832960E-002	3.2646196E-005	-4.6510273E-001	0
6.6404282E+003	3.456819933322549E+001	-4.6708363E-001	-7.033938667293449E-002	3.2854376E-005	-4.6710277E-001	0
6.6557642E+003	3.476819932817307E+001	-4.6905059E-001	-7.047283576797164E-002	3.3055327E-005	-4.6910280E-001	0
6.6662681E+003	3.496819932312064E+001	-4.7105750E-001	-7.066284980130733E-002	3.3286266E-005	-4.7110274E-001	0
6.6819385E+003	3.516819931806822E+001	-4.7304532E-001	-7.079462210073362E-002	3.3489065E-005	-4.7310275E-001	0
6.6984824E+003	3.536819931301579E+001	-4.7504768E-001	-7.091869996721278E-002	3.3689765E-005	-4.7510278E-001	0
6.7188604E+003	3.556819930796337E+001	-4.7706136E-001	-7.100331618465350E-002	3.3872937E-005	-4.7710276E-001	0
6.7394795E+003	3.576819930291094E+001	-4.7907844E-001	-7.108537800179232E-002	3.4055472E-005	-4.7910276E-001	0
6.7570967E+003	3.596819929785852E+001	-4.8106390E-001	-7.119387497306051E-002	3.4248802E-005	-4.8110276E-001	0
6.7780425E+003	3.616819929280609E+001	-4.8305339E-001	-7.126738761008922E-002	3.4425953E-005	-4.8310277E-001	0
6.7963784E+003	3.636819928775367E+001	-4.8506665E-001	-7.137134023773084E-002	3.4619858E-005	-4.8510274E-001	0
6.8239463E+003	3.656819928270124E+001	-4.8707247E-001	-7.137694936182314E-002	3.4765748E-005	-4.8710272E-001	0
6.8527764E+003	3.676819927764882E+001	-4.8904604E-001	-7.136465603530048E-002	3.4900600E-005	-4.8910275E-001	0
6.8713066E+003	3.696819927259639E+001	-4.9101093E-001	-7.145815837099856E-002	3.5086738E-005	-4.9110278E-001	0
6.8957148E+003	3.716819926754397E+001	-4.9306199E-001	-7.150266468292610E-002	3.5255245E-005	-4.9310273E-001	0
6.9223501E+003	3.736819926249154E+001	-4.9499562E-001	-7.150687439348202E-002	3.5395591E-005	-4.9510276E-001	0
6.9561157E+003	3.756819925743912E+001	-4.9704027E-001	-7.145370699385023E-002	3.5515372E-005	-4.9710277E-001	0
6.9851040E+003	3.776819925238669E+001	-4.9909890E-001	-7.145189406411484E-002	3.5661560E-005	-4.9910271E-001	0
7.0140947E+003	3.796819924733427E+001	-5.0105447E-001	-7.143536988907662E-002	3.5793011E-005	-5.0110275E-001	0
7.0586582E+003	3.816819924228184E+001	-5.0305778E-001	-7.126818845141525E-002	3.5852016E-005	-5.0310278E-001	0
7.0755718E+003	3.836819923722942E+001	-5.0502604E-001	-7.137600473200023E-002	3.6046742E-005	-5.0510275E-001	0
7.1163340E+003	3.856819923217699E+001	-5.0705242E-001	-7.125191327528640E-002	3.6128455E-005	-5.0710273E-001	0
7.1571343E+003	3.876819922712457E+001	-5.0904679E-001	-7.112438950102670E-002	3.6205642E-005	-5.0910276E-001	0
7.2008999E+003	3.896819922207214E+001	-5.1106238E-001	-7.097201834933270E-002	3.6271129E-005	-5.1110274E-001	0
7.2328530E+003	3.916819921701972E+001	-5.1303977E-001	-7.093186616525926E-002	3.6390869E-005	-5.1310277E-001	0
7.2753486E+003	3.936819921196729E+001	-5.1509380E-001	-7.079987800542831E-002	3.6468580E-005	-5.1510274E-001	0
7.3075186E+003	3.956819920691487E+001	-5.1704443E-001	-7.075512916685955E-002	3.6583544E-005	-5.1710278E-001	0
7.3535313E+003	3.976819920186244E+001	-5.1908505E-001	-7.058989958860834E-002	3.6642163E-005	-5.1910281E-001	0
7.4009854E+003	3.996819919681002E+001	-5.2107775E-001	-7.040653874265557E-002	3.6687281E-005	-5.2110273E-001	0
7.4402344E+003	4.016819919175759E+001	-5.2306616E-001	-7.030237715505505E-002	3.6772795E-005	-5.2310276E-001	0
7.4860713E+003	4.036819918670517E+001	-5.2506351E-001	-7.013872954065226E-002	3.6827289E-005	-5.2510279E-001	0
7.5275098E+003	4.056819918165274E+001	-5.2704996E-001	-7.001651169799794E-002	3.6902198E-005	-5.2710271E-001	0
7.5850063E+003	4.076819917660032E+001	-5.2911526E-001	-6.975805234689858E-002	3.6910049E-005	-5.2910280E-001	0
7.6233008E+003	4.096819917154789E+001	-5.3102982E-001	-6.965877895049155E-002	3.6990888E-005	-5.3110278E-001	0
7.6724370E+003	4.116819916649547E+001	-5.3307432E-001	-6.947913824669283E-002	3.7037546E-005	-5.3310281E-001	0
7.7258271E+003	4.136819916144304E+001	-5.3502524E-001	-6.925151419304232E-002	3.7051308E-005	-5.3510273E-001	0
7.7681104E+003	4.156819915639062E+001	-5.3705239E-001	-6.913552550776403E-002	3.7129401E-005	-5.3710276E-001	0
7.8209097E+003	4.176819915133819E+001	-5.3906310E-001	-6.892588159096902E-002	3.7155398E-005	-5.3910279E-001	0
7.8749990E+003	4.196819914628577E+001	-5.4106146E-001	-6.870622693269590E-002	3.7174290E-005	-5.4110271E-001	0
7.9285225E+003	4.216819914123334E+001	-5.4309958E-001	-6.849947031597936E-002	3.7202033E-005	-5.4310274E-001	0
7.9769790E+003	4.236819913618092E+001	-5.4502201E-001	-6.832436305183553E-002	3.7238282E-005	-5.4510278E-001	0
8.0205918E+003	4.256819913112849E+001	-5.4711276E-001	-6.821351371918827E-002	3.7320486E-005	-5.4710275E-001	0
8.0785654E+003	4.276819912607607E+001	-5.4907161E-001	-6.796647602842201E-002	3.7318463E-005	-5.4910278E-001	0
8.1425620E+003	4.296819912102364E+001	-5.5104989E-001	-6.767524713323020E-002	3.7292437E-005	-5.5110276E-001	0
8.1988086E+003	4.316819911597122E+001	-5.5305630E-001	-6.745569462478235E-002	3.7306796E-005	-5.5310285E-001	0
8.2482861E+003	4.336819911091879E+001	-5.5505770E-001	-6.729369833294641E-002	3.7351885E-005	-5.5510277E-001	0
8.2953486E+003	4.356819910586637E+001	-5.5705762E-001	-6.715300632271154E-002	3.7408096E-005	-5.5710274E-001	0
8.3563428E+003	4.376819910081394E+001	-5.5910796E-001	-6.690821542284264E-002	3.7408914E-005	-5.5910277E-001	0
8.4159209E+003	4.396819909576152E+001	-5.6102937E-001	-6.666286231774643E-002	3.7399823E-005	-5.6110269E-001	0
8.4759248E+003	4.416819909070909E+001	-5.6308502E-001	-6.643346107201631E-002	3.7407688E-005	-5.6310278E-001	0
8.5235488E+003	4.436819908565667E+001	-5.6502616E-001	-6.629001550838942E-002	3.7455593E-005	-5.6510282E-001	0
8.5866904E+003	4.456819908060425E+001	-5.6706488E-001	-6.603998091080265E-002	3.7448954E-005	-5.6710279E-001	0
8.6320879E+003	4.476819907555182E+001	-5.6902760E-001	-6.592003950720376E-002	3.7510323E-005	-5.6910276E-001	0
8.7006504E+003	4.496819907049940E+001	-5.7102817E-001	-6.563051923942620E-002	3.7476875E-005	-5.7110274E-001	0
8.7491416E+003	4.516819906544697E+001	-5.7300270E-001	-6.549245051885455E-002	3.7527352E-005	-5.7310283E-001	0
8.8093330E+003	4.536819906039455E+001	-5.7507712E-001	-6.528043859403876E-002	3.7541286E-005	-5.7510269E-001	0
8.8706143E+003	4.556819905534212E+001	-5.7707703E-001	-6.505491079122705E-002	3.7541693E-005	-5.7710272E-001	0
8.9231055E+003	4.576819905028970E+001	-5.7903361E-001	-6.489148864452876E-002	3.7574355E-005	-5.7910281E-001	0
8.9762471E+003	4.596819904523727E+001	-5.8107972E-001	-6.473526552629960E-002	3.7616352E-005	-5.8110273E-001	0
9.0283008E+003	4.616819904018485E+001	-5.8304650E-001	-6.457986741415439E-002	3.7653066E-005	-5.8310276E-001	0
9.0967051E+003	4.636819903513242E+001	-5.8507502E-001	-6.431724816611406E-002	3.7630416E-005	-5.8510274E-001	0
9.1468008E+003	4.656819903008000E+001	-5.8702999E-001	-6.417871996403457E-002	3.7674832E-005	-5.8710277E-001	0
9.1970781E+003	4.676819902502757E+001	-5.8903748E-001	-6.404615433721927E-002	3.7725586E-005	-5.8910275E-001	0
9.2590947E+003	4.696819901997515E+001	-5.9104288E-001	-6.383376491579174E-002	3.7728492E-005	-5.9110278E-001	0
9.3172617E+003	4.716819901492272E+001	-5.9305334E-001	-6.365103434925479E-002	3.7748458E-005	-5.9310281E-001	0
9.3736777E+003	4.736819900987030E+001	-5.9500360E-001	-6.347600582304946E-002	3.7768452E-005	-5.9510273E-001	0
9.4225420E+003	4.756819900481787E+001	-5.9707963E-001	-6.336715016165584E-002	3.7835234E-005	-5.9710276E-001	0
9.4768086E+003	4.776819899976545E+001	-5.9915060E-001	-6.322282337839091E-002	3.7879992E-005	-5.9910280E-001	0
9.5190049E+003	4.796819899471302E+001	-6.0110509E-001	-6.314789433224471E-002	3.7958522E-005	-6.0110277E-001	0
9.5810430E+003	4.816819898966060E+001	-6.0306847E-001	-6.294392872508803E-002	3.7959500E-005	-6.0310274E-001	0
9.6391250E+003	4.836819898460817E+001	-6.0503888E-001	-6.276906460952314E-002	3.7977723E-005	-6.0510278E-001	0
9.6860381E+003	4.856819897955575E+001	-6.0703260E-001	-6.267088424211642E-002	3.8043268E-005	-6.0710281E-001	0
9.7522354E+003	4.876819897450332E+001	-6.0903537E-001	-6.245084729018124E-002	3.8034774E-005	-6.0910273E-001	0
9.7978115E+003	4.896819896945090E+001	-6.1101985E-001	-6.236289269417594E-002	3.8104965E-005	-6.1110270E-001	0
9.8467705E+003	4.916819896439847E+001	-6.1310142E-001	-6.226421252490699E-002	3.8174276E-005	-6.1310279E-001	0
9.9015557E+003	4.936819895934605E+001	-6.1503929E-001	-6.211541829812361E-002	3.8203423E-005	-6.1510271E-001	0
9.9414951E+003	4.956819895429362E+001	-6.1706829E-001	-6.206996992542990E-002	3.8301408E-005	-6.1710274E-001	0
9.9906797E+003	4.976819894924120E+001	-6.1908430E-001	-6.196618619609351E-002	3.8362294E-005	-6.1910278E-001	0
1.0045934E+004	4.996819894418877E+001	-6.2104809E-001	-6.182084427122236E-002	3.8393719E-005	-6.2110281E-001	0
1.0091002E+004	5.016819893913635E+001	-6.2305373E-001	-6.174349630105802E-002	3.8469516E-005	-6.2310272E-001	0
1.0142707E+004	5.036819893408392E+001	-6.2506849E-001	-6.162738463843476E-002	3.8521335E-005	-6.2510276E-001	0
1.0181356E+004	5.056819892903150E+001	-6.2703663E-001	-6.158674735409053E-002	3.8617145E-005	-6.2710279E-001	0
1.0229090E+004	5.076819892397907E+001	-6.2912339E-001	-6.150336167775101E-002	3.8693204E-005	-6.2910277E-001	0
1.0271189E+004	5.096819891892665E+001	-6.3108379E-001	-6.144213109845287E-002	3.8775132E-005	-6.3110274E-001	0
1.0310446E+004	5.116819891387422E+001	-6.3311088E-001	-6.140480026847750E-002	3.8876045E-005	-6.3310277E-001	0
1.0361174E+004	5.136819890882180E+001	-6.3502449E-001	-6.128885391033145E-002	3.8919923E-005	-6.3510281E-001	0
1.0398189E+004	5.156819890376937E+001	-6.3706791E-001	-6.126719533387681E-002	3.9031365E-005	-6.3710278E-001	0
1.0450265E+004	5.176819889871695E+001	-6.3904154E-001	-6.115075055659758E-002	3.9077870E-005	-6.3910276E-001	0
1.0486209E+004	5.196819889366452E+001	-6.4112735E-001	-6.114005163478775E-002	3.9198560E-005	-6.4110279E-001	0
1.0517338E+004	5.216819888861210E+001	-6.4310557E-001	-6.114717921803867E-002	3.9324092E-005	-6.4310277E-001	0
1.0570802E+004	5.236819888355967E+001	-6.4510435E-001	-6.102700375839909E-002	3.9368784E-005	-6.4510274E-001	0
1.0594763E+004	5.256819887850725E+001	-6.4709920E-001	-6.107726899480426E-002	3.9523053E-005	-6.4710277E-001	0
1.0627813E+004	5.276819887345482E+001	-6.4908999E-001	-6.107465744856955E-002	3.9642950E-005	-6.4910281E-001	0
1.0678818E+004	5.296819886840240E+001	-6.5107048E-001	-6.096840043797191E-002	3.9694725E-005	-6.5110272E-001	0
1.0715212E+004	5.316819886334997E+001	-6.5308565E-001	-6.094939071873040E-002	3.9805171E-005	-6.5310276E-001	0
1.0745005E+004	5.336819885829755E+001	-6.5505153E-001	-6.096335385066554E-002	3.9934137E-005	-6.5510285E-001	0
1.0780069E+004	5.356819885324512E+001	-6.5707141E-001	-6.095243102497083E-002	4.0050101E-005	-6.5710276E-001	0
1.0825890E+004	5.376819884819270E+001	-6.5910572E-001	-6.088236334117013E-002	4.0127914E-005	-6.5910274E-001	0
1.0855186E+004	5.396819884314027E+001	-6.6108352E-001	-6.090025291693668E-002	4.0260154E-005	-6.6110277E-001	0
1.0873260E+004	5.416819883808785E+001	-6.6313308E-001	-6.098751527470569E-002	4.0442839E-005	-6.6310281E-001	0
1.0919151E+004	5.436819883303542E+001	-6.6505587E-001	-6.090728757172259E-002	4.0506748E-005	-6.6510272E-001	0
1.0949175E+004	5.456819882798300E+001	-6.6712648E-001	-6.092938558777161E-002	4.0647607E-005	-6.6710275E-001	0
1.0982800E+004	5.476819882293057E+001	-6.6904783E-001	-6.091778492766209E-002	4.0756913E-005	-6.6910279E-001	0
1.1015650E+004	5.496819881787815E+001	-6.7110163E-001	-6.092256310980862E-002	4.0885232E-005	-6.7110270E-001	0
1.1033433E+004	5.516819881282572E+001	-6.7304587E-001	-6.100058942070200E-002	4.1056195E-005	-6.7310280E-001	0
1.1060245E+004	5.536819880777330E+001	-6.7507434E-001	-6.103611266073661E-002	4.1203912E-005	-6.7510277E-001	0
1.1093799E+004	5.556819880272087E+001	-6.7705905E-001	-6.103040480430844E-002	4.1321189E-005	-6.7710280E-001	0
1.1118385E+004	5.576819879766845E+001	-6.7898911E-001	-6.106904370534982E-002	4.1465217E-005	-6.7910272E-001	0
1.1136378E+004	5.596819879261602E+001	-6.8109620E-001	-6.115958161383894E-002	4.1655559E-005	-6.8110275E-001	0
1.1166292E+004	5.616819878756360E+001	-6.8303978E-001	-6.116979684714496E-002	4.1781404E-005	-6.8310285E-001	0
1.1191396E+004	5.636819878251117E+001	-6.8508238E-001	-6.121510074393688E-002	4.1937386E-005	-6.8510270E-001	0
1.1212134E+004	5.656819877745875E+001	-6.8710786E-001	-6.128252171087700E-002	4.2107702E-005	-6.8710274E-001	0
1.1233731E+004	5.676819877240632E+001	-6.8908930E-001	-6.134108561798590E-002	4.2269487E-005	-6.8910283E-001	0
1.1264463E+004	5.696819876735390E+001	-6.9104779E-001	-6.134760374247639E-002	4.2394127E-005	-6.9110274E-001	0
1.1279650E+004	5.716819876230147E+001	-6.9313896E-001	-6.145039207118280E-002	4.2593660E-005	-6.9310272E-001	0
1.1293196E+004	5.736819875724905E+001	-6.9505304E-001	-6.154617487163583E-002	4.2777858E-005	-6.9510281E-001	0
1.1318480E+004	5.756819875219662E+001	-6.9710070E-001	-6.158960106900868E-002	4.2934153E-005	-6.9710290E-001	0
1.1328031E+004	5.776819874714420E+001	-6.9900209E-001	-6.170552006981811E-002	4.3132288E-005	-6.9910276E-001	0
1.1345690E+004	5.796819874209177E+001	-7.0109457E-001	-6.179390986694966E-002	4.3323376E-005	-7.0110273E-001	0
1.1354442E+004	5.816819873703935E+001	-7.0303571E-001	-6.191723770937134E-002	4.3530028E-005	-7.0310283E-001	0
1.1393435E+004	5.836819873198692E+001	-7.0502949E-001	-6.188033217545197E-002	4.3627460E-005	-7.0510274E-001	0
1.1404515E+004	5.856819872693450E+001	-7.0707357E-001	-6.199944593633200E-002	4.3838168E-005	-7.0710278E-001	0
1.1408516E+004	5.876819872188207E+001	-7.0908004E-001	-6.215357796876111E-002	4.4071861E-005	-7.0910281E-001	0
1.1435297E+004	5.896819871682965E+001	-7.1108276E-001	-6.218314857555801E-002	4.4217366E-005	-7.1110278E-001	0
1.1450468E+004	5.916819871177722E+001	-7.1305865E-001	-6.227331933757596E-002	4.4404529E-005	-7.1310276E-001	0
1.1450251E+004	5.936819870672480E+001	-7.1505702E-001	-6.244902389257068E-002	4.4654611E-005	-7.1510273E-001	0
1.1467020E+004	5.956819870167237E+001	-7.1703374E-001	-6.253008731237530E-002	4.4836182E-005	-7.1710289E-001	0
1.1458436E+004	5.976819869661995E+001	-7.1908045E-001	-6.275555436803487E-002	4.5126293E-005	-7.1910280E-001	0
1.1466728E+004	5.996819869156752E+001	-7.2110891E-001	-6.288707235568257E-002	4.5348428E-005	-7.2110277E-001	0
1.1482358E+004	6.016819868651510E+001	-7.2308642E-001	-6.297368679698256E-002	4.5535417E-005	-7.2310281E-001	0
1.1486306E+004	6.036819868146267E+001	-7.2505265E-001	-6.312322475770027E-002	4.5767662E-005	-7.2510272E-001	0
1.1503792E+004	6.056819867641025E+001	-7.2707522E-001	-6.320309069729868E-002	4.5953402E-005	-7.2710282E-001	0
1.1508930E+004	6.076819867135782E+001	-7.2906387E-001	-6.334766668273889E-002	4.6184494E-005	-7.2910279E-001	0
1.1514221E+004	6.096819866630540E+001	-7.3106182E-001	-6.349208112066940E-002	4.6416637E-005	-7.3110288E-001	0
1.1516509E+004	6.116819866125297E+001	-7.3303795E-001	-6.365105683932204E-002	4.6658639E-005	-7.3310274E-001	0
1.1523777E+004	6.136819865620055E+001	-7.3507005E-001	-6.378724991371354E-002	4.6888097E-005	-7.3510271E-001	0
1.1511377E+004	6.156819865114812E+001	-7.3708540E-001	-6.403103657278031E-002	4.7196343E-005	-7.3710281E-001	0
1.1523645E+004	6.176819864609570E+001	-7.3911548E-001	-6.413903885231687E-002	4.7406156E-005	-7.3910278E-001	0
1.1529319E+004	6.196819864104327E+001	-7.4099052E-001	-6.427010382069498E-002	4.7623536E-005	-7.4110276E-001	0
1.1515207E+004	6.216819863599085E+001	-7.4304754E-001	-6.452749889764231E-002	4.7947000E-005	-7.4310279E-001	0
1.1514119E+004	6.236819863093842E+001	-7.4501079E-001	-6.470410702929608E-002	4.8205256E-005	-7.4510282E-001	0
1.1507728E+004	6.256819862588600E+001	-7.4703735E-001	-6.491614763768605E-002	4.8494789E-005	-7.4710280E-001	0
1.1499610E+004	6.276819862083357E+001	-7.4902600E-001	-6.513490277667722E-002	4.8787737E-005	-7.4910277E-001	0
1.1518224E+004	6.296819861578115E+001	-7.5104260E-001	-6.520472532835125E-002	4.8971528E-005	-7.5110286E-001	0
1.1495377E+004	6.316819861072872E+001	-7.5305474E-001	-6.550935536249214E-002	4.9332131E-005	-7.5310278E-001	0
1.1500613E+004	6.336819860567630E+001	-7.5504458E-001	-6.565255167642770E-002	4.9570604E-005	-7.5510275E-001	0
1.1463833E+004	6.356819860062387E+001	-7.5701380E-001	-6.603496498903436E-002	4.9989379E-005	-7.5710279E-001	0
1.1465361E+004	6.376819859557145E+001	-7.5904363E-001	-6.620320007880798E-002	5.0251118E-005	-7.5910282E-001	0
1.1453056E+004	6.396819859051902E+001	-7.6102978E-001	-6.644774783168250E-002	5.0568717E-005	-7.6110280E-001	0
1.1429427E+004	6.416819858546660E+001	-7.6301968E-001	-6.675922699893522E-002	5.0938605E-005	-7.6310277E-001	0
1.1424868E+004	6.436819858041417E+001	-7.6502627E-001	-6.696149879747648E-002	5.1227307E-005	-7.6510286E-001	0
1.1403434E+004	6.456819857536175E+001	-7.6705670E-001	-6.726541444965417E-002	5.1596387E-005	-7.6710284E-001	0
1.1379338E+004	6.476819857030932E+001	-7.6897871E-001	-6.757675112508095E-002	5.1965082E-005	-7.6910275E-001	0
1.1379144E+004	6.496819856525690E+001	-7.7108979E-001	-6.776343204942697E-002	5.2251689E-005	-7.7110279E-001	0
1.1360361E+004	6.516819856020447E+001	-7.7305341E-001	-6.804831393692390E-002	5.2604981E-005	-7.7310276E-001	0
1.1326632E+004	6.536819855515205E+001	-7.7501726E-001	-6.842433877580745E-002	5.3030042E-005	-7.7510273E-001	0
1.1317736E+004	6.556819855009962E+001	-7.7706558E-001	-6.865909747154259E-002	5.3352622E-005	-7.7710277E-001	0
1.1279354E+004	6.576819854504720E+001	-7.7907848E-001	-6.907120156851598E-002	5.3811887E-005	-7.7910280E-001	0
1.1251726E+004	6.596819853999477E+001	-7.8108418E-001	-6.941905519988434E-002	5.4222124E-005	-7.8110272E-001	0
1.1237483E+004	6.616819853494235E+001	-7.8305310E-001	-6.968224954383806E-002	5.4564902E-005	-7.8310287E-001	0
1.1209336E+004	6.636819852988992E+001	-7.8509498E-001	-7.003938198214166E-002	5.4987566E-005	-7.8510284E-001	0
1.1157856E+004	6.656819852483750E+001	-7.8702438E-001	-7.053544371581029E-002	5.5513116E-005	-7.8710282E-001	0
1.1128635E+004	6.676819851978507E+001	-7.8904718E-001	-7.090242452129636E-002	5.5945358E-005	-7.8910279E-001	0
1.1112158E+004	6.696819851473265E+001	-7.9101759E-001	-7.118487246112803E-002	5.6308487E-005	-7.9110283E-001	0
1.1060470E+004	6.716819850968022E+001	-7.9305518E-001	-7.170176595690203E-002	5.6863457E-005	-7.9310286E-001	0
1.1021688E+004	6.736819850462780E+001	-7.9506892E-001	-7.213675988470598E-002	5.7353696E-005	-7.9510278E-001	0
1.1007272E+004	6.756819849957537E+001	-7.9708266E-001	-7.241418755976481E-002	5.7720092E-005	-7.9710275E-001	0
1.0950520E+004	6.776819849452295E+001	-7.9901922E-001	-7.296633230556071E-002	5.8301503E-005	-7.9910290E-001	0
1.0907905E+004	6.796819848947052E+001	-8.0103171E-001	-7.343588808293769E-002	5.8824477E-005	-8.0110288E-001	0
1.0852944E+004	6.816819848441810E+001	-8.0304641E-001	-7.399341640803880E-002	5.9420148E-005	-8.0310279E-001	0
1.0823455E+004	6.836819847936567E+001	-8.0507058E-001	-7.438203177727387E-002	5.9882786E-005	-8.0510283E-001	0
1.0749197E+004	6.856819847431325E+001	-8.0707568E-001	-7.508241430467713E-002	6.0597191E-005	-8.0710286E-001	0
1.0710590E+004	6.876819846926082E+001	-8.0909419E-001	-7.554151731819880E-002	6.1120205E-005	-8.0910271E-001	0
1.0646720E+004	6.896819846420840E+001	-8.1107306E-001	-7.618056106288196E-002	6.1788000E-005	-8.1110281E-001	0
1.0599707E+004	6.916819845915597E+001	-8.1304109E-001	-7.670410744932459E-002	6.2363593E-005	-8.1310290E-001	0
1.0538732E+004	6.936819845410355E+001	-8.1508422E-001	-7.734176718161079E-002	6.3040054E-005	-8.1510276E-001	0
1.0472591E+004	6.956819844905112E+001	-8.1705725E-001	-7.801863296187639E-002	6.3745691E-005	-8.1710285E-001	0
1.0424606E+004	6.976819844399870E+001	-8.1906515E-001	-7.857036353838609E-002	6.4354244E-005	-8.1910282E-001	0
1.0353457E+004	6.996819843894627E+001	-8.2108802E-001	-7.930568423567763E-002	6.5116947E-005	-8.2110280E-001	0
1.0285564E+004	7.016819843389385E+001	-8.2305586E-001	-8.002048756192326E-002	6.5861328E-005	-8.2310277E-001	0
1.0221580E+004	7.036819842884142E+001	-8.2511675E-001	-8.072301223103295E-002	6.6605913E-005	-8.2510281E-001	0
1.0164709E+004	7.056819842378900E+001	-8.2708246E-001	-8.136804267086184E-002	6.7298082E-005	-8.2710290E-001	0
1.0079872E+004	7.076819841873657E+001	-8.2908899E-001	-8.225193737252157E-002	6.8194175E-005	-8.2910281E-001	0
9.9910391E+003	7.096819841368415E+001	-8.3102351E-001	-8.317688789562877E-002	6.9121947E-005	-8.3110273E-001	0
9.9075146E+003	7.116819840863172E+001	-8.3308220E-001	-8.408589457434190E-002	7.0050461E-005	-8.3310288E-001	0
9.8540498E+003	7.136819840357930E+001	-8.3501303E-001	-8.473805405353679E-002	7.0757378E-005	-8.3510286E-001	0
9.7746719E+003	7.156819839852687E+001	-8.3707494E-001	-8.563713696806391E-002	7.1684699E-005	-8.3710283E-001	0
9.6626719E+003	7.176819839347445E+001	-8.3900732E-001	-8.682974361573770E-002	7.2850788E-005	-8.3910286E-001	0
9.5698887E+003	7.196819838842202E+001	-8.4104437E-001	-8.788444353489266E-002	7.3914714E-005	-8.4110284E-001	0
9.4623164E+003	7.216819838336960E+001	-8.4309220E-001	-8.909998369369410E-002	7.5119504E-005	-8.4310281E-001	0
9.3436152E+003	7.236819837831717E+001	-8.4502780E-001	-9.043906256239698E-002	7.6423523E-005	-8.4510279E-001	0
9.1998887E+003	7.256819837326475E+001	-8.4700942E-001	-9.206735712419079E-002	7.7981917E-005	-8.4710288E-001	0
9.0541748E+003	7.276819836821232E+001	-8.4902161E-001	-9.377128558598724E-002	7.9613848E-005	-8.4910285E-001	0
8.9138184E+003	7.296819836315990E+001	-8.5108751E-001	-9.547956440599925E-002	8.1261467E-005	-8.5110283E-001	0
8.7393896E+003	7.316819835810747E+001	-8.5309422E-001	-9.761485046244611E-002	8.3274666E-005	-8.5310280E-001	0
8.5470576E+003	7.336819835305505E+001	-8.5506594E-001	-1.000421376288561E-001	8.5542626E-005	-8.5510278E-001	0
8.3606729E+003	7.356819834800262E+001	-8.5708010E-001	-1.025132933587194E-001	8.7862107E-005	-8.5710287E-001	0
8.1468154E+003	7.376819834295020E+001	-8.5906965E-001	-1.054485240019858E-001	9.0587630E-005	-8.5910279E-001	0
7.9362725E+003	7.396819833789777E+001	-8.6108637E-001	-1.085001014831926E-001	9.3427960E-005	-8.6110294E-001	0
7.7203364E+003	7.416819833284535E+001	-8.6310720E-001	-1.117965811504527E-001	9.6492433E-005	-8.6310291E-001	0
7.5306812E+003	7.436819832779292E+001	-8.6508435E-001	-1.148746493230248E-001	9.9376259E-005	-8.6510271E-001	0
7.3410889E+003	7.456819832274050E+001	-8.6709350E-001	-1.181151104601025E-001	1.0241685E-004	-8.6710286E-001	0
7.1681333E+003	7.476819831768807E+001	-8.6910468E-001	-1.212456073029107E-001	1.0537513E-004	-8.6910284E-001	0
7.0325571E+003	7.496819831263565E+001	-8.7104535E-001	-1.238589776392658E-001	1.0788679E-004	-8.7110281E-001	0
6.8885869E+003	7.516819830758323E+001	-8.7307650E-001	-1.267424654732974E-001	1.1065587E-004	-8.7310284E-001	0
6.7597417E+003	7.536819830253080E+001	-8.7502134E-001	-1.294459719358694E-001	1.1326799E-004	-8.7510282E-001	0
6.6459316E+003	7.556819829747838E+001	-8.7702668E-001	-1.319644423243913E-001	1.1573634E-004	-8.7710285E-001	0
6.5086284E+003	7.576819829242595E+001	-8.7902105E-001	-1.350547259276444E-001	1.1871594E-004	-8.7910277E-001	0
6.3844629E+003	7.596819828737353E+001	-8.8103378E-001	-1.379965421545177E-001	1.2157961E-004	-8.8110286E-001	0
6.2483896E+003	7.616819828232110E+001	-8.8302916E-001	-1.413210823302014E-001	1.2479063E-004	-8.8310283E-001	0
6.1034673E+003	7.636819827726868E+001	-8.8504708E-001	-1.450072577922210E-001	1.2833824E-004	-8.8510281E-001	0
5.9426406E+003	7.656819827221625E+001	-8.8708484E-001	-1.492745177492987E-001	1.3241917E-004	-8.8710278E-001	0
5.6973813E+003	7.676819826716383E+001	-8.8905227E-001	-1.560457786154463E-001	1.3873285E-004	-8.8910288E-001	0
5.5307979E+003	7.696819826211140E+001	-8.9103687E-001	-1.611045745946889E-001	1.4355012E-004	-8.9110285E-001	0
5.3479058E+003	7.716819825705898E+001	-8.9304221E-001	-1.669891429209742E-001	1.4912835E-004	-8.9310282E-001	0
5.1543022E+003	7.736819825200655E+001	-8.9504439E-001	-1.736499539464544E-001	1.5542442E-004	-8.9510292E-001	0
4.9436948E+003	7.756819824695413E+001	-8.9704192E-001	-1.814517264038986E-001	1.6276981E-004	-8.9710289E-001	0
4.7297461E+003	7.776819824190170E+001	-8.9905429E-001	-1.900851125005307E-001	1.7089683E-004	-8.9910275E-001	0
4.5132871E+003	7.796819823684928E+001	-9.0108091E-001	-1.996506973720935E-001	1.7990143E-004	-9.0110284E-001	0
4.2955464E+003	7.816819823179685E+001	-9.0300018E-001	-2.102177647679468E-001	1.8982668E-004	-9.0310293E-001	0
4.0818584E+003	7.836819822674443E+001	-9.0506852E-001	-2.217295199586189E-001	2.0068041E-004	-9.0510279E-001	0
3.8610188E+003	7.856819822169200E+001	-9.0704888E-001	-2.349247512283004E-001	2.1308823E-004	-9.0710282E-001	0
3.6240518E+003	7.876819821663958E+001	-9.0907389E-001	-2.508446232367159E-001	2.2803630E-004	-9.0910286E-001	0
3.3911021E+003	7.896819821158715E+001	-9.1104144E-001	-2.686564560025024E-001	2.4475716E-004	-9.1110283E-001	0
3.1591501E+003	7.916819820653473E+001	-9.1307360E-001	-2.890250631048423E-001	2.6390117E-004	-9.1310281E-001	0
2.9265342E+003	7.936819820148230E+001	-9.1503239E-001	-3.126675795252664E-001	2.8610096E-004	-9.1510284E-001	0
2.6557012E+003	7.956819819642988E+001	-9.1703701E-001	-3.453088022827622E-001	3.1666094E-004	-9.1710281E-001	0
2.4431938E+003	7.976819819137745E+001	-9.1901261E-001	-3.761521472475264E-001	3.4568858E-004	-9.1910279E-001	0
2.2527490E+003	7.996819818632503E+001	-9.2102659E-001	-4.088456109081693E-001	3.7655767E-004	-9.2110288E-001	0
2.0682576E+003	8.016819818127260E+001	-9.2307907E-001	-4.463075858175474E-001	4.1197721E-004	-9.2310286E-001	0
1.8968804E+003	8.036819817622018E+001	-9.2504638E-001	-4.876672167863187E-001	4.5111479E-004	-9.2510283E-001	0
1.7109792E+003	8.056819817116775E+001	-9.2702937E-001	-5.418121827863438E-001	5.0227583E-004	-9.2710286E-001	0
1.5665854E+003	8.076819816611533E+001	-9.2910892E-001	-5.930789867014763E-001	5.5103499E-004	-9.2910290E-001	0
1.4407654E+003	8.096819816106290E+001	-9.3112159E-001	-6.462687220838343E-001	6.0175476E-004	-9.3110293E-001	0
1.3126987E+003	8.116819815601048E+001	-9.3309945E-001	-7.108252826706405E-001	6.6327071E-004	-9.3310285E-001	0
1.1933940E+003	8.136819815095805E+001	-9.3504912E-001	-7.835208543717833E-001	7.3263049E-004	-9.3510282E-001	0
1.1011389E+003	8.156819814590563E+001	-9.3706423E-001	-8.509954795950956E-001	7.9743745E-004	-9.3710291E-001	0
9.9923718E+002	8.176819814085320E+001	-9.3906891E-001	-9.397858007813156E-001	8.8252366E-004	-9.3910277E-001	0
9.2455341E+002	8.196819813580078E+001	-9.4105566E-001	-1.017848877916261E+000	9.5785246E-004	-9.4110280E-001	0
8.3794409E+002	8.218819813024311E+001	-9.4323921E-001	-1.125658875555138E+000	1.0617656E-003	-9.4330287E-001	0
7.7997668E+002	8.238819812519068E+001	-9.4526899E-001	-1.211919514272289E+000	1.1455900E-003	-9.4530284E-001	0
7.1774200E+002	8.258819812013826E+001	-9.4723600E-001	-1.319744433117968E+000	1.2501094E-003	-9.4730282E-001	0
6.6751160E+002	8.278819811508583E+001	-9.4928449E-001	-1.422124338900147E+000	1.3500006E-003	-9.4930291E-001	0
6.1680139E+002	8.298819811003341E+001	-9.5127505E-001	-1.542271231543987E+000	1.4671241E-003	-9.5130289E-001	0
5.7483679E+002	8.318819810498098E+001	-9.5330006E-001	-1.658383823407473E+000	1.5809374E-003	-9.5330286E-001	0
5.3760162E+002	8.338819809992856E+001	-9.5527858E-001	-1.776926537101367E+000	1.6974598E-003	-9.5530283E-001	0
5.0056381E+002	8.358819809487613E+001	-9.5726621E-001	-1.912376004112819E+000	1.8306529E-003	-9.5730293E-001	0
4.7010162E+002	8.378819808982371E+001	-9.5923954E-001	-2.040494002232887E+000	1.9573225E-003	-9.5930278E-001	0
4.4193637E+002	8.398819808477128E+001	-9.6122009E-001	-2.175019256111718E+000	2.0906723E-003	-9.6130282E-001	0
4.1573560E+002	8.418819807971886E+001	-9.6327239E-001	-2.317031354979186E+000	2.2319322E-003	-9.6330285E-001	0
3.9152417E+002	8.438819807466643E+001	-9.6528059E-001	-2.465443142147014E+000	2.3798444E-003	-9.6530282E-001	0
3.7054715E+002	8.458819806961401E+001	-9.6727502E-001	-2.610396602915397E+000	2.5249715E-003	-9.6730280E-001	0
3.5065399E+002	8.478819806456158E+001	-9.6925992E-001	-2.764149184670313E+000	2.6791790E-003	-9.6930283E-001	0
3.3298688E+002	8.498819805950916E+001	-9.7126722E-001	-2.916833437793382E+000	2.8330246E-003	-9.7130281E-001	0
3.1642578E+002	8.518819805445673E+001	-9.7329348E-001	-3.075898259692309E+000	2.9937518E-003	-9.7330278E-001	0
3.0100620E+002	8.538819804940431E+001	-9.7528404E-001	-3.240079753692186E+000	3.1599980E-003	-9.7530288E-001	0
2.8664676E+002	8.558819804435188E+001	-9.7725475E-001	-3.409264868687082E+000	3.3317204E-003	-9.7730291E-001	0
2.7333633E+002	8.578819803929946E+001	-9.7925639E-001	-3.582606089628732E+000	3.5082898E-003	-9.7930282E-001	0
2.6132230E+002	8.598819803424703E+001	-9.8128122E-001	-3.755061318477004E+000	3.6847712E-003	-9.8130280E-001	0
2.5003044E+002	8.618819802919461E+001	-9.8321360E-001	-3.932375523373651E+000	3.8663652E-003	-9.8330289E-001	0
2.3941068E+002	8.638819802414218E+001	-9.8525548E-001	-4.115336361385516E+000	4.0546576E-003	-9.8530293E-001	0
2.2940591E+002	8.658819801908976E+001	-9.8728305E-001	-4.303651210300771E+000	4.2489218E-003	-9.8730284E-001	0
2.2012555E+002	8.678819801403733E+001	-9.8927462E-001	-4.494138200266832E+000	4.4459370E-003	-9.8930281E-001	0
2.1124567E+002	8.698819800898491E+001	-9.9126226E-001	-4.692461952871197E+000	4.6514603E-003	-9.9130291E-001	0
2.0306432E+002	8.718819800393248E+001	-9.9326563E-001	-4.891384552327931E+000	4.8584440E-003	-9.9330276E-001	0
1.9551547E+002	8.738819799888006E+001	-9.9528348E-001	-5.090561384989817E+000	5.0665517E-003	-9.9530280E-001	0
1.8818588E+002	8.758819799382763E+001	-9.9720174E-001	-5.299025192113433E+000	5.2841972E-003	-9.9730283E-001	0
1.8139790E+002	8.778819798877521E+001	-9.9926466E-001	-5.508689028876169E+000	5.5046384E-003	-9.9930274E-001	0
1.7498898E+002	8.798829798372026E+001	-1.0012442E+000	-5.721755437039441E+000	5.7288744E-003	-1.0013036E+000	0
1.6884799E+002	8.818839797866531E+001	-1.0032884E+000	-5.941961970154921E+000	5.9615015E-003	-1.0033047E+000	0
1.6305540E+002	8.838839797361288E+001	-1.0052028E+000	-6.164792672914729E+000	6.1968667E-003	-1.0053049E+000	0
1.5759169E+002	8.858839796856046E+001	-1.0072985E+000	-6.391824634099478E+000	6.4384751E-003	-1.0073049E+000	0
1.5225302E+002	8.878849796350551E+001	-1.0092685E+000	-6.628890218603175E+000	6.6903303E-003	-1.0093056E+000	0
1.4734537E+002	8.898859795845055E+001	-1.0112773E+000	-6.863312932233967E+000	6.9407127E-003	-1.0113068E+000	0
1.4264804E+002	8.918869795339560E+001	-1.0133016E+000	-7.103508884885542E+000	7.1979971E-003	-1.0133076E+000	0
1.3804988E+002	8.938879794834065E+001	-1.0153049E+000	-7.354623475988433E+000	7.4671856E-003	-1.0153087E+000	0
1.3377579E+002	8.958899794328318E+001	-1.0173352E+000	-7.604778197085565E+000	7.7366084E-003	-1.0173104E+000	0
1.2973270E+002	8.978929793822317E+001	-1.0193347E+000	-7.857191743999010E+000	8.0091078E-003	-1.0193136E+000	0
1.2585526E+002	8.998949793316569E+001	-1.0213064E+000	-8.114928061632867E+000	8.2878275E-003	-1.0213156E+000	0
1.2224317E+002	9.018969792810822E+001	-1.0233072E+000	-8.371078516239473E+000	8.5661849E-003	-1.0233178E+000	0
1.1866837E+002	9.038979792305327E+001	-1.0253513E+000	-8.640477066340083E+000	8.8595245E-003	-1.0253187E+000	0
1.1538545E+002	9.058999791799579E+001	-1.0272952E+000	-8.903160933434435E+000	9.1461744E-003	-1.0273204E+000	0
1.1217072E+002	9.079029791293578E+001	-1.0293570E+000	-9.176699803327139E+000	9.4460994E-003	-1.0293236E+000	0
1.0906148E+002	9.099049790787831E+001	-1.0313179E+000	-9.456298909278139E+000	9.7524505E-003	-1.0313257E+000	0
1.0601710E+002	9.119059790282336E+001	-1.0333298E+000	-9.746822295545691E+000	1.0071683E-002	-1.0333269E+000	0
1.0318079E+002	9.139059789777093E+001	-1.0353140E+000	-1.003398010391496E+001	1.0388319E-002	-1.0353268E+000	0
1.0042627E+002	9.159059789271851E+001	-1.0373379E+000	-1.032934790640192E+001	1.0715024E-002	-1.0373267E+000	0
9.7777763E+001	9.179059788766608E+001	-1.0393130E+000	-1.062933895512228E+001	1.1047210E-002	-1.0393268E+000	0
9.4913727E+001	9.200079788235598E+001	-1.0414253E+000	-1.097233642487862E+001	1.1426869E-002	-1.0414288E+000	0
9.2211166E+001	9.221099787704588E+001	-1.0434842E+000	-1.131624554871436E+001	1.1808324E-002	-1.0435308E+000	0
8.9787743E+001	9.241109787199093E+001	-1.0455085E+000	-1.164422293544075E+001	1.2174134E-002	-1.0455315E+000	0
8.7388893E+001	9.261139786693093E+001	-1.0475278E+000	-1.198696764233432E+001	1.2556681E-002	-1.0475347E+000	0
8.5061150E+001	9.281139786187850E+001	-1.0495020E+000	-1.233820678020015E+001	1.2948973E-002	-1.0495348E+000	0
8.2935425E+001	9.301139785682608E+001	-1.0515155E+000	-1.267872474374678E+001	1.3331875E-002	-1.0515349E+000	0
8.0734940E+001	9.321159785176860E+001	-1.0534986E+000	-1.304885634871113E+001	1.3746953E-002	-1.0535363E+000	0
7.8604263E+001	9.341189784670860E+001	-1.0555379E+000	-1.342850807460670E+001	1.4174299E-002	-1.0555396E+000	0
7.6482117E+001	9.361209784165112E+001	-1.0574898E+000	-1.382662739664096E+001	1.4621517E-002	-1.0575416E+000	0
7.4526634E+001	9.381239783659112E+001	-1.0595210E+000	-1.421667580099446E+001	1.5062866E-002	-1.0595443E+000	0
7.2507957E+001	9.401299783152353E+001	-1.0615041E+000	-1.463983002547695E+001	1.5540240E-002	-1.0615504E+000	0
7.0592194E+001	9.421319782646606E+001	-1.0635115E+000	-1.506556775050912E+001	1.6022405E-002	-1.0635527E+000	0
6.8726051E+001	9.441319782141363E+001	-1.0655041E+000	-1.550364169133769E+001	1.6519193E-002	-1.0655528E+000	0
6.6994392E+001	9.461329781635868E+001	-1.0675080E+000	-1.593428807539666E+001	1.7009979E-002	-1.0675538E+000	0
6.5260483E+001	9.481359781129868E+001	-1.0695318E+000	-1.638865880404273E+001	1.7528191E-002	-1.0695564E+000	0
6.3561146E+001	9.501379780624120E+001	-1.0715284E+000	-1.685823075733484E+001	1.8064074E-002	-1.0715588E+000	0
6.1805321E+001	9.521389780118625E+001	-1.0735390E+000	-1.736968651600506E+001	1.8647036E-002	-1.0735596E+000	0
6.0106289E+001	9.541419779612625E+001	-1.0754946E+000	-1.789321335512590E+001	1.9244054E-002	-1.0755624E+000	0
5.8531696E+001	9.561439779106877E+001	-1.0775192E+000	-1.840915653859679E+001	1.9836219E-002	-1.0775650E+000	0
5.7000225E+001	9.581449778601382E+001	-1.0795231E+000	-1.893892683459623E+001	2.0445008E-002	-1.0795656E+000	0
5.5540043E+001	9.601469778095634E+001	-1.0815449E+000	-1.947324542751693E+001	2.1061189E-002	-1.0815676E+000	0
5.4092030E+001	9.621479777590139E+001	-1.0835522E+000	-2.003164281285529E+001	2.1705331E-002	-1.0835688E+000	0
5.2683262E+001	9.641499777084391E+001	-1.0855478E+000	-2.060517518605234E+001	2.2367902E-002	-1.0855707E+000	0
5.1363831E+001	9.661509776578896E+001	-1.0875195E+000	-2.117286719639273E+001	2.3025906E-002	-1.0875716E+000	0
5.0113373E+001	9.681519776073401E+001	-1.0895513E+000	-2.174172743391287E+001	2.3688728E-002	-1.0895729E+000	0
4.8864349E+001	9.701529775567906E+001	-1.0915596E+000	-2.233856885439991E+001	2.4383880E-002	-1.0915737E+000	0
4.7578686E+001	9.721549775062158E+001	-1.0935748E+000	-2.298455140946265E+001	2.5135325E-002	-1.0935757E+000	0
4.6358795E+001	9.741569774556410E+001	-1.0955567E+000	-2.363212278081221E+001	2.5890332E-002	-1.0955776E+000	0
4.5263641E+001	9.761599774050410E+001	-1.0975527E+000	-2.424799678675959E+001	2.6613453E-002	-1.0975803E+000	0
4.4202290E+001	9.781629773544410E+001	-1.0995523E+000	-2.487545999015120E+001	2.7351869E-002	-1.0995837E+000	0
4.3139252E+001	9.801639773038914E+001	-1.1015501E+000	-2.553475287333617E+001	2.8127810E-002	-1.1015849E+000	0
4.2049812E+001	9.821659772533167E+001	-1.1035671E+000	-2.624428296359713E+001	2.8962327E-002	-1.1035864E+000	0
4.1027554E+001	9.841679772027419E+001	-1.1055353E+000	-2.694616601337384E+001	2.9789938E-002	-1.1055889E+000	0
4.0049873E+001	9.861689771521924E+001	-1.1075850E+000	-2.765514269037311E+001	3.0630419E-002	-1.1075896E+000	0
3.9091621E+001	9.881699771016429E+001	-1.1095607E+000	-2.838359536335321E+001	3.1493321E-002	-1.1095908E+000	0
3.8142212E+001	9.901699770511186E+001	-1.1115788E+000	-2.914301028976104E+001	3.2394752E-002	-1.1115909E+000	0
3.7189484E+001	9.921699770005944E+001	-1.1135534E+000	-2.994269456155178E+001	3.3342790E-002	-1.1135908E+000	0
3.6280064E+001	9.941709769500449E+001	-1.1155628E+000	-3.074864607427315E+001	3.4302045E-002	-1.1155916E+000	0
3.5402000E+001	9.961719768994953E+001	-1.1175927E+000	-3.156863126435775E+001	3.5280872E-002	-1.1175928E+000	0
3.4489529E+001	9.981749768488953E+001	-1.1195853E+000	-3.246160039129092E+001	3.6343530E-002	-1.1195955E+000	0
3.3644108E+001	1.000176976798321E+002	-1.1216198E+000	-3.333777908293513E+001	3.7392315E-002	-1.1215975E+000	0
3.2857304E+001	1.002180976747695E+002	-1.1235975E+000	-3.419627849347160E+001	3.8422853E-002	-1.1236016E+000	0
3.2098209E+001	1.004181976697146E+002	-1.1255977E+000	-3.506730704431908E+001	3.9471682E-002	-1.1256030E+000	0
3.1315125E+001	1.006181976646621E+002	-1.1276040E+000	-3.600828845484733E+001	4.0603090E-002	-1.1276028E+000	0
3.0558294E+001	1.008182976596072E+002	-1.1295911E+000	-3.696512210632612E+001	4.1755471E-002	-1.1296035E+000	0
2.9844334E+001	1.010184976545497E+002	-1.1316311E+000	-3.791778829655959E+001	4.2908952E-002	-1.1316056E+000	0
2.9126219E+001	1.012186976494922E+002	-1.1336240E+000	-3.892108163195387E+001	4.4121869E-002	-1.1336076E+000	0
2.8448103E+001	1.014187976444373E+002	-1.1356032E+000	-3.991841443136440E+001	4.5331478E-002	-1.1356088E+000	0
2.7780306E+001	1.016187976393849E+002	-1.1376042E+000	-4.095002639455868E+001	4.6584923E-002	-1.1376089E+000	0
2.7139383E+001	1.018187976343324E+002	-1.1396265E+000	-4.199161262793348E+001	4.7854755E-002	-1.1396089E+000	0
2.6510504E+001	1.020188976292775E+002	-1.1415397E+000	-4.305990140201379E+001	4.9154587E-002	-1.1416097E+000	0
2.5893688E+001	1.022189976242225E+002	-1.1436552E+000	-4.416733500178970E+001	5.0512202E-002	-1.1436107E+000	0
2.5280098E+001	1.024189976191701E+002	-1.1455994E+000	-4.531625341125613E+001	5.1914271E-002	-1.1456109E+000	0
2.4678392E+001	1.026190976141152E+002	-1.1476437E+000	-4.650398983589753E+001	5.3370010E-002	-1.1476116E+000	0
2.4070978E+001	1.028191976090602E+002	-1.1496646E+000	-4.776144090288085E+001	5.4909639E-002	-1.1496129E+000	0
2.3491226E+001	1.030191976040078E+002	-1.1516119E+000	-4.902306511504844E+001	5.6455545E-002	-1.1516129E+000	0
2.2936800E+001	1.032191975989554E+002	-1.1536007E+000	-5.029475513904822E+001	5.8020063E-002	-1.1536129E+000	0
2.2446548E+001	1.034191975939029E+002	-1.1556182E+000	-5.148311165995608E+001	5.9494819E-002	-1.1556128E+000	0
2.1895922E+001	1.036191975888505E+002	-1.1575601E+000	-5.286647228967570E+001	6.1196119E-002	-1.1576129E+000	0
2.1413738E+001	1.038191975837981E+002	-1.1596026E+000	-5.415227653542354E+001	6.2795125E-002	-1.1596129E+000	0
2.0900095E+001	1.040191975787457E+002	-1.1616019E+000	-5.557878738087595E+001	6.4560428E-002	-1.1616129E+000	0
2.0401358E+001	1.042192975736907E+002	-1.1635828E+000	-5.703457639254106E+001	6.6364452E-002	-1.1636136E+000	0
1.9942854E+001	1.044194975686332E+002	-1.1656423E+000	-5.844911720641460E+001	6.8130761E-002	-1.1656158E+000	0
1.9493967E+001	1.046195975635783E+002	-1.1676332E+000	-5.989715362243908E+001	6.9937907E-002	-1.1676168E+000	0
1.9026291E+001	1.048195975585259E+002	-1.1696626E+000	-6.147612265826876E+001	7.1906321E-002	-1.1696169E+000	0
1.8591745E+001	1.050197975534684E+002	-1.1717021E+000	-6.302270948926861E+001	7.3843844E-002	-1.1716188E+000	0
1.8155233E+001	1.052197975484160E+002	-1.1736259E+000	-6.464394561720007E+001	7.5867809E-002	-1.1736188E+000	0
1.7752705E+001	1.054198975433610E+002	-1.1757281E+000	-6.622811290678430E+001	7.7866249E-002	-1.1756195E+000	0
1.7325367E+001	1.056199975383061E+002	-1.1777124E+000	-6.797619100600969E+001	8.0056407E-002	-1.1776209E+000	0
1.6951366E+001	1.058200975332511E+002	-1.1796741E+000	-6.959168411336077E+001	8.2095511E-002	-1.1796218E+000	0
1.6561157E+001	1.060201975281962E+002	-1.1816903E+000	-7.135312665563026E+001	8.4317297E-002	-1.1816227E+000	0
1.6206959E+001	1.062201975231437E+002	-1.1836690E+000	-7.303460957295761E+001	8.6448804E-002	-1.1836228E+000	0
1.5870830E+001	1.064203975180862E+002	-1.1857042E+000	-7.470965535345542E+001	8.8583551E-002	-1.1856247E+000	0
1.5520161E+001	1.066205975130288E+002	-1.1876943E+000	-7.652590389822626E+001	9.0889379E-002	-1.1876268E+000	0
1.5206443E+001	1.068205975079763E+002	-1.1896746E+000	-7.823490361399695E+001	9.3074076E-002	-1.1896269E+000	0
1.4891662E+001	1.070206975029214E+002	-1.1916599E+000	-8.002195599989477E+001	9.5358960E-002	-1.1916277E+000	0
1.4580294E+001	1.072207974978664E+002	-1.1937106E+000	-8.187150407540298E+001	9.7730882E-002	-1.1936288E+000	0
1.4296862E+001	1.074207974928140E+002	-1.1956758E+000	-8.363204870797068E+001	9.9996820E-002	-1.1956288E+000	0
1.3967547E+001	1.076207974877616E+002	-1.1977237E+000	-8.575047182388062E+001	1.0270537E-001	-1.1976289E+000	0
1.3700716E+001	1.078207974827092E+002	-1.1997001E+000	-8.756477343090019E+001	1.0505147E-001	-1.1996289E+000	0
1.3390688E+001	1.080207974776567E+002	-1.2016847E+000	-8.974032827894189E+001	1.0783958E-001	-1.2016288E+000	0
1.3103230E+001	1.082207974726043E+002	-1.2036933E+000	-9.186233829641014E+001	1.1057408E-001	-1.2036288E+000	0
1.2804595E+001	1.084208974675494E+002	-1.2056731E+000	-9.415940865262274E+001	1.1352547E-001	-1.2056296E+000	0
1.2591808E+001	1.086210974624919E+002	-1.2077198E+000	-9.591313289336813E+001	1.1583619E-001	-1.2076316E+000	0
1.2385821E+001	1.088212974574344E+002	-1.2096757E+000	-9.766616655336577E+001	1.1814439E-001	-1.2096336E+000	0
1.2169411E+001	1.090213974523795E+002	-1.2116755E+000	-9.956731049814471E+001	1.2064327E-001	-1.2116349E+000	0
1.1989813E+001	1.092213974473270E+002	-1.2137117E+000	-1.012285774137974E+002	1.2286231E-001	-1.2136348E+000	0
1.1738236E+001	1.094215974422696E+002	-1.2156872E+000	-1.035664245277083E+002	1.2590437E-001	-1.2156363E+000	0
1.1505526E+001	1.096218974372096E+002	-1.2177165E+000	-1.058375344582180E+002	1.2888011E-001	-1.2176397E+000	0
1.1294149E+001	1.098220974321521E+002	-1.2196652E+000	-1.079908876209965E+002	1.3171272E-001	-1.2196418E+000	0
1.1027582E+001	1.100322974268420E+002	-1.2217463E+000	-1.107900495650770E+002	1.3535734E-001	-1.2217435E+000	0
1.0776987E+001	1.102424974215319E+002	-1.2238740E+000	-1.135636480552087E+002	1.3898759E-001	-1.2238456E+000	0
1.0634710E+001	1.104426974164744E+002	-1.2258300E+000	-1.152668897848952E+002	1.4129761E-001	-1.2258476E+000	0
1.0444305E+001	1.106428974114169E+002	-1.2278624E+000	-1.175628597971551E+002	1.4435101E-001	-1.2278496E+000	0
1.0214007E+001	1.108430974063594E+002	-1.2298983E+000	-1.204129057626369E+002	1.4809564E-001	-1.2298516E+000	0
1.0075035E+001	1.110432974013020E+002	-1.2318907E+000	-1.222716033955144E+002	1.5062524E-001	-1.2318536E+000	0
9.8975039E+000	1.112434973962445E+002	-1.2338839E+000	-1.246661656326919E+002	1.5382357E-001	-1.2338556E+000	0
9.7209511E+000	1.114435973911895E+002	-1.2359102E+000	-1.271388143736212E+002	1.5713215E-001	-1.2358569E+000	0
9.4770956E+000	1.116435973861371E+002	-1.2379060E+000	-1.306208218446936E+002	1.6169630E-001	-1.2378567E+000	0
9.3559275E+000	1.118435973810847E+002	-1.2398865E+000	-1.325241672576421E+002	1.6431493E-001	-1.2398568E+000	0
9.1870718E+000	1.120437973760272E+002	-1.2419028E+000	-1.351793924451767E+002	1.6787967E-001	-1.2418584E+000	0
9.0257521E+000	1.122439973709697E+002	-1.2438958E+000	-1.378163043463310E+002	1.7142911E-001	-1.2438608E+000	0
8.8800611E+000	1.124439973659173E+002	-1.2459021E+000	-1.403033134380435E+002	1.7480418E-001	-1.2458609E+000	0
8.6942644E+000	1.126441973608598E+002	-1.2478802E+000	-1.435291306103817E+002	1.7910716E-001	-1.2478628E+000	0
8.5866985E+000	1.128441973558074E+002	-1.2499243E+000	-1.455651725911775E+002	1.8194544E-001	-1.2498628E+000	0
8.4401913E+000	1.130441973507550E+002	-1.2519115E+000	-1.483273908578354E+002	1.8569277E-001	-1.2518628E+000	0
8.3182383E+000	1.132442973457000E+002	-1.2538960E+000	-1.507405660709492E+002	1.8901299E-001	-1.2538636E+000	0
8.1815128E+000	1.134443973406451E+002	-1.2559215E+000	-1.535072445642375E+002	1.9279304E-001	-1.2558650E+000	0
8.0573339E+000	1.136443973355927E+002	-1.2578462E+000	-1.561119662044807E+002	1.9636485E-001	-1.2578650E+000	0
7.9437919E+000	1.138443973305402E+002	-1.2599179E+000	-1.586040830395928E+002	1.9982812E-001	-1.2598648E+000	0
7.8495498E+000	1.140443973254878E+002	-1.2619094E+000	-1.607620052739876E+002	2.0286708E-001	-1.2618649E+000	0
7.7327204E+000	1.142443973204354E+002	-1.2639016E+000	-1.634485055432569E+002	2.0658283E-001	-1.2638649E+000	0
7.6238680E+000	1.144443973153830E+002	-1.2658900E+000	-1.660430147437013E+002	2.1019219E-001	-1.2658650E+000	0
7.4913683E+000	1.146445973103255E+002	-1.2678697E+000	-1.692440776802616E+002	2.1457943E-001	-1.2678665E+000	0
7.3113961E+000	1.148447973052680E+002	-1.2698957E+000	-1.736871664464609E+002	2.2056457E-001	-1.2698690E+000	0
7.2031984E+000	1.150448973002131E+002	-1.2719558E+000	-1.765820913052422E+002	2.2460462E-001	-1.2718697E+000	0
7.0758004E+000	1.152449972951581E+002	-1.2739065E+000	-1.800370842983384E+002	2.2935040E-001	-1.2738708E+000	0
7.0032983E+000	1.154449972901057E+002	-1.2759054E+000	-1.821863499985257E+002	2.3245254E-001	-1.2758708E+000	0
6.8804569E+000	1.156449972850533E+002	-1.2779195E+000	-1.857317852065680E+002	2.3735027E-001	-1.2778710E+000	0
6.7434931E+000	1.158449972800008E+002	-1.2798926E+000	-1.897966802093181E+002	2.4291936E-001	-1.2798709E+000	0
6.7122169E+000	1.160450972749459E+002	-1.2819558E+000	-1.909884474095326E+002	2.4483876E-001	-1.2818716E+000	0
6.6312466E+000	1.162451972698909E+002	-1.2839253E+000	-1.936174829963111E+002	2.4859038E-001	-1.2838728E+000	0
6.5490680E+000	1.164451972648385E+002	-1.2859581E+000	-1.963574070314155E+002	2.5250739E-001	-1.2858729E+000	0
6.4628363E+000	1.166451972597861E+002	-1.2879261E+000	-1.992818664185311E+002	2.5666031E-001	-1.2878729E+000	0
6.3711700E+000	1.168451972547336E+002	-1.2899349E+000	-2.024643669193297E+002	2.6116586E-001	-1.2898730E+000	0
6.3102527E+000	1.170451972496812E+002	-1.2919101E+000	-2.047319125004628E+002	2.6449522E-001	-1.2918729E+000	0
6.2615395E+000	1.172451972446288E+002	-1.2939483E+000	-2.066501846897372E+002	2.6739466E-001	-1.2938728E+000	0
6.1800251E+000	1.174451972395764E+002	-1.2959456E+000	-2.096990837888654E+002	2.7175862E-001	-1.2958728E+000	0
6.0723529E+000	1.176452972345214E+002	-1.2979861E+000	-2.137534140684870E+002	2.7744898E-001	-1.2978736E+000	0
5.9757104E+000	1.178453972294665E+002	-1.2999748E+000	-2.175431339302841E+002	2.8280059E-001	-1.2998749E+000	0
5.8833404E+000	1.180453972244140E+002	-1.3019315E+000	-2.212912174514631E+002	2.8810599E-001	-1.3018749E+000	0
5.7753377E+000	1.182453972193616E+002	-1.3039491E+000	-2.257788523611296E+002	2.9440415E-001	-1.3038749E+000	0
5.7002263E+000	1.184453972143092E+002	-1.3059543E+000	-2.291057080422406E+002	2.9920161E-001	-1.3058748E+000	0
5.6188645E+000	1.186453972092568E+002	-1.3079779E+000	-2.327833190753627E+002	3.0447543E-001	-1.3078749E+000	0
5.5310092E+000	1.188453972042043E+002	-1.3099562E+000	-2.368385406740654E+002	3.1024811E-001	-1.3098749E+000	0
5.4466386E+000	1.190453971991519E+002	-1.3119758E+000	-2.408780844033161E+002	3.1602624E-001	-1.3118749E+000	0
5.3796515E+000	1.192454971940970E+002	-1.3139802E+000	-2.442500684258184E+002	3.2093975E-001	-1.3138756E+000	0
5.3299575E+000	1.194455971890420E+002	-1.3159962E+000	-2.469055688646095E+002	3.2492679E-001	-1.3158768E+000	0
5.2852125E+000	1.196455971839896E+002	-1.3179915E+000	-2.493734241213110E+002	3.2867205E-001	-1.3178768E+000	0
5.2355580E+000	1.198455971789372E+002	-1.3199972E+000	-2.521215925757324E+002	3.3279979E-001	-1.3198769E+000	0
5.2380967E+000	1.200455971738847E+002	-1.3219941E+000	-2.523806249354698E+002	3.3364570E-001	-1.3218769E+000	0
5.1684957E+000	1.202455971688323E+002	-1.3239863E+000	-2.561647396001149E+002	3.3915859E-001	-1.3238769E+000	0
5.0547051E+000	1.204455971637799E+002	-1.3259931E+000	-2.623284627347848E+002	3.4784573E-001	-1.3258768E+000	0
5.0371194E+000	1.206455971587275E+002	-1.3279868E+000	-2.636401426700236E+002	3.5011065E-001	-1.3278769E+000	0
4.9877257E+000	1.208455971536750E+002	-1.3300130E+000	-2.666572008781704E+002	3.5465756E-001	-1.3298769E+000	0
4.9457531E+000	1.210456971486201E+002	-1.3319814E+000	-2.693182164339951E+002	3.5872686E-001	-1.3318777E+000	0
4.8877773E+000	1.212457971435651E+002	-1.3340167E+000	-2.729291141644094E+002	3.6409199E-001	-1.3338789E+000	0
4.8482246E+000	1.214457971385127E+002	-1.3360207E+000	-2.755690537082887E+002	3.6816597E-001	-1.3358788E+000	0
4.7791190E+000	1.216357971337129E+002	-1.3378770E+000	-2.799422010858309E+002	3.7452823E-001	-1.3377786E+000	0
4.7261744E+000	1.218159971291607E+002	-1.3396966E+000	-2.834632246293806E+002	3.7975472E-001	-1.3395801E+000	0
4.6524353E+000	1.219964971246009E+002	-1.3414873E+000	-2.883408737843356E+002	3.8680562E-001	-1.3413851E+000	0
4.5872869E+000	1.221670971202911E+002	-1.3432133E+000	-2.928121425816635E+002	3.9330918E-001	-1.3430909E+000	0
4.4720931E+000	1.223277971162315E+002	-1.3448210E+000	-3.007139780806865E+002	4.0440646E-001	-1.3446980E+000	0
4.3586297E+000	1.224983971119218E+002	-1.3465672E+000	-3.089427776780500E+002	4.1601220E-001	-1.3464042E+000	0
4.3621602E+000	1.226787971073645E+002	-1.3483769E+000	-3.091076040272217E+002	4.1679356E-001	-1.3482081E+000	0
4.2922678E+000	1.228592971028047E+002	-1.3501801E+000	-3.145610340080880E+002	4.2471406E-001	-1.3500133E+000	0
4.2817583E+000	1.229998970992528E+002	-1.3515440E+000	-3.156516209121319E+002	4.2661706E-001	-1.3514187E+000	0
4.2686515E+000	1.231401970957086E+002	-1.3529675E+000	-3.169543253678848E+002	4.2882890E-001	-1.3528218E+000	0
4.2496061E+000	1.233003970916616E+002	-1.3545672E+000	-3.187512438654840E+002	4.3176997E-001	-1.3544245E+000	0
4.1985817E+000	1.234604970876171E+002	-1.3561623E+000	-3.230048621979095E+002	4.3804702E-001	-1.3560252E+000	0
4.0976057E+000	1.236109970838152E+002	-1.3576516E+000	-3.313280371146520E+002	4.4982803E-001	-1.3575305E+000	0
4.1123815E+000	1.237810970795181E+002	-1.3593725E+000	-3.305560500086904E+002	4.4934881E-001	-1.3592318E+000	0
4.0893030E+000	1.239711970747157E+002	-1.3612993E+000	-3.328927349680553E+002	4.5316663E-001	-1.3611325E+000	0
4.0330644E+000	1.241715970696532E+002	-1.3633115E+000	-3.380336627579079E+002	4.6084520E-001	-1.3631359E+000	0
4.0513372E+000	1.243619970648433E+002	-1.3651836E+000	-3.369711036311228E+002	4.6002743E-001	-1.3650397E+000	0
4.0265479E+000	1.245325970605336E+002	-1.3669032E+000	-3.394727284449800E+002	4.6402636E-001	-1.3667461E+000	0
3.9932013E+000	1.246831970567291E+002	-1.3683864E+000	-3.426790526621326E+002	4.6891734E-001	-1.3682520E+000	0
3.9510949E+000	1.248533970524295E+002	-1.3701030E+000	-3.467654026453911E+002	4.7510433E-001	-1.3699548E+000	0
3.8966560E+000	1.250537970473670E+002	-1.3720998E+000	-3.521223748945045E+002	4.8314703E-001	-1.3719583E+000	0
3.8966181E+000	1.252339970428147E+002	-1.3739319E+000	-3.525959707960674E+002	4.8444286E-001	-1.3737605E+000	0
3.8777292E+000	1.253942970387652E+002	-1.3755252E+000	-3.547244240958955E+002	4.8793238E-001	-1.3753631E+000	0
3.8083038E+000	1.255546970347132E+002	-1.3771389E+000	-3.616147465058989E+002	4.9799371E-001	-1.3769678E+000	0
3.7231102E+000	1.257150970306611E+002	-1.3788155E+000	-3.703396984830006E+002	5.1063013E-001	-1.3785713E+000	0
3.7465601E+000	1.258654970268617E+002	-1.3802679E+000	-3.684093626112843E+002	5.0850362E-001	-1.3800753E+000	0
3.7147088E+000	1.260159970230598E+002	-1.3817500E+000	-3.719672335152209E+002	5.1396573E-001	-1.3815801E+000	0
3.6479175E+000	1.261965970184974E+002	-1.3835962E+000	-3.792838344780321E+002	5.2477568E-001	-1.3833864E+000	0
3.6090863E+000	1.263968970134374E+002	-1.3856324E+000	-3.839288735265918E+002	5.3198427E-001	-1.3853897E+000	0
3.6138017E+000	1.265872970086275E+002	-1.3874570E+000	-3.839328022022823E+002	5.3269029E-001	-1.3872932E+000	0
3.6074252E+000	1.267777970038151E+002	-1.3893830E+000	-3.851453295032757E+002	5.3511435E-001	-1.3891983E+000	0
3.6029952E+000	1.269683969990001E+002	-1.3912674E+000	-3.861419002849429E+002	5.3722662E-001	-1.3911040E+000	0
3.5819218E+000	1.271588969941877E+002	-1.3931339E+000	-3.889347455514608E+002	5.4183817E-001	-1.3930094E+000	0
3.5478699E+000	1.273491969893803E+002	-1.3950057E+000	-3.931952805263785E+002	5.4850966E-001	-1.3949125E+000	0
3.5081110E+000	1.275194969850781E+002	-1.3968015E+000	-3.981634205682759E+002	5.5615526E-001	-1.3966153E+000	0
3.4787943E+000	1.276895969807811E+002	-1.3985165E+000	-4.020118555434983E+002	5.6222022E-001	-1.3983165E+000	0
3.4476418E+000	1.278496969767366E+002	-1.4001262E+000	-4.061112790450134E+002	5.6860703E-001	-1.3999176E+000	0
3.4501257E+000	1.280295969721919E+002	-1.4019320E+000	-4.063422936582738E+002	5.6966424E-001	-1.4017165E+000	0
3.4297743E+000	1.282197969673871E+002	-1.4038327E+000	-4.093075844009759E+002	5.7459939E-001	-1.4036185E+000	0
3.4257379E+000	1.283803969633300E+002	-1.4054196E+000	-4.102531084733860E+002	5.7657778E-001	-1.4052240E+000	0
3.3692477E+000	1.285507969590253E+002	-1.4071871E+000	-4.176561752856578E+002	5.8772039E-001	-1.4069282E+000	0
3.2864232E+000	1.287210969547232E+002	-1.4087905E+000	-4.286698320155291E+002	6.0390598E-001	-1.4086313E+000	0
3.2595494E+000	1.288913969504210E+002	-1.4105619E+000	-4.327475378600939E+002	6.1041719E-001	-1.4103346E+000	0
3.2924218E+000	1.290514969463766E+002	-1.4121472E+000	-4.289083404293515E+002	6.0568172E-001	-1.4119354E+000	0
3.2913899E+000	1.292318969418193E+002	-1.4139673E+000	-4.295957732574971E+002	6.0743433E-001	-1.4137391E+000	0
3.2364450E+000	1.294124969372569E+002	-1.4157038E+000	-4.374255604303089E+002	6.1926502E-001	-1.4155451E+000	0
3.1654527E+000	1.296030969324420E+002	-1.4176981E+000	-4.478658280606678E+002	6.3493854E-001	-1.4174511E+000	0
3.1895616E+000	1.297836969278796E+002	-1.4195073E+000	-4.450477679919250E+002	6.3174856E-001	-1.4192575E+000	0
3.1754825E+000	1.299639969233249E+002	-1.4213196E+000	-4.475916928584120E+002	6.3617086E-001	-1.4210603E+000	0
3.1427150E+000	1.301343969190202E+002	-1.4229374E+000	-4.527732784483442E+002	6.4426804E-001	-1.4227638E+000	0
3.1413064E+000	1.303047969147156E+002	-1.4246688E+000	-4.535274759767599E+002	6.4612645E-001	-1.4244683E+000	0
3.0860455E+000	1.304950969099082E+002	-1.4265766E+000	-4.622668915562335E+002	6.5945911E-001	-1.4263715E+000	0
3.0364466E+000	1.306554969058561E+002	-1.4282038E+000	-4.703536624990656E+002	6.7176092E-001	-1.4279749E+000	0
3.0281141E+000	1.308158969018041E+002	-1.4298052E+000	-4.721767724602596E+002	6.7512077E-001	-1.4295794E+000	0
3.0109961E+000	1.309761968977546E+002	-1.4314008E+000	-4.753910992143046E+002	6.8047518E-001	-1.4311819E+000	0
3.0210979E+000	1.311066968944579E+002	-1.4327105E+000	-4.742350473071768E+002	6.7944157E-001	-1.4324876E+000	0
2.9676094E+000	1.312866968899107E+002	-1.4345427E+000	-4.834000854361694E+002	6.9345802E-001	-1.4342877E+000	0
2.9735482E+000	1.314870968848481E+002	-1.4364967E+000	-4.830917950212261E+002	6.9395977E-001	-1.4362912E+000	0
2.9737535E+000	1.316876968797806E+002	-1.4385203E+000	-4.837389179596280E+002	6.9586825E-001	-1.4382969E+000	0
2.8772764E+000	1.318881968747155E+002	-1.4405401E+000	-5.006610109113528E+002	7.2122222E-001	-1.4403021E+000	0
2.8773196E+000	1.320583968704159E+002	-1.4422579E+000	-5.012504910910504E+002	7.2293246E-001	-1.4420040E+000	0
2.8682637E+000	1.322287968661112E+002	-1.4439207E+000	-5.034128395604087E+002	7.2688824E-001	-1.4437083E+000	0
2.8298130E+000	1.323991968618066E+002	-1.4456288E+000	-5.108566589757471E+002	7.3850906E-001	-1.4454122E+000	0
2.8231812E+000	1.325596968577520E+002	-1.4472432E+000	-5.126285529548632E+002	7.4189818E-001	-1.4470172E+000	0
2.8364248E+000	1.327202968536949E+002	-1.4488953E+000	-5.108174807094210E+002	7.4012107E-001	-1.4486233E+000	0
2.8334830E+000	1.329103968488926E+002	-1.4507138E+000	-5.119895879957412E+002	7.4275035E-001	-1.4505247E+000	0
2.8074672E+000	1.331103968438401E+002	-1.4528271E+000	-5.174867513185195E+002	7.5181878E-001	-1.4525245E+000	0
2.8069363E+000	1.333003968390403E+002	-1.4546493E+000	-5.182338307540326E+002	7.5384849E-001	-1.4544244E+000	0
2.7797742E+000	1.334803968344931E+002	-1.4564840E+000	-5.239576548149007E+002	7.6313591E-001	-1.4562246E+000	0
2.7774577E+000	1.336603968299460E+002	-1.4582444E+000	-5.250284832760954E+002	7.6561987E-001	-1.4580245E+000	0
2.7540402E+000	1.338503968251462E+002	-1.4601780E+000	-5.301948869147271E+002	7.7417892E-001	-1.4599247E+000	0
2.6635733E+000	1.340503968200937E+002	-1.4622430E+000	-5.489779497522868E+002	8.0273914E-001	-1.4619248E+000	0
2.6729052E+000	1.342503968150413E+002	-1.4642047E+000	-5.477952082108459E+002	8.0208433E-001	-1.4639246E+000	0
2.6525853E+000	1.344404968102390E+002	-1.4660964E+000	-5.527047007333667E+002	8.1031835E-001	-1.4658256E+000	0
2.6724362E+000	1.346303968054417E+002	-1.4680059E+000	-5.493137125604899E+002	8.0639577E-001	-1.4677246E+000	0
2.6593554E+000	1.348303968003893E+002	-1.4700150E+000	-5.527711927020355E+002	8.1258196E-001	-1.4697247E+000	0
2.6619754E+000	1.350303967953369E+002	-1.4719814E+000	-5.529658384128506E+002	8.1395543E-001	-1.4717247E+000	0
2.6332405E+000	1.352203967905371E+002	-1.4738973E+000	-5.597276112986392E+002	8.2498103E-001	-1.4736245E+000	0
2.6076188E+000	1.353904967862400E+002	-1.4756069E+000	-5.658828997343317E+002	8.3502072E-001	-1.4753255E+000	0
2.5926483E+000	1.355703967816953E+002	-1.4774660E+000	-5.698674784434697E+002	8.4195983E-001	-1.4771246E+000	0
2.5750051E+000	1.357603967768955E+002	-1.4793316E+000	-5.744965953876845E+002	8.4987098E-001	-1.4790244E+000	0
2.5276906E+000	1.358804967738615E+002	-1.4805076E+000	-5.857155223753002E+002	8.6715627E-001	-1.4802253E+000	0
2.5121419E+000	1.359353967724746E+002	-1.4810532E+000	-5.895579249064128E+002	8.7316668E-001	-1.4808244E+000	1