EC-Lab ASCII FILE
Nb header lines : 61                          

Linear Sweep Voltammetry

Run on channel : 1 (SN 1340)
User : 
Electrode connection : standard
Potential control : Ewe
Ewe ctrl range : min = -5.00 V, max = 5.00 V
Ewe,I filtering : <None>
Channel : Grounded
Acquisition started on : 02/09/2026 17:53:06.863
Technique started on : 02/09/2026 17:53:09.547
Loaded Setting File :  NONE
Saved on :
	File : PtPdNi_10Co_10Cr_01_02_LSV_C01.mpr
	Directory : C:\Users\volt\Documents\Platalytix\
	Host : 127.0.0.1
Device : SP-200 (SN 0262)
Address : USB
EC-LAB for windows v11.60 (software)
Internet server v11.60 (firmware)
Command interpretor v11.60 (firmware)
Electrode material : Pt30Pd30Ni10Co10Cr20
Initial state : 
Electrolyte : 1 M KOH
Comments : 
Cable : standard
Reference electrode : Hg/HgO (0.140 V)
Electrode surface area : 1.000 cm˛
Characteristic mass : 0.001 g
Equivalent Weight : 0.000 g/eq.
Density : 0.000 g/cm3
Volume (V) : 0.001 cmł
Cycle Definition : Charge/Discharge alternance
tR (h:m:s)          0:00:5.0000         
dER/dt (mV/h)       0.0                 
dER (mV)            0                   
dtR (s)             0.0000              
dE/dt               10.000              
dE/dt unit          mV/s                
Ei (V)              -0.200              
vs.                 Ref                 
EL (V)              -2.000              
vs.                 Ref                 
record              <I>                 
dI                  0.000               
unit dI             µA                  
tI (s)              0.0000              
step percent        50                  
N                   10                  
E range min (V)     -5.000              
E range max (V)     5.000               
I Range             Auto                
I Range min         Unset               
I Range max         Unset               
I Range init        Unset               
Bandwidth           8                   

Rwe/Ohm	time/s	Ewe/V	<I>/mA	Pwe/W	control/V	error	
0.0000000E+000	2.684400127473054E+000	-1.6604611E-001	0.000000000000000E+000	0.0000000E+000	0.0000000E+000	0
0.0000000E+000	7.684200001167483E+000	-1.9544443E-002	0.000000000000000E+000	0.0000000E+000	-1.9983476E-001	0
1.6736870E+003	7.884199996115058E+000	-2.0173137E-001	-1.205311163514855E-001	2.4314908E-005	-2.0173454E-001	0
1.4390760E+003	8.004199993083603E+000	-2.0276207E-001	-1.408973961650417E-001	2.8568647E-005	-2.0293461E-001	0
1.7693914E+003	8.214199987778557E+000	-2.0495863E-001	-1.158356691167912E-001	2.3741521E-005	-2.0503457E-001	0
2.0237931E+003	8.414199982726132E+000	-2.0687902E-001	-1.022234060695970E-001	2.1147878E-005	-2.0703447E-001	0
2.2337710E+003	8.614199977673707E+000	-2.0892553E-001	-9.353041176709542E-002	1.9540890E-005	-2.0903434E-001	0
2.4135835E+003	8.814199972621282E+000	-2.1086015E-001	-8.736393307261703E-002	1.8421571E-005	-2.1103424E-001	0
2.5700811E+003	9.014199967568857E+000	-2.1287434E-001	-8.282786656367502E-002	1.7631928E-005	-2.1303412E-001	0
2.7126919E+003	9.214199962516432E+000	-2.1484803E-001	-7.920104286700980E-002	1.7016187E-005	-2.1503402E-001	0
2.8442495E+003	9.414199957464007E+000	-2.1687581E-001	-7.625062723037956E-002	1.6536917E-005	-2.1703392E-001	0
2.9672034E+003	9.614199952411582E+000	-2.1887262E-001	-7.376394202708880E-002	1.6144908E-005	-2.1903381E-001	0
3.0815020E+003	9.814199947359157E+000	-2.2088109E-001	-7.167968241067085E-002	1.5832686E-005	-2.2103368E-001	0
3.1900054E+003	1.001419994230673E+001	-2.2294176E-001	-6.988757959030589E-002	1.5580859E-005	-2.2303355E-001	0
3.2951328E+003	1.021419993725431E+001	-2.2488867E-001	-6.824874196702058E-002	1.5348369E-005	-2.2503346E-001	0
3.3971318E+003	1.041419993220188E+001	-2.2687849E-001	-6.678530676533267E-002	1.5152150E-005	-2.2703335E-001	0
3.4965627E+003	1.061419992714946E+001	-2.2893834E-001	-6.547525591827297E-002	1.4989797E-005	-2.2903325E-001	0
3.5869690E+003	1.081419992209703E+001	-2.3083922E-001	-6.435495472139341E-002	1.4855647E-005	-2.3103310E-001	0
3.6850730E+003	1.101419991704461E+001	-2.3298328E-001	-6.322351623750988E-002	1.4730022E-005	-2.3303300E-001	0
3.7738477E+003	1.121419991199218E+001	-2.3497754E-001	-6.226471236531039E-002	1.4630809E-005	-2.3503289E-001	0
3.8608923E+003	1.141409990694228E+001	-2.3687503E-001	-6.135240412141751E-002	1.4532852E-005	-2.3703279E-001	0
3.9488542E+003	1.161399990189238E+001	-2.3890261E-001	-6.049922399186952E-002	1.4453422E-005	-2.3903267E-001	0
4.0318982E+003	1.181399989683996E+001	-2.4085930E-001	-5.973843731093842E-002	1.4388558E-005	-2.4103257E-001	0
4.1231523E+003	1.201399989178753E+001	-2.4294886E-001	-5.892308930340573E-002	1.4315297E-005	-2.4303246E-001	0
4.2059199E+003	1.221399988673511E+001	-2.4492571E-001	-5.823356469527152E-002	1.4262897E-005	-2.4503234E-001	0
4.2898330E+003	1.241399988168268E+001	-2.4686329E-001	-5.754612935569692E-002	1.4206027E-005	-2.4703221E-001	0
4.3669092E+003	1.261399987663026E+001	-2.4884121E-001	-5.698337285333843E-002	1.4179812E-005	-2.4903211E-001	0
4.4539014E+003	1.281399987157783E+001	-2.5084865E-001	-5.632110865619866E-002	1.4128074E-005	-2.5103202E-001	0
4.5349971E+003	1.301399986652541E+001	-2.5297958E-001	-5.578384279060156E-002	1.4112173E-005	-2.5303191E-001	0
4.6131504E+003	1.321399986147298E+001	-2.5490466E-001	-5.525609323873160E-002	1.4085035E-005	-2.5503179E-001	0
4.6919126E+003	1.341399985642056E+001	-2.5676227E-001	-5.472443380462810E-002	1.4051169E-005	-2.5703168E-001	0
4.7671431E+003	1.361399985136813E+001	-2.5886092E-001	-5.430106055878445E-002	1.4056423E-005	-2.5903156E-001	0
4.8483135E+003	1.381399984631571E+001	-2.6099077E-001	-5.383125139039269E-002	1.4049459E-005	-2.6103148E-001	0
4.9277935E+003	1.401399984126328E+001	-2.6287511E-001	-5.334539903811453E-002	1.4023178E-005	-2.6303136E-001	0
5.0079683E+003	1.421399983621086E+001	-2.6487660E-001	-5.289103099632826E-002	1.4009596E-005	-2.6503122E-001	0
5.0851538E+003	1.441399983115844E+001	-2.6686895E-001	-5.248001458486540E-002	1.4005286E-005	-2.6703113E-001	0
5.1628516E+003	1.461399982610601E+001	-2.6893321E-001	-5.209005099210207E-002	1.4008744E-005	-2.6903102E-001	0
5.2390640E+003	1.481399982105359E+001	-2.7090350E-001	-5.170837821926744E-002	1.4007980E-005	-2.7103090E-001	0
5.3152842E+003	1.501389981600369E+001	-2.7290085E-001	-5.134266372783580E-002	1.4011456E-005	-2.7303147E-001	0
5.3929321E+003	1.521379981095379E+001	-2.7482602E-001	-5.096040852948658E-002	1.4005246E-005	-2.7503070E-001	0
5.4697837E+003	1.541379980590136E+001	-2.7686843E-001	-5.061780093839641E-002	1.4014471E-005	-2.7703059E-001	0
5.5524814E+003	1.561379980084894E+001	-2.7892703E-001	-5.023466121635567E-002	1.4011805E-005	-2.7903047E-001	0
5.6298906E+003	1.581379979579651E+001	-2.8090405E-001	-4.989511721245887E-002	1.4015741E-005	-2.8103033E-001	0
5.7053652E+003	1.601379979074409E+001	-2.8288177E-001	-4.958170834271947E-002	1.4025762E-005	-2.8303024E-001	0
5.7778862E+003	1.621379978569166E+001	-2.8484651E-001	-4.929943455440222E-002	1.4042772E-005	-2.8503016E-001	0
5.8550083E+003	1.641379978063924E+001	-2.8689429E-001	-4.899981026400413E-002	1.4057766E-005	-2.8703001E-001	0
5.9308325E+003	1.661379977558681E+001	-2.8888851E-001	-4.870960763771759E-002	1.4071647E-005	-2.8902990E-001	0
6.0051104E+003	1.681379977053439E+001	-2.9085624E-001	-4.843478553026670E-002	1.4087560E-005	-2.9102978E-001	0
6.0818613E+003	1.701379976548196E+001	-2.9287812E-001	-4.815600003731429E-002	1.4103839E-005	-2.9302970E-001	0
6.1578745E+003	1.721379976042954E+001	-2.9479641E-001	-4.787307858093304E-002	1.4112811E-005	-2.9502958E-001	0
6.2322593E+003	1.741379975537711E+001	-2.9684198E-001	-4.762991447801029E-002	1.4138558E-005	-2.9702947E-001	0
6.3055806E+003	1.761379975032469E+001	-2.9880551E-001	-4.738747075573868E-002	1.4159637E-005	-2.9902935E-001	0
6.3821953E+003	1.781379974527226E+001	-3.0085239E-001	-4.713932643913776E-002	1.4181979E-005	-3.0102926E-001	0
6.4600278E+003	1.801379974021984E+001	-3.0287823E-001	-4.688497436604533E-002	1.4200438E-005	-3.0302912E-001	0
6.5367188E+003	1.821379973516741E+001	-3.0487230E-001	-4.663995977057156E-002	1.4219232E-005	-3.0502900E-001	0
6.6021797E+003	1.841379973011499E+001	-3.0693933E-001	-4.649060710186537E-002	1.4269796E-005	-3.0702889E-001	0
6.6817085E+003	1.861359972506762E+001	-3.0889151E-001	-4.622941864462066E-002	1.4279874E-005	-3.0902854E-001	0
6.7604023E+003	1.881359972001519E+001	-3.1086016E-001	-4.598249320063275E-002	1.4294125E-005	-3.1102869E-001	0
6.8336416E+003	1.901359971496277E+001	-3.1287292E-001	-4.578421549457623E-002	1.4324641E-005	-3.1302854E-001	0
6.9120757E+003	1.921359970991034E+001	-3.1484866E-001	-4.555052380888514E-002	1.4341522E-005	-3.1502849E-001	0
6.9788779E+003	1.941359970485792E+001	-3.1689513E-001	-4.540774789285063E-002	1.4389494E-005	-3.1702834E-001	0
7.0553149E+003	1.961359969980549E+001	-3.1888875E-001	-4.519837301450441E-002	1.4413253E-005	-3.1902823E-001	0
7.1327905E+003	1.981359969475307E+001	-3.2084969E-001	-4.498235183575799E-002	1.4432573E-005	-3.2102811E-001	0
7.3509595E+003	2.005359968869016E+001	-3.2324478E-001	-4.397314242265471E-002	1.4214089E-005	-3.2342798E-001	0
7.4490903E+003	2.025359968363773E+001	-3.2526559E-001	-4.366514161297769E-002	1.4202767E-005	-3.2542786E-001	0
7.5176406E+003	2.045359967858531E+001	-3.2733178E-001	-4.354182378306592E-002	1.4252622E-005	-3.2742774E-001	0
7.5880986E+003	2.065359967353288E+001	-3.2925051E-001	-4.339038505421650E-002	1.4286306E-005	-3.2942766E-001	0
7.6670366E+003	2.085359966848046E+001	-3.3119893E-001	-4.319777632292660E-002	1.4307057E-005	-3.3142754E-001	0
7.7438481E+003	2.105359966342803E+001	-3.3334744E-001	-4.304674256787273E-002	1.4349522E-005	-3.3342743E-001	0
7.8161113E+003	2.125359965837561E+001	-3.3524388E-001	-4.289139147299859E-002	1.4379077E-005	-3.3542731E-001	0
7.8927642E+003	2.145359965332318E+001	-3.3722094E-001	-4.272532849118539E-002	1.4407875E-005	-3.3742720E-001	0
7.9602612E+003	2.165359964827076E+001	-3.3931258E-001	-4.262581100827828E-002	1.4463474E-005	-3.3942708E-001	0
8.0359248E+003	2.185359964321833E+001	-3.4123638E-001	-4.246385870321889E-002	1.4490213E-005	-3.4142697E-001	0
8.1238457E+003	2.205349963816843E+001	-3.4326160E-001	-4.225358471255392E-002	1.4504033E-005	-3.4342623E-001	0
8.1833364E+003	2.225339963311853E+001	-3.4529600E-001	-4.219501459461063E-002	1.4569770E-005	-3.4542677E-001	0
8.2697510E+003	2.245339962806611E+001	-3.4724042E-001	-4.198922504841968E-002	1.4580356E-005	-3.4742665E-001	0
8.3341807E+003	2.265339962301368E+001	-3.4925610E-001	-4.190647214769372E-002	1.4636091E-005	-3.4942654E-001	0
8.4187666E+003	2.285339961796126E+001	-3.5126138E-001	-4.172361331259034E-002	1.4655894E-005	-3.5142645E-001	0
8.4886611E+003	2.305339961290883E+001	-3.5328579E-001	-4.161855112259694E-002	1.4703242E-005	-3.5342631E-001	0
8.5579814E+003	2.325339960785641E+001	-3.5530552E-001	-4.151744298534488E-002	1.4751377E-005	-3.5542622E-001	0
8.6378965E+003	2.345339960280398E+001	-3.5726622E-001	-4.136032854917482E-002	1.4776648E-005	-3.5742608E-001	0
8.7077666E+003	2.365339959775156E+001	-3.5925561E-001	-4.125691634679907E-002	1.4821779E-005	-3.5942596E-001	0
8.7993994E+003	2.385339959269913E+001	-3.6129931E-001	-4.105954305184356E-002	1.4834784E-005	-3.6142588E-001	0
8.8493945E+003	2.405339958764671E+001	-3.6322820E-001	-4.104554315088124E-002	1.4908899E-005	-3.6342579E-001	0
8.9318154E+003	2.425339958259428E+001	-3.6532661E-001	-4.090172125136415E-002	1.4942488E-005	-3.6542565E-001	0
9.0024863E+003	2.445339957754186E+001	-3.6724684E-001	-4.079393568726419E-002	1.4981444E-005	-3.6742550E-001	0
9.0859268E+003	2.465339957248943E+001	-3.6925367E-001	-4.064017602732484E-002	1.5006534E-005	-3.6942545E-001	0
9.1411670E+003	2.485339956743701E+001	-3.7125021E-001	-4.061299906869337E-002	1.5077585E-005	-3.7142530E-001	0
9.2277813E+003	2.505339956238458E+001	-3.7328717E-001	-4.045253683382100E-002	1.5100413E-005	-3.7342522E-001	0
9.2984834E+003	2.525339955733216E+001	-3.7521520E-001	-4.035230265384371E-002	1.5140798E-005	-3.7542507E-001	0
9.3658906E+003	2.545339955227973E+001	-3.7725762E-001	-4.027995076019918E-002	1.5195918E-005	-3.7742501E-001	0
9.4365254E+003	2.565329954722984E+001	-3.7926248E-001	-4.019090231849348E-002	1.5242901E-005	-3.7942463E-001	0
9.5146748E+003	2.585319954217994E+001	-3.8128731E-001	-4.007360380556851E-002	1.5279556E-005	-3.8142475E-001	0
9.5838467E+003	2.605319953712751E+001	-3.8322106E-001	-3.998614404173129E-002	1.5323532E-005	-3.8342464E-001	0
9.6632168E+003	2.625319953207509E+001	-3.8526607E-001	-3.986933929718983E-002	1.5360303E-005	-3.8542452E-001	0
9.7323076E+003	2.645319952702266E+001	-3.8728726E-001	-3.979397933854126E-002	1.5411701E-005	-3.8742444E-001	0
9.7965654E+003	2.665319952197024E+001	-3.8932031E-001	-3.974049165792111E-002	1.5471780E-005	-3.8942429E-001	0
9.8812402E+003	2.685319951691781E+001	-3.9129698E-001	-3.959998858183424E-002	1.5495356E-005	-3.9142418E-001	0
9.9469697E+003	2.705319951186539E+001	-3.9329085E-001	-3.953875914636285E-002	1.5550233E-005	-3.9342409E-001	0
1.0025364E+004	2.725319950681296E+001	-3.9533073E-001	-3.943305492032612E-002	1.5589098E-005	-3.9542401E-001	0
1.0082059E+004	2.745319950176054E+001	-3.9720294E-001	-3.939700871283633E-002	1.5648608E-005	-3.9742386E-001	0
1.0171570E+004	2.765319949670811E+001	-3.9937699E-001	-3.926404445699261E-002	1.5681157E-005	-3.9942375E-001	0
1.0237392E+004	2.785319949165569E+001	-4.0127382E-001	-3.919688234018058E-002	1.5728683E-005	-4.0142366E-001	0
1.0313230E+004	2.805319948660326E+001	-4.0324324E-001	-3.909960446394606E-002	1.5766651E-005	-4.0342352E-001	0
1.0388406E+004	2.825319948155084E+001	-4.0528017E-001	-3.901273798980998E-002	1.5811089E-005	-4.0542346E-001	0
1.0460491E+004	2.845319947649841E+001	-4.0734509E-001	-3.894129513008970E-002	1.5862544E-005	-4.0742332E-001	0
1.0542819E+004	2.865319947144599E+001	-4.0934169E-001	-3.882658587717991E-002	1.5893340E-005	-4.0942323E-001	0
1.0601021E+004	2.885319946639356E+001	-4.1126207E-001	-3.879457447216406E-002	1.5954736E-005	-4.1142309E-001	0
1.0662984E+004	2.905319946134114E+001	-4.1326252E-001	-3.875673936506796E-002	1.6016707E-005	-4.1342297E-001	0
1.0742641E+004	2.925309945629124E+001	-4.1531056E-001	-3.866000846900877E-002	1.6055910E-005	-4.1542220E-001	0
1.0806842E+004	2.945299945124134E+001	-4.1739529E-001	-3.862324309252341E-002	1.6121159E-005	-4.1742274E-001	0
1.0893160E+004	2.965299944618891E+001	-4.1937113E-001	-3.849857217445329E-002	1.6145190E-005	-4.1942266E-001	0
1.0952989E+004	2.985299944113649E+001	-4.2132992E-001	-3.846711672994549E-002	1.6207347E-005	-4.2142254E-001	0
1.1029621E+004	3.005299943608406E+001	-4.2329827E-001	-3.837831604216346E-002	1.6245474E-005	-4.2342240E-001	0
1.1111125E+004	3.025299943103164E+001	-4.2551771E-001	-3.829654644015337E-002	1.6295859E-005	-4.2542231E-001	0
1.1179219E+004	3.045299942597921E+001	-4.2733201E-001	-3.822557157161077E-002	1.6335011E-005	-4.2742217E-001	0
1.1249816E+004	3.065299942092679E+001	-4.2935345E-001	-3.816537455499358E-002	1.6386435E-005	-4.2942211E-001	0
1.1320517E+004	3.085299941587436E+001	-4.3130058E-001	-3.809901772968699E-002	1.6432128E-005	-4.3142197E-001	0
1.1388819E+004	3.105299941082194E+001	-4.3333453E-001	-3.804911944361578E-002	1.6487997E-005	-4.3342182E-001	0
1.1460495E+004	3.125299940576951E+001	-4.3535551E-001	-3.798749611861879E-002	1.6538066E-005	-4.3542176E-001	0
1.1539921E+004	3.145299940071709E+001	-4.3731496E-001	-3.789583535689661E-002	1.6572416E-005	-4.3742165E-001	0
1.1605537E+004	3.165299939566466E+001	-4.3942192E-001	-3.786312700766636E-002	1.6637889E-005	-4.3942153E-001	0
1.1671848E+004	3.185299939061224E+001	-4.4133189E-001	-3.781165595904462E-002	1.6687489E-005	-4.4142139E-001	0
1.1740975E+004	3.205299938555982E+001	-4.4333890E-001	-3.775997531928688E-002	1.6740465E-005	-4.4342130E-001	0
1.1816334E+004	3.225299938050739E+001	-4.4542226E-001	-3.769547121901314E-002	1.6790402E-005	-4.4542119E-001	0
1.1898354E+004	3.245299937545497E+001	-4.4735205E-001	-3.759781288351585E-002	1.6819458E-005	-4.4742107E-001	0
1.1954646E+004	3.265299937040254E+001	-4.4931296E-001	-3.758479997936981E-002	1.6887338E-005	-4.4942099E-001	0
1.2035755E+004	3.285289936535264E+001	-4.5134759E-001	-3.750056396527374E-002	1.6925789E-005	-4.5142040E-001	0
1.2104055E+004	3.305279936030274E+001	-4.5331889E-001	-3.745182150950566E-002	1.6977618E-005	-4.5342076E-001	0
1.2171095E+004	3.325279935525032E+001	-4.5531955E-001	-3.740990823272045E-002	1.7033462E-005	-4.5542061E-001	0
1.2235475E+004	3.345279935019789E+001	-4.5735538E-001	-3.737945607076709E-002	1.7095696E-005	-4.5742053E-001	0
1.2326299E+004	3.365279934514547E+001	-4.5930892E-001	-3.726251713473300E-002	1.7115006E-005	-4.5942044E-001	0
1.2375458E+004	3.385279934009304E+001	-4.6130720E-001	-3.727597110247971E-002	1.7195674E-005	-4.6142030E-001	0
1.2464550E+004	3.405279933504062E+001	-4.6341708E-001	-3.717880757116920E-002	1.7229295E-005	-4.6342024E-001	0
1.2530149E+004	3.425279932998819E+001	-4.6529889E-001	-3.713434503747381E-002	1.7278569E-005	-4.6542004E-001	0
1.2605372E+004	3.445279932493577E+001	-4.6731582E-001	-3.707275106840874E-002	1.7324683E-005	-4.6741998E-001	0
1.2660535E+004	3.465279931988334E+001	-4.6929562E-001	-3.706759649071245E-002	1.7395661E-005	-4.6941987E-001	0
1.2746768E+004	3.485279931483092E+001	-4.7141558E-001	-3.698314603337849E-002	1.7434431E-005	-4.7141972E-001	0
1.2794239E+004	3.505279930977849E+001	-4.7330752E-001	-3.699380031294797E-002	1.7509445E-005	-4.7341967E-001	0
1.2879373E+004	3.525279930472607E+001	-4.7531387E-001	-3.690504672743859E-002	1.7541481E-005	-4.7541952E-001	0
1.2947174E+004	3.545279929967364E+001	-4.7723812E-001	-3.686040753969622E-002	1.7591192E-005	-4.7741941E-001	0
1.3030411E+004	3.565279929462122E+001	-4.7930115E-001	-3.678327180839069E-002	1.7630264E-005	-4.7941929E-001	0
1.3105281E+004	3.585279928956879E+001	-4.8130772E-001	-3.672624107919098E-002	1.7676623E-005	-4.8141918E-001	0
1.3168552E+004	3.605279928451637E+001	-4.8330024E-001	-3.670109357487394E-002	1.7737648E-005	-4.8341912E-001	0
1.3232289E+004	3.625279927946394E+001	-4.8537257E-001	-3.668092293722891E-002	1.7803914E-005	-4.8541895E-001	0
1.3313708E+004	3.645269927441404E+001	-4.8735830E-001	-3.660575307444783E-002	1.7840117E-005	-4.8741868E-001	0
1.3376960E+004	3.665259926936415E+001	-4.8933244E-001	-3.658024277833716E-002	1.7899900E-005	-4.8941875E-001	0
1.3453667E+004	3.685259926431172E+001	-4.9134687E-001	-3.652140788038094E-002	1.7944680E-005	-4.9141866E-001	0
1.3518923E+004	3.705259925925930E+001	-4.9333161E-001	-3.649193302637421E-002	1.8002624E-005	-4.9341854E-001	0
1.3594251E+004	3.725259925420687E+001	-4.9530461E-001	-3.643485853240480E-002	1.8046354E-005	-4.9541840E-001	0
1.3671634E+004	3.745259924915445E+001	-4.9732327E-001	-3.637628711980739E-002	1.8090774E-005	-4.9741834E-001	0
1.3738537E+004	3.765259924410202E+001	-4.9930757E-001	-3.634357511946534E-002	1.8146622E-005	-4.9941817E-001	0
1.3803676E+004	3.785259923904960E+001	-5.0134343E-001	-3.631956001813375E-002	1.8208573E-005	-5.0141811E-001	0
1.3871148E+004	3.805259923399717E+001	-5.0331944E-001	-3.628534822573753E-002	1.8263121E-005	-5.0341803E-001	0
1.3953819E+004	3.825259922894475E+001	-5.0538272E-001	-3.621823615088304E-002	1.8304070E-005	-5.0541782E-001	0
1.4013165E+004	3.845259922389232E+001	-5.0731581E-001	-3.620280038254958E-002	1.8366252E-005	-5.0741786E-001	0
1.4098618E+004	3.865259921883990E+001	-5.0937504E-001	-3.612942873213076E-002	1.8403429E-005	-5.0941765E-001	0
1.4156331E+004	3.885259921378747E+001	-5.1128334E-001	-3.611693802329796E-002	1.8465989E-005	-5.1141757E-001	0
1.4234677E+004	3.905259920873505E+001	-5.1331115E-001	-3.606061246050739E-002	1.8510314E-005	-5.1341742E-001	0
1.4310477E+004	3.925259920368262E+001	-5.1536053E-001	-3.601281385860330E-002	1.8559584E-005	-5.1541734E-001	0
1.4371259E+004	3.945259919863020E+001	-5.1733977E-001	-3.599822153089166E-002	1.8623312E-005	-5.1741719E-001	0
1.4444817E+004	3.965259919357777E+001	-5.1936138E-001	-3.595485895092844E-002	1.8673565E-005	-5.1941705E-001	0
1.4508781E+004	3.985259918852535E+001	-5.2136314E-001	-3.593431734728103E-002	1.8734829E-005	-5.2141702E-001	0
1.4582094E+004	4.005249918347545E+001	-5.2321416E-001	-3.588059127266247E-002	1.8773233E-005	-5.2341717E-001	0
1.4658446E+004	4.025239917842555E+001	-5.2531552E-001	-3.583705445298536E-002	1.8825762E-005	-5.2541679E-001	0
1.4730057E+004	4.045239917337312E+001	-5.2735031E-001	-3.580097035481644E-002	1.8879653E-005	-5.2741671E-001	0
1.4805532E+004	4.065239916832070E+001	-5.2934265E-001	-3.575302991971732E-002	1.8925604E-005	-5.2941656E-001	0
1.4873512E+004	4.085239916326827E+001	-5.3130680E-001	-3.572167850457453E-002	1.8979170E-005	-5.3141648E-001	0
1.4935597E+004	4.105239915821585E+001	-5.3329957E-001	-3.570661366475814E-002	1.9042322E-005	-5.3341633E-001	0
1.5019365E+004	4.125239915316342E+001	-5.3533345E-001	-3.564288038174379E-002	1.9080826E-005	-5.3541625E-001	0
1.5088629E+004	4.145239914811100E+001	-5.3730130E-001	-3.560968390412522E-002	1.9133129E-005	-5.3741616E-001	0
1.5135507E+004	4.165239914305857E+001	-5.3929192E-001	-3.563091138355612E-002	1.9215462E-005	-5.3941602E-001	0
1.5212799E+004	4.185239913800615E+001	-5.4128742E-001	-3.558105489137720E-002	1.9259578E-005	-5.4141593E-001	0
1.5278541E+004	4.205239913295372E+001	-5.4333895E-001	-3.556222732674075E-002	1.9322344E-005	-5.4341578E-001	0
1.5361796E+004	4.225239912790130E+001	-5.4526705E-001	-3.549500577185562E-002	1.9354256E-005	-5.4541564E-001	0
1.5424979E+004	4.245239912284887E+001	-5.4736251E-001	-3.548546098441929E-002	1.9423411E-005	-5.4741555E-001	0
1.5502179E+004	4.265239911779645E+001	-5.4931003E-001	-3.543437702994146E-002	1.9464458E-005	-5.4941541E-001	0
1.5566979E+004	4.285239911274402E+001	-5.5125141E-001	-3.541158784794363E-002	1.9520689E-005	-5.5141538E-001	0
1.5643563E+004	4.305239910769160E+001	-5.5335623E-001	-3.537277379437498E-002	1.9573745E-005	-5.5341518E-001	0
1.5689134E+004	4.325239910263917E+001	-5.5536050E-001	-3.539777968512847E-002	1.9658528E-005	-5.5541515E-001	0
1.5772486E+004	4.345239909758675E+001	-5.5733758E-001	-3.533606343483453E-002	1.9694116E-005	-5.5741501E-001	0
1.5841829E+004	4.365229909253685E+001	-5.5926263E-001	-3.530290800448133E-002	1.9743597E-005	-5.5941510E-001	0
1.5901265E+004	4.385219908748695E+001	-5.6126821E-001	-3.529708065296354E-002	1.9811130E-005	-5.6141478E-001	0
1.5973494E+004	4.405219908243453E+001	-5.6323975E-001	-3.526089832850887E-002	1.9860339E-005	-5.6341463E-001	0
1.6046099E+004	4.425219907738210E+001	-5.6523448E-001	-3.522566327499969E-002	1.9910760E-005	-5.6541455E-001	0
1.6110005E+004	4.445219907232968E+001	-5.6731015E-001	-3.521477136245660E-002	1.9977697E-005	-5.6741440E-001	0
1.6160238E+004	4.465219906727725E+001	-5.6934011E-001	-3.523092351029179E-002	2.0058378E-005	-5.6941432E-001	0
1.6237958E+004	4.485219906222483E+001	-5.7127941E-001	-3.518172611467640E-002	2.0098596E-005	-5.7141423E-001	0
1.6304621E+004	4.505219905717240E+001	-5.7330525E-001	-3.516213262433612E-002	2.0158635E-005	-5.7341403E-001	0
1.6362878E+004	4.525219905211998E+001	-5.7530475E-001	-3.515914121253072E-002	2.0227220E-005	-5.7541400E-001	0
1.6434010E+004	4.545219904706755E+001	-5.7732493E-001	-3.512988719020615E-002	2.0281359E-005	-5.7741386E-001	0
1.6508605E+004	4.565219904201513E+001	-5.7930696E-001	-3.509121060254189E-002	2.0328582E-005	-5.7941377E-001	0
1.6558537E+004	4.585219903696270E+001	-5.8124685E-001	-3.510254725276385E-002	2.0403246E-005	-5.8141363E-001	0
1.6637535E+004	4.605219903191028E+001	-5.8329690E-001	-3.505909401879070E-002	2.0449861E-005	-5.8341354E-001	0
1.6697504E+004	4.625219902685785E+001	-5.8528793E-001	-3.505242159912181E-002	2.0515759E-005	-5.8541346E-001	0
1.6754668E+004	4.645219902180543E+001	-5.8731538E-001	-3.505383411875365E-002	2.0587657E-005	-5.8741331E-001	0
1.6818750E+004	4.665219901675300E+001	-5.8929092E-001	-3.503773442592006E-002	2.0647418E-005	-5.8941323E-001	0
1.6873412E+004	4.685219901170058E+001	-5.9123385E-001	-3.503937557996445E-002	2.0716465E-005	-5.9141314E-001	0
1.6930287E+004	4.705219900664815E+001	-5.9332317E-001	-3.504507271747187E-002	2.0793053E-005	-5.9341300E-001	0
1.7001336E+004	4.725209900159825E+001	-5.9533262E-001	-3.501681510996557E-002	2.0846652E-005	-5.9541357E-001	0
1.7055100E+004	4.745199899654835E+001	-5.9729534E-001	-3.502151036192611E-002	2.0918185E-005	-5.9741277E-001	0
1.7102570E+004	4.765199899149593E+001	-5.9934622E-001	-3.504421893410087E-002	2.1003620E-005	-5.9941268E-001	0
1.7185512E+004	4.785199898644350E+001	-6.0131103E-001	-3.498941750842199E-002	2.1039523E-005	-6.0141253E-001	0
1.7242629E+004	4.805199898139108E+001	-6.0333753E-001	-3.499104168800343E-002	2.1111409E-005	-6.0341245E-001	0
1.7290605E+004	4.825199897633865E+001	-6.0532457E-001	-3.500887090862947E-002	2.1191730E-005	-6.0541236E-001	0
1.7349637E+004	4.845199897128623E+001	-6.0740370E-001	-3.500959178873142E-002	2.1264956E-005	-6.0741222E-001	0
1.7418576E+004	4.865199896623380E+001	-6.0932159E-001	-3.498113489036117E-002	2.1314761E-005	-6.0941213E-001	0
1.7474299E+004	4.885199896118138E+001	-6.1130267E-001	-3.498296026333680E-002	2.1385176E-005	-6.1141199E-001	0
1.7531291E+004	4.905199895612895E+001	-6.1331862E-001	-3.498422381913707E-002	2.1456475E-005	-6.1341184E-001	0
1.7573463E+004	4.925199895107653E+001	-6.1534631E-001	-3.501565321063504E-002	2.1546753E-005	-6.1541176E-001	0
1.7629318E+004	4.945199894602411E+001	-6.1729389E-001	-3.501518782098345E-002	2.1614662E-005	-6.1741161E-001	0
1.7677512E+004	4.965199894097168E+001	-6.1936390E-001	-3.503682723405077E-002	2.1700545E-005	-6.1941159E-001	0
1.7741205E+004	4.985199893591926E+001	-6.2137026E-001	-3.502412879276726E-002	2.1762951E-005	-6.2141138E-001	0
1.7797559E+004	5.005199893086683E+001	-6.2335628E-001	-3.502482057880618E-002	2.1832942E-005	-6.2341136E-001	0
1.7847326E+004	5.025199892581441E+001	-6.2531817E-001	-3.503707897756458E-002	2.1909322E-005	-6.2541121E-001	0
1.7902541E+004	5.045199892076198E+001	-6.2733269E-001	-3.504154476011913E-002	2.1982707E-005	-6.2741107E-001	0
1.7954143E+004	5.065199891570956E+001	-6.2925911E-001	-3.504813032287074E-002	2.2054355E-005	-6.2941098E-001	0
1.7989869E+004	5.085189891065966E+001	-6.3126862E-001	-3.509022934716810E-002	2.2151360E-005	-6.3141161E-001	0
1.8045023E+004	5.105179890560976E+001	-6.3332820E-001	-3.509711088135406E-002	2.2227990E-005	-6.3341081E-001	0
1.8100813E+004	5.125179890055733E+001	-6.3529468E-001	-3.509757766482180E-002	2.2297305E-005	-6.3541067E-001	0
1.8151398E+004	5.145179889550491E+001	-6.3731521E-001	-3.511108004180780E-002	2.2376826E-005	-6.3741058E-001	0
1.8197410E+004	5.165179889045248E+001	-6.3926935E-001	-3.512968969253660E-002	2.2457334E-005	-6.3941044E-001	0
1.8233713E+004	5.185179888540006E+001	-6.4122313E-001	-3.516689710590409E-002	2.2549828E-005	-6.4141029E-001	0
1.8281223E+004	5.205179888034763E+001	-6.4335823E-001	-3.519229896872383E-002	2.2641256E-005	-6.4341021E-001	0
1.8339297E+004	5.225179887529521E+001	-6.4535612E-001	-3.518979737398920E-002	2.2709952E-005	-6.4541006E-001	0
1.8368969E+004	5.245179887024278E+001	-6.4732176E-001	-3.523996376613059E-002	2.2811595E-005	-6.4740998E-001	0
1.8414363E+004	5.265179886519036E+001	-6.4931387E-001	-3.526127285798142E-002	2.2895634E-005	-6.4940989E-001	0
1.8453238E+004	5.285179886013793E+001	-6.5132767E-001	-3.529611869256888E-002	2.2989339E-005	-6.5140975E-001	0
1.8490311E+004	5.305179885508551E+001	-6.5334570E-001	-3.533449093283259E-002	2.3085639E-005	-6.5340966E-001	0
1.8531414E+004	5.325179885003308E+001	-6.5528709E-001	-3.536087937669963E-002	2.3171528E-005	-6.5540951E-001	0
1.8575459E+004	5.345179884498066E+001	-6.5733147E-001	-3.538709179347257E-002	2.3261049E-005	-6.5740943E-001	0
1.8634902E+004	5.365179883992823E+001	-6.5933335E-001	-3.538163830584234E-002	2.3328294E-005	-6.5940928E-001	0
1.8678223E+004	5.385179883487581E+001	-6.6136962E-001	-3.540859483219383E-002	2.3418170E-005	-6.6140920E-001	0
1.8699553E+004	5.405179882982338E+001	-6.6328472E-001	-3.547062008491700E-002	2.3527120E-005	-6.6340911E-001	0
1.8749277E+004	5.425179882477096E+001	-6.6532695E-001	-3.548547258265863E-002	2.3609442E-005	-6.6540891E-001	0
1.8795377E+004	5.445159881972359E+001	-6.6733837E-001	-3.550545224321200E-002	2.3694151E-005	-6.6740894E-001	0
1.8836406E+004	5.465159881467116E+001	-6.6931587E-001	-3.553309644226094E-002	2.3782866E-005	-6.6940880E-001	0
1.8853982E+004	5.485159880961874E+001	-6.7132455E-001	-3.560651160323630E-002	2.3903525E-005	-6.7140865E-001	0
1.8891875E+004	5.505159880456631E+001	-6.7332798E-001	-3.564114131792616E-002	2.3998178E-005	-6.7340851E-001	0
1.8937592E+004	5.525159879951389E+001	-6.7536867E-001	-3.566285903811617E-002	2.4085577E-005	-6.7540836E-001	0
1.8978531E+004	5.545159879446146E+001	-6.7725843E-001	-3.568550276616472E-002	2.4168308E-005	-6.7740834E-001	0
1.8996813E+004	5.565159878940904E+001	-6.7930943E-001	-3.575912798763314E-002	2.4291512E-005	-6.7940819E-001	0
1.9039129E+004	5.585159878435661E+001	-6.8130261E-001	-3.578433755319549E-002	2.4379962E-005	-6.8140805E-001	0
1.9086936E+004	5.605159877930419E+001	-6.8331516E-001	-3.580015127350666E-002	2.4462786E-005	-6.8340796E-001	0
1.9091459E+004	5.625159877425176E+001	-6.8533885E-001	-3.589766775785841E-002	2.4602066E-005	-6.8540788E-001	0
1.9136053E+004	5.645159876919934E+001	-6.8725908E-001	-3.591435824815492E-002	2.4682469E-005	-6.8740779E-001	0
1.9184207E+004	5.665159876414691E+001	-6.8921095E-001	-3.592595363367346E-002	2.4760560E-005	-6.8940765E-001	0
1.9217109E+004	5.685159875909449E+001	-6.9138789E-001	-3.597772449609782E-002	2.4874564E-005	-6.9140750E-001	0
1.9253262E+004	5.705159875404206E+001	-6.9329596E-001	-3.600927121602554E-002	2.4965082E-005	-6.9340742E-001	0
1.9287121E+004	5.725159874898964E+001	-6.9533592E-001	-3.605182496767456E-002	2.5068130E-005	-6.9540727E-001	0
1.9320357E+004	5.745159874393721E+001	-6.9723886E-001	-3.608830000776508E-002	2.5162166E-005	-6.9740719E-001	0
1.9368295E+004	5.765159873888479E+001	-6.9928235E-001	-3.610448646644249E-002	2.5247231E-005	-6.9940710E-001	0
1.9391123E+004	5.785159873383236E+001	-7.0135432E-001	-3.616883588355492E-002	2.5367170E-005	-7.0140725E-001	0
1.9424178E+004	5.805139872878499E+001	-7.0329100E-001	-3.620699031138745E-002	2.5464051E-005	-7.0340687E-001	0
1.9455121E+004	5.825139872373256E+001	-7.0530671E-001	-3.625300949462634E-002	2.5569490E-005	-7.0540673E-001	0
1.9493623E+004	5.845139871868014E+001	-7.0733178E-001	-3.628528888348923E-002	2.5665739E-005	-7.0740670E-001	0
1.9525488E+004	5.865139871362771E+001	-7.0929688E-001	-3.632671832922174E-002	2.5766429E-005	-7.0940650E-001	0
1.9531227E+004	5.885139870857529E+001	-7.1129060E-001	-3.641812396003452E-002	2.5903870E-005	-7.1140641E-001	0
1.9583268E+004	5.905139870352286E+001	-7.1327120E-001	-3.642248286540412E-002	2.5979109E-005	-7.1340632E-001	0
1.9628859E+004	5.925139869847044E+001	-7.1530199E-001	-3.644134173573099E-002	2.6066564E-005	-7.1540624E-001	0
1.9649027E+004	5.945139869341801E+001	-7.1730047E-001	-3.650564828210756E-002	2.6185518E-005	-7.1740609E-001	0
1.9681902E+004	5.965139868836559E+001	-7.1929884E-001	-3.654620530640251E-002	2.6287644E-005	-7.1940595E-001	0
1.9717158E+004	5.985139868331316E+001	-7.2131699E-001	-3.658321449457058E-002	2.6388094E-005	-7.2140592E-001	0
1.9762732E+004	6.005139867826074E+001	-7.2331589E-001	-3.659999339266878E-002	2.6473357E-005	-7.2340572E-001	0
1.9797439E+004	6.025139867320831E+001	-7.2533244E-001	-3.663768933725875E-002	2.6574504E-005	-7.2540563E-001	0
1.9820469E+004	6.045139866815589E+001	-7.2727078E-001	-3.669291355408508E-002	2.6685684E-005	-7.2740555E-001	0
1.9857373E+004	6.065139866310346E+001	-7.2931337E-001	-3.672758604177073E-002	2.6785920E-005	-7.2940534E-001	0
1.9885154E+004	6.085139865805104E+001	-7.3132867E-001	-3.677762253500330E-002	2.6896530E-005	-7.3140538E-001	0
1.9927961E+004	6.105139865299861E+001	-7.3329151E-001	-3.679711644827066E-002	2.6983013E-005	-7.3340517E-001	0
1.9954650E+004	6.125139864794619E+001	-7.3533112E-001	-3.685011335594740E-002	2.7097036E-005	-7.3540509E-001	0
1.9997813E+004	6.145129864289629E+001	-7.3732239E-001	-3.687015154515209E-002	2.7185188E-005	-7.3740435E-001	0
2.0030055E+004	6.165119863784639E+001	-7.3935974E-001	-3.691251608706755E-002	2.7291628E-005	-7.3940486E-001	0
2.0056184E+004	6.185119863279397E+001	-7.4132007E-001	-3.696217039460631E-002	2.7400798E-005	-7.4140477E-001	0
2.0086945E+004	6.205119862774154E+001	-7.4332070E-001	-3.700516403144830E-002	2.7506705E-005	-7.4340457E-001	0
2.0111078E+004	6.225119862268912E+001	-7.4534786E-001	-3.706155771488862E-002	2.7623753E-005	-7.4540460E-001	0
2.0132869E+004	6.245119861763669E+001	-7.4731159E-001	-3.711898250678499E-002	2.7739447E-005	-7.4740440E-001	0
2.0192186E+004	6.265119861258427E+001	-7.4930918E-001	-3.710886849145366E-002	2.7806016E-005	-7.4940431E-001	0
2.0186754E+004	6.285119860753184E+001	-7.5132042E-001	-3.721848631076008E-002	2.7963009E-005	-7.5140423E-001	0
2.0226785E+004	6.305119860247942E+001	-7.5333887E-001	-3.724461854958189E-002	2.8057819E-005	-7.5340402E-001	0
2.0260982E+004	6.325119859742699E+001	-7.5531805E-001	-3.727943758488694E-002	2.8157832E-005	-7.5540400E-001	0
2.0310838E+004	6.345119859237457E+001	-7.5740772E-001	-3.729081544982868E-002	2.8244353E-005	-7.5740379E-001	0
2.0336936E+004	6.365119858732214E+001	-7.5940126E-001	-3.734098749906850E-002	2.8356793E-005	-7.5940371E-001	0
2.0391938E+004	6.385119858226972E+001	-7.6131994E-001	-3.733435982327210E-002	2.8423392E-005	-7.6140362E-001	0
2.0376660E+004	6.405119857721729E+001	-7.6333499E-001	-3.746124315830565E-002	2.8595477E-005	-7.6340353E-001	0
2.0413266E+004	6.425119857216487E+001	-7.6531363E-001	-3.749099464864258E-002	2.8692370E-005	-7.6540345E-001	0
2.0490672E+004	6.445119856711244E+001	-7.6728535E-001	-3.744559346480705E-002	2.8731456E-005	-7.6740330E-001	0
2.0478912E+004	6.465119856206002E+001	-7.6928335E-001	-3.756465808099854E-002	2.8897866E-005	-7.6940322E-001	0
2.0537598E+004	6.485119855700759E+001	-7.7125859E-001	-3.755349763130567E-002	2.8963457E-005	-7.7140313E-001	0
2.0583100E+004	6.505109855195769E+001	-7.7329659E-001	-3.756949325995781E-002	2.9052360E-005	-7.7340251E-001	0
2.0583418E+004	6.525099854690779E+001	-7.7528620E-001	-3.766557300920526E-002	2.9201599E-005	-7.7540284E-001	0
2.0619699E+004	6.545099854185537E+001	-7.7727675E-001	-3.769583246314819E-002	2.9300094E-005	-7.7740276E-001	0
2.0682463E+004	6.565099853680294E+001	-7.7928627E-001	-3.767860048400906E-002	2.9362416E-005	-7.7940267E-001	0
2.0687572E+004	6.585099853175052E+001	-7.8137589E-001	-3.777030201036435E-002	2.9512803E-005	-7.8140253E-001	0
2.0749949E+004	6.605099852669809E+001	-7.8335488E-001	-3.775213340581385E-002	2.9573317E-005	-7.8340244E-001	0
2.0733807E+004	6.625099852164567E+001	-7.8537440E-001	-3.787892932165193E-002	2.9749141E-005	-7.8540236E-001	0
2.0823285E+004	6.645099851659324E+001	-7.8730243E-001	-3.780875090285807E-002	2.9766921E-005	-7.8740215E-001	0
2.0817412E+004	6.665099851154082E+001	-7.8934228E-001	-3.791740826751339E-002	2.9929814E-005	-7.8940219E-001	0
2.0815559E+004	6.685099850648839E+001	-7.9133469E-001	-3.801650182072647E-002	3.0083776E-005	-7.9140198E-001	0
2.0858859E+004	6.705099850143597E+001	-7.9327959E-001	-3.803082298178040E-002	3.0169076E-005	-7.9340190E-001	0
2.0872939E+004	6.725099849638355E+001	-7.9526925E-001	-3.810049203180120E-002	3.0300149E-005	-7.9540181E-001	0
2.0895707E+004	6.745099849133112E+001	-7.9728949E-001	-3.815566024256213E-002	3.0421106E-005	-7.9740161E-001	0
2.0936436E+004	6.765099848627870E+001	-7.9932415E-001	-3.817861805492573E-002	3.0517092E-005	-7.9940152E-001	0
2.0987148E+004	6.785099848122627E+001	-8.0128813E-001	-3.817994456475293E-002	3.0593135E-005	-8.0140150E-001	0
2.0952553E+004	6.805099847617385E+001	-8.0330098E-001	-3.833905145153188E-002	3.0797797E-005	-8.0340129E-001	0
2.0995682E+004	6.825099847112142E+001	-8.0528599E-001	-3.835483950160468E-002	3.0886615E-005	-8.0540121E-001	0
2.1040701E+004	6.845099846606900E+001	-8.0726808E-001	-3.836697693058864E-002	3.0972435E-005	-8.0740100E-001	0
2.1036303E+004	6.865089846101910E+001	-8.0929476E-001	-3.847134156870544E-002	3.1134656E-005	-8.0940050E-001	0
2.1070139E+004	6.885079845596920E+001	-8.1121826E-001	-3.850084901581444E-002	3.1232590E-005	-8.1140089E-001	0
2.1078422E+004	6.905079845091677E+001	-8.1333870E-001	-3.858631746600605E-002	3.1383744E-005	-8.1340080E-001	0
2.1077373E+004	6.925079844586435E+001	-8.1528276E-001	-3.868047488603088E-002	3.1535525E-005	-8.1540066E-001	0
2.1101791E+004	6.945079844081192E+001	-8.1728613E-001	-3.873065147573185E-002	3.1654024E-005	-8.1740052E-001	0
2.1103730E+004	6.965079843575950E+001	-8.1928104E-001	-3.882162029513891E-002	3.1805819E-005	-8.1940043E-001	0
2.1110852E+004	6.985079843070707E+001	-8.2134658E-001	-3.890637003224290E-002	3.1955613E-005	-8.2140034E-001	0
2.1103861E+004	7.005079842565465E+001	-8.2331979E-001	-3.901275505112223E-002	3.2119973E-005	-8.2340026E-001	0
2.1087807E+004	7.025079842060222E+001	-8.2526571E-001	-3.913473255896432E-002	3.2296553E-005	-8.2540005E-001	0
2.1128262E+004	7.045079841554980E+001	-8.2731611E-001	-3.915684761256694E-002	3.2395092E-005	-8.2739997E-001	0
2.1177289E+004	7.065079841049737E+001	-8.2930976E-001	-3.916033641583022E-002	3.2476048E-005	-8.2939988E-001	0
2.1190928E+004	7.085079840544495E+001	-8.3133662E-001	-3.923077798736774E-002	3.2613982E-005	-8.3139974E-001	0
2.1151711E+004	7.105079840039252E+001	-8.3328807E-001	-3.939577619980200E-002	3.2828029E-005	-8.3339965E-001	0
2.1119848E+004	7.125079839534010E+001	-8.3518881E-001	-3.954520877139206E-002	3.3027714E-005	-8.3539951E-001	0
2.1107930E+004	7.145079839028767E+001	-8.3733052E-001	-3.966900370877771E-002	3.3216067E-005	-8.3739936E-001	0
2.1090893E+004	7.165079838523525E+001	-8.3924264E-001	-3.979170788581077E-002	3.3394899E-005	-8.3939940E-001	0
2.1084465E+004	7.185079838018282E+001	-8.4140837E-001	-3.990655484167932E-002	3.3577708E-005	-8.4139919E-001	0
2.1082682E+004	7.205079837513040E+001	-8.4332526E-001	-4.000085486994531E-002	3.3733730E-005	-8.4339917E-001	0
2.0976141E+004	7.225079837007797E+001	-8.4524071E-001	-4.029534024987874E-002	3.4059263E-005	-8.4539890E-001	0
2.0920828E+004	7.245059836503060E+001	-8.4725177E-001	-4.049800390872865E-002	3.4312005E-005	-8.4739888E-001	0
2.0889445E+004	7.265059835997818E+001	-8.4937263E-001	-4.066037301231745E-002	3.4535809E-005	-8.4939879E-001	0
2.0792639E+004	7.285059835492575E+001	-8.5136425E-001	-4.094546413616140E-002	3.4859506E-005	-8.5139859E-001	0
2.0707182E+004	7.305059834987333E+001	-8.5331595E-001	-4.120869601125313E-002	3.5164037E-005	-8.5339850E-001	0
2.0581676E+004	7.325059834482090E+001	-8.5524917E-001	-4.155391412591786E-002	3.5538949E-005	-8.5539842E-001	0
2.0497633E+004	7.345059833976848E+001	-8.5744011E-001	-4.183117695239344E-002	3.5867728E-005	-8.5739833E-001	0
2.0323471E+004	7.365059833471605E+001	-8.5928768E-001	-4.228055830295203E-002	3.6331163E-005	-8.5939825E-001	0
2.0164227E+004	7.385059832966363E+001	-8.6125422E-001	-4.271199059505815E-002	3.6785881E-005	-8.6139804E-001	0
1.9983023E+004	7.405059832461120E+001	-8.6319506E-001	-4.319641789814233E-002	3.7286936E-005	-8.6339802E-001	0
1.9774545E+004	7.425059831955878E+001	-8.6527389E-001	-4.375695666671009E-002	3.7861751E-005	-8.6539781E-001	0
1.9553486E+004	7.445059831450635E+001	-8.6738741E-001	-4.435973369586133E-002	3.8477076E-005	-8.6739773E-001	0
1.9328629E+004	7.465059830945393E+001	-8.6926073E-001	-4.497270645703619E-002	3.9093007E-005	-8.6939764E-001	0
1.8971510E+004	7.485059830440150E+001	-8.7120110E-001	-4.592154831113399E-002	4.0006904E-005	-8.7139755E-001	0
1.8606258E+004	7.505059829934908E+001	-8.7323028E-001	-4.693207532471519E-002	4.0982508E-005	-8.7339747E-001	0
1.8277764E+004	7.525059829429665E+001	-8.7526947E-001	-4.788712082909050E-002	4.1914136E-005	-8.7539726E-001	0
1.7853191E+004	7.545059828924423E+001	-8.7729269E-001	-4.913926419148390E-002	4.3109518E-005	-8.7739718E-001	0
1.7360357E+004	7.565059828419180E+001	-8.7930799E-001	-5.065034105296751E-002	4.4537250E-005	-8.7939709E-001	0
1.6831816E+004	7.585049827914190E+001	-8.8122302E-001	-5.235460164480243E-002	4.6136080E-005	-8.8139629E-001	0
1.6261896E+004	7.605039827409200E+001	-8.8331795E-001	-5.431826093789538E-002	4.7980295E-005	-8.8339686E-001	0
1.5675343E+004	7.625039826903958E+001	-8.8533807E-001	-5.647966141396465E-002	5.0003593E-005	-8.8539666E-001	0
1.5030830E+004	7.645039826398715E+001	-8.8730878E-001	-5.903258573848877E-002	5.2380132E-005	-8.8739669E-001	0
1.4320466E+004	7.665039825893473E+001	-8.8934660E-001	-6.210318778096680E-002	5.5231259E-005	-8.8939649E-001	0
1.3603667E+004	7.685039825388230E+001	-8.9128685E-001	-6.551813292728895E-002	5.8395450E-005	-8.9139646E-001	0
1.2866015E+004	7.705039824882988E+001	-8.9323527E-001	-6.942594727520257E-002	6.2013707E-005	-8.9339632E-001	0
1.2092412E+004	7.725039824377745E+001	-8.9527965E-001	-7.403648408423380E-002	6.6283355E-005	-8.9539617E-001	0
1.1285540E+004	7.745039823872503E+001	-8.9734221E-001	-7.951256375793614E-002	7.1349976E-005	-8.9739609E-001	0
1.0452687E+004	7.766039823341998E+001	-8.9934671E-001	-8.603976622411888E-002	7.7379584E-005	-8.9949596E-001	0
9.5533037E+003	7.787039822811494E+001	-9.0147382E-001	-9.436251641760096E-002	8.5065338E-005	-9.0159589E-001	0
8.8021543E+003	7.807039822306251E+001	-9.0349644E-001	-1.026449225063688E-001	9.2739319E-005	-9.0359575E-001	0
8.0854312E+003	7.827039821801009E+001	-9.0550852E-001	-1.119926101961046E-001	1.0141026E-004	-9.0559560E-001	0
7.3905410E+003	7.847039821295766E+001	-9.0747714E-001	-1.227890004418675E-001	1.1142821E-004	-9.0759617E-001	0
6.7238374E+003	7.867039820790524E+001	-9.0944999E-001	-1.352575869983708E-001	1.2301002E-004	-9.0959668E-001	0
6.0933320E+003	7.887039820285281E+001	-9.1144246E-001	-1.495803011213841E-001	1.3633384E-004	-9.1159672E-001	0
5.5075879E+003	7.907039819780039E+001	-9.1347200E-001	-1.658570043280163E-001	1.5150572E-004	-9.1359675E-001	0
4.9681831E+003	7.927039819274796E+001	-9.1548932E-001	-1.842704507629991E-001	1.6869763E-004	-9.1559678E-001	0
4.4622222E+003	7.947039818769554E+001	-9.1751939E-001	-2.056193812634126E-001	1.8865977E-004	-9.1759670E-001	0
4.0015774E+003	7.967039818264311E+001	-9.1946298E-001	-2.297751371560781E-001	2.1126973E-004	-9.1959667E-001	0
3.4863564E+003	7.987039817759069E+001	-9.2143953E-001	-2.642987133985772E-001	2.4353528E-004	-9.2159677E-001	0
3.1501135E+003	8.007039817253826E+001	-9.2352825E-001	-2.931730052764578E-001	2.7075355E-004	-9.2359674E-001	0
2.8261804E+003	8.027039816748584E+001	-9.2546046E-001	-3.274597812469305E-001	3.0305109E-004	-9.2559665E-001	0
2.4985151E+003	8.047039816243341E+001	-9.2741764E-001	-3.711875255922905E-001	3.4424587E-004	-9.2759669E-001	0
2.2214612E+003	8.067039815738099E+001	-9.2940861E-001	-4.183771678894899E-001	3.8884333E-004	-9.2959666E-001	0
1.9992068E+003	8.087039815232856E+001	-9.3151927E-001	-4.659444203013194E-001	4.3403619E-004	-9.3159676E-001	0
1.7517657E+003	8.107039814727614E+001	-9.3344563E-001	-5.328598649298064E-001	4.9739570E-004	-9.3359673E-001	0
1.5833893E+003	8.127039814222371E+001	-9.3547171E-001	-5.908033672610387E-001	5.5267982E-004	-9.3559670E-001	0
1.4012042E+003	8.147039813717129E+001	-9.3752104E-001	-6.690823462434841E-001	6.2727876E-004	-9.3759668E-001	0
1.2534307E+003	8.167039813211886E+001	-9.3946147E-001	-7.495121107206515E-001	7.0413772E-004	-9.3959671E-001	0
1.1282162E+003	8.187039812706644E+001	-9.4147837E-001	-8.344840103435143E-001	7.8564865E-004	-9.4159675E-001	0
1.0125171E+003	8.207039812201401E+001	-9.4350892E-001	-9.318449313999455E-001	8.7920402E-004	-9.4359672E-001	0
9.0212061E+002	8.228039811670897E+001	-9.4558096E-001	-1.048175796526564E+000	9.9113502E-004	-9.4569683E-001	0
8.1328345E+002	8.249039811140392E+001	-9.4765633E-001	-1.165222733089372E+000	1.1042308E-003	-9.4779670E-001	0
7.3559192E+002	8.269039810635149E+001	-9.4966936E-001	-1.291027414344267E+000	1.2260491E-003	-9.4979668E-001	0
6.6623981E+002	8.289039810129907E+001	-9.5165658E-001	-1.428399457758859E+000	1.3593457E-003	-9.5179665E-001	0
6.0695331E+002	8.309039809624664E+001	-9.5363855E-001	-1.571189358805114E+000	1.4983468E-003	-9.5379668E-001	0
5.5406970E+002	8.329039809119422E+001	-9.5563430E-001	-1.724754647299005E+000	1.6482347E-003	-9.5579672E-001	0
5.0669006E+002	8.349039808614179E+001	-9.5771879E-001	-1.890147224034848E+000	1.8102295E-003	-9.5779669E-001	0
4.6437161E+002	8.369039808108937E+001	-9.5965934E-001	-2.066576213658266E+000	1.9832090E-003	-9.5979673E-001	0
4.2798416E+002	8.389039807603695E+001	-9.6163815E-001	-2.246901232335286E+000	2.1607059E-003	-9.6179676E-001	0
3.9431879E+002	8.409039807098452E+001	-9.6365702E-001	-2.443852715903798E+000	2.3550359E-003	-9.6379668E-001	0
3.6546420E+002	8.429039806593210E+001	-9.6567595E-001	-2.642327060471043E+000	2.5516318E-003	-9.6579671E-001	0
3.3828052E+002	8.449039806087967E+001	-9.6765143E-001	-2.860500052098246E+000	2.7679671E-003	-9.6779674E-001	0
3.1479330E+002	8.469039805582725E+001	-9.6965599E-001	-3.080294175787305E+000	2.9868258E-003	-9.6979678E-001	0
2.9391238E+002	8.489039805077482E+001	-9.7166920E-001	-3.305982471762583E+000	3.2123213E-003	-9.7179669E-001	0
2.7454913E+002	8.509039804572240E+001	-9.7365004E-001	-3.546359734673072E+000	3.4529134E-003	-9.7379667E-001	0
2.5724338E+002	8.529039804066997E+001	-9.7567952E-001	-3.792826518315010E+000	3.7005832E-003	-9.7579676E-001	0
2.4139595E+002	8.549039803561755E+001	-9.7769219E-001	-4.050159805384610E+000	3.9598094E-003	-9.7779673E-001	0
2.2724480E+002	8.569039803056512E+001	-9.7972780E-001	-4.311332199545115E+000	4.2239320E-003	-9.7979665E-001	0
2.1406210E+002	8.589039802551270E+001	-9.8170930E-001	-4.586095863526637E+000	4.5022131E-003	-9.8179680E-001	0
2.0223659E+002	8.609039802046027E+001	-9.8369414E-001	-4.864076200627693E+000	4.7847633E-003	-9.8379666E-001	0
1.9142770E+002	8.629039801540785E+001	-9.8570454E-001	-5.149226233836217E+000	5.0756158E-003	-9.8579675E-001	0
1.8161345E+002	8.649039801035542E+001	-9.8768002E-001	-5.438363943983894E+000	5.3713634E-003	-9.8779672E-001	0
1.7251837E+002	8.669039800530300E+001	-9.8967206E-001	-5.736618441755525E+000	5.6773708E-003	-9.8979664E-001	0
1.6406421E+002	8.689039800025057E+001	-9.9171871E-001	-6.044698733050797E+000	5.9946408E-003	-9.9179661E-001	0
1.5624155E+002	8.709039799519815E+001	-9.9368018E-001	-6.359897288335389E+000	6.3197040E-003	-9.9379671E-001	0
1.4917389E+002	8.729039799014572E+001	-9.9569201E-001	-6.674706815794764E+000	6.6459524E-003	-9.9579668E-001	0
1.4240572E+002	8.749039798509330E+001	-9.9765134E-001	-7.005697286047898E+000	6.9892434E-003	-9.9779665E-001	0
1.3618057E+002	8.769039798004087E+001	-9.9974632E-001	-7.341328931436010E+000	7.3394668E-003	-9.9979663E-001	0
1.3031529E+002	8.789039797498845E+001	-1.0017405E+000	-7.687052342424039E+000	7.7004312E-003	-1.0017967E+000	0
1.2500850E+002	8.809039796993602E+001	-1.0036418E+000	-8.028589012333583E+000	8.0578281E-003	-1.0037967E+000	0
1.2000649E+002	8.829039796488360E+001	-1.0056974E+000	-8.380357793128933E+000	8.4281042E-003	-1.0057967E+000	0
1.1536572E+002	8.849039795983117E+001	-1.0077283E+000	-8.735075812693893E+000	8.8025834E-003	-1.0077966E+000	0
1.1099946E+002	8.869039795477875E+001	-1.0096802E+000	-9.096262045187750E+000	9.1843149E-003	-1.0097967E+000	0
1.0681183E+002	8.889039794972632E+001	-1.0116788E+000	-9.471599281712713E+000	9.5822159E-003	-1.0117967E+000	0
1.0295975E+002	8.909039794467390E+001	-1.0137565E+000	-9.846143671579650E+000	9.9815922E-003	-1.0137967E+000	0
9.9368210E+001	8.929049793961894E+001	-1.0156971E+000	-1.022154991278536E+001	1.0381998E-002	-1.0157975E+000	0
9.5881859E+001	8.949079793455894E+001	-1.0176769E+000	-1.061386364079655E+001	1.0801485E-002	-1.0178005E+000	0
9.2245972E+001	8.970079792925389E+001	-1.0197157E+000	-1.105431135509701E+001	1.1272254E-002	-1.0199008E+000	0
8.8991112E+001	8.991079792394885E+001	-1.0219769E+000	-1.148403398148599E+001	1.1736418E-002	-1.0220008E+000	0
8.6093475E+001	9.011089791889390E+001	-1.0238998E+000	-1.189288462618623E+001	1.2177122E-002	-1.0240016E+000	0
8.3399345E+001	9.031099791383895E+001	-1.0258611E+000	-1.230059032794293E+001	1.2618697E-002	-1.0260026E+000	0
8.0864960E+001	9.051099790878652E+001	-1.0278611E+000	-1.271083435260785E+001	1.3064972E-002	-1.0280026E+000	0
7.8438858E+001	9.071099790373410E+001	-1.0299623E+000	-1.313076657435249E+001	1.3524194E-002	-1.0300027E+000	0
7.6068726E+001	9.091099789868167E+001	-1.0318831E+000	-1.356514208806078E+001	1.3997641E-002	-1.0320027E+000	0
7.3859177E+001	9.111099789362925E+001	-1.0338784E+000	-1.399796820484335E+001	1.4472198E-002	-1.0340027E+000	0
7.1728607E+001	9.131099788857682E+001	-1.0359335E+000	-1.444240327784263E+001	1.4961369E-002	-1.0360026E+000	0
6.9724243E+001	9.151099788352440E+001	-1.0379692E+000	-1.488677645986584E+001	1.5452016E-002	-1.0380026E+000	0
6.7752640E+001	9.171099787847197E+001	-1.0399463E+000	-1.534916319395683E+001	1.5962306E-002	-1.0400027E+000	0
6.5903709E+001	9.191129787341197E+001	-1.0419143E+000	-1.580964694000843E+001	1.6472299E-002	-1.0420054E+000	0
6.4146393E+001	9.211139786835702E+001	-1.0439152E+000	-1.627395009548479E+001	1.6988624E-002	-1.0440067E+000	0
6.2476715E+001	9.231139786330459E+001	-1.0459186E+000	-1.674093408960334E+001	1.7509654E-002	-1.0460067E+000	0
6.0835815E+001	9.251159785824711E+001	-1.0478768E+000	-1.722467023253172E+001	1.8049333E-002	-1.0480082E+000	0
5.9298492E+001	9.271179785318964E+001	-1.0500005E+000	-1.770703638451448E+001	1.8592399E-002	-1.0500106E+000	0
5.7806931E+001	9.291179784813721E+001	-1.0518632E+000	-1.819614360973134E+001	1.9139854E-002	-1.0520108E+000	0
5.6336967E+001	9.311179784308479E+001	-1.0539008E+000	-1.870709262372685E+001	1.9715421E-002	-1.0540107E+000	0
5.5000980E+001	9.331179783803236E+001	-1.0559076E+000	-1.919797748705696E+001	2.0271290E-002	-1.0560108E+000	0
5.3707966E+001	9.351179783297994E+001	-1.0579399E+000	-1.969800761727247E+001	2.0839307E-002	-1.0580107E+000	0
5.2428867E+001	9.371179782792751E+001	-1.0599362E+000	-2.021665220344420E+001	2.1428362E-002	-1.0600107E+000	0
5.1244125E+001	9.391179782287509E+001	-1.0618452E+000	-2.072130567943701E+001	2.2002818E-002	-1.0620108E+000	0
5.0085251E+001	9.411179781782266E+001	-1.0639402E+000	-2.124258414823180E+001	2.2600839E-002	-1.0640109E+000	0
4.8946030E+001	9.431179781277024E+001	-1.0658984E+000	-2.177701552911684E+001	2.3212086E-002	-1.0660106E+000	0
4.7881824E+001	9.451179780771781E+001	-1.0679394E+000	-2.230364953782285E+001	2.3818946E-002	-1.0680107E+000	0
4.6795712E+001	9.471179780266539E+001	-1.0699358E+000	-2.286397104495779E+001	2.4462981E-002	-1.0700107E+000	0
4.5798435E+001	9.491179779761296E+001	-1.0719749E+000	-2.340636537553485E+001	2.5091035E-002	-1.0720106E+000	0
4.4853397E+001	9.511179779256054E+001	-1.0739644E+000	-2.394388002589712E+001	2.5714874E-002	-1.0740107E+000	0
4.3939079E+001	9.531179778750811E+001	-1.0758989E+000	-2.448614923024124E+001	2.6344622E-002	-1.0760107E+000	0
4.3053581E+001	9.551189778245316E+001	-1.0778981E+000	-2.503620277581058E+001	2.6986476E-002	-1.0780115E+000	0
4.2200230E+001	9.571199777739821E+001	-1.0799215E+000	-2.559041620787576E+001	2.7635640E-002	-1.0800126E+000	0
4.1391262E+001	9.591199777234579E+001	-1.0819299E+000	-2.613909045909270E+001	2.8280664E-002	-1.0820128E+000	0
4.0566719E+001	9.611199776729336E+001	-1.0839339E+000	-2.671978353210591E+001	2.8962480E-002	-1.0840127E+000	0
3.9761368E+001	9.631199776224094E+001	-1.0859262E+000	-2.731108727990363E+001	2.9657824E-002	-1.0860128E+000	0
3.8998371E+001	9.651199775718851E+001	-1.0879349E+000	-2.789693128332800E+001	3.0350044E-002	-1.0880127E+000	0
3.8262104E+001	9.671199775213609E+001	-1.0899639E+000	-2.848677337494024E+001	3.1049555E-002	-1.0900127E+000	0
3.7560993E+001	9.691199774708366E+001	-1.0919574E+000	-2.907158214056568E+001	3.1744931E-002	-1.0920128E+000	0
3.6896965E+001	9.711199774203124E+001	-1.0939695E+000	-2.964930686577634E+001	3.2435436E-002	-1.0940129E+000	0
3.6249081E+001	9.731199773697881E+001	-1.0959604E+000	-3.023415589521809E+001	3.3135436E-002	-1.0960126E+000	0
3.5634075E+001	9.751199773192639E+001	-1.0978750E+000	-3.080969662785265E+001	3.3825196E-002	-1.0980127E+000	0
3.5028492E+001	9.771199772687396E+001	-1.0999355E+000	-3.140116671477838E+001	3.4539260E-002	-1.1000127E+000	0
3.4428391E+001	9.791199772182154E+001	-1.1019188E+000	-3.200611008430008E+001	3.5268135E-002	-1.1020126E+000	0
3.3839035E+001	9.811199771676911E+001	-1.1039876E+000	-3.262467502980007E+001	3.6017235E-002	-1.1040127E+000	0
3.3296936E+001	9.831199771171669E+001	-1.1059915E+000	-3.321601398299333E+001	3.6736630E-002	-1.1060127E+000	0
3.2769672E+001	9.851199770666426E+001	-1.1078976E+000	-3.380862811065857E+001	3.7456498E-002	-1.1080127E+000	0
3.2288242E+001	9.871199770161184E+001	-1.1099119E+000	-3.437511134958612E+001	3.8153347E-002	-1.1100127E+000	0
3.1795515E+001	9.891199769655941E+001	-1.1119659E+000	-3.497241294275881E+001	3.8888130E-002	-1.1120127E+000	0
3.1265854E+001	9.911199769150699E+001	-1.1139159E+000	-3.562723417455095E+001	3.9685745E-002	-1.1140128E+000	0
3.0764809E+001	9.931199768645456E+001	-1.1159225E+000	-3.627269288958320E+001	4.0477511E-002	-1.1160127E+000	0
3.0157045E+001	9.951199768140214E+001	-1.1179384E+000	-3.707055544150387E+001	4.1442599E-002	-1.1180127E+000	0
2.9630869E+001	9.971199767634971E+001	-1.1199259E+000	-3.779591788294096E+001	4.2328626E-002	-1.1200126E+000	0
2.9113501E+001	9.991199767129729E+001	-1.1218660E+000	-3.853421793448953E+001	4.3230228E-002	-1.1220127E+000	0
2.8586304E+001	1.001119976662449E+002	-1.1239190E+000	-3.931669617996725E+001	4.4188783E-002	-1.1240127E+000	0
2.8116896E+001	1.003119976611924E+002	-1.1258906E+000	-4.004320610948167E+001	4.5084272E-002	-1.1260127E+000	0
2.7704378E+001	1.005119976561400E+002	-1.1280152E+000	-4.071613218724855E+001	4.5928415E-002	-1.1280128E+000	0
2.7281124E+001	1.007119976510876E+002	-1.1298759E+000	-4.141603069727095E+001	4.6794973E-002	-1.1300126E+000	0
2.6756714E+001	1.009119976460352E+002	-1.1320145E+000	-4.230768074794696E+001	4.7892909E-002	-1.1320127E+000	0
2.6368036E+001	1.011119976409827E+002	-1.1340358E+000	-4.300797330657366E+001	4.8772581E-002	-1.1340127E+000	0
2.6063660E+001	1.013119976359303E+002	-1.1359106E+000	-4.358216132220230E+001	4.9505439E-002	-1.1360128E+000	0
2.5684921E+001	1.015119976308779E+002	-1.1379406E+000	-4.430384037148661E+001	5.0415140E-002	-1.1380128E+000	0
2.5225170E+001	1.017119976258255E+002	-1.1400506E+000	-4.519496346466121E+001	5.1524546E-002	-1.1400127E+000	0
2.4791737E+001	1.019119976207730E+002	-1.1419555E+000	-4.606194139310878E+001	5.2600686E-002	-1.1420127E+000	0
2.4299339E+001	1.021119976157206E+002	-1.1438682E+000	-4.707404691129581E+001	5.3846505E-002	-1.1440128E+000	0
2.3944681E+001	1.023119976106682E+002	-1.1458853E+000	-4.785552809811543E+001	5.4836947E-002	-1.1460128E+000	0
2.3606354E+001	1.025119976056158E+002	-1.1479640E+000	-4.862945041256421E+001	5.5824857E-002	-1.1480128E+000	0
2.3003420E+001	1.027119976005633E+002	-1.1499871E+000	-4.999200690576549E+001	5.7490163E-002	-1.1500127E+000	0
2.2662134E+001	1.029119975955109E+002	-1.1519443E+000	-5.083123676306548E+001	5.8554754E-002	-1.1520127E+000	0
2.2388643E+001	1.031119975904585E+002	-1.1540067E+000	-5.154428950567097E+001	5.9482455E-002	-1.1540128E+000	0
2.2087616E+001	1.033119975854061E+002	-1.1559823E+000	-5.233621644433126E+001	6.0499739E-002	-1.1560128E+000	0
2.1653086E+001	1.035119975803536E+002	-1.1580350E+000	-5.348129338634249E+001	6.1933212E-002	-1.1580126E+000	0
2.1034414E+001	1.037119975753012E+002	-1.1600269E+000	-5.514899892277191E+001	6.3974321E-002	-1.1600127E+000	0
2.0482256E+001	1.039119975702488E+002	-1.1619964E+000	-5.673185675863243E+001	6.5922208E-002	-1.1620127E+000	0
2.0206942E+001	1.041119975651964E+002	-1.1640418E+000	-5.760603360632362E+001	6.7055829E-002	-1.1640128E+000	0
1.9960861E+001	1.043119975601439E+002	-1.1660312E+000	-5.841587903602334E+001	6.8114743E-002	-1.1660128E+000	0
1.9748047E+001	1.045119975550915E+002	-1.1680452E+000	-5.914737502733851E+001	6.9086805E-002	-1.1680127E+000	0
1.9471315E+001	1.047119975500391E+002	-1.1699994E+000	-6.008835775079069E+001	7.0303343E-002	-1.1700126E+000	0
1.9191349E+001	1.049119975449867E+002	-1.1719987E+000	-6.106911983403461E+001	7.1572930E-002	-1.1720127E+000	0
1.9003040E+001	1.051119975399342E+002	-1.1741015E+000	-6.178492909926695E+001	7.2541773E-002	-1.1740128E+000	0
1.8801126E+001	1.053119975348818E+002	-1.1760771E+000	-6.255354886692976E+001	7.3567800E-002	-1.1760126E+000	0
1.8396435E+001	1.055119975298294E+002	-1.1779964E+000	-6.403395006986426E+001	7.5431764E-002	-1.1780127E+000	0
1.8187767E+001	1.057119975247770E+002	-1.1800017E+000	-6.487886902480432E+001	7.6557182E-002	-1.1800127E+000	0
1.7920233E+001	1.059119975197245E+002	-1.1819715E+000	-6.595737630872236E+001	7.7959739E-002	-1.1820128E+000	0
1.7685404E+001	1.061119975146721E+002	-1.1840340E+000	-6.694978384041724E+001	7.9270817E-002	-1.1840128E+000	0
1.7439804E+001	1.063119975096197E+002	-1.1860161E+000	-6.800627119308687E+001	8.0656528E-002	-1.1860126E+000	0
1.7233780E+001	1.065119975045673E+002	-1.1879910E+000	-6.893386213417216E+001	8.1892811E-002	-1.1880127E+000	0
1.7044018E+001	1.067119974995148E+002	-1.1899886E+000	-6.981854747806756E+001	8.3083279E-002	-1.1900127E+000	0
1.6809587E+001	1.069119974944624E+002	-1.1919928E+000	-7.091148507189587E+001	8.4525980E-002	-1.1920127E+000	0
1.6586781E+001	1.071119974894100E+002	-1.1940557E+000	-7.198839573038420E+001	8.5958153E-002	-1.1940128E+000	0
1.6236713E+001	1.073119974843576E+002	-1.1960188E+000	-7.366138401918101E+001	8.8100404E-002	-1.1960127E+000	0
1.5926683E+001	1.075119974793051E+002	-1.1979991E+000	-7.521962120527610E+001	9.0113036E-002	-1.1980127E+000	0
1.5684470E+001	1.077119974742527E+002	-1.2000498E+000	-7.651197246953780E+001	9.1818176E-002	-1.2000127E+000	0
1.5192127E+001	1.079119974692003E+002	-1.2020628E+000	-7.912406327232509E+001	9.5112100E-002	-1.2020128E+000	0
1.4966931E+001	1.081119974641479E+002	-1.2039742E+000	-8.044228907885736E+001	9.6850447E-002	-1.2040128E+000	0
1.4821736E+001	1.083119974590954E+002	-1.2059865E+000	-8.136607271365307E+001	9.8126382E-002	-1.2060127E+000	0
1.4673749E+001	1.085119974540430E+002	-1.2080257E+000	-8.232563708969263E+001	9.9451482E-002	-1.2080127E+000	0
1.4294581E+001	1.087119974489906E+002	-1.2099574E+000	-8.464447784045392E+001	1.0241621E-001	-1.2100127E+000	0
1.3991934E+001	1.089119974439382E+002	-1.2119908E+000	-8.662068135614012E+001	1.0498347E-001	-1.2120128E+000	0
1.3895569E+001	1.091119974388857E+002	-1.2139617E+000	-8.736322763933859E+001	1.0605562E-001	-1.2140127E+000	0
1.3728165E+001	1.093119974338333E+002	-1.2160008E+000	-8.857708164731946E+001	1.0770980E-001	-1.2160127E+000	0
1.3556600E+001	1.095119974287809E+002	-1.2179786E+000	-8.984395994621082E+001	1.0942802E-001	-1.2180127E+000	0
1.3387986E+001	1.097119974237285E+002	-1.2200694E+000	-9.113166125345100E+001	1.1118695E-001	-1.2200127E+000	0
1.3153784E+001	1.099119974186760E+002	-1.2220745E+000	-9.290668934705354E+001	1.1353890E-001	-1.2220128E+000	0
1.3005565E+001	1.101119974136236E+002	-1.2240325E+000	-9.411606320177953E+001	1.1520112E-001	-1.2240127E+000	0
1.2852679E+001	1.103119974085712E+002	-1.2259707E+000	-9.538639848735025E+001	1.1694093E-001	-1.2260127E+000	0
1.2717258E+001	1.105119974035188E+002	-1.2280914E+000	-9.656887301944562E+001	1.1859540E-001	-1.2280127E+000	0
1.2544601E+001	1.107119973984663E+002	-1.2299969E+000	-9.804990242397969E+001	1.2060108E-001	-1.2300128E+000	0
1.2433083E+001	1.109119973934139E+002	-1.2320369E+000	-9.909344427061183E+001	1.2208679E-001	-1.2320127E+000	0
1.2284615E+001	1.111119973883615E+002	-1.2339957E+000	-1.004504976499645E+002	1.2395548E-001	-1.2340127E+000	0
1.2098315E+001	1.113119973833091E+002	-1.2359757E+000	-1.021609768229546E+002	1.2626849E-001	-1.2360127E+000	0
1.2034615E+001	1.115119973782566E+002	-1.2380159E+000	-1.028712511711381E+002	1.2735625E-001	-1.2380127E+000	0
1.1973177E+001	1.117119973732042E+002	-1.2400050E+000	-1.035652433447287E+002	1.2842143E-001	-1.2400126E+000	0
1.1863501E+001	1.119119973681518E+002	-1.2419684E+000	-1.046881929406228E+002	1.3001943E-001	-1.2420127E+000	0
1.1685761E+001	1.121119973630994E+002	-1.2440124E+000	-1.064553997111158E+002	1.3243183E-001	-1.2440128E+000	0
1.1530115E+001	1.123119973580469E+002	-1.2459881E+000	-1.080638065576015E+002	1.3464622E-001	-1.2460127E+000	0
1.1368109E+001	1.125219973527419E+002	-1.2480675E+000	-1.097867322588945E+002	1.3702126E-001	-1.2481127E+000	0
1.1213083E+001	1.127319973474368E+002	-1.2501247E+000	-1.114880445917175E+002	1.3937396E-001	-1.2502127E+000	0
1.1047375E+001	1.129319973423844E+002	-1.2521191E+000	-1.133408690580166E+002	1.4191626E-001	-1.2522128E+000	0
1.0971226E+001	1.131319973373320E+002	-1.2541857E+000	-1.143159168864050E+002	1.4337339E-001	-1.2542127E+000	0
1.0861521E+001	1.133319973322796E+002	-1.2561693E+000	-1.156531697162968E+002	1.4527996E-001	-1.2562127E+000	0
1.0714205E+001	1.135319973272271E+002	-1.2581660E+000	-1.174297050964806E+002	1.4774606E-001	-1.2582127E+000	0
1.0540176E+001	1.137319973221747E+002	-1.2601706E+000	-1.195587804485072E+002	1.5066446E-001	-1.2602127E+000	0
1.0464162E+001	1.139319973171223E+002	-1.2621899E+000	-1.206202519950957E+002	1.5224566E-001	-1.2622129E+000	0
1.0383201E+001	1.141319973120699E+002	-1.2642046E+000	-1.217548117853885E+002	1.5392299E-001	-1.2642128E+000	0
1.0278500E+001	1.143319973070174E+002	-1.2661715E+000	-1.231864075163325E+002	1.5597512E-001	-1.2662127E+000	0
1.0202084E+001	1.145319973019650E+002	-1.2681565E+000	-1.243036851147676E+002	1.5763652E-001	-1.2682128E+000	0
1.0082770E+001	1.147319972969126E+002	-1.2702018E+000	-1.259774632183605E+002	1.6001680E-001	-1.2702128E+000	0
9.9515400E+000	1.149319972918602E+002	-1.2722071E+000	-1.278402249094040E+002	1.6263925E-001	-1.2722129E+000	0
9.7390289E+000	1.151319972868077E+002	-1.2741858E+000	-1.308329444742524E+002	1.6670547E-001	-1.2742127E+000	0
9.6340809E+000	1.153319972817553E+002	-1.2761860E+000	-1.324657753243738E+002	1.6905096E-001	-1.2762127E+000	0
9.4433556E+000	1.155319972767029E+002	-1.2782245E+000	-1.353570253097551E+002	1.7301667E-001	-1.2782127E+000	0
9.3718967E+000	1.157319972716505E+002	-1.2801583E+000	-1.365954309504591E+002	1.7486377E-001	-1.2802126E+000	0
9.3208094E+000	1.159319972665980E+002	-1.2821672E+000	-1.375596458895680E+002	1.7637447E-001	-1.2822127E+000	0
9.2158604E+000	1.161319972615456E+002	-1.2842934E+000	-1.393568705766377E+002	1.7897511E-001	-1.2842127E+000	0
9.1231928E+000	1.163319972564932E+002	-1.2861669E+000	-1.409777213029581E+002	1.8132088E-001	-1.2862127E+000	0
9.0604658E+000	1.165319972514408E+002	-1.2881557E+000	-1.421732316136092E+002	1.8314126E-001	-1.2882127E+000	0
8.9325771E+000	1.167319972463883E+002	-1.2901645E+000	-1.444336277049151E+002	1.8634313E-001	-1.2902128E+000	0
8.8839407E+000	1.169319972413359E+002	-1.2922468E+000	-1.454587391001293E+002	1.8796860E-001	-1.2922127E+000	0
8.8275309E+000	1.171319972362835E+002	-1.2941471E+000	-1.466035262181367E+002	1.8972653E-001	-1.2942127E+000	0
8.7154341E+000	1.173319972312311E+002	-1.2962084E+000	-1.487256312543298E+002	1.9277941E-001	-1.2962128E+000	0
8.6630716E+000	1.175319972261786E+002	-1.2981423E+000	-1.498478059714607E+002	1.9452378E-001	-1.2982128E+000	0
8.6132698E+000	1.177319972211262E+002	-1.3002117E+000	-1.509544727450871E+002	1.9627276E-001	-1.3002127E+000	0
8.5667419E+000	1.179319972160738E+002	-1.3022358E+000	-1.520106309157645E+002	1.9795369E-001	-1.3022127E+000	0
8.4193316E+000	1.181319972110214E+002	-1.3041823E+000	-1.549033046385055E+002	2.0202215E-001	-1.3042127E+000	0
8.2801952E+000	1.183319972059689E+002	-1.3062078E+000	-1.577508426091026E+002	2.0605537E-001	-1.3062128E+000	0
8.1875916E+000	1.185319972009165E+002	-1.3081938E+000	-1.597776161818817E+002	2.0902009E-001	-1.3082128E+000	0
8.1255035E+000	1.187319971958641E+002	-1.3102689E+000	-1.612538600313957E+002	2.1128592E-001	-1.3102127E+000	0
8.0977516E+000	1.189319971908117E+002	-1.3122005E+000	-1.620450390893579E+002	2.1263559E-001	-1.3122128E+000	0
8.0289459E+000	1.191319971857592E+002	-1.3141803E+000	-1.636802938952196E+002	2.1510541E-001	-1.3142128E+000	0
7.9602718E+000	1.193319971807068E+002	-1.3162129E+000	-1.653477338587614E+002	2.1763282E-001	-1.3162128E+000	0
7.9051576E+000	1.195319971756544E+002	-1.3182017E+000	-1.667521068492987E+002	2.1981290E-001	-1.3182127E+000	0
7.8182931E+000	1.197319971706020E+002	-1.3201842E+000	-1.688583670224739E+002	2.2292416E-001	-1.3202127E+000	0
7.7423844E+000	1.199319971655495E+002	-1.3220981E+000	-1.707611082081346E+002	2.2576295E-001	-1.3222127E+000	0
7.6821046E+000	1.201319971604971E+002	-1.3241494E+000	-1.723680446412830E+002	2.2824104E-001	-1.3242128E+000	0
7.6316242E+000	1.203319971554447E+002	-1.3262204E+000	-1.737795736438295E+002	2.3047002E-001	-1.3262126E+000	0
7.5867548E+000	1.205319971503923E+002	-1.3282413E+000	-1.750737146466221E+002	2.3254015E-001	-1.3282127E+000	0
7.5041442E+000	1.207319971453398E+002	-1.3301799E+000	-1.772593737697393E+002	2.3578686E-001	-1.3302127E+000	0
7.4274597E+000	1.209319971402874E+002	-1.3322009E+000	-1.793615761603364E+002	2.3894565E-001	-1.3322128E+000	0
7.3667626E+000	1.211319971352350E+002	-1.3342144E+000	-1.811127293266677E+002	2.4164322E-001	-1.3342128E+000	0
7.3246636E+000	1.213319971301826E+002	-1.3362161E+000	-1.824269609159355E+002	2.4376184E-001	-1.3362128E+000	0
7.2598324E+000	1.215321971251251E+002	-1.3382061E+000	-1.843301598201861E+002	2.4667174E-001	-1.3382142E+000	0
7.1999545E+000	1.217325971200626E+002	-1.3402447E+000	-1.861462654202114E+002	2.4948154E-001	-1.3402182E+000	0
7.1348772E+000	1.219228971152552E+002	-1.3420776E+000	-1.881010075702879E+002	2.5244614E-001	-1.3421214E+000	0
7.0719285E+000	1.221030971107029E+002	-1.3439517E+000	-1.900403419749412E+002	2.5540504E-001	-1.3439233E+000	0
7.0166712E+000	1.222732971064033E+002	-1.3456088E+000	-1.917731030696599E+002	2.5805157E-001	-1.3456253E+000	0
6.9661512E+000	1.224535971018486E+002	-1.3475165E+000	-1.934377385949297E+002	2.6066056E-001	-1.3474282E+000	0
6.8946176E+000	1.226542970967785E+002	-1.3494563E+000	-1.957260637997269E+002	2.6412377E-001	-1.3494349E+000	0
6.8122830E+000	1.228549970917084E+002	-1.3514246E+000	-1.983805612280712E+002	2.6809636E-001	-1.3514420E+000	0
6.7838187E+000	1.230556970866382E+002	-1.3534154E+000	-1.995064138592770E+002	2.7001506E-001	-1.3534491E+000	0
6.7833900E+000	1.232559970815782E+002	-1.3554837E+000	-1.998239280025981E+002	2.7085808E-001	-1.3554527E+000	0
6.7484117E+000	1.234561970765208E+002	-1.3574700E+000	-2.011540006639493E+002	2.7306053E-001	-1.3574542E+000	0
6.7314801E+000	1.236568970714507E+002	-1.3594843E+000	-2.019591910773770E+002	2.7456036E-001	-1.3594607E+000	0
6.6808829E+000	1.238574970663831E+002	-1.3614095E+000	-2.037768916560531E+002	2.7742380E-001	-1.3614670E+000	0
6.5889406E+000	1.240580970613155E+002	-1.3634583E+000	-2.069313354663440E+002	2.8214225E-001	-1.3634735E+000	0
6.5180769E+000	1.242483970565081E+002	-1.3653619E+000	-2.094731244982086E+002	2.8600663E-001	-1.3653762E+000	0
6.4669490E+000	1.244286970519534E+002	-1.3671784E+000	-2.114101096272333E+002	2.8903535E-001	-1.3671793E+000	0
6.4382634E+000	1.245992970476436E+002	-1.3688617E+000	-2.126134898023224E+002	2.9103845E-001	-1.3688850E+000	0
6.3862891E+000	1.247695970433415E+002	-1.3706059E+000	-2.146169632240699E+002	2.9415530E-001	-1.3705883E+000	0
6.3019953E+000	1.249499970387842E+002	-1.3723676E+000	-2.177671572562422E+002	2.9885659E-001	-1.3723919E+000	0
6.2709627E+000	1.251403970339743E+002	-1.3743012E+000	-2.191531429511133E+002	3.0118242E-001	-1.3742962E+000	0
6.2611666E+000	1.253409970289067E+002	-1.3762950E+000	-2.198144670740941E+002	3.0252954E-001	-1.3763022E+000	0
6.2597184E+000	1.255212970243520E+002	-1.3781300E+000	-2.201584661298587E+002	3.0340698E-001	-1.3781052E+000	0
6.2362165E+000	1.257015970197972E+002	-1.3800063E+000	-2.212890362165158E+002	3.0538025E-001	-1.3799083E+000	0
6.2035995E+000	1.259018970147372E+002	-1.3818421E+000	-2.227484446861260E+002	3.0780318E-001	-1.3819115E+000	0
6.1727681E+000	1.261023970096721E+002	-1.3839301E+000	-2.241992727460133E+002	3.1027612E-001	-1.3839159E+000	0
6.1673570E+000	1.263027970046096E+002	-1.3859591E+000	-2.247249840464151E+002	3.1145966E-001	-1.3859200E+000	0
6.1197343E+000	1.265031969995471E+002	-1.3879017E+000	-2.267911606756743E+002	3.1476384E-001	-1.3879243E+000	0
5.8481145E+000	1.267036969944820E+002	-1.3899387E+000	-2.376729657065011E+002	3.3035085E-001	-1.3899291E+000	0
5.7716722E+000	1.268840969899247E+002	-1.3917376E+000	-2.411324596724689E+002	3.3559310E-001	-1.3917336E+000	0
5.7349577E+000	1.270641969853750E+002	-1.3935703E+000	-2.429957407069169E+002	3.3863166E-001	-1.3935342E+000	0
5.7470493E+000	1.272643969803175E+002	-1.3954984E+000	-2.428199818329249E+002	3.3885491E-001	-1.3955363E+000	0
5.4209218E+000	1.274447969757603E+002	-1.3973321E+000	-2.577665150511875E+002	3.6018541E-001	-1.3973403E+000	0
5.3853683E+000	1.276248969712105E+002	-1.3990877E+000	-2.597942410286505E+002	3.6347491E-001	-1.3991416E+000	0
5.3848329E+000	1.278250969661531E+002	-1.4011413E+000	-2.602014522647282E+002	3.6457899E-001	-1.4011434E+000	0
5.3838782E+000	1.280253969610931E+002	-1.4031613E+000	-2.606227712288043E+002	3.6569577E-001	-1.4031463E+000	0
5.3678212E+000	1.282157969562832E+002	-1.4051356E+000	-2.617701945411191E+002	3.6782262E-001	-1.4050502E+000	0
5.3314428E+000	1.284061969514732E+002	-1.4069427E+000	-2.638953010863888E+002	3.7128559E-001	-1.4069543E+000	0
5.3272591E+000	1.286065969464107E+002	-1.4089942E+000	-2.644876400912573E+002	3.7266156E-001	-1.4089582E+000	0
5.3093343E+000	1.287972969415932E+002	-1.4109025E+000	-2.657400011317577E+002	3.7493324E-001	-1.4108649E+000	0
5.2759976E+000	1.289777969370334E+002	-1.4127071E+000	-2.677611287271247E+002	3.7826803E-001	-1.4126700E+000	0
5.2480330E+000	1.291481969327288E+002	-1.4143758E+000	-2.695058779795954E+002	3.8118258E-001	-1.4143745E+000	0
5.2176929E+000	1.293281969281816E+002	-1.4161899E+000	-2.714207201371651E+002	3.8438329E-001	-1.4161747E+000	0
5.2193804E+000	1.295083969236293E+002	-1.4180082E+000	-2.716813219245414E+002	3.8524634E-001	-1.4179760E+000	0
5.1790309E+000	1.296887969190720E+002	-1.4198672E+000	-2.741569253184780E+002	3.8926640E-001	-1.4197804E+000	0
5.1752095E+000	1.298792969142596E+002	-1.4217378E+000	-2.747208241900689E+002	3.9058098E-001	-1.4216849E+000	0
5.1785440E+000	1.300495969099575E+002	-1.4234145E+000	-2.748676885605264E+002	3.9125064E-001	-1.4233884E+000	0
5.1623335E+000	1.302298969054027E+002	-1.4252183E+000	-2.760802561599980E+002	3.9347464E-001	-1.4251915E+000	0
5.1355624E+000	1.304304969003351E+002	-1.4273254E+000	-2.779297139880255E+002	3.9669612E-001	-1.4271971E+000	0
5.1094027E+000	1.306309968952701E+002	-1.4292542E+000	-2.797301933154620E+002	3.9980555E-001	-1.4292020E+000	0
5.1008153E+000	1.308215968904551E+002	-1.4311758E+000	-2.805778503343519E+002	4.0155622E-001	-1.4311081E+000	0
5.1084409E+000	1.310018968859004E+002	-1.4329435E+000	-2.805050429985645E+002	4.0194786E-001	-1.4329114E+000	0
5.0902371E+000	1.311922968810904E+002	-1.4348652E+000	-2.818857370244559E+002	4.0446806E-001	-1.4348154E+000	0
5.0804696E+000	1.313923968760355E+002	-1.4368960E+000	-2.828273948954659E+002	4.0639356E-001	-1.4368165E+000	0
5.0676045E+000	1.315927968709730E+002	-1.4388376E+000	-2.839285687071842E+002	4.0852711E-001	-1.4388204E+000	0
5.0411291E+000	1.317931968659104E+002	-1.4408184E+000	-2.858126442351022E+002	4.1180414E-001	-1.4408243E+000	0
5.0193315E+000	1.319934968608504E+002	-1.4428600E+000	-2.874606043094914E+002	4.1476542E-001	-1.4428275E+000	0
5.0015078E+000	1.321937968557904E+002	-1.4448965E+000	-2.888921824888560E+002	4.1741928E-001	-1.4448303E+000	0
4.9224482E+000	1.323944968507203E+002	-1.4468752E+000	-2.939340815219859E+002	4.2528594E-001	-1.4468371E+000	0
4.8984699E+000	1.325948968456578E+002	-1.4488469E+000	-2.957754121280122E+002	4.2853329E-001	-1.4488417E+000	0
4.7972946E+000	1.327952968405953E+002	-1.4509526E+000	-3.024522731201801E+002	4.3884394E-001	-1.4508450E+000	0
4.7013693E+000	1.329959968355251E+002	-1.4529434E+000	-3.090468717433057E+002	4.4902763E-001	-1.4528522E+000	0
4.7051091E+000	1.331962968304651E+002	-1.4548695E+000	-3.092105634443860E+002	4.4986102E-001	-1.4548552E+000	0
4.7073612E+000	1.333865968256578E+002	-1.4568080E+000	-3.094744292175853E+002	4.5084482E-001	-1.4567583E+000	0
4.6643119E+000	1.335768968208504E+002	-1.4587580E+000	-3.127488129705735E+002	4.5622483E-001	-1.4586610E+000	0
4.6466494E+000	1.337773968157853E+002	-1.4606715E+000	-3.143494190495944E+002	4.5916125E-001	-1.4606662E+000	0
4.6133351E+000	1.339778968107203E+002	-1.4627780E+000	-3.170760195884464E+002	4.6381181E-001	-1.4626715E+000	0
4.5831451E+000	1.341782968056577E+002	-1.4647026E+000	-3.195846014519298E+002	4.6809641E-001	-1.4646751E+000	0
4.5841446E+000	1.343787968005927E+002	-1.4666382E+000	-3.199371724141902E+002	4.6923208E-001	-1.4666804E+000	0
4.5768108E+000	1.345791967955302E+002	-1.4687084E+000	-3.209021299576556E+002	4.7131166E-001	-1.4686843E+000	0
4.5747190E+000	1.347793967904727E+002	-1.4707383E+000	-3.214926115779915E+002	4.7283149E-001	-1.4706867E+000	0
4.5716982E+000	1.349793967854202E+002	-1.4727761E+000	-3.221507524416829E+002	4.7445592E-001	-1.4726865E+000	0
4.5689483E+000	1.351793967803678E+002	-1.4747211E+000	-3.227703602265337E+002	4.7599626E-001	-1.4746864E+000	0
4.5492244E+000	1.353793967753154E+002	-1.4766856E+000	-3.246016195517818E+002	4.7933456E-001	-1.4766865E+000	0
4.5455832E+000	1.355793967702630E+002	-1.4786931E+000	-3.253032605372318E+002	4.8102370E-001	-1.4786866E+000	0
4.5487089E+000	1.357793967652105E+002	-1.4807167E+000	-3.255246195501204E+002	4.8200974E-001	-1.4806864E+000	0
4.4748783E+000	1.359793967601581E+002	-1.4827522E+000	-3.313503010591930E+002	4.9131039E-001	-1.4826865E+000	0
4.4616628E+000	1.361793967551057E+002	-1.4848040E+000	-3.327916170258641E+002	4.9413034E-001	-1.4846864E+000	0
4.4533820E+000	1.363793967500533E+002	-1.4867438E+000	-3.338459984158708E+002	4.9634346E-001	-1.4866865E+000	0
4.4179416E+000	1.365793967450008E+002	-1.4887503E+000	-3.369782703036349E+002	5.0167650E-001	-1.4886866E+000	0
4.3997445E+000	1.367793967399484E+002	-1.4907128E+000	-3.388180289149545E+002	5.0508034E-001	-1.4906864E+000	0
4.3893843E+000	1.369793967348960E+002	-1.4928193E+000	-3.400976762360706E+002	5.0770438E-001	-1.4926865E+000	0
4.3767457E+000	1.371793967298436E+002	-1.4947804E+000	-3.415278223885434E+002	5.1050907E-001	-1.4946865E+000	0
4.3411789E+000	1.373793967247912E+002	-1.4967848E+000	-3.447876287274344E+002	5.1607287E-001	-1.4966865E+000	0
4.3320680E+000	1.375793967197387E+002	-1.4987581E+000	-3.459682863001917E+002	5.1852274E-001	-1.4986866E+000	0
4.3288455E+000	1.377793967146863E+002	-1.5007935E+000	-3.466960051075921E+002	5.2031910E-001	-1.5006866E+000	0
4.3218498E+000	1.379793967096339E+002	-1.5027713E+000	-3.477148200032948E+002	5.2253586E-001	-1.5026865E+000	0
4.3077965E+000	1.381793967045815E+002	-1.5047970E+000	-3.493194060466203E+002	5.2565479E-001	-1.5046865E+000	0
4.2754622E+000	1.383793966995290E+002	-1.5068092E+000	-3.524319101082774E+002	5.3104764E-001	-1.5066864E+000	0
4.2603827E+000	1.385793966944766E+002	-1.5087793E+000	-3.541417318374397E+002	5.3432173E-001	-1.5086865E+000	0
4.2778935E+000	1.387793966894242E+002	-1.5107589E+000	-3.531548702689806E+002	5.3353184E-001	-1.5106866E+000	0
4.2718358E+000	1.389793966843718E+002	-1.5128132E+000	-3.541365706644910E+002	5.3574246E-001	-1.5126865E+000	0
4.2487655E+000	1.391793966793193E+002	-1.5147854E+000	-3.565236651470314E+002	5.4005682E-001	-1.5146865E+000	0
4.2618594E+000	1.393793966742669E+002	-1.5167710E+000	-3.558941789376222E+002	5.3980994E-001	-1.5166866E+000	0
4.2668352E+000	1.395793966692145E+002	-1.5187647E+000	-3.559464171424756E+002	5.4059887E-001	-1.5186865E+000	0
4.2537427E+000	1.397793966641621E+002	-1.5207691E+000	-3.575132068603766E+002	5.4369503E-001	-1.5206865E+000	0
4.2420259E+000	1.399793966591096E+002	-1.5227581E+000	-3.589695571955635E+002	5.4662383E-001	-1.5226866E+000	0
4.2313094E+000	1.401793966540572E+002	-1.5247338E+000	-3.603456195541521E+002	5.4943115E-001	-1.5246865E+000	0
4.2430034E+000	1.403793966490048E+002	-1.5267283E+000	-3.598225301971797E+002	5.4935122E-001	-1.5266865E+000	0
4.2365165E+000	1.405793966439524E+002	-1.5287788E+000	-3.608575235829594E+002	5.5167133E-001	-1.5286866E+000	0
4.2274547E+000	1.407793966388999E+002	-1.5308070E+000	-3.621107936046010E+002	5.5432177E-001	-1.5306866E+000	0
4.2345014E+000	1.409793966338475E+002	-1.5327480E+000	-3.619665633588684E+002	5.5480349E-001	-1.5326866E+000	0
4.2367001E+000	1.411793966287951E+002	-1.5347962E+000	-3.622622080195247E+002	5.5599868E-001	-1.5346866E+000	0
4.2290850E+000	1.413793966237427E+002	-1.5367829E+000	-3.633842351074391E+002	5.5844265E-001	-1.5366865E+000	0
4.2121596E+000	1.415793966186902E+002	-1.5386858E+000	-3.652961911398270E+002	5.6207603E-001	-1.5386866E+000	0
4.0710983E+000	1.417793966136378E+002	-1.5407933E+000	-3.784711686240298E+002	5.8314586E-001	-1.5406865E+000	0
4.0810428E+000	1.419793966085854E+002	-1.5427804E+000	-3.780358408562461E+002	5.8322626E-001	-1.5426866E+000	0
4.0965385E+000	1.421793966035330E+002	-1.5447799E+000	-3.770939515950722E+002	5.8252716E-001	-1.5446864E+000	0
3.9767716E+000	1.423793965984805E+002	-1.5467720E+000	-3.889516787237044E+002	6.0161954E-001	-1.5466865E+000	0
3.8760169E+000	1.425793965934281E+002	-1.5493016E+000	-3.997148709762112E+002	6.1927891E-001	-1.5486866E+000	0
3.8232176E+000	1.427793965883757E+002	-1.5512800E+000	-4.057524853012201E+002	6.2943572E-001	-1.5506865E+000	0
3.7835791E+000	1.429793965833233E+002	-1.5532957E+000	-4.105360819931193E+002	6.3768393E-001	-1.5526866E+000	0
3.7668769E+000	1.431793965782708E+002	-1.5552433E+000	-4.128734022473536E+002	6.4211857E-001	-1.5546864E+000	0
3.6587224E+000	1.433793965732184E+002	-1.5572741E+000	-4.256333158497364E+002	6.6282773E-001	-1.5566865E+000	0
3.5487540E+000	1.435793965681660E+002	-1.5593543E+000	-4.394089720892530E+002	6.8519425E-001	-1.5586864E+000	0
3.5625837E+000	1.437793965631136E+002	-1.5613077E+000	-4.382515127826464E+002	6.8424547E-001	-1.5606865E+000	0
3.5761790E+000	1.439793965580611E+002	-1.5633042E+000	-4.371437118772492E+002	6.8338859E-001	-1.5626866E+000	0
3.5445163E+000	1.441793965530087E+002	-1.5653185E+000	-4.416169305701915E+002	6.9127113E-001	-1.5646864E+000	0
3.5341525E+000	1.443793965479563E+002	-1.5672841E+000	-4.434681545698732E+002	6.9504058E-001	-1.5666865E+000	0
3.5400431E+000	1.445793965429039E+002	-1.5693585E+000	-4.433162051004074E+002	6.9572204E-001	-1.5686866E+000	0
3.5667570E+000	1.447793965378514E+002	-1.5712858E+000	-4.405362905601805E+002	6.9220841E-001	-1.5706867E+000	0
3.5705080E+000	1.449793965327990E+002	-1.5733750E+000	-4.406585795646897E+002	6.9332117E-001	-1.5726866E+000	0
3.5633819E+000	1.451793965277466E+002	-1.5753077E+000	-4.420822035860838E+002	6.9641548E-001	-1.5746865E+000	0
3.5729506E+000	1.453793965226942E+002	-1.5772727E+000	-4.414482229280402E+002	6.9628423E-001	-1.5766865E+000	0
3.5838122E+000	1.455793965176417E+002	-1.5792851E+000	-4.406718426139976E+002	6.9594651E-001	-1.5786866E+000	0
3.5672383E+000	1.457793965125893E+002	-1.5813578E+000	-4.433003060217607E+002	7.0101643E-001	-1.5806865E+000	0
3.5648303E+000	1.459793965075369E+002	-1.5832506E+000	-4.441307325601010E+002	7.0317024E-001	-1.5826865E+000	0
3.5702085E+000	1.461793965024845E+002	-1.5852764E+000	-4.440290661333902E+002	7.0390880E-001	-1.5846865E+000	0
3.5909269E+000	1.463793964974320E+002	-1.5873072E+000	-4.420327239479884E+002	7.0164174E-001	-1.5866865E+000	0
3.6136923E+000	1.465793964923796E+002	-1.5892234E+000	-4.397782870225622E+002	6.9890594E-001	-1.5886866E+000	0
3.5944512E+000	1.467793964873272E+002	-1.5913525E+000	-4.427247495975598E+002	7.0453113E-001	-1.5906867E+000	0
3.6085677E+000	1.469793964822748E+002	-1.5933561E+000	-4.415480658429549E+002	7.0354331E-001	-1.5926865E+000	0
3.6158733E+000	1.471793964772223E+002	-1.5952631E+000	-4.411833467332142E+002	7.0380354E-001	-1.5946865E+000	0
3.6074305E+000	1.473793964721699E+002	-1.5972748E+000	-4.427735475077407E+002	7.0723104E-001	-1.5966866E+000	0
3.6140914E+000	1.475793964671175E+002	-1.5993861E+000	-4.425416719389086E+002	7.0779502E-001	-1.5986866E+000	0
3.5968447E+000	1.477793964620651E+002	-1.6012975E+000	-4.451950566774067E+002	7.1288973E-001	-1.6006867E+000	0
3.5688241E+000	1.479793964570126E+002	-1.6032715E+000	-4.492436334302893E+002	7.2025949E-001	-1.6026865E+000	0
3.5641601E+000	1.481793964519602E+002	-1.6052562E+000	-4.503883656266049E+002	7.2298872E-001	-1.6046865E+000	0
3.5742073E+000	1.483793964469078E+002	-1.6073376E+000	-4.497046430202845E+002	7.2282720E-001	-1.6066866E+000	0
3.5811007E+000	1.485793964418554E+002	-1.6093574E+000	-4.494029992680989E+002	7.2325003E-001	-1.6086864E+000	0
3.5852547E+000	1.487793964368029E+002	-1.6112756E+000	-4.494173281965886E+002	7.2413516E-001	-1.6106867E+000	0
3.5871396E+000	1.489793964317505E+002	-1.6132534E+000	-4.497325325747497E+002	7.2553253E-001	-1.6126866E+000	0
3.5848560E+000	1.491793964266981E+002	-1.6152943E+000	-4.505883557974871E+002	7.2783279E-001	-1.6146865E+000	0
3.5492005E+000	1.493793964216457E+002	-1.6173058E+000	-4.556817072005501E+002	7.3697662E-001	-1.6166866E+000	0
3.5031984E+000	1.495793964165932E+002	-1.6192786E+000	-4.622286298712888E+002	7.4847692E-001	-1.6186867E+000	0
3.5270338E+000	1.497793964115408E+002	-1.6212895E+000	-4.596750610204517E+002	7.4526632E-001	-1.6206865E+000	0
3.5292678E+000	1.499793964064884E+002	-1.6233258E+000	-4.599610845128964E+002	7.4666673E-001	-1.6226866E+000	0
3.5301521E+000	1.501793964014360E+002	-1.6253374E+000	-4.604156728645012E+002	7.4833077E-001	-1.6246865E+000	0
3.5368912E+000	1.503793963963835E+002	-1.6273111E+000	-4.600964685556837E+002	7.4872011E-001	-1.6266866E+000	0
3.5278943E+000	1.505793963913311E+002	-1.6293097E+000	-4.618362919597657E+002	7.5247431E-001	-1.6286867E+000	0
3.5027442E+000	1.507793963862787E+002	-1.6312894E+000	-4.657175328650437E+002	7.5972009E-001	-1.6306865E+000	0
3.4692237E+000	1.509793963812263E+002	-1.6332743E+000	-4.707895697595886E+002	7.6892853E-001	-1.6326864E+000	0
3.4740493E+000	1.511793963761738E+002	-1.6353315E+000	-4.707277739604851E+002	7.6979595E-001	-1.6346865E+000	0
3.4817307E+000	1.513793963711214E+002	-1.6372678E+000	-4.702454006817889E+002	7.6991767E-001	-1.6366866E+000	0
3.5017886E+000	1.515793963660690E+002	-1.6393063E+000	-4.681339842997422E+002	7.6741499E-001	-1.6386867E+000	0
3.4988849E+000	1.517793963610166E+002	-1.6413391E+000	-4.691034867682428E+002	7.6995790E-001	-1.6406865E+000	0
3.4967766E+000	1.519793963559641E+002	-1.6432512E+000	-4.699331236599246E+002	7.7221817E-001	-1.6426865E+000	0
3.4954786E+000	1.521793963509117E+002	-1.6452912E+000	-4.706912601367130E+002	7.7442420E-001	-1.6446865E+000	0
3.5023611E+000	1.523793963458593E+002	-1.6472946E+000	-4.703383114613639E+002	7.7478576E-001	-1.6466866E+000	0
3.4944446E+000	1.525793963408069E+002	-1.6492913E+000	-4.719752095021395E+002	7.7842462E-001	-1.6486866E+000	0
3.5044785E+000	1.527793963357544E+002	-1.6512820E+000	-4.711919254294331E+002	7.7807075E-001	-1.6506865E+000	0
3.4830022E+000	1.529793963307020E+002	-1.6532902E+000	-4.746738748269290E+002	7.8477365E-001	-1.6526866E+000	0
3.4784348E+000	1.531793963256496E+002	-1.6553321E+000	-4.758841930268304E+002	7.8774637E-001	-1.6546865E+000	0
3.4630225E+000	1.533793963205972E+002	-1.6573149E+000	-4.785746880745382E+002	7.9314893E-001	-1.6566865E+000	0
3.4733469E+000	1.535793963155447E+002	-1.6592984E+000	-4.777231902167896E+002	7.9268533E-001	-1.6586866E+000	0
3.4716516E+000	1.537793963104923E+002	-1.6612630E+000	-4.785223941154209E+002	7.9495156E-001	-1.6606865E+000	0
3.4734290E+000	1.539793963054399E+002	-1.6633098E+000	-4.788667926745062E+002	7.9650384E-001	-1.6626866E+000	0
3.4888756E+000	1.541793963003875E+002	-1.6653261E+000	-4.773245728724141E+002	7.9490107E-001	-1.6646866E+000	0
3.4333894E+000	1.543793962953350E+002	-1.6673348E+000	-4.856235516779561E+002	8.0969703E-001	-1.6666865E+000	0
3.3963497E+000	1.545793962902826E+002	-1.6693457E+000	-4.915117541159634E+002	8.2050306E-001	-1.6686866E+000	0
3.3922105E+000	1.547793962852302E+002	-1.6713351E+000	-4.926979258184801E+002	8.2346332E-001	-1.6706866E+000	0
3.3906543E+000	1.549793962801778E+002	-1.6733562E+000	-4.935201218879702E+002	8.2583493E-001	-1.6726866E+000	0
3.3905191E+000	1.551793962751253E+002	-1.6753151E+000	-4.941175950108736E+002	8.2780272E-001	-1.6746866E+000	0
3.3902359E+000	1.553793962700729E+002	-1.6773471E+000	-4.947582211397139E+002	8.2988125E-001	-1.6766865E+000	0
3.3725064E+000	1.555793962650205E+002	-1.6792880E+000	-4.979347391409683E+002	8.3617586E-001	-1.6786866E+000	0
3.3777709E+000	1.557793962599681E+002	-1.6813282E+000	-4.977626495231580E+002	8.3690238E-001	-1.6806866E+000	0
3.3144073E+000	1.559793962549156E+002	-1.6832948E+000	-5.078720394143166E+002	8.5489833E-001	-1.6826866E+000	0
3.2764521E+000	1.561793962498632E+002	-1.6852930E+000	-5.143651933432157E+002	8.6685604E-001	-1.6846865E+000	0
3.2835197E+000	1.563793962448108E+002	-1.6872803E+000	-5.138632853025747E+002	8.6703140E-001	-1.6866866E+000	0
3.2987599E+000	1.565793962397584E+002	-1.6892791E+000	-5.120951701572976E+002	8.6507165E-001	-1.6886865E+000	0
3.3051851E+000	1.567793962347059E+002	-1.6913465E+000	-5.117251936075650E+002	8.6550462E-001	-1.6906867E+000	0
3.2849710E+000	1.569793962296535E+002	-1.6933498E+000	-5.154839567154149E+002	8.7289470E-001	-1.6926867E+000	0
3.2911043E+000	1.571793962246011E+002	-1.6953393E+000	-5.151278065489000E+002	8.7331641E-001	-1.6946865E+000	0
3.3183079E+000	1.573793962195487E+002	-1.6973636E+000	-5.115148078762745E+002	8.6822665E-001	-1.6966866E+000	0
3.3312597E+000	1.575793962144962E+002	-1.6993244E+000	-5.101146466434675E+002	8.6685026E-001	-1.6986865E+000	0
3.3316190E+000	1.577793962094438E+002	-1.7013521E+000	-5.106682724379629E+002	8.6882657E-001	-1.7006866E+000	0
3.3321598E+000	1.579793962043914E+002	-1.7032952E+000	-5.111685300987065E+002	8.7067091E-001	-1.7026867E+000	0
3.3308942E+000	1.581793961993390E+002	-1.7053298E+000	-5.119735651989367E+002	8.7308377E-001	-1.7046865E+000	0
3.3210089E+000	1.583793961942865E+002	-1.7073143E+000	-5.140950420578602E+002	8.7772179E-001	-1.7066866E+000	0
3.3291535E+000	1.585793961892341E+002	-1.7092962E+000	-5.134326901727800E+002	8.7760854E-001	-1.7086865E+000	0
3.3210020E+000	1.587793961841817E+002	-1.7113149E+000	-5.153007771368752E+002	8.8184190E-001	-1.7106866E+000	0
3.3233907E+000	1.589793961791293E+002	-1.7133514E+000	-5.155431601682230E+002	8.8330656E-001	-1.7126867E+000	0
3.0958543E+000	1.591793961740768E+002	-1.7154256E+000	-5.541041112973289E+002	9.5052439E-001	-1.7146865E+000	0
2.8973503E+000	1.593793961690244E+002	-1.7174335E+000	-5.927600105960341E+002	1.0180259E+000	-1.7166866E+000	0
2.9233971E+000	1.595793961639720E+002	-1.7194326E+000	-5.881625410499469E+002	1.0113058E+000	-1.7186867E+000	0
2.8991091E+000	1.597793961589196E+002	-1.7213537E+000	-5.937526437971337E+002	1.0220582E+000	-1.7206866E+000	0
2.8931057E+000	1.599793961538671E+002	-1.7234229E+000	-5.956999512021466E+002	1.0266429E+000	-1.7226864E+000	0
2.9068658E+000	1.601293961500778E+002	-1.7249448E+000	-5.934036639953119E+002	1.0235885E+000	-1.7241862E+000	0
2.8956902E+000	1.601699961490522E+002	-1.7255523E+000	-5.959036254882813E+002	1.0282629E+000	-1.7247863E+000	1