EC-Lab ASCII FILE
Nb header lines : 63                          

Linear Sweep Voltammetry

Run on channel : 1 (SN 1340)
User : 
Electrode connection : standard
Potential control : Ewe
Ewe ctrl range : min = -5.00 V, max = 5.00 V
Ewe,I filtering : <None>
Safety Limits :
	Do not start on E overload
Channel : Floating
Acquisition started on : 02/10/2026 15:42:01.080
Technique started on : 02/10/2026 15:42:03.920
Loaded Setting File :  NONE
Saved on :
	File : PtPdCoNiCrFe_2-10_02_LSV_C01.mpr
	Directory : C:\Users\volt\Documents\Platalytix\
	Host : 127.0.0.1
Device : SP-200 (SN 0262)
Address : USB
EC-LAB for windows v11.60 (software)
Internet server v11.60 (firmware)
Command interpretor v11.60 (firmware)
Electrode material : Pt18.75Pd18.75Ni18.75o18.75Cr25
Initial state : 
Electrolyte : KOH (1 M)
Comments : After polishing
Cable : standard
Reference electrode : Hg/HgO (0.140 V)
Electrode surface area : 1.000 cm˛
Characteristic mass : 0.001 g
Equivalent Weight : 0.000 g/eq.
Density : 0.000 g/cm3
Volume (V) : 0.001 cmł
Cycle Definition : Charge/Discharge alternance
tR (h:m:s)          0:00:5.0000         
dER/dt (mV/h)       0.0                 
dER (mV)            0                   
dtR (s)             0.0000              
dE/dt               10.000              
dE/dt unit          mV/s                
Ei (V)              -0.200              
vs.                 Ref                 
EL (V)              -2.500              
vs.                 Ref                 
record              <I>                 
dI                  0.000               
unit dI             µA                  
tI (s)              0.0000              
step percent        50                  
N                   10                  
E range min (V)     -5.000              
E range max (V)     5.000               
I Range             Auto                
I Range min         Unset               
I Range max         Unset               
I Range init        Unset               
Bandwidth           8                   

Rwe/Ohm	time/s	Ewe/V	<I>/mA	Pwe/W	control/V	error	
0.0000000E+000	2.840400134882657E+000	-1.6005909E-001	0.000000000000000E+000	0.0000000E+000	0.0000000E+000	0
0.0000000E+000	7.840200008577085E+000	-5.8885586E-002	0.000000000000000E+000	0.0000000E+000	-1.9998248E-001	0
1.9125754E+003	8.040200003524660E+000	-2.0179011E-001	1.055070054158569E-001	-2.1290271E-005	-2.0188226E-001	0
2.8973098E+003	8.160200000493205E+000	-2.0292524E-001	-7.003918847289503E-002	1.4212719E-005	-2.0308231E-001	0
2.1712937E+003	8.370199995188159E+000	-2.0501652E-001	-9.442137319926192E-002	1.9357942E-005	-2.0518230E-001	0
2.1870769E+003	8.570199990135734E+000	-2.0706479E-001	-9.467649942975642E-002	1.9604169E-005	-2.0718230E-001	0
2.2534065E+003	8.770199985083309E+000	-2.0906720E-001	-9.277828421302203E-002	1.9396895E-005	-2.0918231E-001	0
2.3283748E+003	8.970199980030884E+000	-2.1104926E-001	-9.064230622297131E-002	1.9129991E-005	-2.1118231E-001	0
2.4029509E+003	9.170199974978459E+000	-2.1303745E-001	-8.865659516948843E-002	1.8887175E-005	-2.1318230E-001	0
2.4787053E+003	9.370199969926034E+000	-2.1509060E-001	-8.677538560097309E-002	1.8664570E-005	-2.1518230E-001	0
2.5509612E+003	9.570199964873609E+000	-2.1706416E-001	-8.509112304539057E-002	1.8470233E-005	-2.1718234E-001	0
2.6197393E+003	9.770199959821184E+000	-2.1903583E-001	-8.360978742467973E-002	1.8313540E-005	-2.1918230E-001	0
2.6869309E+003	9.970199954768759E+000	-2.2111419E-001	-8.229247250651217E-002	1.8196033E-005	-2.2118232E-001	0
2.7539216E+003	1.017019994971633E+001	-2.2306953E-001	-8.100068504983349E-002	1.8068786E-005	-2.2318232E-001	0
2.8164526E+003	1.037019994466391E+001	-2.2500531E-001	-7.988961121698818E-002	1.7975586E-005	-2.2518231E-001	0
2.8787900E+003	1.057019993961148E+001	-2.2709157E-001	-7.888437820600587E-002	1.7913977E-005	-2.2718231E-001	0
2.9419373E+003	1.077019993455906E+001	-2.2905070E-001	-7.785709965931849E-002	1.7833223E-005	-2.2918232E-001	0
3.0025310E+003	1.097019992950663E+001	-2.3101512E-001	-7.694012563001940E-002	1.7774331E-005	-2.3118231E-001	0
3.0593142E+003	1.117019992445421E+001	-2.3302031E-001	-7.616749591333460E-002	1.7748573E-005	-2.3318231E-001	0
3.1203872E+003	1.137019991940178E+001	-2.3504607E-001	-7.532593445132285E-002	1.7705066E-005	-2.3518233E-001	0
3.1807488E+003	1.157019991434936E+001	-2.3704490E-001	-7.452487083080173E-002	1.7665741E-005	-2.3718230E-001	0
3.2383188E+003	1.177019990929693E+001	-2.3909293E-001	-7.383242214854605E-002	1.7652810E-005	-2.3918231E-001	0
3.2939087E+003	1.197019990424451E+001	-2.4106523E-001	-7.318515906082923E-002	1.7642398E-005	-2.4118233E-001	0
3.3505906E+003	1.217019989919208E+001	-2.4309653E-001	-7.255333615942108E-002	1.7637465E-005	-2.4318229E-001	0
3.4095332E+003	1.237019989413966E+001	-2.4510975E-001	-7.188953393267761E-002	1.7620825E-005	-2.4518232E-001	0
3.4660095E+003	1.257019988908723E+001	-2.4706678E-001	-7.128277389636717E-002	1.7611606E-005	-2.4718232E-001	0
3.5190278E+003	1.277019988403481E+001	-2.4905115E-001	-7.077271679876707E-002	1.7626027E-005	-2.4918231E-001	0
3.5777715E+003	1.297019987898238E+001	-2.5107118E-001	-7.017529751871031E-002	1.7618995E-005	-2.5118232E-001	0
3.6319048E+003	1.317019987392996E+001	-2.5307083E-001	-6.967991702110765E-002	1.7633954E-005	-2.5318229E-001	0
3.6855369E+003	1.337019986887753E+001	-2.5507390E-001	-6.920942841752387E-002	1.7653520E-005	-2.5518230E-001	0
3.7403811E+003	1.357019986382511E+001	-2.5703239E-001	-6.871823778390773E-002	1.7662813E-005	-2.5718230E-001	0
3.7964875E+003	1.377019985877268E+001	-2.5906175E-001	-6.823722120108333E-002	1.7677654E-005	-2.5918230E-001	0
3.8513228E+003	1.397019985372026E+001	-2.6104575E-001	-6.778080580553336E-002	1.7693892E-005	-2.6118231E-001	0
3.9037075E+003	1.417019984866783E+001	-2.6300716E-001	-6.737368488726536E-002	1.7719762E-005	-2.6318234E-001	0
3.9589290E+003	1.437019984361541E+001	-2.6505378E-001	-6.695087955443063E-002	1.7745584E-005	-2.6518229E-001	0
4.0121848E+003	1.457019983856299E+001	-2.6702905E-001	-6.655452405514369E-002	1.7771990E-005	-2.6718229E-001	0
4.0696982E+003	1.477019983351056E+001	-2.6904315E-001	-6.610886803184057E-002	1.7786138E-005	-2.6918229E-001	0
4.1203618E+003	1.497019982845814E+001	-2.7104110E-001	-6.578090059192949E-002	1.7829327E-005	-2.7118230E-001	0
4.1748247E+003	1.517019982340571E+001	-2.7301404E-001	-6.539533332057815E-002	1.7853845E-005	-2.7318230E-001	0
4.2292534E+003	1.537019981835329E+001	-2.7503106E-001	-6.503063971820877E-002	1.7885446E-005	-2.7518231E-001	0
4.2842388E+003	1.557019981330086E+001	-2.7706322E-001	-6.467035198911542E-002	1.7917777E-005	-2.7718231E-001	0
4.3387412E+003	1.577019980824844E+001	-2.7903849E-001	-6.431323961753921E-002	1.7945869E-005	-2.7918231E-001	0
4.3924800E+003	1.597019980319601E+001	-2.8106555E-001	-6.398789457292564E-002	1.7984794E-005	-2.8118232E-001	0
4.4430757E+003	1.617019979814359E+001	-2.8302720E-001	-6.370073568356756E-002	1.8029041E-005	-2.8318232E-001	0
4.4999873E+003	1.637019979309116E+001	-2.8505850E-001	-6.334651123347967E-002	1.8057461E-005	-2.8518230E-001	0
4.5510308E+003	1.657019978803874E+001	-2.8706044E-001	-6.307591552858793E-002	1.8106601E-005	-2.8718233E-001	0
4.6057827E+003	1.677019978298631E+001	-2.8903532E-001	-6.275487831495974E-002	1.8138377E-005	-2.8918231E-001	0
4.6584648E+003	1.697019977793389E+001	-2.9103965E-001	-6.247544270473408E-002	1.8182831E-005	-2.9118231E-001	0
4.7076606E+003	1.717019977288146E+001	-2.9304925E-001	-6.224944231167950E-002	1.8242152E-005	-2.9318231E-001	0
4.7665356E+003	1.737019976782904E+001	-2.9502198E-001	-6.189442272329715E-002	1.8260214E-005	-2.9518232E-001	0
4.8172471E+003	1.757019976277661E+001	-2.9705328E-001	-6.166453036224129E-002	1.8317651E-005	-2.9718232E-001	0
4.8719180E+003	1.777019975772419E+001	-2.9904890E-001	-6.138216991182360E-002	1.8356270E-005	-2.9918233E-001	0
4.9238125E+003	1.797019975267176E+001	-3.0107489E-001	-6.114670047388659E-002	1.8409737E-005	-3.0118230E-001	0
4.9781187E+003	1.817019974761934E+001	-3.0302724E-001	-6.087184270744617E-002	1.8445826E-005	-3.0318230E-001	0
5.0300693E+003	1.837019974256691E+001	-3.0506590E-001	-6.064844592379365E-002	1.8501773E-005	-3.0518231E-001	0
5.0797310E+003	1.857019973751449E+001	-3.0696544E-001	-6.042946678007666E-002	1.8549757E-005	-3.0718231E-001	0
5.1320913E+003	1.877019973246206E+001	-3.0909222E-001	-6.022734411985786E-002	1.8615803E-005	-3.0918229E-001	0
5.1858159E+003	1.897019972740964E+001	-3.1106913E-001	-5.998460785696980E-002	1.8659361E-005	-3.1118229E-001	0
5.2374648E+003	1.917019972235721E+001	-3.1309623E-001	-5.978011196508781E-002	1.8716928E-005	-3.1318232E-001	0
5.2976079E+003	1.937019971730479E+001	-3.1505132E-001	-5.947048438748870E-002	1.8736255E-005	-3.1518233E-001	0
5.3421733E+003	1.957019971225236E+001	-3.1706265E-001	-5.935087458329788E-002	1.8817946E-005	-3.1718233E-001	0
5.3960000E+003	1.977019970719994E+001	-3.1901053E-001	-5.911981488647711E-002	1.8859842E-005	-3.1918231E-001	0
5.4465820E+003	1.997019970214751E+001	-3.2104307E-001	-5.894395038369343E-002	1.8923547E-005	-3.2118231E-001	0
5.5006968E+003	2.017019969709509E+001	-3.2302916E-001	-5.872513435447346E-002	1.8969931E-005	-3.2318231E-001	0
5.5473389E+003	2.037019969204266E+001	-3.2505938E-001	-5.859735709152558E-002	1.9047620E-005	-3.2518232E-001	0
5.6081519E+003	2.057019968699024E+001	-3.2706732E-001	-5.831997972636438E-002	1.9074560E-005	-3.2718229E-001	0
5.6525947E+003	2.077019968193781E+001	-3.2903492E-001	-5.820953941485851E-002	1.9152971E-005	-3.2918230E-001	0
5.7108979E+003	2.097019967688539E+001	-3.3104542E-001	-5.796731478648653E-002	1.9189814E-005	-3.3118230E-001	0
5.7575757E+003	2.117019967183296E+001	-3.3304211E-001	-5.784415879103100E-002	1.9264540E-005	-3.3318231E-001	0
5.8107583E+003	2.137019966678054E+001	-3.3503520E-001	-5.765774350110731E-002	1.9317375E-005	-3.3518231E-001	0
5.8643013E+003	2.157019966172811E+001	-3.3709136E-001	-5.748193182078620E-002	1.9376663E-005	-3.3718231E-001	0
5.9171382E+003	2.177019965667569E+001	-3.3905575E-001	-5.730063216591808E-002	1.9428109E-005	-3.3918232E-001	0
5.9625220E+003	2.197019965162326E+001	-3.4106711E-001	-5.720181863379081E-002	1.9509658E-005	-3.4118229E-001	0
6.0151836E+003	2.217019964657084E+001	-3.4306505E-001	-5.703317919110362E-002	1.9566090E-005	-3.4318233E-001	0
6.0750332E+003	2.237019964151841E+001	-3.4504864E-001	-5.679781915453130E-002	1.9598010E-005	-3.4518230E-001	0
6.1204419E+003	2.257019963646599E+001	-3.4704995E-001	-5.670341604881290E-002	1.9678917E-005	-3.4718233E-001	0
6.1657100E+003	2.277019963141356E+001	-3.4905878E-001	-5.661291074242158E-002	1.9761233E-005	-3.4918231E-001	0
6.2207520E+003	2.297019962636114E+001	-3.5104352E-001	-5.643104179128744E-002	1.9809751E-005	-3.5118231E-001	0
6.2699980E+003	2.317019962130871E+001	-3.5305023E-001	-5.630786938047971E-002	1.9879506E-005	-3.5318235E-001	0
6.3251431E+003	2.337019961625629E+001	-3.5505074E-001	-5.613323478207677E-002	1.9930147E-005	-3.5518232E-001	0
6.3763169E+003	2.357019961120386E+001	-3.5703599E-001	-5.599408020907393E-002	1.9991901E-005	-3.5718232E-001	0
6.4256035E+003	2.377019960615144E+001	-3.5906577E-001	-5.588047274033597E-002	2.0064765E-005	-3.5918233E-001	0
6.4715947E+003	2.397019960109901E+001	-3.6104718E-001	-5.578952256427508E-002	2.0142650E-005	-3.6118233E-001	0
6.5244775E+003	2.417019959604659E+001	-3.6305115E-001	-5.564447785854393E-002	2.0201791E-005	-3.6318231E-001	0
6.5746396E+003	2.437019959099416E+001	-3.6504802E-001	-5.552365611436155E-002	2.0268801E-005	-3.6518234E-001	0
6.6232480E+003	2.457019958594174E+001	-3.6703390E-001	-5.541599802398323E-002	2.0339550E-005	-3.6718231E-001	0
6.6739209E+003	2.477019958088931E+001	-3.6902207E-001	-5.529314388157780E-002	2.0404390E-005	-3.6918229E-001	0
6.7238428E+003	2.497019957583689E+001	-3.7103340E-001	-5.518174767990480E-002	2.0474272E-005	-3.7118232E-001	0
6.7720259E+003	2.517019957078446E+001	-3.7303418E-001	-5.508457521312446E-002	2.0548428E-005	-3.7318233E-001	0
6.8228745E+003	2.537019956573204E+001	-3.7505758E-001	-5.497061036254730E-002	2.0617144E-005	-3.7518230E-001	0
6.8732852E+003	2.557019956067961E+001	-3.7699613E-001	-5.484948235367521E-002	2.0678042E-005	-3.7718233E-001	0
6.9227534E+003	2.577019955562719E+001	-3.7905967E-001	-5.475562074287131E-002	2.0755648E-005	-3.7918231E-001	0
6.9688916E+003	2.597019955057476E+001	-3.8102919E-001	-5.467572313566538E-002	2.0833046E-005	-3.8118234E-001	0
7.0216245E+003	2.617019954552234E+001	-3.8305494E-001	-5.455360684201738E-002	2.0897029E-005	-3.8318232E-001	0
7.0722485E+003	2.637019954046991E+001	-3.8503295E-001	-5.444279265782204E-002	2.0962269E-005	-3.8518235E-001	0
7.1168633E+003	2.657019953541749E+001	-3.8701546E-001	-5.438006048929167E-002	2.1045924E-005	-3.8718233E-001	0
7.1727559E+003	2.677019953036506E+001	-3.8904887E-001	-5.423980350067592E-002	2.1101934E-005	-3.8918230E-001	0
7.2142676E+003	2.697019952531264E+001	-3.9100650E-001	-5.419905592376983E-002	2.1192183E-005	-3.9118233E-001	0
7.2579312E+003	2.717019952026021E+001	-3.9300853E-001	-5.414883586918084E-002	2.1280954E-005	-3.9318231E-001	0
7.3165376E+003	2.737019951520779E+001	-3.9505675E-001	-5.399504094542984E-002	2.1331105E-005	-3.9518234E-001	0
7.3638101E+003	2.757019951015536E+001	-3.9704561E-001	-5.391850191339609E-002	2.1408105E-005	-3.9718235E-001	0
7.4139443E+003	2.777019950510294E+001	-3.9903063E-001	-5.382163644147431E-002	2.1476480E-005	-3.9918235E-001	0
7.4651528E+003	2.797019950005051E+001	-4.0104157E-001	-5.372181721612423E-002	2.1544682E-005	-4.0118229E-001	0
7.5158384E+003	2.817019949499809E+001	-4.0301597E-001	-5.362222498534086E-002	2.1610613E-005	-4.0318236E-001	0
7.5616343E+003	2.837019948994566E+001	-4.0503538E-001	-5.356452972607045E-002	2.1695529E-005	-4.0518236E-001	0
7.6026553E+003	2.857019948489324E+001	-4.0702441E-001	-5.353713830956203E-002	2.1790922E-005	-4.0718234E-001	0
7.6492959E+003	2.877019947984081E+001	-4.0902176E-001	-5.347181790689937E-002	2.1871138E-005	-4.0918231E-001	0
7.7012373E+003	2.897019947478839E+001	-4.1103181E-001	-5.337217693742924E-002	2.1937663E-005	-4.1118234E-001	0
7.7457139E+003	2.917019946973596E+001	-4.1305926E-001	-5.332746177905401E-002	2.2027401E-005	-4.1318232E-001	0
7.8009209E+003	2.937019946468354E+001	-4.1512325E-001	-5.321464604748788E-002	2.2090637E-005	-4.1518235E-001	0
7.8437417E+003	2.957019945963111E+001	-4.1708025E-001	-5.317363372999684E-002	2.2177672E-005	-4.1718233E-001	0
7.8929663E+003	2.977019945457869E+001	-4.1909668E-001	-5.309748750173671E-002	2.2252980E-005	-4.1918236E-001	0
7.9422227E+003	2.997019944952626E+001	-4.2107087E-001	-5.301675425320806E-002	2.2323811E-005	-4.2118230E-001	0
7.9873203E+003	3.017019944447384E+001	-4.2302981E-001	-5.296266960537677E-002	2.2404789E-005	-4.2318234E-001	0
8.0338682E+003	3.037019943942141E+001	-4.2508611E-001	-5.291175985679275E-002	2.2492055E-005	-4.2518237E-001	0
8.0805190E+003	3.057019943436899E+001	-4.2707354E-001	-5.285224039793912E-002	2.2571794E-005	-4.2718232E-001	0
8.1327686E+003	3.077019942931656E+001	-4.2907292E-001	-5.275852963868988E-002	2.2637256E-005	-4.2918232E-001	0
8.1776006E+003	3.097019942426414E+001	-4.3107557E-001	-5.271418687788204E-002	2.2723798E-005	-4.3118235E-001	0
8.2268887E+003	3.117019941921171E+001	-4.3307394E-001	-5.264127801770102E-002	2.2797565E-005	-4.3318233E-001	0
8.2733213E+003	3.137019941415929E+001	-4.3507639E-001	-5.258787264033737E-002	2.2879742E-005	-4.3518233E-001	0
8.3149053E+003	3.157019940910686E+001	-4.3704465E-001	-5.256158902886368E-002	2.2971761E-005	-4.3718234E-001	0
8.3641992E+003	3.177019940405444E+001	-4.3906090E-001	-5.249287928887486E-002	2.3047571E-005	-4.3918234E-001	0
8.4106523E+003	3.197019939900201E+001	-4.4111824E-001	-5.244756421515634E-002	2.3135577E-005	-4.4118232E-001	0
8.4634453E+003	3.217019939394959E+001	-4.4307202E-001	-5.235125648349837E-002	2.3195376E-005	-4.4318235E-001	0
8.5053135E+003	3.237019938889716E+001	-4.4507873E-001	-5.232949423352418E-002	2.3290744E-005	-4.4518232E-001	0
8.5465264E+003	3.257019938384474E+001	-4.4708073E-001	-5.231139508694804E-002	2.3387416E-005	-4.4718236E-001	0
8.6011875E+003	3.277019937879231E+001	-4.4906744E-001	-5.220993479202751E-002	2.3445782E-005	-4.4918233E-001	0
8.6487139E+003	3.297019937373989E+001	-4.5107734E-001	-5.215542245119831E-002	2.3526129E-005	-4.5118231E-001	0
8.6793818E+003	3.317019936868746E+001	-4.5308357E-001	-5.220228455572166E-002	2.3651997E-005	-4.5318240E-001	0
8.7320205E+003	3.337019936363504E+001	-4.5507172E-001	-5.211528166526702E-002	2.3716191E-005	-4.5518234E-001	0
8.7782441E+003	3.357019935858261E+001	-4.5704463E-001	-5.206560937565308E-002	2.3796307E-005	-4.5718235E-001	0
8.8259297E+003	3.377019935353019E+001	-4.5905602E-001	-5.201219756772838E-002	2.3876513E-005	-4.5918235E-001	0
8.8728877E+003	3.397019934847776E+001	-4.6109962E-001	-5.196725771986310E-002	2.3962082E-005	-4.6118236E-001	0
8.9106572E+003	3.417019934342534E+001	-4.6309459E-001	-5.197086727643674E-002	2.4067427E-005	-4.6318230E-001	0
8.9604814E+003	3.437019933837291E+001	-4.6504736E-001	-5.189981927109000E-002	2.4135874E-005	-4.6518233E-001	0
8.9989971E+003	3.457019933332049E+001	-4.6709266E-001	-5.190497005459715E-002	2.4244431E-005	-4.6718237E-001	0
9.0499307E+003	3.477019932826806E+001	-4.6902591E-001	-5.182646516057959E-002	2.4307956E-005	-4.6918234E-001	0
9.0934170E+003	3.497019932321564E+001	-4.7107166E-001	-5.180359143043656E-002	2.4403203E-005	-4.7118232E-001	0
9.1374609E+003	3.517019931816321E+001	-4.7307613E-001	-5.177325888667794E-002	2.4492692E-005	-4.7318235E-001	0
9.1804385E+003	3.537019931311079E+001	-4.7501028E-001	-5.174156712197076E-002	2.4577776E-005	-4.7518232E-001	0
9.2270479E+003	3.557019930805836E+001	-4.7705486E-001	-5.170178928047142E-002	2.4664590E-005	-4.7718233E-001	0
9.2590059E+003	3.577019930300594E+001	-4.7898665E-001	-5.173197303277743E-002	2.4778925E-005	-4.7918236E-001	0
9.3023242E+003	3.597019929795351E+001	-4.8106399E-001	-5.171438471980094E-002	2.4877929E-005	-4.8118237E-001	0
9.3417861E+003	3.617019929290109E+001	-4.8309270E-001	-5.171309980139371E-002	2.4982221E-005	-4.8318231E-001	0
9.3831680E+003	3.637019928784866E+001	-4.8500472E-001	-5.168880155212877E-002	2.5069314E-005	-4.8518234E-001	0
9.4282822E+003	3.657019928279624E+001	-4.8705491E-001	-5.165892261895610E-002	2.5160733E-005	-4.8718238E-001	0
9.4549277E+003	3.677019927774381E+001	-4.8908091E-001	-5.172762078657533E-002	2.5298992E-005	-4.8918232E-001	0
9.5084971E+003	3.697019927269139E+001	-4.9110219E-001	-5.164877190877615E-002	2.5364825E-005	-4.9118233E-001	0
9.5502773E+003	3.717019926763896E+001	-4.9308360E-001	-5.163029013486686E-002	2.5458050E-005	-4.9318236E-001	0
9.5853594E+003	3.737019926258654E+001	-4.9501809E-001	-5.164314275702497E-002	2.5564290E-005	-4.9518239E-001	0
9.6301035E+003	3.757019925753411E+001	-4.9704623E-001	-5.161379733494570E-002	2.5654443E-005	-4.9718234E-001	0
9.6700254E+003	3.777019925248169E+001	-4.9905375E-001	-5.160831985256042E-002	2.5755326E-005	-4.9918231E-001	0
9.6999063E+003	3.797019924742926E+001	-5.0108159E-001	-5.165839712072118E-002	2.5885072E-005	-5.0118238E-001	0
9.7342969E+003	3.817019924237684E+001	-5.0306243E-001	-5.167938194706467E-002	2.5997955E-005	-5.0318235E-001	0
9.7760410E+003	3.837019923732441E+001	-5.0506890E-001	-5.166395149899050E-002	2.6093856E-005	-5.0518233E-001	0
9.8199365E+003	3.857019923227199E+001	-5.0709003E-001	-5.163882898648275E-002	2.6185535E-005	-5.0718242E-001	0
9.8515947E+003	3.877019922721956E+001	-5.0903600E-001	-5.167041499433767E-002	2.6302101E-005	-5.0918233E-001	0
9.8845537E+003	3.897019922216714E+001	-5.1104707E-001	-5.170158062514563E-002	2.6421942E-005	-5.1118231E-001	0
9.9221934E+003	3.917019921711471E+001	-5.1302171E-001	-5.170446458006528E-002	2.6525513E-005	-5.1318234E-001	0
9.9520986E+003	3.937019921206229E+001	-5.1505256E-001	-5.175316182879597E-002	2.6655598E-005	-5.1518232E-001	0
9.9838516E+003	3.957019920700986E+001	-5.1708382E-001	-5.179201848720483E-002	2.6780815E-005	-5.1718235E-001	0
1.0019176E+004	3.977019920195744E+001	-5.1905614E-001	-5.180626904619379E-002	2.6890362E-005	-5.1918232E-001	0
1.0047033E+004	3.997019919690501E+001	-5.2106529E-001	-5.186260242517748E-002	2.7023802E-005	-5.2118236E-001	0
1.0080693E+004	4.017019919185259E+001	-5.2307397E-001	-5.188869111199801E-002	2.7141623E-005	-5.2318239E-001	0
1.0129618E+004	4.037019918680016E+001	-5.2505702E-001	-5.183383947990139E-002	2.7215721E-005	-5.2518231E-001	0
1.0160284E+004	4.057019918174774E+001	-5.2704757E-001	-5.187331052083105E-002	2.7339702E-005	-5.2718234E-001	0
1.0181271E+004	4.077019917669531E+001	-5.2908528E-001	-5.196652431495052E-002	2.7494723E-005	-5.2918237E-001	0
1.0212863E+004	4.097019917164289E+001	-5.3105706E-001	-5.199884092160723E-002	2.7614351E-005	-5.3118235E-001	0
1.0249833E+004	4.117019916659046E+001	-5.3307718E-001	-5.200837751799792E-002	2.7724480E-005	-5.3318238E-001	0
1.0272477E+004	4.137019916153804E+001	-5.3507239E-001	-5.208796525771076E-002	2.7870832E-005	-5.3518236E-001	0
1.0297086E+004	4.157019915648561E+001	-5.3705436E-001	-5.215595428443276E-002	2.8010583E-005	-5.3718239E-001	0
1.0327215E+004	4.177019915143319E+001	-5.3905153E-001	-5.219718288786512E-002	2.8136972E-005	-5.3918231E-001	0
1.0355512E+004	4.197019914638076E+001	-5.4106009E-001	-5.224851400342234E-002	2.8269586E-005	-5.4118234E-001	0
1.0390341E+004	4.217019914132834E+001	-5.4306912E-001	-5.226672779876396E-002	2.8384446E-005	-5.4318237E-001	0
1.0421472E+004	4.237019913627591E+001	-5.4508299E-001	-5.230383939466642E-002	2.8509932E-005	-5.4518229E-001	0
1.0443836E+004	4.257019913122349E+001	-5.4704612E-001	-5.237980653762053E-002	2.8654171E-005	-5.4718238E-001	0
1.0464918E+004	4.277019912617106E+001	-5.4907805E-001	-5.246845070407824E-002	2.8809274E-005	-5.4918242E-001	0
1.0501069E+004	4.297019912111864E+001	-5.5106229E-001	-5.247677734983325E-002	2.8917973E-005	-5.5118239E-001	0
1.0508728E+004	4.317019911606621E+001	-5.5308425E-001	-5.263094407877977E-002	2.9109346E-005	-5.5318230E-001	0
1.0557626E+004	4.337019911101379E+001	-5.5511022E-001	-5.257907362185987E-002	2.9187180E-005	-5.5518234E-001	0
1.0573363E+004	4.357019910596136E+001	-5.5703574E-001	-5.268292777322625E-002	2.9346274E-005	-5.5718243E-001	0
1.0602280E+004	4.377019910090894E+001	-5.5909330E-001	-5.273330494520700E-002	2.9482837E-005	-5.5918229E-001	0
1.0624560E+004	4.397019909585651E+001	-5.6108451E-001	-5.281014307116971E-002	2.9630954E-005	-5.6118232E-001	0
1.0643653E+004	4.417019909080409E+001	-5.6310356E-001	-5.290510196369697E-002	2.9791052E-005	-5.6318241E-001	0
1.0662452E+004	4.437019908575166E+001	-5.6508851E-001	-5.299798899505470E-002	2.9948555E-005	-5.6518233E-001	0
1.0677748E+004	4.457019908069924E+001	-5.6705254E-001	-5.310600693284839E-002	3.0113897E-005	-5.6718236E-001	0
1.0714022E+004	4.477019907564681E+001	-5.6904393E-001	-5.311207450839706E-002	3.0223104E-005	-5.6918234E-001	0
1.0722737E+004	4.497019907059439E+001	-5.7106102E-001	-5.325701625177182E-002	3.0413006E-005	-5.7118243E-001	0
1.0745366E+004	4.517019906554197E+001	-5.7302374E-001	-5.332751811087122E-002	3.0557934E-005	-5.7318234E-001	0
1.0769917E+004	4.537019906048954E+001	-5.7499880E-001	-5.338934192047473E-002	3.0698808E-005	-5.7518232E-001	0
1.0787291E+004	4.557019905543712E+001	-5.7707930E-001	-5.349621921355378E-002	3.0871561E-005	-5.7718241E-001	0
1.0801692E+004	4.577019905038469E+001	-5.7906181E-001	-5.360843472039178E-002	3.1042597E-005	-5.7918233E-001	0
1.0834252E+004	4.597019904533227E+001	-5.8109009E-001	-5.363453642619348E-002	3.1166499E-005	-5.8118236E-001	0
1.0841854E+004	4.617019904027984E+001	-5.8308846E-001	-5.378124901820031E-002	3.1359225E-005	-5.8318239E-001	0
1.0862271E+004	4.637019903522742E+001	-5.8506817E-001	-5.386241976976341E-002	3.1513187E-005	-5.8518237E-001	0
1.0878371E+004	4.657019903017499E+001	-5.8704531E-001	-5.396444907901876E-002	3.1679578E-005	-5.8718234E-001	0
1.0890816E+004	4.677019902512257E+001	-5.8907902E-001	-5.408951694297864E-002	3.1863001E-005	-5.8918232E-001	0
1.0920673E+004	4.697019902007014E+001	-5.9104264E-001	-5.412145022011450E-002	3.1988086E-005	-5.9118241E-001	0
1.0925112E+004	4.717019901501772E+001	-5.9307855E-001	-5.428580688671647E-002	3.2195749E-005	-5.9318233E-001	0
1.0954566E+004	4.737019900996529E+001	-5.9505308E-001	-5.432009393752640E-002	3.2323340E-005	-5.9518230E-001	0
1.0966835E+004	4.757019900491287E+001	-5.9705687E-001	-5.444203895968647E-002	3.2504991E-005	-5.9718239E-001	0
1.0976849E+004	4.777019899986044E+001	-5.9906286E-001	-5.457512302748642E-002	3.2693930E-005	-5.9918231E-001	0
1.0992019E+004	4.797019899480802E+001	-6.0107458E-001	-5.468282038018579E-002	3.2868455E-005	-6.0118234E-001	0
1.1002096E+004	4.817019898975559E+001	-6.0310334E-001	-5.481713153147338E-002	3.3060394E-005	-6.0318232E-001	0
1.1018631E+004	4.837019898470317E+001	-6.0509264E-001	-5.491541077957285E-002	3.3228913E-005	-6.0518235E-001	0
1.1026996E+004	4.857019897965074E+001	-6.0706514E-001	-5.505263023162912E-002	3.3420532E-005	-6.0718232E-001	0
1.1047728E+004	4.877019897459832E+001	-6.0908622E-001	-5.513226141141570E-002	3.3580302E-005	-6.0918236E-001	0
1.1053987E+004	4.897019896954589E+001	-6.1109847E-001	-5.528308144536143E-002	3.3783406E-005	-6.1118239E-001	0
1.1069200E+004	4.917019896449347E+001	-6.1307281E-001	-5.538546472741401E-002	3.3955323E-005	-6.1318231E-001	0
1.1072191E+004	4.937019895944104E+001	-6.1508334E-001	-5.555208705581061E-002	3.4169163E-005	-6.1518234E-001	0
1.1085880E+004	4.957019895438862E+001	-6.1709189E-001	-5.566467543168507E-002	3.4350222E-005	-6.1718237E-001	0
1.1097626E+004	4.977019894933619E+001	-6.1909288E-001	-5.578606383233009E-002	3.4536755E-005	-6.1918235E-001	0
1.1097617E+004	4.997019894428377E+001	-6.2109530E-001	-5.596654506953536E-002	3.4760556E-005	-6.2118238E-001	0
1.1123227E+004	5.017019893923134E+001	-6.2307525E-001	-5.601569466755363E-002	3.4901994E-005	-6.2318236E-001	0
1.1129497E+004	5.037019893417892E+001	-6.2508690E-001	-5.616488466208247E-002	3.5107932E-005	-6.2518239E-001	0
1.1144081E+004	5.057019892912649E+001	-6.2708390E-001	-5.627058114425657E-002	3.5286375E-005	-6.2718236E-001	0
1.1150186E+004	5.077019892407407E+001	-6.2910980E-001	-5.642146395272274E-002	3.5495297E-005	-6.2918234E-001	0
1.1165513E+004	5.097019891902164E+001	-6.3110757E-001	-5.652293819425203E-002	3.5672056E-005	-6.3118237E-001	0
1.1164712E+004	5.117019891396922E+001	-6.3309914E-001	-5.670537056228209E-002	3.5900121E-005	-6.3318241E-001	0
1.1158566E+004	5.137019890891679E+001	-6.3507044E-001	-5.691326606666036E-002	3.6143934E-005	-6.3518232E-001	0
1.1172313E+004	5.157019890386437E+001	-6.3706076E-001	-5.702138576992377E-002	3.6326088E-005	-6.3718235E-001	0
1.1167428E+004	5.177019889881194E+001	-6.3907570E-001	-5.722675664834020E-002	3.6572230E-005	-6.3918245E-001	0
1.1176896E+004	5.197019889375952E+001	-6.4111841E-001	-5.736103939428872E-002	3.6775218E-005	-6.4118236E-001	0
1.1171563E+004	5.217019888870709E+001	-6.4312214E-001	-5.756778115208139E-002	3.7023114E-005	-6.4318234E-001	0
1.1170513E+004	5.237019888365467E+001	-6.4505255E-001	-5.774600964880106E-002	3.7249210E-005	-6.4518237E-001	0
1.1180698E+004	5.257019887860224E+001	-6.4716297E-001	-5.788216222808296E-002	3.7459191E-005	-6.4718240E-001	0
1.1172994E+004	5.277019887354982E+001	-6.4915442E-001	-5.810030865221089E-002	3.7716072E-005	-6.4918232E-001	0
1.1181653E+004	5.297019886849739E+001	-6.5107793E-001	-5.822733940151192E-002	3.7910537E-005	-6.5118235E-001	0
1.1164675E+004	5.317019886344497E+001	-6.5307939E-001	-5.849515804925898E-002	3.8201983E-005	-6.5318239E-001	0
1.1155062E+004	5.337019885839254E+001	-6.5509105E-001	-5.872590055049343E-002	3.8470811E-005	-6.5518230E-001	0
1.1138354E+004	5.357019885334012E+001	-6.5710920E-001	-5.899518122262992E-002	3.8766277E-005	-6.5718240E-001	0
1.1135906E+004	5.377019884828769E+001	-6.5904814E-001	-5.918226563614537E-002	3.9003960E-005	-6.5918237E-001	0
1.1108389E+004	5.397019884323527E+001	-6.6110045E-001	-5.951362232310164E-002	3.9344483E-005	-6.6118240E-001	0
1.1090953E+004	5.417019883818284E+001	-6.6308612E-001	-5.978621332219847E-002	3.9643408E-005	-6.6318232E-001	0
1.1071790E+004	5.437019883313042E+001	-6.6515446E-001	-6.007650715791002E-002	3.9960156E-005	-6.6518235E-001	0
1.1042357E+004	5.457019882807799E+001	-6.6709071E-001	-6.041198494514677E-002	4.0300274E-005	-6.6718239E-001	0
1.1013252E+004	5.477019882302557E+001	-6.6908336E-001	-6.075256864134837E-002	4.0648534E-005	-6.6918230E-001	0
1.0977605E+004	5.497019881797314E+001	-6.7107278E-001	-6.113106992503259E-002	4.1023399E-005	-6.7118233E-001	0
1.0949473E+004	5.517019881292072E+001	-6.7303920E-001	-6.146772724603744E-002	4.1370189E-005	-6.7318243E-001	0
1.0909862E+004	5.537019880786829E+001	-6.7506367E-001	-6.187646274556258E-002	4.1770552E-005	-6.7518234E-001	0
1.0857284E+004	5.557019880281587E+001	-6.7709178E-001	-6.236290478447432E-002	4.2225409E-005	-6.7718232E-001	0
1.0806314E+004	5.577019879776344E+001	-6.7908019E-001	-6.284105197564538E-002	4.2674114E-005	-6.7918235E-001	0
1.0756328E+004	5.597019879271102E+001	-6.8106842E-001	-6.331792707521244E-002	4.3123840E-005	-6.8118238E-001	0
1.0700672E+004	5.617019878765859E+001	-6.8301904E-001	-6.382954759943527E-002	4.3596796E-005	-6.8318236E-001	0
1.0637606E+004	5.637019878260617E+001	-6.8507004E-001	-6.440076907218129E-002	4.4119039E-005	-6.8518233E-001	0
1.0582463E+004	5.657019877755374E+001	-6.8708307E-001	-6.492657360965004E-002	4.4609948E-005	-6.8718243E-001	0
1.0526648E+004	5.677019877250132E+001	-6.8907195E-001	-6.545976777571560E-002	4.5106492E-005	-6.8918234E-001	0
1.0449559E+004	5.697019876744889E+001	-6.9107115E-001	-6.613400672317449E-002	4.5703306E-005	-6.9118237E-001	0
1.0376079E+004	5.717019876239647E+001	-6.9308168E-001	-6.679610845415324E-002	4.6295158E-005	-6.9318235E-001	0
1.0297791E+004	5.737019875734404E+001	-6.9512075E-001	-6.750192655125853E-002	4.6921989E-005	-6.9518238E-001	0
1.0217136E+004	5.757019875229162E+001	-6.9709611E-001	-6.822813381419834E-002	4.7561567E-005	-6.9718236E-001	0
1.0137831E+004	5.777019874723919E+001	-6.9909060E-001	-6.895859665480242E-002	4.8208305E-005	-6.9918233E-001	0
1.0050384E+004	5.797019874218677E+001	-7.0110029E-001	-6.975856184581386E-002	4.8907747E-005	-7.0118248E-001	0
9.9685225E+003	5.817019873713434E+001	-7.0309424E-001	-7.053144106613929E-002	4.9590250E-005	-7.0318228E-001	0
9.8942363E+003	5.837019873208192E+001	-7.0509261E-001	-7.126296505642449E-002	5.0246988E-005	-7.0518237E-001	0
9.7955020E+003	5.857019872702949E+001	-7.0706135E-001	-7.218224721878364E-002	5.1037277E-005	-7.0718241E-001	0
9.7297734E+003	5.877019872197707E+001	-7.0909762E-001	-7.287915261534139E-002	5.1678435E-005	-7.0918232E-001	0
9.6494482E+003	5.897019871692464E+001	-7.1105105E-001	-7.368825962175685E-002	5.2396113E-005	-7.1118242E-001	0
9.5610078E+003	5.917019871187222E+001	-7.1307260E-001	-7.458132495280040E-002	5.3181899E-005	-7.1318239E-001	0
9.4653955E+003	5.937019870681979E+001	-7.1505022E-001	-7.554361968387814E-002	5.4017481E-005	-7.1518248E-001	0
9.3797861E+003	5.957019870176737E+001	-7.1708101E-001	-7.644961015036213E-002	5.4820564E-005	-7.1718234E-001	0
9.2855967E+003	5.977019869671494E+001	-7.1908498E-001	-7.744090340169923E-002	5.5686589E-005	-7.1918231E-001	0
9.1876963E+003	5.997019869166252E+001	-7.2108293E-001	-7.848353695035715E-002	5.6593137E-005	-7.2118241E-001	0
9.1075039E+003	6.017019868661009E+001	-7.2308123E-001	-7.939400613179132E-002	5.7408317E-005	-7.2318238E-001	0
9.0070684E+003	6.037019868155767E+001	-7.2505248E-001	-8.049816500908713E-002	5.8365393E-005	-7.2518235E-001	0
8.9066475E+003	6.057019867650524E+001	-7.2709948E-001	-8.163560052875318E-002	5.9357204E-005	-7.2718239E-001	0
8.7936475E+003	6.077019867145282E+001	-7.2907221E-001	-8.290896536476172E-002	6.0446622E-005	-7.2918242E-001	0
8.7025205E+003	6.097019866640039E+001	-7.3105788E-001	-8.400530581544197E-002	6.1412742E-005	-7.3118234E-001	0
8.6160186E+003	6.117019866134797E+001	-7.3312759E-001	-8.508890311977102E-002	6.2381019E-005	-7.3318231E-001	0
8.5183584E+003	6.137019865629554E+001	-7.3512399E-001	-8.629878576583078E-002	6.3440311E-005	-7.3518246E-001	0
8.4320020E+003	6.157019865124312E+001	-7.3707682E-001	-8.741420890624840E-002	6.4430984E-005	-7.3718238E-001	0
8.3372744E+003	6.177019864619069E+001	-7.3908430E-001	-8.864818942730990E-002	6.5518485E-005	-7.3918235E-001	0
8.2561738E+003	6.197019864113827E+001	-7.4111164E-001	-8.976453807164875E-002	6.6525543E-005	-7.4118239E-001	0
8.1854688E+003	6.217019863608584E+001	-7.4309367E-001	-9.078205537099548E-002	6.7459572E-005	-7.4318242E-001	0
8.1133174E+003	6.237019863103342E+001	-7.4506748E-001	-9.183265529879225E-002	6.8421527E-005	-7.4518239E-001	0
8.0311094E+003	6.257019862598099E+001	-7.4704927E-001	-9.301943616474873E-002	6.9490103E-005	-7.4718237E-001	0
7.9326025E+003	6.277019862092857E+001	-7.4909437E-001	-9.443235777153713E-002	7.0738744E-005	-7.4918246E-001	0
7.8404849E+003	6.297019861587614E+001	-7.5108236E-001	-9.579539688857430E-002	7.1950235E-005	-7.5118244E-001	0
7.7614487E+003	6.317019861082372E+001	-7.5307912E-001	-9.702816317301410E-002	7.3069881E-005	-7.5318229E-001	0
7.7418687E+003	6.337019860577129E+001	-7.5509697E-001	-9.753420216014447E-002	7.3647781E-005	-7.5518239E-001	0
7.6954697E+003	6.357019860071887E+001	-7.5704819E-001	-9.837582356628016E-002	7.4475240E-005	-7.5718236E-001	0
7.6230957E+003	6.377019859566644E+001	-7.5907236E-001	-9.957534253128453E-002	7.5584889E-005	-7.5918233E-001	0
7.5591074E+003	6.397019859061402E+001	-7.6109564E-001	-1.006859114188743E-001	7.6631608E-005	-7.6118237E-001	0
7.4789707E+003	6.417019858556159E+001	-7.6310259E-001	-1.020331009219311E-001	7.7861725E-005	-7.6318240E-001	0
7.3901709E+003	6.437019858050917E+001	-7.6505136E-001	-1.035228226578832E-001	7.9200276E-005	-7.6518238E-001	0
7.3257871E+003	6.457019857545674E+001	-7.6705182E-001	-1.047057235917570E-001	8.0314712E-005	-7.6718235E-001	0
7.2634727E+003	6.477019857040432E+001	-7.6906747E-001	-1.058815089434537E-001	8.1430022E-005	-7.6918244E-001	0
7.1999146E+003	6.497019856535189E+001	-7.7107638E-001	-1.070952093273048E-001	8.2578590E-005	-7.7118236E-001	0
7.1403604E+003	6.517019856029947E+001	-7.7310139E-001	-1.082720410991076E-001	8.3705265E-005	-7.7318233E-001	0
7.0911475E+003	6.537019855524704E+001	-7.7507961E-001	-1.093024206622308E-001	8.4718078E-005	-7.7518243E-001	0
7.0383071E+003	6.557019855019462E+001	-7.7705401E-001	-1.104035391113264E-001	8.5789514E-005	-7.7718240E-001	0
6.9846230E+003	6.577019854514219E+001	-7.7903152E-001	-1.115352269800596E-001	8.6889457E-005	-7.7918226E-001	0
6.9311714E+003	6.597019854008977E+001	-7.8103507E-001	-1.126844244724023E-001	8.8010485E-005	-7.8118235E-001	0
6.9155503E+003	6.617019853503734E+001	-7.8309017E-001	-1.132361319226529E-001	8.8674104E-005	-7.8318244E-001	0
6.8747739E+003	6.637019852998492E+001	-7.8508949E-001	-1.141985925801450E-001	8.9656118E-005	-7.8518248E-001	0
6.8254565E+003	6.657019852493249E+001	-7.8705513E-001	-1.153117163558730E-001	9.0756679E-005	-7.8718239E-001	0
6.7740229E+003	6.677019851988007E+001	-7.8904861E-001	-1.164815343162487E-001	9.1909591E-005	-7.8918242E-001	0
6.7229297E+003	6.697019851482764E+001	-7.9105693E-001	-1.176655107883149E-001	9.3080118E-005	-7.9118246E-001	0
6.6859834E+003	6.717019850977522E+001	-7.9306799E-001	-1.186165095195002E-001	9.4070958E-005	-7.9318231E-001	0
6.6124834E+003	6.737019850472279E+001	-7.9506773E-001	-1.202373884094541E-001	9.5596864E-005	-7.9518241E-001	0
6.5503149E+003	6.757019849967037E+001	-7.9708099E-001	-1.216859005638687E-001	9.6993521E-005	-7.9718250E-001	0
6.5175181E+003	6.777019849461794E+001	-7.9902738E-001	-1.225968850005734E-001	9.7958269E-005	-7.9918236E-001	0
6.5030718E+003	6.797019848956552E+001	-8.0106342E-001	-1.231823163666679E-001	9.8676850E-005	-8.0118245E-001	0
6.4835732E+003	6.817019848451309E+001	-8.0310285E-001	-1.238673194871198E-001	9.9478195E-005	-8.0318242E-001	0
6.4732402E+003	6.837019847946067E+001	-8.0508292E-001	-1.243709283078396E-001	1.0012891E-004	-8.0518240E-001	0
6.4640391E+003	6.857019847440824E+001	-8.0709416E-001	-1.248591062876807E-001	1.0077305E-004	-8.0718237E-001	0
6.4426646E+003	6.877019846935582E+001	-8.0906582E-001	-1.255793823319951E-001	1.0160199E-004	-8.0918241E-001	0
6.4089351E+003	6.897019846430339E+001	-8.1108528E-001	-1.265553937033834E-001	1.0264722E-004	-8.1118250E-001	0
6.3790967E+003	6.917019845925097E+001	-8.1304163E-001	-1.274540394411554E-001	1.0362544E-004	-8.1318241E-001	0
6.3525161E+003	6.937019845419854E+001	-8.1507844E-001	-1.283079706609687E-001	1.0458106E-004	-8.1518233E-001	0
6.3311055E+003	6.957019844914612E+001	-8.1706756E-001	-1.290560701646575E-001	1.0544753E-004	-8.1718248E-001	0
6.2916348E+003	6.977019844409369E+001	-8.1909239E-001	-1.301875276482599E-001	1.0663561E-004	-8.1918246E-001	0
6.2699194E+003	6.997019843904127E+001	-8.2106465E-001	-1.309529853427186E-001	1.0752086E-004	-8.2118237E-001	0
6.2624326E+003	7.017019843398884E+001	-8.2313442E-001	-1.314400445908528E-001	1.0819283E-004	-8.2318240E-001	0
6.2298882E+003	7.037019842893642E+001	-8.2506418E-001	-1.324364391415295E-001	1.0926856E-004	-8.2518244E-001	0
6.2395479E+003	7.057019842388399E+001	-8.2707089E-001	-1.325530119656319E-001	1.0963074E-004	-8.2718241E-001	0
6.2359561E+003	7.077019841883157E+001	-8.2908535E-001	-1.329524050479380E-001	1.1022889E-004	-8.2918239E-001	0
6.1751626E+003	7.097019841377914E+001	-8.3107150E-001	-1.345829384817473E-001	1.1184804E-004	-8.3118248E-001	0
6.1530879E+003	7.117019840872672E+001	-8.3307648E-001	-1.353916075331937E-001	1.1279156E-004	-8.3318233E-001	0
6.1276328E+003	7.137019840367429E+001	-8.3509457E-001	-1.362833927782536E-001	1.1380952E-004	-8.3518243E-001	0
6.0824229E+003	7.157019839862187E+001	-8.3712614E-001	-1.376303703367887E-001	1.1521398E-004	-8.3718240E-001	0
6.0358394E+003	7.177019839356944E+001	-8.3906633E-001	-1.390140257192911E-001	1.1664199E-004	-8.3918238E-001	0
6.0497803E+003	7.197019838851702E+001	-8.4106261E-001	-1.390236571247434E-001	1.1692760E-004	-8.4118247E-001	0
6.0294170E+003	7.217019838346459E+001	-8.4308916E-001	-1.398293050027146E-001	1.1788857E-004	-8.4318238E-001	0
5.9482695E+003	7.237019837841217E+001	-8.4503359E-001	-1.420637689575204E-001	1.2004866E-004	-8.4518254E-001	0
5.9292402E+003	7.257019837335974E+001	-8.4707767E-001	-1.428644511069417E-001	1.2101728E-004	-8.4718239E-001	0
5.8879165E+003	7.277019836830732E+001	-8.4913439E-001	-1.442164454404307E-001	1.2245914E-004	-8.4918231E-001	0
5.8053359E+003	7.297019836325489E+001	-8.5106879E-001	-1.466011224850978E-001	1.2476764E-004	-8.5118246E-001	0
5.7703618E+003	7.317019835820247E+001	-8.5308939E-001	-1.478398464421604E-001	1.2612061E-004	-8.5318244E-001	0
5.7624995E+003	7.337019835315004E+001	-8.5507745E-001	-1.483865490208571E-001	1.2688199E-004	-8.5518241E-001	0
5.7128491E+003	7.357019834809762E+001	-8.5707825E-001	-1.500264155940321E-001	1.2858438E-004	-8.5718244E-001	0
5.6523286E+003	7.377019834304519E+001	-8.5909259E-001	-1.519891456890928E-001	1.3057275E-004	-8.5918242E-001	0
5.6032246E+003	7.397019833799277E+001	-8.6106813E-001	-1.536736825392357E-001	1.3232350E-004	-8.6118239E-001	0
5.5571753E+003	7.417019833294034E+001	-8.6310214E-001	-1.553131023806236E-001	1.3405106E-004	-8.6318237E-001	0
5.4780830E+003	7.437019832788792E+001	-8.6509377E-001	-1.579190680953571E-001	1.3661481E-004	-8.6518246E-001	0
5.4163462E+003	7.457019832283549E+001	-8.6710662E-001	-1.600906893023857E-001	1.3881570E-004	-8.6718243E-001	0
5.3238252E+003	7.477019831778307E+001	-8.6907166E-001	-1.632419564537368E-001	1.4186896E-004	-8.6918241E-001	0
5.2533965E+003	7.497019831273064E+001	-8.7109035E-001	-1.658146963233041E-001	1.4443959E-004	-8.7118238E-001	0
5.1804692E+003	7.517019830767822E+001	-8.7306464E-001	-1.685300355549069E-001	1.4713762E-004	-8.7318236E-001	0
5.0986973E+003	7.537019830262579E+001	-8.7507075E-001	-1.716263439757599E-001	1.5018519E-004	-8.7518245E-001	0
5.0139199E+003	7.557019829757337E+001	-8.7704390E-001	-1.749218015819611E-001	1.5341410E-004	-8.7718236E-001	0
4.9210229E+003	7.577019829252095E+001	-8.7905920E-001	-1.786334328490673E-001	1.5702937E-004	-8.7918252E-001	0
4.8358774E+003	7.597019828746852E+001	-8.8111764E-001	-1.822042926288552E-001	1.6054342E-004	-8.8118249E-001	0
4.7338291E+003	7.617019828241610E+001	-8.8308620E-001	-1.865479693961358E-001	1.6473794E-004	-8.8318229E-001	0
4.6315576E+003	7.637019827736367E+001	-8.8505620E-001	-1.910925562326669E-001	1.6912766E-004	-8.8518244E-001	0
4.4957642E+003	7.657019827231125E+001	-8.8704675E-001	-1.973072340027713E-001	1.7502074E-004	-8.8718241E-001	0
4.3756445E+003	7.677019826725882E+001	-8.8905674E-001	-2.031830349164139E-001	1.8064125E-004	-8.8918239E-001	0
4.2597002E+003	7.697019826220640E+001	-8.9110011E-001	-2.091931623370811E-001	1.8641206E-004	-8.9118242E-001	0
4.1456714E+003	7.717019825715397E+001	-8.9305496E-001	-2.154186589520877E-001	1.9238070E-004	-8.9318246E-001	0
4.0318032E+003	7.737019825210155E+001	-8.9509249E-001	-2.220079840272833E-001	1.9871768E-004	-8.9518243E-001	0
3.9006665E+003	7.757019824704912E+001	-8.9704937E-001	-2.299733585456294E-001	2.0629745E-004	-8.9718235E-001	0
3.7897642E+003	7.777019824199670E+001	-8.9904535E-001	-2.372298866653995E-001	2.1328042E-004	-8.9918244E-001	0
3.6714988E+003	7.797019823694427E+001	-9.0104181E-001	-2.454152604725524E-001	2.2112940E-004	-9.0118241E-001	0
3.5583403E+003	7.817019823189185E+001	-9.0310514E-001	-2.537995382125517E-001	2.2920767E-004	-9.0318239E-001	0
3.4291528E+003	7.837019822683942E+001	-9.0504986E-001	-2.639281198133179E-001	2.3886810E-004	-9.0518248E-001	0
3.3115991E+003	7.857019822178700E+001	-9.0709317E-001	-2.739139429806752E-001	2.4846545E-004	-9.0718246E-001	0
3.1965415E+003	7.877019821673457E+001	-9.0905643E-001	-2.843874893394087E-001	2.5852426E-004	-9.0918243E-001	0
3.0799177E+003	7.897019821168215E+001	-9.1106397E-001	-2.958078968281648E-001	2.6949993E-004	-9.1118240E-001	0
2.9704612E+003	7.917019820662972E+001	-9.1303378E-001	-3.073710428018646E-001	2.8064015E-004	-9.1318250E-001	0
2.8610039E+003	7.937019820157730E+001	-9.1507196E-001	-3.198429584933979E-001	2.9267932E-004	-9.1518247E-001	0
2.7445725E+003	7.957019819652487E+001	-9.1704988E-001	-3.341321327814368E-001	3.0641584E-004	-9.1718245E-001	0
2.6314583E+003	7.977019819147245E+001	-9.1906214E-001	-3.492596347282007E-001	3.2099130E-004	-9.1918242E-001	0
2.5192778E+003	7.997019818642002E+001	-9.2105705E-001	-3.656036121361055E-001	3.3674180E-004	-9.2118251E-001	0
2.4058701E+003	8.017019818136760E+001	-9.2308015E-001	-3.836782767697144E-001	3.5416579E-004	-9.2318237E-001	0
2.2945908E+003	8.037019817631517E+001	-9.2509377E-001	-4.031628415900839E-001	3.7296343E-004	-9.2518240E-001	0
2.1826606E+003	8.057019817126275E+001	-9.2706889E-001	-4.247425588992435E-001	3.9376560E-004	-9.2718244E-001	0
2.0566462E+003	8.077019816621032E+001	-9.2906058E-001	-4.517357153501251E-001	4.1968984E-004	-9.2918241E-001	0
1.9537758E+003	8.097019816115790E+001	-9.3106890E-001	-4.765485042026114E-001	4.4369948E-004	-9.3118238E-001	0
1.8519929E+003	8.117019815610547E+001	-9.3308961E-001	-5.038300022998161E-001	4.7011854E-004	-9.3318242E-001	0
1.7525739E+003	8.137019815105305E+001	-9.3507409E-001	-5.335433476365883E-001	4.9890258E-004	-9.3518239E-001	0
1.6552655E+003	8.157019814600062E+001	-9.3711656E-001	-5.661427570747684E-001	5.3054176E-004	-9.3718237E-001	0
1.5585173E+003	8.177019814094820E+001	-9.3908924E-001	-6.025529526123348E-001	5.6585099E-004	-9.3918246E-001	0
1.4682208E+003	8.197019813589577E+001	-9.4110441E-001	-6.409828591534268E-001	6.0323178E-004	-9.4118249E-001	0
1.3748734E+003	8.217019813084335E+001	-9.4304174E-001	-6.859116950484143E-001	6.4684334E-004	-9.4318241E-001	0
1.2890353E+003	8.237019812579092E+001	-9.4507194E-001	-7.331622157693571E-001	6.9289102E-004	-9.4518244E-001	0
1.2130533E+003	8.257019812073850E+001	-9.4708037E-001	-7.807408720381606E-001	7.3942437E-004	-9.4718248E-001	0
1.1392568E+003	8.277019811568607E+001	-9.4910651E-001	-8.330926775442364E-001	7.9069368E-004	-9.4918251E-001	0
1.0673773E+003	8.297019811063365E+001	-9.5112342E-001	-8.910845721018035E-001	8.4753142E-004	-9.5118243E-001	0
9.9529999E+002	8.317019810558122E+001	-9.5311403E-001	-9.576148139798590E-001	9.1271609E-004	-9.5318240E-001	0
9.3503168E+002	8.337019810052880E+001	-9.5510441E-001	-1.021467455001785E+000	9.7560807E-004	-9.5518249E-001	0
8.7260065E+002	8.359019809497113E+001	-9.5726174E-001	-1.097021546791076E+000	1.0501368E-003	-9.5738238E-001	0
8.1345392E+002	8.379019808991870E+001	-9.5926291E-001	-1.179246764182372E+000	1.1312077E-003	-9.5938247E-001	0
7.6267419E+002	8.399019808486628E+001	-9.6127474E-001	-1.260400257709005E+000	1.2115909E-003	-9.6138245E-001	0
7.1653528E+002	8.419019807981385E+001	-9.6326429E-001	-1.344336127038714E+000	1.2949510E-003	-9.6338242E-001	0
6.6770807E+002	8.439019807476143E+001	-9.6526420E-001	-1.445638030201462E+000	1.3954226E-003	-9.6538240E-001	0
6.2824579E+002	8.459019806970900E+001	-9.6726745E-001	-1.539632238549039E+000	1.4892361E-003	-9.6738249E-001	0
5.8808093E+002	8.479019806465658E+001	-9.6928906E-001	-1.648223986431038E+000	1.5976055E-003	-9.6938252E-001	0
5.5169061E+002	8.499019805960415E+001	-9.7128558E-001	-1.760562006629115E+000	1.7100085E-003	-9.7138244E-001	0
5.1738123E+002	8.519019805455173E+001	-9.7330880E-001	-1.881221820234984E+000	1.8310098E-003	-9.7338241E-001	0
4.8602539E+002	8.539019804949930E+001	-9.7525871E-001	-2.006600309458989E+000	1.9569544E-003	-9.7538251E-001	0
4.5654041E+002	8.559019804444688E+001	-9.7726375E-001	-2.140585452706780E+000	2.0919165E-003	-9.7738236E-001	0
4.3029211E+002	8.579019803939445E+001	-9.7927278E-001	-2.275832571072371E+000	2.2286610E-003	-9.7938240E-001	0
4.0353281E+002	8.599019803434203E+001	-9.8125488E-001	-2.431660713708190E+000	2.3860789E-003	-9.8138243E-001	0
3.8014630E+002	8.619019802928960E+001	-9.8326534E-001	-2.586544515983181E+000	2.5432596E-003	-9.8338240E-001	0
3.5817136E+002	8.639019802423718E+001	-9.8522514E-001	-2.750708800831346E+000	2.7100674E-003	-9.8538244E-001	0
3.3685092E+002	8.659019801918475E+001	-9.8725688E-001	-2.930842253153557E+000	2.8934942E-003	-9.8738241E-001	0
3.1774106E+002	8.679019801413233E+001	-9.8925382E-001	-3.113396182233916E+000	3.0799392E-003	-9.8938239E-001	0
2.9960239E+002	8.699019800907990E+001	-9.9126768E-001	-3.308610791623458E+000	3.2797190E-003	-9.9138236E-001	0
2.8290710E+002	8.719019800402748E+001	-9.9325401E-001	-3.510883812190724E+000	3.4871993E-003	-9.9338245E-001	0
2.6709027E+002	8.739019799897505E+001	-9.9527329E-001	-3.726355450426354E+000	3.7087421E-003	-9.9538249E-001	0
2.5246584E+002	8.759019799392263E+001	-9.9728066E-001	-3.950160912544249E+000	3.9394191E-003	-9.9738240E-001	0
2.3855193E+002	8.779019798887020E+001	-9.9927258E-001	-4.188910055897139E+000	4.1858628E-003	-9.9938238E-001	0
2.2571941E+002	8.799029798381525E+001	-1.0012807E+000	-4.435952801515739E+000	4.4416338E-003	-1.0013832E+000	0
2.1375647E+002	8.819059797875525E+001	-1.0032761E+000	-4.693547336811122E+000	4.7089239E-003	-1.0033859E+000	0
2.0252737E+002	8.839089797369525E+001	-1.0052800E+000	-4.963674871285221E+000	4.9898829E-003	-1.0053891E+000	0
1.9192482E+002	8.859119796863524E+001	-1.0072892E+000	-5.248352687576372E+000	5.2866088E-003	-1.0073919E+000	0
1.8211623E+002	8.879149796357524E+001	-1.0092875E+000	-5.541996323553377E+000	5.5934675E-003	-1.0093952E+000	0
1.7293506E+002	8.899169795851776E+001	-1.0112875E+000	-5.847787196179581E+000	5.9137936E-003	-1.0113971E+000	0
1.6432353E+002	8.919179795346281E+001	-1.0132954E+000	-6.166465582355613E+000	6.2484513E-003	-1.0133984E+000	0
1.5610770E+002	8.939179794841039E+001	-1.0153162E+000	-6.503947168723784E+000	6.6035632E-003	-1.0153984E+000	0
1.4866695E+002	8.959179794335796E+001	-1.0173180E+000	-6.842933316957883E+000	6.9614393E-003	-1.0173984E+000	0
1.4145644E+002	8.979189793830301E+001	-1.0193076E+000	-7.205805981968240E+000	7.3449328E-003	-1.0193992E+000	0
1.3470436E+002	8.999209793324553E+001	-1.0213228E+000	-7.581958514120913E+000	7.7436273E-003	-1.0214013E+000	0
1.2849605E+002	9.019219792819058E+001	-1.0233204E+000	-7.963828195114523E+000	8.1495484E-003	-1.0234025E+000	0
1.2264629E+002	9.039219792313816E+001	-1.0252912E+000	-8.359741410498145E+000	8.5711693E-003	-1.0254024E+000	0
1.1706548E+002	9.059239791808068E+001	-1.0273516E+000	-8.775871548322868E+000	9.0159057E-003	-1.0274043E+000	0
1.1179025E+002	9.079279791301815E+001	-1.0293093E+000	-9.207504914771988E+000	9.4773704E-003	-1.0294080E+000	0
1.0688568E+002	9.099299790796067E+001	-1.0313088E+000	-9.648708146580773E+000	9.9507971E-003	-1.0314103E+000	0
1.0230408E+002	9.119299790290825E+001	-1.0333467E+000	-1.010073726065036E+001	1.0437563E-002	-1.0334104E+000	0
9.7791412E+001	9.139329789784824E+001	-1.0353372E+000	-1.058719954127287E+001	1.0961321E-002	-1.0354133E+000	0
9.3254906E+001	9.160349789253814E+001	-1.0374430E+000	-1.112480965893008E+001	1.1541356E-002	-1.0375153E+000	0
8.9085793E+001	9.181359788723057E+001	-1.0394926E+000	-1.166844429558915E+001	1.2129261E-002	-1.0396163E+000	0
8.5357483E+001	9.201359788217815E+001	-1.0415581E+000	-1.220230638291559E+001	1.2709412E-002	-1.0416163E+000	0
8.1935631E+001	9.221359787712572E+001	-1.0435342E+000	-1.273602430539339E+001	1.3290476E-002	-1.0436164E+000	0
7.8696533E+001	9.241359787207330E+001	-1.0455632E+000	-1.328601327937207E+001	1.3891367E-002	-1.0456165E+000	0
7.5497017E+001	9.261369786701835E+001	-1.0475354E+000	-1.387518961941336E+001	1.4534753E-002	-1.0476172E+000	0
7.2572868E+001	9.281389786196087E+001	-1.0494965E+000	-1.446127873177767E+001	1.5177062E-002	-1.0496192E+000	0
6.9769722E+001	9.301409785690339E+001	-1.0515374E+000	-1.507154286162674E+001	1.5848290E-002	-1.0516212E+000	0
6.7028931E+001	9.321419785184844E+001	-1.0535256E+000	-1.571747624738958E+001	1.6558763E-002	-1.0536224E+000	0
6.4491463E+001	9.341419784679601E+001	-1.0555516E+000	-1.636730917646221E+001	1.7276540E-002	-1.0556223E+000	0
6.2117321E+001	9.361419784174359E+001	-1.0575626E+000	-1.702524435290411E+001	1.8005261E-002	-1.0576224E+000	0
5.9794868E+001	9.381429783668864E+001	-1.0595465E+000	-1.771968891178324E+001	1.8774834E-002	-1.0596232E+000	0
5.7655045E+001	9.401439783163369E+001	-1.0615468E+000	-1.841203706902436E+001	1.9545238E-002	-1.0616245E+000	0
5.5611046E+001	9.421459782657621E+001	-1.0636147E+000	-1.912596166814535E+001	2.0342654E-002	-1.0636264E+000	0
5.3644413E+001	9.441459782152378E+001	-1.0655514E+000	-1.986323145971271E+001	2.1165295E-002	-1.0656264E+000	0
5.1768982E+001	9.461479781646631E+001	-1.0675360E+000	-2.062115129672438E+001	2.2013821E-002	-1.0676279E+000	0
5.0020554E+001	9.481499781140883E+001	-1.0695091E+000	-2.138139330381163E+001	2.2867596E-002	-1.0696305E+000	0
4.8303989E+001	9.501509780635388E+001	-1.0715522E+000	-2.218351336290803E+001	2.3770792E-002	-1.0716312E+000	0
4.6667267E+001	9.521529780129640E+001	-1.0735633E+000	-2.300463361432810E+001	2.4696931E-002	-1.0736332E+000	0
4.5109848E+001	9.541549779623892E+001	-1.0755680E+000	-2.384330631201794E+001	2.5645096E-002	-1.0756352E+000	0
4.3635555E+001	9.561569779118145E+001	-1.0775588E+000	-2.469451174038585E+001	2.6609788E-002	-1.0776372E+000	0
4.2219513E+001	9.581589778612397E+001	-1.0795561E+000	-2.557007477906757E+001	2.7604330E-002	-1.0796393E+000	0
4.0842602E+001	9.601609778106649E+001	-1.0816205E+000	-2.648265431568166E+001	2.8644180E-002	-1.0816412E+000	0
3.9521301E+001	9.621629777600901E+001	-1.0835682E+000	-2.741732100733122E+001	2.9708538E-002	-1.0836432E+000	0
3.8280441E+001	9.641649777095154E+001	-1.0855598E+000	-2.835808194917816E+001	3.0784395E-002	-1.0856452E+000	0
3.7111706E+001	9.661669776589406E+001	-1.0875672E+000	-2.930523232464850E+001	3.1871408E-002	-1.0876472E+000	0
3.5970669E+001	9.681679776083911E+001	-1.0896132E+000	-3.029171247222791E+001	3.3006251E-002	-1.0896484E+000	0
3.4859612E+001	9.701689775578416E+001	-1.0915443E+000	-3.131257692431473E+001	3.4179065E-002	-1.0916493E+000	0
3.3807503E+001	9.721709775072668E+001	-1.0935775E+000	-3.234718285869783E+001	3.5374150E-002	-1.0936513E+000	0
3.2800579E+001	9.741719774567173E+001	-1.0956203E+000	-3.340246566704346E+001	3.6596417E-002	-1.0956525E+000	0
3.1833839E+001	9.761719774061930E+001	-1.0975617E+000	-3.447782973934994E+001	3.7841547E-002	-1.0976524E+000	0
3.0908848E+001	9.781719773556688E+001	-1.0996103E+000	-3.557590886416612E+001	3.9119639E-002	-1.0996523E+000	0
3.0020041E+001	9.801719773051445E+001	-1.1015915E+000	-3.669520194919726E+001	4.0423121E-002	-1.1016525E+000	0
2.9136501E+001	9.821719772546203E+001	-1.1036060E+000	-3.787709407660419E+001	4.1801389E-002	-1.1036525E+000	0
2.8293505E+001	9.841719772040960E+001	-1.1056142E+000	-3.907660676535564E+001	4.3203652E-002	-1.1056525E+000	0
2.7493166E+001	9.861739771535213E+001	-1.1076094E+000	-4.028671638380024E+001	4.4621944E-002	-1.1076541E+000	0
2.6719385E+001	9.881759771029465E+001	-1.1095783E+000	-4.152708919707879E+001	4.6077553E-002	-1.1096563E+000	0
2.6020100E+001	9.901769770523970E+001	-1.1115723E+000	-4.271975299956003E+001	4.7486093E-002	-1.1116571E+000	0
2.5289530E+001	9.921779770018475E+001	-1.1136100E+000	-4.403443052898461E+001	4.9037185E-002	-1.1136584E+000	0
2.4590813E+001	9.941799769512727E+001	-1.1156141E+000	-4.536710858328820E+001	5.0612185E-002	-1.1156603E+000	0
2.3903984E+001	9.961799769007484E+001	-1.1176331E+000	-4.675509930062452E+001	5.2255046E-002	-1.1176604E+000	0
2.3246313E+001	9.981799768502242E+001	-1.1195954E+000	-4.816227881681368E+001	5.3922266E-002	-1.1196604E+000	0
2.2622728E+001	1.000179976799700E+002	-1.1216366E+000	-4.958007952847970E+001	5.5610832E-002	-1.1216605E+000	0
2.2013178E+001	1.002179976749176E+002	-1.1236125E+000	-5.104272331942764E+001	5.7352245E-002	-1.1236604E+000	0
2.1436640E+001	1.004179976698651E+002	-1.1256299E+000	-5.250962305123062E+001	5.9106402E-002	-1.1256605E+000	0
2.0877747E+001	1.006181976648077E+002	-1.1276171E+000	-5.401048012220940E+001	6.0903143E-002	-1.1276624E+000	0
2.0378168E+001	1.008181976597552E+002	-1.1295964E+000	-5.543169304356809E+001	6.2615439E-002	-1.1296624E+000	0
1.9808691E+001	1.010181976547028E+002	-1.1316278E+000	-5.712784108337081E+001	6.4647451E-002	-1.1316624E+000	0
1.9302557E+001	1.012182976496479E+002	-1.1335924E+000	-5.872757760913390E+001	6.6573136E-002	-1.1336633E+000	0
1.8824177E+001	1.014183976445929E+002	-1.1355692E+000	-6.032503750318813E+001	6.8503253E-002	-1.1356645E+000	0
1.8352669E+001	1.016184976395380E+002	-1.1376356E+000	-6.198747688691259E+001	7.0519157E-002	-1.1376653E+000	0
1.7883083E+001	1.018186976344805E+002	-1.1395971E+000	-6.372486357670596E+001	7.2620668E-002	-1.1396673E+000	0
1.7442427E+001	1.020188976294230E+002	-1.1416085E+000	-6.545009750676138E+001	7.4718386E-002	-1.1416692E+000	0
1.7023264E+001	1.022189976243681E+002	-1.1436343E+000	-6.718067403715463E+001	7.6830126E-002	-1.1436703E+000	0
1.6636295E+001	1.024190976193131E+002	-1.1456553E+000	-6.886480741148810E+001	7.8895330E-002	-1.1456711E+000	0
1.6278587E+001	1.026192976142556E+002	-1.1476070E+000	-7.049794598010737E+001	8.0903932E-002	-1.1476732E+000	0
1.5942962E+001	1.028195976091956E+002	-1.1496303E+000	-7.210895351825332E+001	8.2898639E-002	-1.1496761E+000	0
1.5502549E+001	1.030197976041381E+002	-1.1516216E+000	-7.428594975028199E+001	8.5549302E-002	-1.1516784E+000	0
1.5163485E+001	1.032197975990857E+002	-1.1536160E+000	-7.607855121186537E+001	8.7765433E-002	-1.1536784E+000	0
1.4789422E+001	1.034197975940333E+002	-1.1556249E+000	-7.813861079659301E+001	9.0298921E-002	-1.1556784E+000	0
1.4452571E+001	1.036197975889809E+002	-1.1576288E+000	-8.009846611249975E+001	9.2724286E-002	-1.1576785E+000	0
1.4168254E+001	1.038198975839259E+002	-1.1596485E+000	-8.184837447261862E+001	9.4915345E-002	-1.1596793E+000	0
1.3843187E+001	1.040200975788684E+002	-1.1616515E+000	-8.391502931410241E+001	9.7480021E-002	-1.1616813E+000	0
1.3536601E+001	1.042202975738110E+002	-1.1636642E+000	-8.596428163013616E+001	1.0003356E-001	-1.1636832E+000	0
1.3224337E+001	1.044205975687510E+002	-1.1657065E+000	-8.814858250411034E+001	1.0275538E-001	-1.1656859E+000	0
1.2900905E+001	1.046207975636935E+002	-1.1677026E+000	-9.051323129152229E+001	1.0569253E-001	-1.1676884E+000	0
1.2641636E+001	1.048207975586411E+002	-1.1696973E+000	-9.252736397935678E+001	1.0822900E-001	-1.1696885E+000	0
1.2342812E+001	1.050208975535861E+002	-1.1717017E+000	-9.492988492296968E+001	1.1122950E-001	-1.1716894E+000	0
1.2170325E+001	1.052209975485312E+002	-1.1736902E+000	-9.643868934162089E+001	1.1318915E-001	-1.1736904E+000	0
1.1882438E+001	1.054209975434787E+002	-1.1757381E+000	-9.894755206302716E+001	1.1633641E-001	-1.1756904E+000	0
1.1629961E+001	1.056210975384238E+002	-1.1777295E+000	-1.012668485826994E+002	1.1926495E-001	-1.1776912E+000	0
1.1443425E+001	1.058211975333688E+002	-1.1797100E+000	-1.030906393014386E+002	1.2161706E-001	-1.1796924E+000	0
1.1261505E+001	1.060211975283164E+002	-1.1817250E+000	-1.049349104379580E+002	1.2400421E-001	-1.1816925E+000	0
1.0945460E+001	1.062212975232615E+002	-1.1837229E+000	-1.081473804103493E+002	1.2801653E-001	-1.1836933E+000	0
1.0618387E+001	1.064313975179539E+002	-1.1857660E+000	-1.116710086540304E+002	1.3241568E-001	-1.1857945E+000	0
1.0407892E+001	1.066414975126463E+002	-1.1878759E+000	-1.141322205528343E+002	1.3557491E-001	-1.1878952E+000	0
1.0240455E+001	1.068415975075914E+002	-1.1898643E+000	-1.161925195274441E+002	1.3825333E-001	-1.1898965E+000	0
1.0103084E+001	1.070415975025389E+002	-1.1918586E+000	-1.179697942658074E+002	1.4060332E-001	-1.1918964E+000	0
9.8334093E+000	1.072415974974865E+002	-1.1938579E+000	-1.214083377509432E+002	1.4494431E-001	-1.1938964E+000	0
9.6930819E+000	1.074416974924316E+002	-1.1958575E+000	-1.233722737648670E+002	1.4753567E-001	-1.1958972E+000	0
9.5664740E+000	1.076417974873766E+002	-1.1978692E+000	-1.252153279894874E+002	1.4999159E-001	-1.1978984E+000	0
9.3746185E+000	1.078417974823242E+002	-1.1998709E+000	-1.279914440016628E+002	1.5357322E-001	-1.1998984E+000	0
9.1569786E+000	1.080417974772718E+002	-1.2018523E+000	-1.312498783427297E+002	1.5774298E-001	-1.2018985E+000	0
8.9892387E+000	1.082417974722193E+002	-1.2038682E+000	-1.339232612813139E+002	1.6122594E-001	-1.2038984E+000	0
8.8753824E+000	1.084418974671644E+002	-1.2058549E+000	-1.358651174550796E+002	1.6383362E-001	-1.2058991E+000	0
8.7728825E+000	1.086419974621094E+002	-1.2078962E+000	-1.376852154320877E+002	1.6630945E-001	-1.2079003E+000	0
8.5294485E+000	1.088419974570570E+002	-1.2098719E+000	-1.418464334416553E+002	1.7161602E-001	-1.2099004E+000	0
8.2817783E+000	1.090420974520021E+002	-1.2118537E+000	-1.463277251008506E+002	1.7732780E-001	-1.2119012E+000	0
8.2481050E+000	1.092422974469446E+002	-1.2138851E+000	-1.471713862865293E+002	1.7864914E-001	-1.2139031E+000	0
8.1659393E+000	1.094424974418871E+002	-1.2158679E+000	-1.488950369355591E+002	1.8103670E-001	-1.2159051E+000	0
7.9814510E+000	1.096425974368321E+002	-1.2178757E+000	-1.525882559536261E+002	1.8583353E-001	-1.2179064E+000	0
7.9377503E+000	1.098425974317797E+002	-1.2198817E+000	-1.536810308692134E+002	1.8747267E-001	-1.2199064E+000	0
7.8810225E+000	1.100426974267248E+002	-1.2219193E+000	-1.550457877859708E+002	1.8945344E-001	-1.2219073E+000	0
7.8583441E+000	1.102427974216698E+002	-1.2238431E+000	-1.557380344873109E+002	1.9059892E-001	-1.2239084E+000	0
7.7555385E+000	1.104429974166123E+002	-1.2258990E+000	-1.580675489062786E+002	1.9377485E-001	-1.2259104E+000	0
7.4729977E+000	1.106429974115599E+002	-1.2278836E+000	-1.643093769598981E+002	2.0175278E-001	-1.2279104E+000	0
7.2469134E+000	1.108429974065075E+002	-1.2298944E+000	-1.697128573620937E+002	2.0872889E-001	-1.2299104E+000	0
7.1425319E+000	1.110429974014551E+002	-1.2318230E+000	-1.724630730730614E+002	2.1244398E-001	-1.2319105E+000	0
7.0034313E+000	1.112429973964026E+002	-1.2339190E+000	-1.761877858817170E+002	2.1740146E-001	-1.2339104E+000	0
6.8655210E+000	1.114429973913502E+002	-1.2358750E+000	-1.800118300444419E+002	2.2247212E-001	-1.2359104E+000	0
6.8597865E+000	1.116429973862978E+002	-1.2378857E+000	-1.804554253284080E+002	2.2338319E-001	-1.2379104E+000	0
6.7900672E+000	1.118429973812454E+002	-1.2398940E+000	-1.826040859038594E+002	2.2640972E-001	-1.2399104E+000	0
6.6424184E+000	1.120429973761929E+002	-1.2418822E+000	-1.869623539972199E+002	2.3218521E-001	-1.2419105E+000	0
6.6402001E+000	1.122429973711405E+002	-1.2439042E+000	-1.873293269204980E+002	2.3301974E-001	-1.2439104E+000	0
6.5683651E+000	1.124431973660830E+002	-1.2459115E+000	-1.896836521545865E+002	2.3632903E-001	-1.2459120E+000	0
6.4579544E+000	1.126433973610256E+002	-1.2479078E+000	-1.932357683679138E+002	2.4114041E-001	-1.2479144E+000	0
6.3298068E+000	1.128433973559731E+002	-1.2499431E+000	-1.974694007508069E+002	2.4682552E-001	-1.2499144E+000	0
6.1649141E+000	1.130433973509207E+002	-1.2519451E+000	-2.030758435061189E+002	2.5423983E-001	-1.2519145E+000	0
6.0644188E+000	1.132434973458658E+002	-1.2539192E+000	-2.067665921223247E+002	2.5926861E-001	-1.2539154E+000	0
5.9913774E+000	1.134436973408083E+002	-1.2558998E+000	-2.096178683033477E+002	2.6325902E-001	-1.2559173E+000	0
5.9191146E+000	1.136438973357508E+002	-1.2579163E+000	-2.125176594110835E+002	2.6732942E-001	-1.2579193E+000	0
5.8721056E+000	1.138439973306959E+002	-1.2599247E+000	-2.145609724429730E+002	2.7033067E-001	-1.2599205E+000	0
5.7846642E+000	1.140440973256409E+002	-1.2619441E+000	-2.181533743629161E+002	2.7529734E-001	-1.2619213E+000	0
5.6291900E+000	1.142441973205860E+002	-1.2639697E+000	-2.245384626129048E+002	2.8380981E-001	-1.2639225E+000	0
5.4982190E+000	1.144442973155310E+002	-1.2659371E+000	-2.302449464615277E+002	2.9147562E-001	-1.2659233E+000	0
5.4234552E+000	1.146443973104761E+002	-1.2679588E+000	-2.337916822692978E+002	2.9643822E-001	-1.2679244E+000	0
5.4171896E+000	1.148443973054236E+002	-1.2699491E+000	-2.344295069895643E+002	2.9771355E-001	-1.2699244E+000	0
5.3853717E+000	1.150443973003712E+002	-1.2719685E+000	-2.361895384107315E+002	3.0042565E-001	-1.2719244E+000	0
5.4210491E+000	1.152443972953188E+002	-1.2739662E+000	-2.350036348312622E+002	2.9938668E-001	-1.2739244E+000	0
5.2333074E+000	1.154443972902664E+002	-1.2759731E+000	-2.438177315804962E+002	3.1110486E-001	-1.2759244E+000	0
5.0306516E+000	1.156443972852139E+002	-1.2779506E+000	-2.540328347861362E+002	3.2464144E-001	-1.2779245E+000	0
5.0430856E+000	1.158443972801615E+002	-1.2799284E+000	-2.537986804006314E+002	3.2484415E-001	-1.2799244E+000	0
5.1013765E+000	1.160443972751091E+002	-1.2819637E+000	-2.512976148501552E+002	3.2215443E-001	-1.2819244E+000	0
5.1300426E+000	1.162443972700567E+002	-1.2839731E+000	-2.502850756807388E+002	3.2135931E-001	-1.2839245E+000	0
5.0514798E+000	1.164444972650017E+002	-1.2859613E+000	-2.545711873375685E+002	3.2736868E-001	-1.2859253E+000	0
4.9997578E+000	1.166445972599468E+002	-1.2879276E+000	-2.575980138908444E+002	3.3176759E-001	-1.2879264E+000	0
4.8796349E+000	1.168445972548943E+002	-1.2899380E+000	-2.643513205932654E+002	3.4099680E-001	-1.2899264E+000	0
4.8942842E+000	1.170445972498419E+002	-1.2919763E+000	-2.639765575132119E+002	3.4105146E-001	-1.2919265E+000	0
4.8663354E+000	1.172447972447844E+002	-1.2939556E+000	-2.658993843582586E+002	3.4406200E-001	-1.2939279E+000	0
4.7767158E+000	1.174449972397269E+002	-1.2959694E+000	-2.713097154526477E+002	3.5160908E-001	-1.2959304E+000	0
4.5825496E+000	1.176449972346745E+002	-1.2979724E+000	-2.832424264808351E+002	3.6764085E-001	-1.2979305E+000	0
4.6425581E+000	1.178449972296221E+002	-1.2999717E+000	-2.800119409085410E+002	3.6400759E-001	-1.2999305E+000	0
4.6627092E+000	1.180449972245697E+002	-1.3020006E+000	-2.792369330205070E+002	3.6356667E-001	-1.3019304E+000	0
4.6230731E+000	1.182449972195172E+002	-1.3040098E+000	-2.820655747281721E+002	3.6781627E-001	-1.3039304E+000	0
4.5069957E+000	1.184449972144648E+002	-1.3059859E+000	-2.897686232006740E+002	3.7843373E-001	-1.3059305E+000	0
4.3317876E+000	1.186449972094124E+002	-1.3079758E+000	-3.019482702441221E+002	3.9494103E-001	-1.3079305E+000	0
4.3327341E+000	1.188450972043574E+002	-1.3100110E+000	-3.023520572140033E+002	3.9608452E-001	-1.3099312E+000	0
4.3643370E+000	1.190452971993000E+002	-1.3119690E+000	-3.006113225695917E+002	3.9439276E-001	-1.3119333E+000	0
4.3933048E+000	1.192453971942450E+002	-1.3140196E+000	-2.990959266718846E+002	3.9301789E-001	-1.3139344E+000	0
4.3931355E+000	1.194453971891926E+002	-1.3160584E+000	-2.995715597373287E+002	3.9425367E-001	-1.3159344E+000	0
4.3692646E+000	1.196453971841402E+002	-1.3179454E+000	-3.016400967509298E+002	3.9754516E-001	-1.3179345E+000	0
4.3160210E+000	1.198454971790852E+002	-1.3199846E+000	-3.058336721766254E+002	4.0369573E-001	-1.3199352E+000	0
4.1051769E+000	1.200455971740303E+002	-1.3219917E+000	-3.220303657168437E+002	4.2572147E-001	-1.3219365E+000	0
4.0912495E+000	1.202455971689778E+002	-1.3240331E+000	-3.236256183831883E+002	4.2849106E-001	-1.3239365E+000	0
4.1299615E+000	1.204457971639204E+002	-1.3260040E+000	-3.210693599560996E+002	4.2573926E-001	-1.3259379E+000	0
4.0972261E+000	1.206459971588629E+002	-1.3280108E+000	-3.241243637327161E+002	4.3044066E-001	-1.3279405E+000	0
4.0072856E+000	1.208459971538105E+002	-1.3300294E+000	-3.319028040784292E+002	4.4144046E-001	-1.3299404E+000	0
3.9110487E+000	1.210459971487580E+002	-1.3319893E+000	-3.405708884241367E+002	4.5363677E-001	-1.3319404E+000	0
3.7998450E+000	1.212460971437031E+002	-1.3340160E+000	-3.510711658260060E+002	4.6833453E-001	-1.3339412E+000	0
3.8153694E+000	1.214461971386481E+002	-1.3360121E+000	-3.501658573042514E+002	4.6782583E-001	-1.3359424E+000	0
3.8529828E+000	1.216461971335957E+002	-1.3380172E+000	-3.472678934430323E+002	4.6465042E-001	-1.3379425E+000	0
3.8674033E+000	1.218461971285433E+002	-1.3400203E+000	-3.464909632481681E+002	4.6430492E-001	-1.3399425E+000	0
3.7811563E+000	1.220462971234883E+002	-1.3420759E+000	-3.549379680459379E+002	4.7635370E-001	-1.3419433E+000	0
3.6733444E+000	1.222165971191862E+002	-1.3437550E+000	-3.658124234569113E+002	4.9156228E-001	-1.3436457E+000	0
3.6310027E+000	1.223470971158895E+002	-1.3450512E+000	-3.704352034558979E+002	4.9825430E-001	-1.3449512E+000	0
3.6437709E+000	1.224974971120901E+002	-1.3465452E+000	-3.695471771991138E+002	4.9761200E-001	-1.3464545E+000	0
3.6918545E+000	1.226383971085306E+002	-1.3479875E+000	-3.651247819152368E+002	4.9218366E-001	-1.3478634E+000	0
3.7597253E+000	1.227892971047186E+002	-1.3494809E+000	-3.589306952746441E+002	4.8437011E-001	-1.3493721E+000	0
3.7159219E+000	1.229299971011642E+002	-1.3509052E+000	-3.635450869102269E+002	4.9111494E-001	-1.3507797E+000	0
3.6661460E+000	1.230604970978675E+002	-1.3521556E+000	-3.688220744820283E+002	4.9870482E-001	-1.3520848E+000	0
3.5605297E+000	1.232008970943207E+002	-1.3536063E+000	-3.801699248654388E+002	5.1460040E-001	-1.3534886E+000	0
3.5383518E+000	1.233612970902686E+002	-1.3552114E+000	-3.830064116994031E+002	5.1905465E-001	-1.3550928E+000	0
3.6034544E+000	1.235317970859614E+002	-1.3568581E+000	-3.765437299320801E+002	5.1091641E-001	-1.3567981E+000	0
3.5273888E+000	1.236819970821671E+002	-1.3584352E+000	-3.851107022638371E+002	5.2314794E-001	-1.3582995E+000	0
3.4582577E+000	1.238427970781049E+002	-1.3600352E+000	-3.932717846703840E+002	5.3486347E-001	-1.3599076E+000	0
3.4455743E+000	1.240134970737927E+002	-1.3617464E+000	-3.952160926874251E+002	5.3818411E-001	-1.3616149E+000	0
3.4798641E+000	1.241636970699983E+002	-1.3632345E+000	-3.917493632570850E+002	5.3404623E-001	-1.3631173E+000	0
3.4538181E+000	1.243037970664591E+002	-1.3646240E+000	-3.951059435965853E+002	5.3917104E-001	-1.3645173E+000	0
3.3908150E+000	1.244542970626571E+002	-1.3661485E+000	-4.028967799847660E+002	5.5041683E-001	-1.3660229E+000	0
3.4612343E+000	1.246346970580998E+002	-1.3679110E+000	-3.952090164560036E+002	5.4061073E-001	-1.3678269E+000	0
3.4664876E+000	1.247750970545530E+002	-1.3693626E+000	-3.950288508247586E+002	5.4093772E-001	-1.3692306E+000	0
3.4419205E+000	1.249151970510138E+002	-1.3707567E+000	-3.982534589024071E+002	5.4590863E-001	-1.3706319E+000	0
3.4139590E+000	1.250756970469592E+002	-1.3723150E+000	-4.019717526256190E+002	5.5163187E-001	-1.3722368E+000	0
3.4071341E+000	1.252061970436625E+002	-1.3736397E+000	-4.031657444380344E+002	5.5380446E-001	-1.3735415E+000	0
3.3663621E+000	1.253562970398707E+002	-1.3751667E+000	-4.085023101041688E+002	5.6175876E-001	-1.3750428E+000	0
3.2994671E+000	1.255165970358212E+002	-1.3767600E+000	-4.172673921740825E+002	5.7447708E-001	-1.3766456E+000	0
3.2948668E+000	1.256670970320192E+002	-1.3782903E+000	-4.183144190273529E+002	5.7655871E-001	-1.3781501E+000	0
3.2872713E+000	1.257976970287200E+002	-1.3796242E+000	-4.196867607973309E+002	5.7901001E-001	-1.3794565E+000	0
3.2713981E+000	1.259480970249206E+002	-1.3811110E+000	-4.221776265178578E+002	5.8307415E-001	-1.3809602E+000	0
3.2395124E+000	1.260886970213687E+002	-1.3824635E+000	-4.267504773010933E+002	5.8996695E-001	-1.3823667E+000	0
3.1871223E+000	1.262494970173066E+002	-1.3840762E+000	-4.342714448808365E+002	6.0106480E-001	-1.3839746E+000	0
3.1883874E+000	1.264200970129968E+002	-1.3858376E+000	-4.346515440578569E+002	6.0235643E-001	-1.3856806E+000	0
3.1894498E+000	1.265903970086947E+002	-1.3874817E+000	-4.350222623698428E+002	6.0358542E-001	-1.3873843E+000	0
3.1235719E+000	1.267704970041450E+002	-1.3892908E+000	-4.447763275312518E+002	6.1792368E-001	-1.3891851E+000	0
3.1377492E+000	1.269308970000930E+002	-1.3909184E+000	-4.432853951547031E+002	6.1657381E-001	-1.3907883E+000	0
3.0698130E+000	1.270714969965411E+002	-1.3922926E+000	-4.535431296331335E+002	6.3146478E-001	-1.3921947E+000	0
3.0445919E+000	1.272218969927417E+002	-1.3938283E+000	-4.578046312846304E+002	6.3810104E-001	-1.3936983E+000	0
3.0041285E+000	1.273822969886896E+002	-1.3954201E+000	-4.645007987735717E+002	6.4817375E-001	-1.3953029E+000	0
3.0243065E+000	1.275427969846351E+002	-1.3970808E+000	-4.619507698578691E+002	6.4538252E-001	-1.3969083E+000	0
2.9994919E+000	1.277031969805830E+002	-1.3986703E+000	-4.663024101233559E+002	6.5220332E-001	-1.3985118E+000	0
3.0484416E+000	1.278835969760257E+002	-1.4004525E+000	-4.593994795981253E+002	6.4336717E-001	-1.4003156E+000	0
3.0408552E+000	1.280740969712133E+002	-1.4024000E+000	-4.611860588239033E+002	6.4676732E-001	-1.4022205E+000	0
2.9859869E+000	1.282546969666510E+002	-1.4042120E+000	-4.702672895097712E+002	6.6035497E-001	-1.4040269E+000	0
3.0195332E+000	1.284349969620962E+002	-1.4059439E+000	-4.656162986059512E+002	6.5463036E-001	-1.4058300E+000	0
2.9707203E+000	1.285853969582968E+002	-1.4075017E+000	-4.737913929397146E+002	6.6686219E-001	-1.4073337E+000	0
2.9917750E+000	1.287556969539946E+002	-1.4091501E+000	-4.710080514293300E+002	6.6372102E-001	-1.4090368E+000	0
2.9998319E+000	1.289261969496874E+002	-1.4108911E+000	-4.703233622469402E+002	6.6357505E-001	-1.4107422E+000	0
2.9710000E+000	1.290764969458905E+002	-1.4124165E+000	-4.754010419501346E+002	6.7146426E-001	-1.4122446E+000	0
2.9973581E+000	1.292370969418334E+002	-1.4140036E+000	-4.717499906142020E+002	6.6705620E-001	-1.4138505E+000	0
2.9294703E+000	1.294176969372711E+002	-1.4158002E+000	-4.832956455936564E+002	6.8425006E-001	-1.4156569E+000	0
2.8822789E+000	1.295582969337192E+002	-1.4171921E+000	-4.916915250973850E+002	6.9682133E-001	-1.4170625E+000	0
2.8172915E+000	1.297086969299198E+002	-1.4187219E+000	-5.035765620648654E+002	7.1443510E-001	-1.4185667E+000	0
2.7866938E+000	1.298591969261179E+002	-1.4202498E+000	-5.096540721859601E+002	7.2383612E-001	-1.4200714E+000	0
2.7937677E+000	1.299997969225660E+002	-1.4216379E+000	-5.088604555196634E+002	7.2341532E-001	-1.4214774E+000	0
2.8274353E+000	1.301801969180087E+002	-1.4234613E+000	-5.034461377690872E+002	7.1663612E-001	-1.4232817E+000	0
2.8605692E+000	1.303406969139542E+002	-1.4250607E+000	-4.981738373659427E+002	7.0992798E-001	-1.4248862E+000	0
2.8334372E+000	1.305008969099072E+002	-1.4267021E+000	-5.035234845455061E+002	7.1837801E-001	-1.4264890E+000	0
2.7856734E+000	1.306812969053499E+002	-1.4284458E+000	-5.127829491977163E+002	7.3248267E-001	-1.4282926E+000	0
2.7485392E+000	1.308517969010427E+002	-1.4302065E+000	-5.203514989026064E+002	7.4421012E-001	-1.4299976E+000	0
2.7594485E+000	1.310222968967355E+002	-1.4318603E+000	-5.188936543331729E+002	7.4298322E-001	-1.4317025E+000	0
2.7067409E+000	1.311529968934337E+002	-1.4332154E+000	-5.294985382562518E+002	7.5888544E-001	-1.4330091E+000	0
2.6078513E+000	1.312935968898819E+002	-1.4346153E+000	-5.501138958280662E+002	7.8920180E-001	-1.4344157E+000	0
2.6398525E+000	1.314442968860749E+002	-1.4361196E+000	-5.440150711251026E+002	7.8127068E-001	-1.4359225E+000	0
2.6735528E+000	1.315845968825306E+002	-1.4375050E+000	-5.376759613572033E+002	7.7291191E-001	-1.4373252E+000	0
2.6932261E+000	1.317351968787261E+002	-1.4390188E+000	-5.343104293799970E+002	7.6888275E-001	-1.4388318E+000	0
2.7160771E+000	1.318855968749267E+002	-1.4404815E+000	-5.303536910604498E+002	7.6396471E-001	-1.4403359E+000	0
2.6997006E+000	1.320260968713774E+002	-1.4419333E+000	-5.341086102902609E+002	7.7014899E-001	-1.4417408E+000	0
2.6618469E+000	1.321765968675754E+002	-1.4434242E+000	-5.422641959785142E+002	7.8271729E-001	-1.4432453E+000	0
2.6528153E+000	1.323273968637659E+002	-1.4449303E+000	-5.446780799371336E+002	7.8702188E-001	-1.4447534E+000	0
2.6850743E+000	1.324876968597164E+002	-1.4465526E+000	-5.387383945661277E+002	7.7931345E-001	-1.4463571E+000	0
2.6620357E+000	1.326382968559119E+002	-1.4480417E+000	-5.439602815904600E+002	7.8767717E-001	-1.4478627E+000	0
2.6528051E+000	1.327684968526228E+002	-1.4493204E+000	-5.463350698379509E+002	7.9181457E-001	-1.4491651E+000	0
2.6070890E+000	1.329288968485707E+002	-1.4509443E+000	-5.565380753025474E+002	8.0750573E-001	-1.4507687E+000	0
2.5975091E+000	1.330893968445162E+002	-1.4525576E+000	-5.592117244116234E+002	8.1228721E-001	-1.4523739E+000	0
2.5891309E+000	1.332696968399614E+002	-1.4543434E+000	-5.617110537917492E+002	8.1692076E-001	-1.4541769E+000	0
2.5457201E+000	1.334503968353965E+002	-1.4561877E+000	-5.720140875831439E+002	8.3295989E-001	-1.4559836E+000	0
2.5103996E+000	1.336110968313369E+002	-1.4577793E+000	-5.806961274297664E+002	8.4652680E-001	-1.4575902E+000	0
2.5475886E+000	1.337416968280377E+002	-1.4591144E+000	-5.727433485225387E+002	8.3569807E-001	-1.4588969E+000	0
2.5568981E+000	1.338317968257616E+002	-1.4600782E+000	-5.710349619339931E+002	8.3375573E-001	-1.4597982E+000	0
2.5609608E+000	1.338493968253169E+002	-1.4602861E+000	-5.702102628140835E+002	8.3267015E-001	-1.4599983E+000	1