EC-Lab ASCII FILE
Nb header lines : 61                          

Linear Sweep Voltammetry

Run on channel : 1 (SN 1340)
User : 
Electrode connection : standard
Potential control : Ewe
Ewe ctrl range : min = -5.00 V, max = 5.00 V
Ewe,I filtering : <None>
Channel : Grounded
Acquisition started on : 02/16/2026 18:16:54.281
Technique started on : 02/16/2026 18:16:56.963
Loaded Setting File :  C:\Users\volt\Documents\Platalytix\PtPd_40_CoNi_2_12.mps
Saved on :
	File : PtPdNi10Co10Cr10_polished_2_16_02_02_LSV_C01.mpr
	Directory : C:\Users\volt\Documents\Platalytix\
	Host : 127.0.0.1
Device : SP-200 (SN 0262)
Address : USB
EC-LAB for windows v11.60 (software)
Internet server v11.60 (firmware)
Command interpretor v11.60 (firmware)
Electrode material : Pt_40
Initial state : 
Electrolyte : KOH (1M)
Comments : 
Cable : standard
Reference electrode : Hg/HgO (0.140 V)
Electrode surface area : 1.000 cm˛
Characteristic mass : 0.001 g
Equivalent Weight : 0.000 g/eq.
Density : 0.000 g/cm3
Volume (V) : 0.001 cmł
Cycle Definition : Charge/Discharge alternance
tR (h:m:s)          0:00:5.0000         
dER/dt (mV/h)       0.0                 
dER (mV)            0                   
dtR (s)             0.0000              
dE/dt               10.000              
dE/dt unit          mV/s                
Ei (V)              -0.200              
vs.                 Ref                 
EL (V)              -2.500              
vs.                 Ref                 
record              <I>                 
dI                  0.000               
unit dI             µA                  
tI (s)              0.0000              
step percent        50                  
N                   10                  
E range min (V)     -5.000              
E range max (V)     5.000               
I Range             Auto                
I Range min         Unset               
I Range max         Unset               
I Range init        Unset               
Bandwidth           8                   

Rwe/Ohm	time/s	Ewe/V	<I>/mA	Pwe/W	control/V	error	
0.0000000E+000	2.682400127378060E+000	-1.4655057E-001	0.000000000000000E+000	0.0000000E+000	0.0000000E+000	0
0.0000000E+000	7.682200001072488E+000	-2.7012082E-002	0.000000000000000E+000	0.0000000E+000	-1.9985394E-001	0
4.1803859E+004	7.882199996020063E+000	-2.0153080E-001	-4.820865675574167E-003	9.7155294E-007	-2.0175372E-001	0
1.8217828E+003	8.002199992988608E+000	-2.0272321E-001	-1.112773732001874E-001	2.2558506E-005	-2.0295379E-001	0
1.9088737E+003	8.212199987683562E+000	-2.0483655E-001	-1.073075465260328E-001	2.1980508E-005	-2.0505376E-001	0
2.1058557E+003	8.412199982631137E+000	-2.0686863E-001	-9.823494796089971E-002	2.0321730E-005	-2.0705378E-001	0
2.2848423E+003	8.612199977578712E+000	-2.0887294E-001	-9.141678638891415E-002	1.9094494E-005	-2.0905378E-001	0
2.4439358E+003	8.812199972526287E+000	-2.1087299E-001	-8.628418158777773E-002	1.8195004E-005	-2.1105376E-001	0
2.5896023E+003	9.012199967473862E+000	-2.1284866E-001	-8.219357522029225E-002	1.7494793E-005	-2.1305378E-001	0
2.7237471E+003	9.212199962421437E+000	-2.1485595E-001	-7.888249077521614E-002	1.6948372E-005	-2.1505378E-001	0
2.8494673E+003	9.412199957369012E+000	-2.1689630E-001	-7.611819157955524E-002	1.6509754E-005	-2.1705377E-001	0
2.9641411E+003	9.612199952316587E+000	-2.1886241E-001	-7.383670411737886E-002	1.6160080E-005	-2.1905378E-001	0
3.0765403E+003	9.812199947264162E+000	-2.2082175E-001	-7.177599743452090E-002	1.5849702E-005	-2.2105379E-001	0
3.1835408E+003	1.001219994221174E+001	-2.2288737E-001	-7.001241342990311E-002	1.5604883E-005	-2.2305377E-001	0
3.2845327E+003	1.021219993715931E+001	-2.2486727E-001	-6.846248609586203E-002	1.5394973E-005	-2.2505377E-001	0
3.3848091E+003	1.041219993210689E+001	-2.2685376E-001	-6.702113889005712E-002	1.5203997E-005	-2.2705379E-001	0
3.4792485E+003	1.061219992705446E+001	-2.2884236E-001	-6.577350426668027E-002	1.5051764E-005	-2.2905375E-001	0
3.5735459E+003	1.081219992200204E+001	-2.3082905E-001	-6.459383665142637E-002	1.4910133E-005	-2.3105378E-001	0
3.6655063E+003	1.101219991694961E+001	-2.3286030E-001	-6.352745697626644E-002	1.4793022E-005	-2.3305379E-001	0
3.7527825E+003	1.121219991189719E+001	-2.3482619E-001	-6.257388730957900E-002	1.4693987E-005	-2.3505378E-001	0
3.8419832E+003	1.141219990684476E+001	-2.3683517E-001	-6.164398916169145E-002	1.4599465E-005	-2.3705378E-001	0
3.9242744E+003	1.161219990179234E+001	-2.3888998E-001	-6.087494104448110E-002	1.4542414E-005	-2.3905379E-001	0
4.0131550E+003	1.181219989673991E+001	-2.4084842E-001	-6.001473158226245E-002	1.4454454E-005	-2.4105379E-001	0
4.0958208E+003	1.201219989168749E+001	-2.4286333E-001	-5.929539880299262E-002	1.4400678E-005	-2.4305376E-001	0
4.1777383E+003	1.221219988663506E+001	-2.4488211E-001	-5.861595506482087E-002	1.4353998E-005	-2.4505377E-001	0
4.2599756E+003	1.241219988158264E+001	-2.4682420E-001	-5.794028296766796E-002	1.4301064E-005	-2.4705376E-001	0
4.3386128E+003	1.261219987653021E+001	-2.4885462E-001	-5.735811069840058E-002	1.4273831E-005	-2.4905376E-001	0
4.4176670E+003	1.281219987147779E+001	-2.5087610E-001	-5.678927410782553E-002	1.4247072E-005	-2.5105378E-001	0
4.4982422E+003	1.301219986642536E+001	-2.5284988E-001	-5.621081629140801E-002	1.4212898E-005	-2.5305375E-001	0
4.5762578E+003	1.321219986137294E+001	-2.5485480E-001	-5.569065571498633E-002	1.4193030E-005	-2.5505379E-001	0
4.6545098E+003	1.341219985632051E+001	-2.5684786E-001	-5.518257773593205E-002	1.4173527E-005	-2.5705376E-001	0
4.7294058E+003	1.361219985126809E+001	-2.5883093E-001	-5.472800203666611E-002	1.4165300E-005	-2.5905377E-001	0
4.8014785E+003	1.381219984621566E+001	-2.6083270E-001	-5.432341349165437E-002	1.4169323E-005	-2.6105377E-001	0
4.8823501E+003	1.401219984116324E+001	-2.6280817E-001	-5.382821200702692E-002	1.4146494E-005	-2.6305377E-001	0
4.9555542E+003	1.421219983611081E+001	-2.6482221E-001	-5.343947684880179E-002	1.4151960E-005	-2.6505378E-001	0
5.0282642E+003	1.441219983105839E+001	-2.6681867E-001	-5.306377212882324E-002	1.4158405E-005	-2.6705378E-001	0
5.1048369E+003	1.461219982600596E+001	-2.6886177E-001	-5.266804395342772E-002	1.4160423E-005	-2.6905379E-001	0
5.1743892E+003	1.481219982095354E+001	-2.7083385E-001	-5.234122105510886E-002	1.4175775E-005	-2.7105376E-001	0
5.2518823E+003	1.501219981590111E+001	-2.7281183E-001	-5.194553144301484E-002	1.4171355E-005	-2.7305380E-001	0
5.3196812E+003	1.521219981084869E+001	-2.7488637E-001	-5.167346620296565E-002	1.4204332E-005	-2.7505377E-001	0
5.3941704E+003	1.541219980579626E+001	-2.7684358E-001	-5.132273285250577E-002	1.4208369E-005	-2.7705374E-001	0
5.4682651E+003	1.561219980074384E+001	-2.7881584E-001	-5.098798894270612E-002	1.4216259E-005	-2.7905378E-001	0
5.5393579E+003	1.581219979569141E+001	-2.8084517E-001	-5.069995143233275E-002	1.4238836E-005	-2.8105378E-001	0
5.6115815E+003	1.601219979063899E+001	-2.8283760E-001	-5.040247523058994E-002	1.4255716E-005	-2.8305379E-001	0
5.6776162E+003	1.621219978558656E+001	-2.8483853E-001	-5.016868148799442E-002	1.4289973E-005	-2.8505376E-001	0
5.7557109E+003	1.641219978053414E+001	-2.8687572E-001	-4.984192762105766E-002	1.4298439E-005	-2.8705376E-001	0
5.8147241E+003	1.661219977548171E+001	-2.8880957E-001	-4.966866365758515E-002	1.4344785E-005	-2.8905377E-001	0
5.8898164E+003	1.681219977042929E+001	-2.9080006E-001	-4.937336850085683E-002	1.4357779E-005	-2.9105377E-001	0
5.9589668E+003	1.701219976537686E+001	-2.9281858E-001	-4.913915256133361E-002	1.4388856E-005	-2.9305378E-001	0
6.0359736E+003	1.721219976032444E+001	-2.9481947E-001	-4.884373148150412E-002	1.4400083E-005	-2.9505375E-001	0
6.0914175E+003	1.741219975527201E+001	-2.9677013E-001	-4.871938704294421E-002	1.4458458E-005	-2.9705375E-001	0
6.1767534E+003	1.761219975021959E+001	-2.9888245E-001	-4.838827564465537E-002	1.4462406E-005	-2.9905379E-001	0
6.2307676E+003	1.781219974516716E+001	-3.0084386E-001	-4.828359763868695E-002	1.4525825E-005	-3.0105376E-001	0
6.3004067E+003	1.801219974011474E+001	-3.0286068E-001	-4.807001973218306E-002	1.4558519E-005	-3.0305380E-001	0
6.3733311E+003	1.821219973506231E+001	-3.0482319E-001	-4.782792417672532E-002	1.4579060E-005	-3.0505374E-001	0
6.4439565E+003	1.841219973000989E+001	-3.0687439E-001	-4.762204515176460E-002	1.4613986E-005	-3.0705377E-001	0
6.5079561E+003	1.861219972495746E+001	-3.0882439E-001	-4.745336073739037E-002	1.4654755E-005	-3.0905378E-001	0
6.5767119E+003	1.881219971990504E+001	-3.1092075E-001	-4.727601774259682E-002	1.4699095E-005	-3.1105375E-001	0
6.6438740E+003	1.901219971485261E+001	-3.1283447E-001	-4.708615503281299E-002	1.4730173E-005	-3.1305376E-001	0
6.7115171E+003	1.921219970980019E+001	-3.1484747E-001	-4.691152133616705E-002	1.4769974E-005	-3.1505379E-001	0
6.7776416E+003	1.941219970474776E+001	-3.1684372E-001	-4.674837205748017E-002	1.4811928E-005	-3.1705377E-001	0
6.8331499E+003	1.961219969969534E+001	-3.1881088E-001	-4.665650181153425E-002	1.4874600E-005	-3.1905377E-001	0
6.9152769E+003	1.981219969464291E+001	-3.2083490E-001	-4.639509184230084E-002	1.4885165E-005	-3.2105377E-001	0
6.9730269E+003	2.001219968959049E+001	-3.2285196E-001	-4.630011809269652E-002	1.4948084E-005	-3.2305375E-001	0
7.0344800E+003	2.021219968453806E+001	-3.2487553E-001	-4.618330433850704E-002	1.5003826E-005	-3.2505378E-001	0
7.0980596E+003	2.041219967948564E+001	-3.2682404E-001	-4.604413840458288E-002	1.5048331E-005	-3.2705376E-001	0
7.1757266E+003	2.061219967443321E+001	-3.2886592E-001	-4.583033042444551E-002	1.5072033E-005	-3.2905379E-001	0
7.2376875E+003	2.081219966938079E+001	-3.3086005E-001	-4.571350370354260E-002	1.5124772E-005	-3.3105376E-001	0
7.2999321E+003	2.101219966432836E+001	-3.3283886E-001	-4.559478738113976E-002	1.5175718E-005	-3.3305380E-001	0
7.3597686E+003	2.121219965927594E+001	-3.3485103E-001	-4.549749290899008E-002	1.5234882E-005	-3.3505377E-001	0
7.4351416E+003	2.141219965422351E+001	-3.3686426E-001	-4.530703918343149E-002	1.5262322E-005	-3.3705378E-001	0
7.4882881E+003	2.161219964917109E+001	-3.3881125E-001	-4.524548838359621E-002	1.5329681E-005	-3.3905378E-001	0
7.5560073E+003	2.181219964411866E+001	-3.4088218E-001	-4.511406175452226E-002	1.5378580E-005	-3.4105378E-001	0
7.6170078E+003	2.201219963906624E+001	-3.4280139E-001	-4.500473277826005E-002	1.5427686E-005	-3.4305379E-001	0
7.7250034E+003	2.223219963350857E+001	-3.4503955E-001	-4.466529318236223E-002	1.5411293E-005	-3.4525377E-001	0
7.7751304E+003	2.245219962795090E+001	-3.4732801E-001	-4.467166295061786E-002	1.5515719E-005	-3.4745377E-001	0
7.8360576E+003	2.265219962289848E+001	-3.4921983E-001	-4.456575454477740E-002	1.5563246E-005	-3.4945378E-001	0
7.9025122E+003	2.285219961784605E+001	-3.5130480E-001	-4.445482655470623E-002	1.5617194E-005	-3.5145381E-001	0
7.9663784E+003	2.305219961279363E+001	-3.5326836E-001	-4.434491382925532E-002	1.5665655E-005	-3.5345379E-001	0
8.0296465E+003	2.325219960774120E+001	-3.5530469E-001	-4.424910695089329E-002	1.5721915E-005	-3.5545379E-001	0
8.0845723E+003	2.345219960268878E+001	-3.5725001E-001	-4.418910341706905E-002	1.5786558E-005	-3.5745379E-001	0
8.1453872E+003	2.365219959763635E+001	-3.5921103E-001	-4.409993201908136E-002	1.5841182E-005	-3.5945380E-001	0
8.2091631E+003	2.385219959258393E+001	-3.6131975E-001	-4.401419973982901E-002	1.5903199E-005	-3.6145377E-001	0
8.2667744E+003	2.405219958753150E+001	-3.6327398E-001	-4.394385900692638E-002	1.5963660E-005	-3.6345381E-001	0
8.3323320E+003	2.425219958247908E+001	-3.6525875E-001	-4.383632000651883E-002	1.6011600E-005	-3.6545378E-001	0
8.3882275E+003	2.445219957742665E+001	-3.6729953E-001	-4.378750384706054E-002	1.6083130E-005	-3.6745375E-001	0
8.4506699E+003	2.465219957237423E+001	-3.6924928E-001	-4.369467729491416E-002	1.6134229E-005	-3.6945379E-001	0
8.5168691E+003	2.485219956732180E+001	-3.7127185E-001	-4.359252495446209E-002	1.6184676E-005	-3.7145379E-001	0
8.5686660E+003	2.505219956226938E+001	-3.7321272E-001	-4.355552320235545E-002	1.6255475E-005	-3.7345377E-001	0
8.6308340E+003	2.525219955721695E+001	-3.7519816E-001	-4.347182854945644E-002	1.6310551E-005	-3.7545380E-001	0
8.6945322E+003	2.545219955216453E+001	-3.7725165E-001	-4.338953016028058E-002	1.6368773E-005	-3.7745377E-001	0
8.7481982E+003	2.565219954711210E+001	-3.7925300E-001	-4.335212755722334E-002	1.6441425E-005	-3.7945381E-001	0
8.8124844E+003	2.585219954205968E+001	-3.8122550E-001	-4.325970521280131E-002	1.6491702E-005	-3.8145378E-001	0
8.8657080E+003	2.605219953700725E+001	-3.8322574E-001	-4.322562241359751E-002	1.6565171E-005	-3.8345382E-001	0
8.9289746E+003	2.625219953195483E+001	-3.8525808E-001	-4.314695580945882E-002	1.6622713E-005	-3.8545379E-001	0
8.9926074E+003	2.645219952690240E+001	-3.8722819E-001	-4.306072419294932E-002	1.6674327E-005	-3.8745376E-001	0
9.0421650E+003	2.665219952184998E+001	-3.8920769E-001	-4.304364012805595E-002	1.6752916E-005	-3.8945377E-001	0
9.1013506E+003	2.685219951679755E+001	-3.9124531E-001	-4.298760797754519E-002	1.6818700E-005	-3.9145377E-001	0
9.1571299E+003	2.705219951174513E+001	-3.9326531E-001	-4.294635030908750E-002	1.6889309E-005	-3.9345381E-001	0
9.2199316E+003	2.725219950669270E+001	-3.9522636E-001	-4.286651769568500E-002	1.6941978E-005	-3.9545381E-001	0
9.2835430E+003	2.745219950164028E+001	-3.9724678E-001	-4.279042676206302E-002	1.6998360E-005	-3.9745381E-001	0
9.3412705E+003	2.765219949658785E+001	-3.9923728E-001	-4.273907768581275E-002	1.7063034E-005	-3.9945376E-001	0
9.4019570E+003	2.785219949153543E+001	-4.0125448E-001	-4.267776319614547E-002	1.7124643E-005	-4.0145379E-001	0
9.4518096E+003	2.805219948648300E+001	-4.0318540E-001	-4.265695473743092E-002	1.7198661E-005	-4.0345383E-001	0
9.5105283E+003	2.825219948143058E+001	-4.0525189E-001	-4.261086942826542E-002	1.7268136E-005	-4.0545380E-001	0
9.5632314E+003	2.845219947637815E+001	-4.0724877E-001	-4.258485054866512E-002	1.7342627E-005	-4.0745378E-001	0
9.6310674E+003	2.865219947132573E+001	-4.0925667E-001	-4.249338683083048E-002	1.7390701E-005	-4.0945381E-001	0
9.6767666E+003	2.885219946627331E+001	-4.1125119E-001	-4.249882263811444E-002	1.7477691E-005	-4.1145378E-001	0
9.7384863E+003	2.905219946122088E+001	-4.1334569E-001	-4.244455332892069E-002	1.7544273E-005	-4.1345379E-001	0
9.7860186E+003	2.925219945616846E+001	-4.1527492E-001	-4.243553348456841E-002	1.7622413E-005	-4.1545379E-001	0
9.8588320E+003	2.945219945111603E+001	-4.1730830E-001	-4.232836992040601E-002	1.7663981E-005	-4.1745383E-001	0
9.9126553E+003	2.965219944606361E+001	-4.1926229E-001	-4.229565956624537E-002	1.7732975E-005	-4.1945377E-001	0
9.9770127E+003	2.985219944101118E+001	-4.2131069E-001	-4.222814059212315E-002	1.7791168E-005	-4.2145380E-001	0
1.0032740E+004	3.005219943595876E+001	-4.2325240E-001	-4.218711691107084E-002	1.7855798E-005	-4.2345384E-001	0
1.0081229E+004	3.025219943090633E+001	-4.2519265E-001	-4.217666468890313E-002	1.7933207E-005	-4.2545378E-001	0
1.0146090E+004	3.045219942585391E+001	-4.2732871E-001	-4.211757627084556E-002	1.7998049E-005	-4.2745379E-001	0
1.0200231E+004	3.065219942080148E+001	-4.2922378E-001	-4.207980694500590E-002	1.8061653E-005	-4.2945382E-001	0
1.0252390E+004	3.085219941574906E+001	-4.3130913E-001	-4.206913328241740E-002	1.8144801E-005	-4.3145379E-001	0
1.0310783E+004	3.105219941069663E+001	-4.3321389E-001	-4.201561457830194E-002	1.8201748E-005	-4.3345380E-001	0
1.0379939E+004	3.125219940564421E+001	-4.3530861E-001	-4.193748854673013E-002	1.8255751E-005	-4.3545380E-001	0
1.0439777E+004	3.145219940059178E+001	-4.3726683E-001	-4.188469005009487E-002	1.8314786E-005	-4.3745381E-001	0
1.0493123E+004	3.165219939553936E+001	-4.3931317E-001	-4.186676896537289E-002	1.8392622E-005	-4.3945378E-001	0
1.0558621E+004	3.185219939048693E+001	-4.4118509E-001	-4.178434614828107E-002	1.8434630E-005	-4.4145381E-001	0
1.0628027E+004	3.205219938543451E+001	-4.4336361E-001	-4.171645323098627E-002	1.8495557E-005	-4.4345379E-001	0
1.0668737E+004	3.225219938038208E+001	-4.4524291E-001	-4.173342168332200E-002	1.8581510E-005	-4.4545382E-001	0
1.0727852E+004	3.245219937532966E+001	-4.4731256E-001	-4.169638007520232E-002	1.8651315E-005	-4.4745380E-001	0
1.0772596E+004	3.265219937027723E+001	-4.4933531E-001	-4.171095841512490E-002	1.8742207E-005	-4.4945377E-001	0
1.0829779E+004	3.285219936522481E+001	-4.5125622E-001	-4.166809054220397E-002	1.8802984E-005	-4.5145380E-001	0
1.0893167E+004	3.305219936017238E+001	-4.5331740E-001	-4.161484109484870E-002	1.8864732E-005	-4.5345381E-001	0
1.0950084E+004	3.325219935511996E+001	-4.5525914E-001	-4.157585940136860E-002	1.8927791E-005	-4.5545381E-001	0
1.1011231E+004	3.345219935006753E+001	-4.5727128E-001	-4.152771478065843E-002	1.8989431E-005	-4.5745382E-001	0
1.1069931E+004	3.365219934501511E+001	-4.5929974E-001	-4.149075194347507E-002	1.9056692E-005	-4.5945382E-001	0
1.1132540E+004	3.385219933996268E+001	-4.6129686E-001	-4.143680230204372E-002	1.9114666E-005	-4.6145377E-001	0
1.1187716E+004	3.405219933491026E+001	-4.6319845E-001	-4.140241370935532E-002	1.9177534E-005	-4.6345380E-001	0
1.1240039E+004	3.425219932985783E+001	-4.6527827E-001	-4.139472051236426E-002	1.9260064E-005	-4.6545383E-001	0
1.1295862E+004	3.445219932480541E+001	-4.6723592E-001	-4.136345869372637E-002	1.9326493E-005	-4.6745381E-001	0
1.1354022E+004	3.465219931975298E+001	-4.6928248E-001	-4.133182640008992E-002	1.9396302E-005	-4.6945378E-001	0
1.1414228E+004	3.485219931470056E+001	-4.7134236E-001	-4.129428367205434E-002	1.9463745E-005	-4.7145382E-001	0
1.1474099E+004	3.505219930964813E+001	-4.7327963E-001	-4.124765187267487E-002	1.9521673E-005	-4.7345379E-001	0
1.1536679E+004	3.525219930459571E+001	-4.7529939E-001	-4.119898094647800E-002	1.9581850E-005	-4.7545379E-001	0
1.1590915E+004	3.545219929954328E+001	-4.7719100E-001	-4.116939832989630E-002	1.9645666E-005	-4.7745383E-001	0
1.1653932E+004	3.565219929449086E+001	-4.7926471E-001	-4.112472399106233E-002	1.9709629E-005	-4.7945383E-001	0
1.1695190E+004	3.585219928943843E+001	-4.8123249E-001	-4.114789613591241E-002	1.9801704E-005	-4.8145378E-001	0
1.1767248E+004	3.605219928438601E+001	-4.8331895E-001	-4.107323552977038E-002	1.9851474E-005	-4.8345381E-001	0
1.1832861E+004	3.625219927933358E+001	-4.8524219E-001	-4.100801711801716E-002	1.9898820E-005	-4.8545384E-001	0
1.1905715E+004	3.645219927428116E+001	-4.8724315E-001	-4.092514888296859E-002	1.9940499E-005	-4.8745379E-001	0
1.1961203E+004	3.665219926922873E+001	-4.8929346E-001	-4.090670988152678E-002	2.0015386E-005	-4.8945379E-001	0
1.2023562E+004	3.685219926417631E+001	-4.9134186E-001	-4.086491855652277E-002	2.0078645E-005	-4.9145383E-001	0
1.2077767E+004	3.705219925912388E+001	-4.9322119E-001	-4.083711932367862E-002	2.0141733E-005	-4.9345386E-001	0
1.2150089E+004	3.725219925407146E+001	-4.9527195E-001	-4.076282657121132E-002	2.0188685E-005	-4.9545380E-001	0
1.2211921E+004	3.745219924901903E+001	-4.9729326E-001	-4.072195296218029E-002	2.0250753E-005	-4.9745378E-001	0
1.2272496E+004	3.765219924396661E+001	-4.9930394E-001	-4.068479020345972E-002	2.0314075E-005	-4.9945381E-001	0
1.2335435E+004	3.785219923891418E+001	-5.0122762E-001	-4.063315432816483E-002	2.0366459E-005	-5.0145376E-001	0
1.2395266E+004	3.805219923386176E+001	-5.0325060E-001	-4.060022796629859E-002	2.0432090E-005	-5.0345379E-001	0
1.2452558E+004	3.825219922880933E+001	-5.0526994E-001	-4.057559707622277E-002	2.0501629E-005	-5.0545388E-001	0
1.2517166E+004	3.845219922375691E+001	-5.0717771E-001	-4.051857438707156E-002	2.0550118E-005	-5.0745380E-001	0
1.2567875E+004	3.865219921870448E+001	-5.0928217E-001	-4.052253502401032E-002	2.0637404E-005	-5.0945377E-001	0
1.2627730E+004	3.885219921365206E+001	-5.1122773E-001	-4.048452863988183E-002	2.0696814E-005	-5.1145381E-001	0
1.2694511E+004	3.905219920859963E+001	-5.1327884E-001	-4.043313435277762E-002	2.0753472E-005	-5.1345378E-001	0
1.2752965E+004	3.925219920354721E+001	-5.1524204E-001	-4.040174475024172E-002	2.0816677E-005	-5.1545376E-001	0
1.2814128E+004	3.945219919849478E+001	-5.1731616E-001	-4.037076692902564E-002	2.0884450E-005	-5.1745379E-001	0
1.2869522E+004	3.965219919344236E+001	-5.1924473E-001	-4.034685402081190E-002	2.0949892E-005	-5.1945382E-001	0
1.2926467E+004	3.985219918838993E+001	-5.2130401E-001	-4.032842127834357E-002	2.1023368E-005	-5.2145380E-001	0
1.2971202E+004	4.005219918333751E+001	-5.2320921E-001	-4.033621528308395E-002	2.1104279E-005	-5.2345377E-001	0
1.3026729E+004	4.025219917828508E+001	-5.2528566E-001	-4.032367837399904E-002	2.1181449E-005	-5.2545381E-001	0
1.3085422E+004	4.045219917323266E+001	-5.2724540E-001	-4.029258034855154E-002	2.1244077E-005	-5.2745384E-001	0
1.3143888E+004	4.065219916818023E+001	-5.2929813E-001	-4.026952654713567E-002	2.1314585E-005	-5.2945381E-001	0
1.3210605E+004	4.085219916312781E+001	-5.3121662E-001	-4.021137540282510E-002	2.1360951E-005	-5.3145385E-001	0
1.3267867E+004	4.105219915807538E+001	-5.3321081E-001	-4.018813297268664E-002	2.1428747E-005	-5.3345382E-001	0
1.3341451E+004	4.125219915302296E+001	-5.3526092E-001	-4.012014325512804E-002	2.1474745E-005	-5.3545386E-001	0
1.3397273E+004	4.145219914797053E+001	-5.3723782E-001	-4.010053387660387E-002	2.1543523E-005	-5.3745377E-001	0
1.3453462E+004	4.165219914291811E+001	-5.3925318E-001	-4.008285446269888E-002	2.1614807E-005	-5.3945380E-001	0
1.3524117E+004	4.185219913786568E+001	-5.4132450E-001	-4.002660575487532E-002	2.1667382E-005	-5.4145384E-001	0
1.3591125E+004	4.205219913281326E+001	-5.4322487E-001	-3.996908675077787E-002	2.1712201E-005	-5.4345375E-001	0
1.3660228E+004	4.225219912776083E+001	-5.4523724E-001	-3.991421353063465E-002	2.1762717E-005	-5.4545385E-001	0
1.3708197E+004	4.245219912270841E+001	-5.4728484E-001	-3.992391127988482E-002	2.1849752E-005	-5.4745388E-001	0
1.3771432E+004	4.265219911765598E+001	-5.4925364E-001	-3.988355363491078E-002	2.1906188E-005	-5.4945385E-001	0
1.3831507E+004	4.285219911260356E+001	-5.5124527E-001	-3.985431679163343E-002	2.1969503E-005	-5.5145377E-001	0
1.3898535E+004	4.305219910755113E+001	-5.5323470E-001	-3.980525140518565E-002	2.2021646E-005	-5.5345380E-001	0
1.3969401E+004	4.325219910249871E+001	-5.5521208E-001	-3.974487180103570E-002	2.2066833E-005	-5.5545390E-001	0
1.4026367E+004	4.345219909744628E+001	-5.5721146E-001	-3.972600018626696E-002	2.2135782E-005	-5.5745375E-001	0
1.4087704E+004	4.365219909239386E+001	-5.5926716E-001	-3.969895842410152E-002	2.2202325E-005	-5.5945379E-001	0
1.4151641E+004	4.385219908734143E+001	-5.6127322E-001	-3.966135244136537E-002	2.2260854E-005	-5.6145388E-001	0
1.4200831E+004	4.405219908228901E+001	-5.6328702E-001	-3.966577787452752E-002	2.2343218E-005	-5.6345379E-001	0
1.4267419E+004	4.425219907723658E+001	-5.6529194E-001	-3.962117734828707E-002	2.2397533E-005	-5.6545383E-001	0
1.4329297E+004	4.445219907218416E+001	-5.6724554E-001	-3.958641776794994E-002	2.2455219E-005	-5.6745380E-001	0
1.4387106E+004	4.465219906713173E+001	-5.6929183E-001	-3.956958400998944E-002	2.2526641E-005	-5.6945390E-001	0
1.4445499E+004	4.485219906207931E+001	-5.7123655E-001	-3.954425822682630E-002	2.2589125E-005	-5.7145381E-001	0
1.4495394E+004	4.505219905702688E+001	-5.7328057E-001	-3.954915647804652E-002	2.2672762E-005	-5.7345378E-001	0
1.4551266E+004	4.525219905197446E+001	-5.7525194E-001	-3.953277801275434E-002	2.2741307E-005	-5.7545388E-001	0
1.4616574E+004	4.545219904692203E+001	-5.7731307E-001	-3.949715257115460E-002	2.2802222E-005	-5.7745373E-001	0
1.4672975E+004	4.565219904186961E+001	-5.7922208E-001	-3.947543706549542E-002	2.2865044E-005	-5.7945383E-001	0
1.4728513E+004	4.585219903681718E+001	-5.8133042E-001	-3.946973081301203E-002	2.2944954E-005	-5.8145386E-001	0
1.4781684E+004	4.605219903176476E+001	-5.8326018E-001	-3.945830537248068E-002	2.3014458E-005	-5.8345383E-001	0
1.4845811E+004	4.625219902671233E+001	-5.8522397E-001	-3.942014273602421E-002	2.3069613E-005	-5.8545381E-001	0
1.4892465E+004	4.645219902165991E+001	-5.8737570E-001	-3.944113477642162E-002	2.3166764E-005	-5.8745378E-001	0
1.4952924E+004	4.665219901660748E+001	-5.8923662E-001	-3.940611390757004E-002	2.3219525E-005	-5.8945388E-001	0
1.5008444E+004	4.685219901155506E+001	-5.9135485E-001	-3.940147552597004E-002	2.3300254E-005	-5.9145379E-001	0
1.5055525E+004	4.705219900650263E+001	-5.9322035E-001	-3.940216897534887E-002	2.3374168E-005	-5.9345376E-001	0
1.5119543E+004	4.725219900145021E+001	-5.9523982E-001	-3.936890261316395E-002	2.3433939E-005	-5.9545386E-001	0
1.5173345E+004	4.745219899639778E+001	-5.9723729E-001	-3.936095215652613E-002	2.3507828E-005	-5.9745377E-001	0
1.5212300E+004	4.765219899134536E+001	-5.9924054E-001	-3.939184509724589E-002	2.3605191E-005	-5.9945381E-001	0
1.5273318E+004	4.785219898629293E+001	-6.0124272E-001	-3.936555924801088E-002	2.3668255E-005	-6.0145378E-001	0
1.5338342E+004	4.805219898124051E+001	-6.0328102E-001	-3.933156666909754E-002	2.3727987E-005	-6.0345381E-001	0
1.5376070E+004	4.825219897618808E+001	-6.0529655E-001	-3.936614157038570E-002	2.3828190E-005	-6.0545379E-001	0
1.5432538E+004	4.845219897113566E+001	-6.0730505E-001	-3.935224671484883E-002	2.3898818E-005	-6.0745382E-001	0
1.5498241E+004	4.865219896608323E+001	-6.0932636E-001	-3.931583899238039E-002	2.3956178E-005	-6.0945386E-001	0
1.5553722E+004	4.885219896103081E+001	-6.1127955E-001	-3.930117459064919E-002	2.4024004E-005	-6.1145377E-001	0
1.5597859E+004	4.905219895597838E+001	-6.1320233E-001	-3.931323553450294E-002	2.4106968E-005	-6.1345381E-001	0
1.5640279E+004	4.925219895092596E+001	-6.1525846E-001	-3.933807454428842E-002	2.4203084E-005	-6.1545384E-001	0
1.5693630E+004	4.945219894587353E+001	-6.1738431E-001	-3.933980328172373E-002	2.4287778E-005	-6.1745381E-001	0
1.5743648E+004	4.965219894082111E+001	-6.1925262E-001	-3.933349007670917E-002	2.4357367E-005	-6.1945385E-001	0
1.5799064E+004	4.985219893576868E+001	-6.2132287E-001	-3.932656090819564E-002	2.4434492E-005	-6.2145382E-001	0
1.5853100E+004	5.005219893071626E+001	-6.2328416E-001	-3.931623250969335E-002	2.4505185E-005	-6.2345386E-001	0
1.5908074E+004	5.025219892566383E+001	-6.2526149E-001	-3.930466164821056E-002	2.4575691E-005	-6.2545383E-001	0
1.5955863E+004	5.045219892061141E+001	-6.2726724E-001	-3.931264931498640E-002	2.4659537E-005	-6.2745374E-001	0
1.5996689E+004	5.065219891555898E+001	-6.2927878E-001	-3.933806234522985E-002	2.4754609E-005	-6.2945384E-001	0
1.6046391E+004	5.085219891050656E+001	-6.3131535E-001	-3.934313709131711E-002	2.4837926E-005	-6.3145387E-001	0
1.6085276E+004	5.105219890545413E+001	-6.3328147E-001	-3.937025715400572E-002	2.4932455E-005	-6.3345379E-001	0
1.6140470E+004	5.125219890040171E+001	-6.3528854E-001	-3.935997827029225E-002	2.5004943E-005	-6.3545382E-001	0
1.6179798E+004	5.145219889534928E+001	-6.3724744E-001	-3.938537730139502E-002	2.5098230E-005	-6.3745391E-001	0
1.6234654E+004	5.165219889029686E+001	-6.3928562E-001	-3.937783943016138E-002	2.5173687E-005	-6.3945383E-001	0
1.6276982E+004	5.185219888524443E+001	-6.4125854E-001	-3.939664702125470E-002	2.5263436E-005	-6.4145380E-001	0
1.6316573E+004	5.205219888019201E+001	-6.4331686E-001	-3.942720327909621E-002	2.5364185E-005	-6.4345384E-001	0
1.6361016E+004	5.225219887513958E+001	-6.4523423E-001	-3.943729684783165E-002	2.5446294E-005	-6.4545381E-001	0
1.6419293E+004	5.245219887008716E+001	-6.4728522E-001	-3.942223288865382E-002	2.5517429E-005	-6.4745378E-001	0
1.6444861E+004	5.265219886503473E+001	-6.4923114E-001	-3.947927023768802E-002	2.5631172E-005	-6.4945382E-001	0
1.6509605E+004	5.285219885998231E+001	-6.5133995E-001	-3.945218108630338E-002	2.5696781E-005	-6.5145385E-001	0
1.6542367E+004	5.305219885492988E+001	-6.5332532E-001	-3.949406383244443E-002	2.5802472E-005	-6.5345377E-001	0
1.6580904E+004	5.325219884987746E+001	-6.5531009E-001	-3.952197747620756E-002	2.5899151E-005	-6.5545380E-001	0
1.6607813E+004	5.345219884482503E+001	-6.5728581E-001	-3.957690412464798E-002	2.6013338E-005	-6.5745384E-001	0
1.6664549E+004	5.365219883977261E+001	-6.5934139E-001	-3.956551109245274E-002	2.6087178E-005	-6.5945387E-001	0
1.6687658E+004	5.385219883472018E+001	-6.6138941E-001	-3.963344842734018E-002	2.6213143E-005	-6.6145378E-001	0
1.6729457E+004	5.405219882966776E+001	-6.6332877E-001	-3.965034758932923E-002	2.6301217E-005	-6.6345382E-001	0
1.6785660E+004	5.425219882461533E+001	-6.6523337E-001	-3.963105354110699E-002	2.6363899E-005	-6.6545385E-001	0
1.6797668E+004	5.445219881956291E+001	-6.6729498E-001	-3.972545373723402E-002	2.6508596E-005	-6.6745377E-001	0
1.6841539E+004	5.465219881451048E+001	-6.6927975E-001	-3.973981991168440E-002	2.6597058E-005	-6.6945380E-001	0
1.6864922E+004	5.485219880945806E+001	-6.7129821E-001	-3.980440576666378E-002	2.6720627E-005	-6.7145389E-001	0
1.6902676E+004	5.505219880440563E+001	-6.7322981E-001	-3.982977636075064E-002	2.6814592E-005	-6.7345381E-001	0
1.6931184E+004	5.525219879935321E+001	-6.7524302E-001	-3.988162113053706E-002	2.6929787E-005	-6.7545378E-001	0
1.6980596E+004	5.545219879430078E+001	-6.7729121E-001	-3.988618680271760E-002	2.7014565E-005	-6.7745382E-001	0
1.6995369E+004	5.565219878924836E+001	-6.7922866E-001	-3.996551474698884E-002	2.7145723E-005	-6.7945385E-001	0
1.7035609E+004	5.585219878419593E+001	-6.8125945E-001	-3.999032125657306E-002	2.7243785E-005	-6.8145376E-001	0
1.7064342E+004	5.605219877914351E+001	-6.8332785E-001	-4.004419532255005E-002	2.7363314E-005	-6.8345380E-001	0
1.7069980E+004	5.625219877409108E+001	-6.8520725E-001	-4.014106831870259E-002	2.7504952E-005	-6.8545389E-001	0
1.7115426E+004	5.645219876903866E+001	-6.8728304E-001	-4.015576535764070E-002	2.7598377E-005	-6.8745381E-001	0
1.7151535E+004	5.665219876398623E+001	-6.8929601E-001	-4.018859152366405E-002	2.7701835E-005	-6.8945384E-001	0
1.7181033E+004	5.685219875893381E+001	-6.9128823E-001	-4.023554440442045E-002	2.7814358E-005	-6.9145381E-001	0
1.7205617E+004	5.705219875388138E+001	-6.9325560E-001	-4.029239801443968E-002	2.7932931E-005	-6.9345385E-001	0
1.7240000E+004	5.725219874882896E+001	-6.9525594E-001	-4.032807087561624E-002	2.8038330E-005	-6.9545382E-001	0
1.7281143E+004	5.745219874377653E+001	-6.9734251E-001	-4.035280316343731E-002	2.8139726E-005	-6.9745380E-001	0
1.7292828E+004	5.765219873872411E+001	-6.9926125E-001	-4.043648767078084E-002	2.8275668E-005	-6.9945395E-001	0
1.7292887E+004	5.785219873367168E+001	-7.0126206E-001	-4.055205349073371E-002	2.8437616E-005	-7.0145375E-001	0
1.7318004E+004	5.805219872861926E+001	-7.0326549E-001	-4.060892355042278E-002	2.8558854E-005	-7.0345384E-001	0
1.7367689E+004	5.825219872356683E+001	-7.0527023E-001	-4.060817754572954E-002	2.8639739E-005	-7.0545387E-001	0
1.7407883E+004	5.845219871851441E+001	-7.0731455E-001	-4.063185612257153E-002	2.8739503E-005	-7.0745379E-001	0
1.7399104E+004	5.865219871346198E+001	-7.0928645E-001	-4.076569106840566E-002	2.8914552E-005	-7.0945388E-001	0
1.7457824E+004	5.885219870840956E+001	-7.1126616E-001	-4.074196828937871E-002	2.8978384E-005	-7.1145386E-001	0
1.7496973E+004	5.905219870335713E+001	-7.1327055E-001	-4.076536833767952E-002	2.9076737E-005	-7.1345395E-001	0
1.7504221E+004	5.925219869830471E+001	-7.1524394E-001	-4.086122672203405E-002	2.9225745E-005	-7.1545380E-001	0
1.7540199E+004	5.945219869325229E+001	-7.1725684E-001	-4.089217370823706E-002	2.9330191E-005	-7.1745378E-001	0
1.7564850E+004	5.965219868819986E+001	-7.1928698E-001	-4.095036201147348E-002	2.9455063E-005	-7.1945387E-001	0
1.7624029E+004	5.985219868314744E+001	-7.2128773E-001	-4.092637846819741E-002	2.9519695E-005	-7.2145385E-001	0
1.7635588E+004	6.005219867809501E+001	-7.2326672E-001	-4.101177359706276E-002	2.9662451E-005	-7.2345382E-001	0
1.7637535E+004	6.025219867304259E+001	-7.2526932E-001	-4.112078660524668E-002	2.9823645E-005	-7.2545385E-001	0
1.7677215E+004	6.045219866799016E+001	-7.2725075E-001	-4.114057519235562E-002	2.9919514E-005	-7.2745389E-001	0
1.7730826E+004	6.065219866293774E+001	-7.2925055E-001	-4.112896689397552E-002	2.9993322E-005	-7.2945380E-001	0
1.7729893E+004	6.085219865788531E+001	-7.3133790E-001	-4.124886129667066E-002	3.0166855E-005	-7.3145378E-001	0
1.7748979E+004	6.105219865283289E+001	-7.3328167E-001	-4.131402135319795E-002	3.0294814E-005	-7.3345393E-001	0
1.7800822E+004	6.125219864778046E+001	-7.3540592E-001	-4.131302873729648E-002	3.0381845E-005	-7.3545384E-001	0
1.7820096E+004	6.145219864272804E+001	-7.3719817E-001	-4.136892422915452E-002	3.0497096E-005	-7.3745382E-001	0
1.7849523E+004	6.165219863767561E+001	-7.3937672E-001	-4.142277278644899E-002	3.0627034E-005	-7.3945385E-001	0
1.7882191E+004	6.185219863262319E+001	-7.4127406E-001	-4.145320138947878E-002	3.0728184E-005	-7.4145389E-001	0
1.7898641E+004	6.205219862757076E+001	-7.4329203E-001	-4.152784884702460E-002	3.0867319E-005	-7.4345386E-001	0
1.7927428E+004	6.225219862251834E+001	-7.4530309E-001	-4.157334464219942E-002	3.0984742E-005	-7.4545383E-001	0
1.7990582E+004	6.245219861746591E+001	-7.4730545E-001	-4.153870482128669E-002	3.1042102E-005	-7.4745393E-001	0
1.8032072E+004	6.265219861241349E+001	-7.4933213E-001	-4.155551965238602E-002	3.1138887E-005	-7.4945390E-001	0
1.8022059E+004	6.285219860736106E+001	-7.5130492E-001	-4.168807397556401E-002	3.1320455E-005	-7.5145376E-001	0
1.8084984E+004	6.305219860230864E+001	-7.5327569E-001	-4.165199476815862E-002	3.1375435E-005	-7.5345385E-001	0
1.8107539E+004	6.325219859725621E+001	-7.5520110E-001	-4.170644533416035E-002	3.1496755E-005	-7.5545382E-001	0
1.8130580E+004	6.345219859220379E+001	-7.5739187E-001	-4.177427707955922E-002	3.1639498E-005	-7.5745380E-001	0
1.8159561E+004	6.365219858715136E+001	-7.5927800E-001	-4.181147491413650E-002	3.1746535E-005	-7.5945383E-001	0
1.8195934E+004	6.385219858209894E+001	-7.6131862E-001	-4.184004039368472E-002	3.1853600E-005	-7.6145387E-001	0
1.8203877E+004	6.405219857704651E+001	-7.6325858E-001	-4.192835501027714E-002	3.2002175E-005	-7.6345384E-001	0
1.8265674E+004	6.425219857199409E+001	-7.6530981E-001	-4.189879888042491E-002	3.2065564E-005	-7.6545382E-001	0
1.8283861E+004	6.445219856694166E+001	-7.6720059E-001	-4.196053340132461E-002	3.2192147E-005	-7.6745391E-001	0
1.8320137E+004	6.465219856188924E+001	-7.6934659E-001	-4.199458684697288E-002	3.2308391E-005	-7.6945382E-001	0
1.8342498E+004	6.485219855683681E+001	-7.7132988E-001	-4.205151740778368E-002	3.2435593E-005	-7.7145380E-001	0
1.8323691E+004	6.505219855178439E+001	-7.7325827E-001	-4.219991645285776E-002	3.2631433E-005	-7.7345389E-001	0
1.8368508E+004	6.525219854673196E+001	-7.7535307E-001	-4.221099905396203E-002	3.2728429E-005	-7.7545387E-001	0
1.8419750E+004	6.545219854167954E+001	-7.7727425E-001	-4.219787096622651E-002	3.2799318E-005	-7.7745372E-001	0
1.8436916E+004	6.565219853662711E+001	-7.7929091E-001	-4.226796660343138E-002	3.2939042E-005	-7.7945381E-001	0
1.8471051E+004	6.585219853157469E+001	-7.8130263E-001	-4.229876474274608E-002	3.3048138E-005	-7.8145391E-001	0
1.8571465E+004	6.605219852652226E+001	-7.8325003E-001	-4.217492001312789E-002	3.3033506E-005	-7.8345394E-001	0
1.8519195E+004	6.625219852146984E+001	-7.8527606E-001	-4.240335637567327E-002	3.3298340E-005	-7.8545386E-001	0
1.8505188E+004	6.645219851641741E+001	-7.8727376E-001	-4.254340714655702E-002	3.3493307E-005	-7.8745389E-001	0
1.8537514E+004	6.665219851136499E+001	-7.8921235E-001	-4.257379523652682E-002	3.3599765E-005	-7.8945392E-001	0
1.8586018E+004	6.685219850631256E+001	-7.9127240E-001	-4.257353022932173E-002	3.3687258E-005	-7.9145378E-001	0
1.8624479E+004	6.705219850126014E+001	-7.9324806E-001	-4.259169172171451E-002	3.3785778E-005	-7.9345387E-001	0
1.8643322E+004	6.725219849620771E+001	-7.9535210E-001	-4.266149857447882E-002	3.3930912E-005	-7.9545397E-001	0
1.8669193E+004	6.745219849115529E+001	-7.9730290E-001	-4.270687594517741E-002	3.4050317E-005	-7.9745382E-001	0
1.8706373E+004	6.765219848610286E+001	-7.9927987E-001	-4.272767584459425E-002	3.4151370E-005	-7.9945391E-001	0
1.8666313E+004	6.785219848105044E+001	-8.0133212E-001	-4.292932102486258E-002	3.4400644E-005	-8.0145389E-001	0
1.8723563E+004	6.805219847599801E+001	-8.0326825E-001	-4.290146261264605E-002	3.4461384E-005	-8.0345386E-001	0
1.8723314E+004	6.825219847094559E+001	-8.0526543E-001	-4.300870247688904E-002	3.4633420E-005	-8.0545384E-001	0
1.8754076E+004	6.845219846589316E+001	-8.0731595E-001	-4.304749274371888E-002	3.4752928E-005	-8.0745387E-001	0
1.8721516E+004	6.865219846084074E+001	-8.0928493E-001	-4.322753029916632E-002	3.4983390E-005	-8.0945390E-001	0
1.8804051E+004	6.885219845578831E+001	-8.1131715E-001	-4.314587146699500E-002	3.5004985E-005	-8.1145388E-001	0
1.8802482E+004	6.905219845073589E+001	-8.1334198E-001	-4.325715751601517E-002	3.5182860E-005	-8.1345379E-001	0
1.8801535E+004	6.925219844568346E+001	-8.1522238E-001	-4.335935166804661E-002	3.5347515E-005	-8.1545395E-001	0
1.8841207E+004	6.945219844063104E+001	-8.1729746E-001	-4.337818955299355E-002	3.5452886E-005	-8.1745392E-001	0
1.8740984E+004	6.965219843557861E+001	-8.1925029E-001	-4.371436671807930E-002	3.5813009E-005	-8.1945384E-001	0
1.8795703E+004	6.985219843052619E+001	-8.2125694E-001	-4.369386524313645E-002	3.5883892E-005	-8.2145387E-001	0
1.8771332E+004	7.005219842547376E+001	-8.2326788E-001	-4.385772094662688E-002	3.6106652E-005	-8.2345390E-001	0
1.8809582E+004	7.025219842042134E+001	-8.2527852E-001	-4.387543104850855E-002	3.6209451E-005	-8.2545388E-001	0
1.8748264E+004	7.045219841536891E+001	-8.2728714E-001	-4.412606656007545E-002	3.6504927E-005	-8.2745385E-001	0
1.8821197E+004	7.065219841031649E+001	-8.2927012E-001	-4.406043341781429E-002	3.6538000E-005	-8.2945395E-001	0
1.8746896E+004	7.085219840526406E+001	-8.3131564E-001	-4.434417185580548E-002	3.6864003E-005	-8.3145380E-001	0
1.8767725E+004	7.105219840021164E+001	-8.3329940E-001	-4.440066354722017E-002	3.6999045E-005	-8.3345389E-001	0
1.8712598E+004	7.125219839515921E+001	-8.3526421E-001	-4.463646322981896E-002	3.7283240E-005	-8.3545387E-001	0
1.8657664E+004	7.145219839010679E+001	-8.3729815E-001	-4.487690122617538E-002	3.7575348E-005	-8.3745384E-001	0
1.8573504E+004	7.165219838505436E+001	-8.3925945E-001	-4.518584385825752E-002	3.7922648E-005	-8.3945394E-001	0
1.8469621E+004	7.185219838000194E+001	-8.4131402E-001	-4.555123163384023E-002	3.8322891E-005	-8.4145385E-001	0
1.8428766E+004	7.205219837494951E+001	-8.4330201E-001	-4.576009267792225E-002	3.8589576E-005	-8.4345400E-001	0
1.8360119E+004	7.225219836989709E+001	-8.4528834E-001	-4.603937067473707E-002	3.8916543E-005	-8.4545386E-001	0
1.8167750E+004	7.245219836484466E+001	-8.4731644E-001	-4.663849029032163E-002	3.9517559E-005	-8.4745377E-001	0
1.8085303E+004	7.265219835979224E+001	-8.4929496E-001	-4.696050777006078E-002	3.9883322E-005	-8.4945393E-001	0
1.7842279E+004	7.285219835473981E+001	-8.5126615E-001	-4.771061450118375E-002	4.0614432E-005	-8.5145390E-001	0
1.7566883E+004	7.305219834968739E+001	-8.5334957E-001	-4.857717467526849E-002	4.1453310E-005	-8.5345387E-001	0
1.7363795E+004	7.325219834463496E+001	-8.5524893E-001	-4.925472525744579E-002	4.2125052E-005	-8.5545391E-001	0
1.6985385E+004	7.345219833958254E+001	-8.5729814E-001	-5.047269599341159E-002	4.3270149E-005	-8.5745388E-001	0
1.6733836E+004	7.365219833453011E+001	-8.5934234E-001	-5.135357932952112E-002	4.4130305E-005	-8.5945386E-001	0
1.6352219E+004	7.385219832947769E+001	-8.6122578E-001	-5.266721397448260E-002	4.5358363E-005	-8.6145383E-001	0
1.5902897E+004	7.405219832442526E+001	-8.6334139E-001	-5.428830853477556E-002	4.6869343E-005	-8.6345392E-001	0
1.5610457E+004	7.425219831937284E+001	-8.6526918E-001	-5.542881745800701E-002	4.7960846E-005	-8.6545390E-001	0
1.5242015E+004	7.445219831432041E+001	-8.6728978E-001	-5.690125607655250E-002	4.9349877E-005	-8.6745387E-001	0
1.4928176E+004	7.465219830926799E+001	-8.6933970E-001	-5.823482510046674E-002	5.0625844E-005	-8.6945385E-001	0
1.4711254E+004	7.485219830421556E+001	-8.7130201E-001	-5.922690268116027E-002	5.1604518E-005	-8.7145382E-001	0
1.4492914E+004	7.505219829916314E+001	-8.7332237E-001	-6.025857752444574E-002	5.2625164E-005	-8.7345392E-001	0
1.4347059E+004	7.525219829411071E+001	-8.7530720E-001	-6.100952122180958E-002	5.3402073E-005	-8.7545383E-001	0
1.4240381E+004	7.545219828905829E+001	-8.7721455E-001	-6.160049614456420E-002	5.4036853E-005	-8.7745398E-001	0
1.3974012E+004	7.565219828400586E+001	-8.7931538E-001	-6.292504800722214E-002	5.5330962E-005	-8.7945396E-001	0
1.3730244E+004	7.585219827895344E+001	-8.8135964E-001	-6.419111182279647E-002	5.6575456E-005	-8.8145375E-001	0
1.3426961E+004	7.605219827390101E+001	-8.8323742E-001	-6.578088762363277E-002	5.8100140E-005	-8.8345391E-001	0
1.3030131E+004	7.625219826884859E+001	-8.8534039E-001	-6.794562352221478E-002	6.0155005E-005	-8.8545388E-001	0
1.2590160E+004	7.645219826379616E+001	-8.8717514E-001	-7.046575637591235E-002	6.2515464E-005	-8.8745385E-001	0
1.2096533E+004	7.665219825874374E+001	-8.8918811E-001	-7.350768050064871E-002	6.5362154E-005	-8.8945389E-001	0
1.1030833E+004	7.686219825343869E+001	-8.9134115E-001	-8.080451624407825E-002	7.2024392E-005	-8.9155388E-001	0
1.0443964E+004	7.707219824813365E+001	-8.9347869E-001	-8.554976590742247E-002	7.6436896E-005	-8.9365393E-001	0
9.9298623E+003	7.727219824308122E+001	-8.9551616E-001	-9.018414961533106E-002	8.0761361E-005	-8.9565390E-001	0
9.3309619E+003	7.747219823802880E+001	-8.9747930E-001	-9.618292990628463E-002	8.6322187E-005	-8.9765400E-001	0
8.7396416E+003	7.767219823297637E+001	-8.9944136E-001	-1.029151261809482E-001	9.2566122E-005	-8.9965385E-001	0
8.1254346E+003	7.787219822792395E+001	-9.0147394E-001	-1.109447062655424E-001	1.0001376E-004	-9.0165383E-001	0
7.5226118E+003	7.807219822287152E+001	-9.0350872E-001	-1.201057190280357E-001	1.0851656E-004	-9.0365392E-001	0
6.9207334E+003	7.827219821781910E+001	-9.0545392E-001	-1.308320719366489E-001	1.1846241E-004	-9.0565389E-001	0
6.1833975E+003	7.847219821276667E+001	-9.0747821E-001	-1.467604482801980E-001	1.3318191E-004	-9.0765387E-001	0
5.6869844E+003	7.867219820771425E+001	-9.0947664E-001	-1.599224796032958E-001	1.4544575E-004	-9.0965390E-001	0
5.1648413E+003	7.887219820266182E+001	-9.1145170E-001	-1.764723567710251E-001	1.6084603E-004	-9.1165394E-001	0
4.6718755E+003	7.907219819760940E+001	-9.1347647E-001	-1.955267090398962E-001	1.7860904E-004	-9.1365391E-001	0
4.2062676E+003	7.927219819255697E+001	-9.1548103E-001	-2.176468728232672E-001	1.9925159E-004	-9.1565382E-001	0
3.7707300E+003	7.947219818750455E+001	-9.1749269E-001	-2.433196399403146E-001	2.2324399E-004	-9.1765392E-001	0
3.3725779E+003	7.967219818245212E+001	-9.1947269E-001	-2.726320118713037E-001	2.5067769E-004	-9.1965389E-001	0
2.9314141E+003	7.987219817739970E+001	-9.2146629E-001	-3.143419118644575E-001	2.8965547E-004	-9.2165387E-001	0
2.6361270E+003	8.007219817234727E+001	-9.2350584E-001	-3.503267663402179E-001	3.2352880E-004	-9.2365396E-001	0
2.3536992E+003	8.027219816729485E+001	-9.2548162E-001	-3.932030255063657E-001	3.6390216E-004	-9.2565382E-001	0
2.0815540E+003	8.047219816224242E+001	-9.2747706E-001	-4.455695292973694E-001	4.1325550E-004	-9.2765391E-001	0
1.8205177E+003	8.067219815719000E+001	-9.2946297E-001	-5.105487209049961E-001	4.7453612E-004	-9.2965388E-001	0
1.6313286E+003	8.087219815213757E+001	-9.3150693E-001	-5.710111939582685E-001	5.3190091E-004	-9.3165398E-001	0
1.4161429E+003	8.107219814708515E+001	-9.3345004E-001	-6.591495666610676E-001	6.1528321E-004	-9.3365395E-001	0
1.2715710E+003	8.127219814203272E+001	-9.3547660E-001	-7.356857073930461E-001	6.8821677E-004	-9.3565387E-001	0
1.1145961E+003	8.147219813698030E+001	-9.3745607E-001	-8.410725118655735E-001	7.8846852E-004	-9.3765390E-001	0
9.8771649E+002	8.167219813192787E+001	-9.3953741E-001	-9.512217401393794E-001	8.9370843E-004	-9.3965399E-001	0
8.7361761E+002	8.188219812662282E+001	-9.4156265E-001	-1.077774315106598E+000	1.0147920E-003	-9.4175398E-001	0
7.7573755E+002	8.209219812131778E+001	-9.4363433E-001	-1.216435050672077E+000	1.1478699E-003	-9.4385397E-001	0
6.8747565E+002	8.229219811626535E+001	-9.4567668E-001	-1.375578413491487E+000	1.3008524E-003	-9.4585383E-001	0
6.1270184E+002	8.249219811121293E+001	-9.4766593E-001	-1.546699916441291E+000	1.4657548E-003	-9.4785392E-001	0
5.4864899E+002	8.269219810616050E+001	-9.4963872E-001	-1.730867509128291E+000	1.6436988E-003	-9.4985390E-001	0
4.9274277E+002	8.289219810110808E+001	-9.5167369E-001	-1.931380282318782E+000	1.8380438E-003	-9.5185387E-001	0
4.4142468E+002	8.309219809605565E+001	-9.5372331E-001	-2.160557262903583E+000	2.0605738E-003	-9.5385396E-001	0
3.9910004E+002	8.329219809100323E+001	-9.5569682E-001	-2.394629763789865E+000	2.2885401E-003	-9.5585388E-001	0
3.5986383E+002	8.349219808595080E+001	-9.5766991E-001	-2.661200757892351E+000	2.5485519E-003	-9.5785391E-001	0
3.2590656E+002	8.369219808089838E+001	-9.5966202E-001	-2.944592555972193E+000	2.8258136E-003	-9.5985389E-001	0
2.9733096E+002	8.389219807584595E+001	-9.6168005E-001	-3.234375726456941E+000	3.1104346E-003	-9.6185386E-001	0
2.7139615E+002	8.409219807079353E+001	-9.6366936E-001	-3.550784882267841E+000	3.4217825E-003	-9.6385390E-001	0
2.4820416E+002	8.429219806574110E+001	-9.6567589E-001	-3.890651548125021E+000	3.7571085E-003	-9.6585393E-001	0
2.2785204E+002	8.449219806068868E+001	-9.6766776E-001	-4.246913078792261E+000	4.1096010E-003	-9.6785390E-001	0
2.0964397E+002	8.469219805563625E+001	-9.6968096E-001	-4.625370172754174E+000	4.4851336E-003	-9.6985382E-001	0
1.9369888E+002	8.489219805058383E+001	-9.7164869E-001	-5.016284390033789E+000	4.8740660E-003	-9.7185391E-001	0
1.7939226E+002	8.509219804553140E+001	-9.7367877E-001	-5.427652241320033E+000	5.2847899E-003	-9.7385389E-001	0
1.6636266E+002	8.529219804047898E+001	-9.7569734E-001	-5.864882173722009E+000	5.7223500E-003	-9.7585386E-001	0
1.5487834E+002	8.549219803542655E+001	-9.7767162E-001	-6.312513340864307E+000	6.1715650E-003	-9.7785395E-001	0
1.4458575E+002	8.569219803037413E+001	-9.7968221E-001	-6.775786252721915E+000	6.6381171E-003	-9.7985381E-001	0
1.3535501E+002	8.589219802532170E+001	-9.8167896E-001	-7.252623677659201E+000	7.1197483E-003	-9.8185390E-001	0
1.2686883E+002	8.609219802026928E+001	-9.8365504E-001	-7.753323449434326E+000	7.6265954E-003	-9.8385388E-001	0
1.1941517E+002	8.629219801521685E+001	-9.8564410E-001	-8.253927307604677E+000	8.1354352E-003	-9.8585397E-001	0
1.1236445E+002	8.649219801016443E+001	-9.8769075E-001	-8.790064605050063E+000	8.6818654E-003	-9.8785394E-001	0
1.0614204E+002	8.669219800511200E+001	-9.8972785E-001	-9.324560377941111E+000	9.2287771E-003	-9.8985386E-001	0
1.0032967E+002	8.689219800005958E+001	-9.9168897E-001	-9.884304677345312E+000	9.8021561E-003	-9.9185389E-001	0
9.5123283E+001	8.709219799500715E+001	-9.9366313E-001	-1.044605617289366E+001	1.0379861E-002	-9.9385381E-001	0
8.9822517E+001	8.730219798970211E+001	-9.9583030E-001	-1.108664423117830E+001	1.1040417E-002	-9.9595386E-001	0
8.5134544E+001	8.751219798439706E+001	-9.9777323E-001	-1.171995733870943E+001	1.1693859E-002	-9.9805385E-001	0
8.1129555E+001	8.771219797934464E+001	-9.9986577E-001	-1.232430981961238E+001	1.2322656E-002	-1.0000539E+000	0
7.7452866E+001	8.791219797429221E+001	-1.0018532E+000	-1.293500580376787E+001	1.2958977E-002	-1.0020539E+000	0
7.4036659E+001	8.811219796923979E+001	-1.0038947E+000	-1.355942760654588E+001	1.3612238E-002	-1.0040538E+000	0
7.0807129E+001	8.831219796418736E+001	-1.0058513E+000	-1.420550825806703E+001	1.4288628E-002	-1.0060539E+000	0
6.7831299E+001	8.851219795913494E+001	-1.0078443E+000	-1.485810114331804E+001	1.4974653E-002	-1.0080539E+000	0
6.5058624E+001	8.871219795408251E+001	-1.0099577E+000	-1.552380875084137E+001	1.5678389E-002	-1.0100539E+000	0
6.2517849E+001	8.891219794903009E+001	-1.0119047E+000	-1.618585339114236E+001	1.6378541E-002	-1.0120538E+000	0
6.0128670E+001	8.911219794397766E+001	-1.0138738E+000	-1.686173675444127E+001	1.7095674E-002	-1.0140538E+000	0
5.7896267E+001	8.931219793892524E+001	-1.0158753E+000	-1.754647448152102E+001	1.7825030E-002	-1.0160538E+000	0
5.5785816E+001	8.951219793387281E+001	-1.0179173E+000	-1.824688378929281E+001	1.8573819E-002	-1.0180539E+000	0
5.3785160E+001	8.971219792882039E+001	-1.0198241E+000	-1.896106965566167E+001	1.9336957E-002	-1.0200540E+000	0
5.1892262E+001	8.991219792376796E+001	-1.0219396E+000	-1.969348768663514E+001	2.0125555E-002	-1.0220538E+000	0
5.0133949E+001	9.011219791871554E+001	-1.0239223E+000	-2.042373131664971E+001	2.0912314E-002	-1.0240538E+000	0
4.8422916E+001	9.031219791366311E+001	-1.0259089E+000	-2.118643515423588E+001	2.1735353E-002	-1.0260539E+000	0
4.6863010E+001	9.051219790861069E+001	-1.0278774E+000	-2.193366216464378E+001	2.2545116E-002	-1.0280539E+000	0
4.5329155E+001	9.071219790355826E+001	-1.0298911E+000	-2.272028060416244E+001	2.3399416E-002	-1.0300539E+000	0
4.3910599E+001	9.091219789850584E+001	-1.0319446E+000	-2.350103753372661E+001	2.4251770E-002	-1.0320538E+000	0
4.2553104E+001	9.111219789345341E+001	-1.0338899E+000	-2.429646148527556E+001	2.5119865E-002	-1.0340538E+000	0
4.1285519E+001	9.131219788840099E+001	-1.0358788E+000	-2.509060853070956E+001	2.5990829E-002	-1.0360539E+000	0
4.0052109E+001	9.151219788334856E+001	-1.0379256E+000	-2.591438030601910E+001	2.6897199E-002	-1.0380539E+000	0
3.8875530E+001	9.171219787829614E+001	-1.0399232E+000	-2.675007008479025E+001	2.7818019E-002	-1.0400538E+000	0
3.7784103E+001	9.191219787324371E+001	-1.0418999E+000	-2.757508558237640E+001	2.8730480E-002	-1.0420538E+000	0
3.6719574E+001	9.211219786819129E+001	-1.0439041E+000	-2.842908959675276E+001	2.9677242E-002	-1.0440539E+000	0
3.5680626E+001	9.231219786313886E+001	-1.0458838E+000	-2.931237337405457E+001	3.0657336E-002	-1.0460539E+000	0
3.4705418E+001	9.251219785808644E+001	-1.0479072E+000	-3.019434057693098E+001	3.1640869E-002	-1.0480540E+000	0
3.3801163E+001	9.271219785303401E+001	-1.0498056E+000	-3.105827056983173E+001	3.2605149E-002	-1.0500540E+000	0
3.2922050E+001	9.291219784798159E+001	-1.0518562E+000	-3.194989946315610E+001	3.3606697E-002	-1.0520539E+000	0
3.2091766E+001	9.311219784292916E+001	-1.0538992E+000	-3.284017204940993E+001	3.4610230E-002	-1.0540539E+000	0
3.1281355E+001	9.331219783787674E+001	-1.0558486E+000	-3.375328952871484E+001	3.5638362E-002	-1.0560539E+000	0
3.0461729E+001	9.351219783282431E+001	-1.0578816E+000	-3.472821828567508E+001	3.6738344E-002	-1.0580540E+000	0
2.9681324E+001	9.371219782777189E+001	-1.0598956E+000	-3.570917542369992E+001	3.7847999E-002	-1.0600539E+000	0
2.8987314E+001	9.391219782271946E+001	-1.0618629E+000	-3.663198774823246E+001	3.8898151E-002	-1.0620539E+000	0
2.8314447E+001	9.411219781766704E+001	-1.0638901E+000	-3.757410681653164E+001	3.9974719E-002	-1.0640539E+000	0
2.7594942E+001	9.431219781261461E+001	-1.0658995E+000	-3.862662512834381E+001	4.1172098E-002	-1.0660539E+000	0
2.7019989E+001	9.451219780756219E+001	-1.0678933E+000	-3.952234177254229E+001	4.2205643E-002	-1.0680540E+000	0
2.6407288E+001	9.471219780250976E+001	-1.0699072E+000	-4.051560259433018E+001	4.3347936E-002	-1.0700539E+000	0
2.5836798E+001	9.491219779745734E+001	-1.0718948E+000	-4.148713754634480E+001	4.4469845E-002	-1.0720539E+000	0
2.5314590E+001	9.511219779240491E+001	-1.0739037E+000	-4.242232083517422E+001	4.5557488E-002	-1.0740539E+000	0
2.4796957E+001	9.531219778735249E+001	-1.0758978E+000	-4.338829858259834E+001	4.6681374E-002	-1.0760540E+000	0
2.4198423E+001	9.551219778230006E+001	-1.0778370E+000	-4.454162016098746E+001	4.8008606E-002	-1.0780540E+000	0
2.3732977E+001	9.571219777724764E+001	-1.0798736E+000	-4.550097363254645E+001	4.9135298E-002	-1.0800539E+000	0
2.3175619E+001	9.591219777219521E+001	-1.0819306E+000	-4.668400056129690E+001	5.0508849E-002	-1.0820539E+000	0
2.2666409E+001	9.611219776714279E+001	-1.0839440E+000	-4.782160002601404E+001	5.1835936E-002	-1.0840538E+000	0
2.2232380E+001	9.631219776209036E+001	-1.0859141E+000	-4.884380942272207E+001	5.3040184E-002	-1.0860540E+000	0
2.1797255E+001	9.651219775703794E+001	-1.0878986E+000	-4.990989284369412E+001	5.4296903E-002	-1.0880539E+000	0
2.1302111E+001	9.671219775198551E+001	-1.0899491E+000	-5.116625082898315E+001	5.5768609E-002	-1.0900539E+000	0
2.0770987E+001	9.691219774693309E+001	-1.0919150E+000	-5.256924370519147E+001	5.7401147E-002	-1.0920539E+000	0
2.0342358E+001	9.711219774188066E+001	-1.0938773E+000	-5.377338082017275E+001	5.8821481E-002	-1.0940539E+000	0
1.9940580E+001	9.731219773682824E+001	-1.0959187E+000	-5.495921513228723E+001	6.0230829E-002	-1.0960540E+000	0
1.9512917E+001	9.751219773177581E+001	-1.0979228E+000	-5.626646162376915E+001	6.1776232E-002	-1.0980539E+000	0
1.9162754E+001	9.771219772672339E+001	-1.0998950E+000	-5.739754478298875E+001	6.3131273E-002	-1.1000538E+000	0
1.8821114E+001	9.791219772167096E+001	-1.1019262E+000	-5.854734536741853E+001	6.4514853E-002	-1.1020539E+000	0
1.8536390E+001	9.811219771661854E+001	-1.1039004E+000	-5.955314829830672E+001	6.5740749E-002	-1.1040539E+000	0
1.8185652E+001	9.831219771156611E+001	-1.1058744E+000	-6.081027431607004E+001	6.7248523E-002	-1.1060538E+000	0
1.7866274E+001	9.851219770651369E+001	-1.1079078E+000	-6.201112558349746E+001	6.8702608E-002	-1.1080539E+000	0
1.7517088E+001	9.871219770146126E+001	-1.1099151E+000	-6.336184911068335E+001	7.0326276E-002	-1.1100539E+000	0
1.7269831E+001	9.891219769640884E+001	-1.1119143E+000	-6.438478246783995E+001	7.1590357E-002	-1.1120539E+000	0
1.7017351E+001	9.911219769135641E+001	-1.1139029E+000	-6.545689252714976E+001	7.2912626E-002	-1.1140540E+000	0
1.6684879E+001	9.931219768630399E+001	-1.1159247E+000	-6.688239465008519E+001	7.4635714E-002	-1.1160539E+000	0
1.6365734E+001	9.951219768125156E+001	-1.1178988E+000	-6.830728109623541E+001	7.6360628E-002	-1.1180539E+000	0
1.6148651E+001	9.971219767619914E+001	-1.1198896E+000	-6.934879907891309E+001	7.7662997E-002	-1.1200539E+000	0
1.5850998E+001	9.991219767114671E+001	-1.1219575E+000	-7.078150992220486E+001	7.9413846E-002	-1.1220539E+000	0
1.5464025E+001	1.001121976660943E+002	-1.1239305E+000	-7.268033419823144E+001	8.1687644E-002	-1.1240538E+000	0
1.5111347E+001	1.003121976610419E+002	-1.1259087E+000	-7.450750083771970E+001	8.3888642E-002	-1.1260539E+000	0
1.4854845E+001	1.005121976559894E+002	-1.1278999E+000	-7.592808027278261E+001	8.5639276E-002	-1.1280539E+000	0
1.4595282E+001	1.007121976509370E+002	-1.1299683E+000	-7.742010679320663E+001	8.7482266E-002	-1.1300539E+000	0
1.4367064E+001	1.009121976458846E+002	-1.1319995E+000	-7.879128823583073E+001	8.9191698E-002	-1.1320540E+000	0
1.4122020E+001	1.011121976408322E+002	-1.1339720E+000	-8.029815101785744E+001	9.1055855E-002	-1.1340538E+000	0
1.3897593E+001	1.013121976357797E+002	-1.1359118E+000	-8.173442717636522E+001	9.2843100E-002	-1.1360539E+000	0
1.3655765E+001	1.015121976307273E+002	-1.1379656E+000	-8.333224700583878E+001	9.4829224E-002	-1.1380539E+000	0
1.3429790E+001	1.017121976256749E+002	-1.1399963E+000	-8.488564215657948E+001	9.6769318E-002	-1.1400539E+000	0
1.3168671E+001	1.019121976206225E+002	-1.1419595E+000	-8.671790875761394E+001	9.9028341E-002	-1.1420538E+000	0
1.2972698E+001	1.021121976155700E+002	-1.1439881E+000	-8.818428717611073E+001	1.0088178E-001	-1.1440539E+000	0
1.2661666E+001	1.023121976105176E+002	-1.1459635E+000	-9.050653562253910E+001	1.0371719E-001	-1.1460539E+000	0
1.2498298E+001	1.025121976054652E+002	-1.1479729E+000	-9.185034302248710E+001	1.0544171E-001	-1.1480540E+000	0
1.2341057E+001	1.027121976004128E+002	-1.1499467E+000	-9.318057091219885E+001	1.0715269E-001	-1.1500540E+000	0
1.2213307E+001	1.029121975953603E+002	-1.1519649E+000	-9.432046756614636E+001	1.0865387E-001	-1.1520538E+000	0
1.2097009E+001	1.031121975903079E+002	-1.1539820E+000	-9.539400217051980E+001	1.1008297E-001	-1.1540539E+000	0
1.1931820E+001	1.033121975852555E+002	-1.1559459E+000	-9.687926081951491E+001	1.1198718E-001	-1.1560539E+000	0
1.1786237E+001	1.035121975802031E+002	-1.1579765E+000	-9.824819672026661E+001	1.1376911E-001	-1.1580540E+000	0
1.1646989E+001	1.037121975751506E+002	-1.1599919E+000	-9.959586088132983E+001	1.1553039E-001	-1.1600540E+000	0
1.1490867E+001	1.039121975700982E+002	-1.1619791E+000	-1.011219720051132E+002	1.1750162E-001	-1.1620538E+000	0
1.1206776E+001	1.041121975650458E+002	-1.1639570E+000	-1.038618955601369E+002	1.2089078E-001	-1.1640539E+000	0
1.1040091E+001	1.043121975599934E+002	-1.1659297E+000	-1.056087078377773E+002	1.2313233E-001	-1.1660539E+000	0
1.0962682E+001	1.045121975549409E+002	-1.1679798E+000	-1.065414378680880E+002	1.2443825E-001	-1.1680539E+000	0
1.0775641E+001	1.047121975498885E+002	-1.1700156E+000	-1.085796691673954E+002	1.2703991E-001	-1.1700540E+000	0
1.0522576E+001	1.049221975445835E+002	-1.1720502E+000	-1.113843422052807E+002	1.3054805E-001	-1.1721539E+000	0
1.0189254E+001	1.051321975392784E+002	-1.1741725E+000	-1.152363624778191E+002	1.3530737E-001	-1.1742538E+000	0
1.0054289E+001	1.053321975342260E+002	-1.1762098E+000	-1.169858762250191E+002	1.3759993E-001	-1.1762539E+000	0
9.9626474E+000	1.055321975291736E+002	-1.1781671E+000	-1.182584355715458E+002	1.3932820E-001	-1.1782540E+000	0
9.8424006E+000	1.057321975241211E+002	-1.1801403E+000	-1.199036995321173E+002	1.4150319E-001	-1.1802539E+000	0
9.6938725E+000	1.059321975190687E+002	-1.1821290E+000	-1.219460096597131E+002	1.4415592E-001	-1.1822538E+000	0
9.4352303E+000	1.061321975140163E+002	-1.1841851E+000	-1.255067561197161E+002	1.4862324E-001	-1.1842539E+000	0
9.3570833E+000	1.063321975089639E+002	-1.1861197E+000	-1.267616848794246E+002	1.5035453E-001	-1.1862539E+000	0
9.2194166E+000	1.065321975039114E+002	-1.1881267E+000	-1.288722254802849E+002	1.5311652E-001	-1.1882539E+000	0
9.0818481E+000	1.067321974988590E+002	-1.1901579E+000	-1.310479888916016E+002	1.5596780E-001	-1.1902539E+000	0
9.0002918E+000	1.069321974938066E+002	-1.1922204E+000	-1.324646419830067E+002	1.5792705E-001	-1.1922538E+000	0
8.9433384E+000	1.071321974887542E+002	-1.1941835E+000	-1.335277140037811E+002	1.5945660E-001	-1.1942538E+000	0
8.8896961E+000	1.073321974837017E+002	-1.1961495E+000	-1.345546001036428E+002	1.6094741E-001	-1.1962539E+000	0
8.7283554E+000	1.075321974786493E+002	-1.1981462E+000	-1.372705567818375E+002	1.6447020E-001	-1.1982540E+000	0
8.5870047E+000	1.077321974735969E+002	-1.2001224E+000	-1.397603040520025E+002	1.6772947E-001	-1.2002538E+000	0
8.5140886E+000	1.079321974685445E+002	-1.2022072E+000	-1.412021067558771E+002	1.6975419E-001	-1.2022538E+000	0
8.4434166E+000	1.081321974634920E+002	-1.2041599E+000	-1.426152363396559E+002	1.7173155E-001	-1.2042539E+000	0
8.2894907E+000	1.083321974584396E+002	-1.2060994E+000	-1.454974024030887E+002	1.7548433E-001	-1.2062540E+000	0
8.1793938E+000	1.085321974533872E+002	-1.2081108E+000	-1.477017532238347E+002	1.7844008E-001	-1.2082539E+000	0
8.0500765E+000	1.087321974483348E+002	-1.2101539E+000	-1.503282494674738E+002	1.8192032E-001	-1.2102538E+000	0
7.9586377E+000	1.089321974432823E+002	-1.2121501E+000	-1.523062299179110E+002	1.8461801E-001	-1.2122539E+000	0
7.8781514E+000	1.091321974382299E+002	-1.2141875E+000	-1.541208626245416E+002	1.8713163E-001	-1.2142539E+000	0
7.7716036E+000	1.093321974331775E+002	-1.2161530E+000	-1.564867578396183E+002	1.9031185E-001	-1.2162539E+000	0
7.6713991E+000	1.095321974281251E+002	-1.2181492E+000	-1.587910110361181E+002	1.9343114E-001	-1.2182539E+000	0
7.5579128E+000	1.097321974230726E+002	-1.2201128E+000	-1.614351481201966E+002	1.9696909E-001	-1.2202539E+000	0
7.4470887E+000	1.099321974180202E+002	-1.2221268E+000	-1.641079977007407E+002	2.0056079E-001	-1.2222539E+000	0
7.3806639E+000	1.101321974129678E+002	-1.2241542E+000	-1.658596337171370E+002	2.0303777E-001	-1.2242539E+000	0
7.2601509E+000	1.103321974079154E+002	-1.2261515E+000	-1.688878793002794E+002	2.0708212E-001	-1.2262540E+000	0
7.0824847E+000	1.105321974028629E+002	-1.2281582E+000	-1.734078230414535E+002	2.1297224E-001	-1.2282540E+000	0
6.9530711E+000	1.107321973978105E+002	-1.2301561E+000	-1.769226952950694E+002	2.1764253E-001	-1.2302539E+000	0
6.8693633E+000	1.109321973927581E+002	-1.2321675E+000	-1.793714227341197E+002	2.2101563E-001	-1.2322539E+000	0
6.7702999E+000	1.111321973877057E+002	-1.2341567E+000	-1.822898151469062E+002	2.2497420E-001	-1.2342539E+000	0
6.7063766E+000	1.113321973826532E+002	-1.2361337E+000	-1.843221411899644E+002	2.2784682E-001	-1.2362540E+000	0
6.6525664E+000	1.115321973776008E+002	-1.2381647E+000	-1.861183421054939E+002	2.3044516E-001	-1.2382540E+000	0
6.5899343E+000	1.117321973725484E+002	-1.2401586E+000	-1.881898138852885E+002	2.3338521E-001	-1.2402538E+000	0
6.5341234E+000	1.119321973674960E+002	-1.2422105E+000	-1.901112747300508E+002	2.3615822E-001	-1.2422539E+000	0
6.4667482E+000	1.121321973624435E+002	-1.2441621E+000	-1.923937695388621E+002	2.3936903E-001	-1.2442539E+000	0
6.3924642E+000	1.123321973573911E+002	-1.2461311E+000	-1.949375198033399E+002	2.4291770E-001	-1.2462540E+000	0
6.3538485E+000	1.125321973523387E+002	-1.2482064E+000	-1.964488695203036E+002	2.4520873E-001	-1.2482539E+000	0
6.3004975E+000	1.127321973472863E+002	-1.2501599E+000	-1.984224022348444E+002	2.4805972E-001	-1.2502539E+000	0
6.2295361E+000	1.129321973422338E+002	-1.2521508E+000	-2.010022535907974E+002	2.5168511E-001	-1.2522539E+000	0
6.1944160E+000	1.131321973371814E+002	-1.2541592E+000	-2.024660951091049E+002	2.5392473E-001	-1.2542540E+000	0
6.1405158E+000	1.133321973321290E+002	-1.2561519E+000	-2.045678168489276E+002	2.5696826E-001	-1.2562540E+000	0
5.9775181E+000	1.135321973270766E+002	-1.2581953E+000	-2.104879123726669E+002	2.6483491E-001	-1.2582539E+000	0
5.9061480E+000	1.137321973220241E+002	-1.2601780E+000	-2.133671496190182E+002	2.6888058E-001	-1.2602539E+000	0
5.8432565E+000	1.139321973169717E+002	-1.2622179E+000	-2.160127431648925E+002	2.7265516E-001	-1.2622539E+000	0
5.8180070E+000	1.141321973119193E+002	-1.2642014E+000	-2.172911487479873E+002	2.7469978E-001	-1.2642539E+000	0
5.7557001E+000	1.143321973068669E+002	-1.2662078E+000	-2.199919698935787E+002	2.7855554E-001	-1.2662541E+000	0
5.7013698E+000	1.145321973018144E+002	-1.2682337E+000	-2.224436802615380E+002	2.8211057E-001	-1.2682538E+000	0
5.6645918E+000	1.147321972967620E+002	-1.2702395E+000	-2.242420171599274E+002	2.8484106E-001	-1.2702539E+000	0
5.6174769E+000	1.149321972917096E+002	-1.2721403E+000	-2.264611462876383E+002	2.8809035E-001	-1.2722539E+000	0
5.5993028E+000	1.151321972866572E+002	-1.2741876E+000	-2.275618173703047E+002	2.8995645E-001	-1.2742540E+000	0
5.5124483E+000	1.153321972816047E+002	-1.2762239E+000	-2.315167182935338E+002	2.9546717E-001	-1.2762541E+000	0
5.4835062E+000	1.155321972765523E+002	-1.2781723E+000	-2.330939693948312E+002	2.9793423E-001	-1.2782539E+000	0
5.4614453E+000	1.157321972714999E+002	-1.2802423E+000	-2.344145615722587E+002	3.0010745E-001	-1.2802539E+000	0
5.4647899E+000	1.159321972664475E+002	-1.2822089E+000	-2.346309719345209E+002	3.0084592E-001	-1.2822539E+000	0
5.4333386E+000	1.161321972613950E+002	-1.2842284E+000	-2.363608387170730E+002	3.0354130E-001	-1.2842538E+000	0
5.3372617E+000	1.163321972563426E+002	-1.2862109E+000	-2.409870370402086E+002	3.0996016E-001	-1.2862539E+000	0
5.3011360E+000	1.165321972512902E+002	-1.2881933E+000	-2.430032695869727E+002	3.1303519E-001	-1.2882539E+000	0
5.2258930E+000	1.167321972462378E+002	-1.2902315E+000	-2.468920522568715E+002	3.1854790E-001	-1.2902539E+000	0
5.1532235E+000	1.169321972411853E+002	-1.2922256E+000	-2.507606451268121E+002	3.2403931E-001	-1.2922539E+000	0
5.0585160E+000	1.171321972361329E+002	-1.2941978E+000	-2.558453436330333E+002	3.3111447E-001	-1.2942539E+000	0
5.0335135E+000	1.173321972310805E+002	-1.2962259E+000	-2.575191095789000E+002	3.3380294E-001	-1.2962539E+000	0
5.0032902E+000	1.175321972260281E+002	-1.2982112E+000	-2.594715027949705E+002	3.3684883E-001	-1.2982539E+000	0
4.9970789E+000	1.177321972209757E+002	-1.3001872E+000	-2.601894467887969E+002	3.3829498E-001	-1.3002539E+000	0
4.9821334E+000	1.179321972159232E+002	-1.3022021E+000	-2.613743902020445E+002	3.4036228E-001	-1.3022538E+000	0
4.9653034E+000	1.181324972108632E+002	-1.3042508E+000	-2.626729417887053E+002	3.4259140E-001	-1.3042562E+000	0
4.9617696E+000	1.183330972057956E+002	-1.3062347E+000	-2.632598574849513E+002	3.4387916E-001	-1.3062623E+000	0
4.9399109E+000	1.185335972007306E+002	-1.3082774E+000	-2.648382621644641E+002	3.4648192E-001	-1.3082674E+000	0
4.9318547E+000	1.187338971956706E+002	-1.3102329E+000	-2.656673601904263E+002	3.4808612E-001	-1.3102705E+000	0
4.9292049E+000	1.189341971906106E+002	-1.3122177E+000	-2.662128561357126E+002	3.4932923E-001	-1.3122736E+000	0
4.9138775E+000	1.191343971855531E+002	-1.3142643E+000	-2.674597248944137E+002	3.5151276E-001	-1.3142759E+000	0
4.8678899E+000	1.193345971804956E+002	-1.3162187E+000	-2.703879434574196E+002	3.5588968E-001	-1.3162774E+000	0
4.8399210E+000	1.195350971754306E+002	-1.3182467E+000	-2.723694844278843E+002	3.5905018E-001	-1.3182825E+000	0
4.8329725E+000	1.197351971703756E+002	-1.3202471E+000	-2.731749599288121E+002	3.6065844E-001	-1.3202839E+000	0
4.8180737E+000	1.199354971653156E+002	-1.3222778E+000	-2.744411707337640E+002	3.6288747E-001	-1.3222864E+000	0
4.7644382E+000	1.201358971602531E+002	-1.3242652E+000	-2.779478233066156E+002	3.6807665E-001	-1.3242908E+000	0
4.7223964E+000	1.203361971551931E+002	-1.3263241E+000	-2.808582847327289E+002	3.7250912E-001	-1.3262935E+000	0
4.6695876E+000	1.205364971501331E+002	-1.3282617E+000	-2.844494723635280E+002	3.7782335E-001	-1.3282968E+000	0
4.6260009E+000	1.207366971450756E+002	-1.3302474E+000	-2.875588398382467E+002	3.8252440E-001	-1.3302985E+000	0
4.6228442E+000	1.209368971400181E+002	-1.3322643E+000	-2.881914728200773E+002	3.8394722E-001	-1.3323007E+000	0
4.6366820E+000	1.211369971349632E+002	-1.3342876E+000	-2.877677617343384E+002	3.8396496E-001	-1.3343019E+000	0
4.6197786E+000	1.213371971299057E+002	-1.3363025E+000	-2.892568156253010E+002	3.8653460E-001	-1.3363034E+000	0
4.5978565E+000	1.215375971248432E+002	-1.3383212E+000	-2.910750145539528E+002	3.8955188E-001	-1.3383075E+000	0
4.5553179E+000	1.217378971197832E+002	-1.3403119E+000	-2.942301612629660E+002	3.9436018E-001	-1.3403107E+000	0
4.5268364E+000	1.219383971147181E+002	-1.3423140E+000	-2.965236411184005E+002	3.9802784E-001	-1.3423154E+000	0
4.5032721E+000	1.221387971096556E+002	-1.3442923E+000	-2.985145467038892E+002	4.0129080E-001	-1.3443193E+000	0
4.4227471E+000	1.223391971045930E+002	-1.3463283E+000	-3.044099491075253E+002	4.0983573E-001	-1.3463234E+000	0
4.4078069E+000	1.225396970995280E+002	-1.3483200E+000	-3.058936363749535E+002	4.1244251E-001	-1.3483282E+000	0
4.3777385E+000	1.227400970944655E+002	-1.3503181E+000	-3.084510756987324E+002	4.1650707E-001	-1.3503327E+000	0
4.2100344E+000	1.229402970894080E+002	-1.3523430E+000	-3.212190007433696E+002	4.3439826E-001	-1.3523344E+000	0
4.2196093E+000	1.231404970843505E+002	-1.3543396E+000	-3.209632645547645E+002	4.3469325E-001	-1.3543367E+000	0
4.2334723E+000	1.233405970792955E+002	-1.3563920E+000	-3.203970286494691E+002	4.3458396E-001	-1.3563375E+000	0
4.2414560E+000	1.235406970742406E+002	-1.3583287E+000	-3.202505577242091E+002	4.3500552E-001	-1.3583386E+000	0
4.2477632E+000	1.237407970691856E+002	-1.3603330E+000	-3.202468826549116E+002	4.3564239E-001	-1.3603399E+000	0
4.2179198E+000	1.239408970641307E+002	-1.3623441E+000	-3.229895638908728E+002	4.4002295E-001	-1.3623408E+000	0
4.1904635E+000	1.241409970590757E+002	-1.3643754E+000	-3.255905690744607E+002	4.4422776E-001	-1.3643420E+000	0
3.9728756E+000	1.243413970540132E+002	-1.3663384E+000	-3.439167268143383E+002	4.6990663E-001	-1.3663453E+000	0
3.9529557E+000	1.245417970489507E+002	-1.3683683E+000	-3.461633098152506E+002	4.7367889E-001	-1.3683499E+000	0
3.9393508E+000	1.247420970438907E+002	-1.3703319E+000	-3.478572927047549E+002	4.7667995E-001	-1.3703521E+000	0
3.9264238E+000	1.249425970388256E+002	-1.3723828E+000	-3.495248702207613E+002	4.7968191E-001	-1.3723574E+000	0
3.8744080E+000	1.251428970337656E+002	-1.3743812E+000	-3.547332153248965E+002	4.8753867E-001	-1.3743606E+000	0
3.8502429E+000	1.253429970287107E+002	-1.3763853E+000	-3.574801380391018E+002	4.9203041E-001	-1.3763620E+000	0
3.8445532E+000	1.255429970236582E+002	-1.3783665E+000	-3.585244952718695E+002	4.9417815E-001	-1.3783619E+000	0
3.8122580E+000	1.257431970186008E+002	-1.3803780E+000	-3.620893563400254E+002	4.9982017E-001	-1.3803633E+000	0
3.7710533E+000	1.259435970135382E+002	-1.3824106E+000	-3.665847598209966E+002	5.0677067E-001	-1.3823673E+000	0
3.7445581E+000	1.261442970084681E+002	-1.3843939E+000	-3.697082337669708E+002	5.1182181E-001	-1.3843740E+000	0
3.7260513E+000	1.263448970034005E+002	-1.3864440E+000	-3.720947102206592E+002	5.1588845E-001	-1.3863801E+000	0
3.7069664E+000	1.265454969983330E+002	-1.3884075E+000	-3.745400810806987E+002	5.2001423E-001	-1.3883865E+000	0
3.6510003E+000	1.267457969932730E+002	-1.3904040E+000	-3.808282289498020E+002	5.2950507E-001	-1.3903894E+000	0
3.5657823E+000	1.269460969882130E+002	-1.3924366E+000	-3.904996212753485E+002	5.4374599E-001	-1.3923928E+000	0
3.5733631E+000	1.271463969831530E+002	-1.3944157E+000	-3.902250467000413E+002	5.4413593E-001	-1.3943956E+000	0
3.5347011E+000	1.273465969780955E+002	-1.3964664E+000	-3.950734100060672E+002	5.5170673E-001	-1.3963978E+000	0
3.4562302E+000	1.275468969730355E+002	-1.3984233E+000	-4.046094232370961E+002	5.6581527E-001	-1.3984001E+000	0
3.4817004E+000	1.277472969679729E+002	-1.4004478E+000	-4.022310108967213E+002	5.6330353E-001	-1.4004047E+000	0
3.4656301E+000	1.279473969629180E+002	-1.4024502E+000	-4.046739374407316E+002	5.6753504E-001	-1.4024060E+000	0
3.4779203E+000	1.281474969578630E+002	-1.4045113E+000	-4.038365369690309E+002	5.6719297E-001	-1.4044068E+000	0
3.4791112E+000	1.283477969528030E+002	-1.4064330E+000	-4.042506694622425E+002	5.6855148E-001	-1.4064099E+000	0
3.4261355E+000	1.285478969477481E+002	-1.4084550E+000	-4.110914558921304E+002	5.7900381E-001	-1.4084108E+000	0
3.2700980E+000	1.287480969426906E+002	-1.4104671E+000	-4.313225947229143E+002	6.0836637E-001	-1.4104128E+000	0
3.2832298E+000	1.289483969376306E+002	-1.4124259E+000	-4.301940435353326E+002	6.0761720E-001	-1.4124157E+000	0
3.2891994E+000	1.291486969325706E+002	-1.4144652E+000	-4.300332725352073E+002	6.0826707E-001	-1.4144185E+000	0
3.2966652E+000	1.293488969275131E+002	-1.4164730E+000	-4.296684416674598E+002	6.0861379E-001	-1.4164207E+000	0
3.2997053E+000	1.295487969224632E+002	-1.4185179E+000	-4.298923066846362E+002	6.0980994E-001	-1.4184200E+000	0
3.2715957E+000	1.297489969174057E+002	-1.4204715E+000	-4.341830938511912E+002	6.1674476E-001	-1.4204215E+000	0
3.2174506E+000	1.299495969123382E+002	-1.4224948E+000	-4.421186037000361E+002	6.2891138E-001	-1.4224274E+000	0
3.2237937E+000	1.301497969072807E+002	-1.4244941E+000	-4.418688936428105E+002	6.2943965E-001	-1.4244299E+000	0
3.2356856E+000	1.303497969022283E+002	-1.4264853E+000	-4.408603048648974E+002	6.2888074E-001	-1.4264299E+000	0
3.2235794E+000	1.305497968971758E+002	-1.4285134E+000	-4.431450921748492E+002	6.3303870E-001	-1.4284300E+000	0
3.2416177E+000	1.307498968921209E+002	-1.4304889E+000	-4.412886158101601E+002	6.3125849E-001	-1.4304308E+000	0
3.2311795E+000	1.309499968870659E+002	-1.4324839E+000	-4.433315931263960E+002	6.3506538E-001	-1.4324318E+000	0
3.2537956E+000	1.311499968820135E+002	-1.4344947E+000	-4.408681158035524E+002	6.3242298E-001	-1.4344318E+000	0
3.2469478E+000	1.313499968769611E+002	-1.4364930E+000	-4.424133543589737E+002	6.3552368E-001	-1.4364316E+000	0
3.2245286E+000	1.315499968719087E+002	-1.4384713E+000	-4.461028262201071E+002	6.4170611E-001	-1.4384317E+000	0
3.2370961E+000	1.317499968668562E+002	-1.4404920E+000	-4.449951296263516E+002	6.4101195E-001	-1.4404316E+000	0
3.1713591E+000	1.319499968618038E+002	-1.4424126E+000	-4.548247658476535E+002	6.5604496E-001	-1.4424317E+000	0
3.1560512E+000	1.321499968567514E+002	-1.4444889E+000	-4.576886728723584E+002	6.6112620E-001	-1.4444318E+000	0
3.1478944E+000	1.323499968516990E+002	-1.4465030E+000	-4.595144797171597E+002	6.6468906E-001	-1.4464316E+000	0
3.1696384E+000	1.325499968466465E+002	-1.4484910E+000	-4.569893621154934E+002	6.6194499E-001	-1.4484317E+000	0
3.1730654E+000	1.327499968415941E+002	-1.4504621E+000	-4.571170028029104E+002	6.6303086E-001	-1.4504316E+000	0
3.1620412E+000	1.329499968365417E+002	-1.4524890E+000	-4.593517039379012E+002	6.6720331E-001	-1.4524317E+000	0
3.1593008E+000	1.331499968314893E+002	-1.4544783E+000	-4.603798081620771E+002	6.6961241E-001	-1.4544318E+000	0
3.1365523E+000	1.333499968264368E+002	-1.4564983E+000	-4.643628113588820E+002	6.7634362E-001	-1.4564316E+000	0
3.1026669E+000	1.335499968213844E+002	-1.4585437E+000	-4.700935332931901E+002	6.8565196E-001	-1.4584316E+000	0
3.1161456E+000	1.337499968163320E+002	-1.4605541E+000	-4.687053477964173E+002	6.8456954E-001	-1.4604317E+000	0
3.0852604E+000	1.339499968112796E+002	-1.4625447E+000	-4.740425263705429E+002	6.9330835E-001	-1.4624317E+000	0
3.0281310E+000	1.341499968062271E+002	-1.4645185E+000	-4.836377680598998E+002	7.0829648E-001	-1.4644318E+000	0
3.0196345E+000	1.343499968011747E+002	-1.4665226E+000	-4.856622880126870E+002	7.1223474E-001	-1.4664317E+000	0
3.0343831E+000	1.345499967961223E+002	-1.4685341E+000	-4.839646276313956E+002	7.1071857E-001	-1.4684316E+000	0
3.0515170E+000	1.347499967910699E+002	-1.4705225E+000	-4.818988533539023E+002	7.0864314E-001	-1.4704317E+000	0
3.0539091E+000	1.349499967860174E+002	-1.4725477E+000	-4.821845224817334E+002	7.1003968E-001	-1.4724317E+000	0
3.0462503E+000	1.351499967809650E+002	-1.4745225E+000	-4.840450855826048E+002	7.1373534E-001	-1.4744318E+000	0
3.0321479E+000	1.353499967759126E+002	-1.4765222E+000	-4.869558583041198E+002	7.1900111E-001	-1.4764317E+000	0
3.0525463E+000	1.355499967708602E+002	-1.4785262E+000	-4.843583488637350E+002	7.1613652E-001	-1.4784317E+000	0
3.0886593E+000	1.357499967658077E+002	-1.4805297E+000	-4.793437793368392E+002	7.0968270E-001	-1.4804317E+000	0
3.0814557E+000	1.359499967607553E+002	-1.4825324E+000	-4.811142901985017E+002	7.1326751E-001	-1.4824318E+000	0
3.0605638E+000	1.361499967557029E+002	-1.4845113E+000	-4.850450315410617E+002	7.2005481E-001	-1.4844317E+000	0
3.0281365E+000	1.363499967506505E+002	-1.4865564E+000	-4.909145976172549E+002	7.2977227E-001	-1.4864317E+000	0
2.9978404E+000	1.365499967455980E+002	-1.4885458E+000	-4.965393806682387E+002	7.3912162E-001	-1.4884318E+000	0
2.9758911E+000	1.367499967405456E+002	-1.4905323E+000	-5.008692374110506E+002	7.4656177E-001	-1.4904317E+000	0
3.0030012E+000	1.369499967354932E+002	-1.4925326E+000	-4.970136437491785E+002	7.4180907E-001	-1.4924318E+000	0
3.0163398E+000	1.371499967304408E+002	-1.4945028E+000	-4.954689831982387E+002	7.4047977E-001	-1.4944317E+000	0
3.0316663E+000	1.373499967253883E+002	-1.4965583E+000	-4.936421853063339E+002	7.3876429E-001	-1.4964317E+000	0
3.0099137E+000	1.375499967203359E+002	-1.4985185E+000	-4.978609500028651E+002	7.4605381E-001	-1.4984318E+000	0
2.9975688E+000	1.377499967152835E+002	-1.5005003E+000	-5.005724482806605E+002	7.5110912E-001	-1.5004317E+000	0
3.0091276E+000	1.379499967102311E+002	-1.5025119E+000	-4.993180794878076E+002	7.5023133E-001	-1.5024318E+000	0
3.0119574E+000	1.381499967051786E+002	-1.5045338E+000	-4.995202488542409E+002	7.5154507E-001	-1.5044318E+000	0
2.9243195E+000	1.383499967001262E+002	-1.5065204E+000	-5.151695613428587E+002	7.7611345E-001	-1.5064317E+000	0
2.9251790E+000	1.385499966950738E+002	-1.5085318E+000	-5.157058002964968E+002	7.7795863E-001	-1.5084316E+000	0
2.8837032E+000	1.387499966900214E+002	-1.5105296E+000	-5.238159233361412E+002	7.9123950E-001	-1.5104316E+000	0
2.8652172E+000	1.389499966849689E+002	-1.5125973E+000	-5.279171702023805E+002	7.9852611E-001	-1.5124317E+000	0
2.8073766E+000	1.391499966799165E+002	-1.5150719E+000	-5.396753012425761E+002	8.1764686E-001	-1.5144318E+000	0
2.8069866E+000	1.393499966748641E+002	-1.5170418E+000	-5.404520981457763E+002	8.1988841E-001	-1.5164317E+000	0
2.8264945E+000	1.395499966698117E+002	-1.5190755E+000	-5.374415347949175E+002	8.1641430E-001	-1.5184315E+000	0
2.8182693E+000	1.397499966647592E+002	-1.5210273E+000	-5.397026329819039E+002	8.2090247E-001	-1.5204316E+000	0
2.7690303E+000	1.399499966597068E+002	-1.5230393E+000	-5.500262584816010E+002	8.3771163E-001	-1.5224317E+000	0
2.7398016E+000	1.401499966546544E+002	-1.5250739E+000	-5.566366131667910E+002	8.4891194E-001	-1.5244316E+000	0
2.7391894E+000	1.403499966496020E+002	-1.5270824E+000	-5.574942694856468E+002	8.5133970E-001	-1.5264317E+000	0
2.7141120E+000	1.405499966445495E+002	-1.5290858E+000	-5.633834116929229E+002	8.6146152E-001	-1.5284317E+000	0
2.7418139E+000	1.407499966394971E+002	-1.5310724E+000	-5.584158465456785E+002	8.5497510E-001	-1.5304316E+000	0
2.7443316E+000	1.408999966357078E+002	-1.5325584E+000	-5.584450845718402E+002	8.5584974E-001	-1.5319315E+000	0
2.7387803E+000	1.409551966343133E+002	-1.5333391E+000	-5.598620751953122E+002	8.5845846E-001	-1.5325314E+000	1