EC-Lab ASCII FILE
Nb header lines : 61                          

Linear Sweep Voltammetry

Run on channel : 1 (SN 1340)
User : 
Electrode connection : standard
Potential control : Ewe
Ewe ctrl range : min = -5.00 V, max = 5.00 V
Ewe,I filtering : 50 kHz
Channel : Grounded
Acquisition started on : 02/23/2026 17:51:57.658
Technique started on : 02/23/2026 17:52:00.496
Loaded Setting File :  NONE
Saved on :
	File : Ni_2_23_02_LSV_C01.mpr
	Directory : C:\Users\volt\Documents\Platalytix\
	Host : 127.0.0.1
Device : SP-200 (SN 0262)
Address : USB
EC-LAB for windows v11.60 (software)
Internet server v11.60 (firmware)
Command interpretor v11.60 (firmware)
Electrode material : Ni
Initial state : 
Electrolyte : KOH (1M)
Comments : 
Cable : standard
Reference electrode : Hg/HgO (0.140 V)
Electrode surface area : 1.000 cm˛
Characteristic mass : 0.001 g
Equivalent Weight : 0.000 g/eq.
Density : 0.000 g/cm3
Volume (V) : 0.001 cmł
Cycle Definition : Charge/Discharge alternance
tR (h:m:s)          0:00:5.0000         
dER/dt (mV/h)       0.0                 
dER (mV)            0                   
dtR (s)             0.0000              
dE/dt               10.000              
dE/dt unit          mV/s                
Ei (V)              -0.200              
vs.                 Ref                 
EL (V)              -2.500              
vs.                 Ref                 
record              <I>                 
dI                  0.000               
unit dI             µA                  
tI (s)              0.0000              
step percent        50                  
N                   10                  
E range min (V)     -5.000              
E range max (V)     5.000               
I Range             Auto                
I Range min         Unset               
I Range max         Unset               
I Range init        Unset               
Bandwidth           8                   

Rwe/Ohm	time/s	Ewe/V	<I>/mA	Pwe/W	control/V	error	
0.0000000E+000	2.838400134787662E+000	-2.1888115E-001	0.000000000000000E+000	0.0000000E+000	0.0000000E+000	0
0.0000000E+000	7.838200008482090E+000	-3.5007921E-001	0.000000000000000E+000	0.0000000E+000	-1.9991100E-001	0
3.0166742E+002	7.978200004945393E+000	-2.0097436E-001	6.662116832024338E-001	-1.3389147E-004	-2.0121078E-001	0
1.0696514E+003	8.098200001913938E+000	-2.0219427E-001	1.890281942770118E-001	-3.8220420E-005	-2.0241083E-001	0
2.7570703E+003	8.308199996608892E+000	-2.0430095E-001	7.410074016470000E-002	-1.5138852E-005	-2.0451084E-001	0
4.3764673E+003	8.528199991051224E+000	-2.0650877E-001	4.718617695994529E-002	-9.7443590E-006	-2.0671080E-001	0
5.9964897E+003	8.748199985493557E+000	-2.0873043E-001	3.480876982872025E-002	-7.2656494E-006	-2.0891084E-001	0
7.5011787E+003	8.948199980441132E+000	-2.1073750E-001	2.809391840933362E-002	-5.9204422E-006	-2.1091083E-001	0
9.0405625E+003	9.148199975388707E+000	-2.1271211E-001	2.352863566354953E-002	-5.0048257E-006	-2.1291082E-001	0
1.0637357E+004	9.348199970336282E+000	-2.1472552E-001	2.018598328482313E-002	-4.3344457E-006	-2.1491084E-001	0
1.2285498E+004	9.548199965283857E+000	-2.1672815E-001	1.764097412224006E-002	-3.8232956E-006	-2.1691084E-001	0
1.4001221E+004	9.748199960231432E+000	-2.1872889E-001	1.562212988543650E-002	-3.4170112E-006	-2.1891083E-001	0
1.5797295E+004	9.948199955179007E+000	-2.2072515E-001	1.397233856369404E-002	-3.0840465E-006	-2.2091083E-001	0
1.7665857E+004	1.014819995012658E+001	-2.2273241E-001	1.260807234436206E-002	-2.8082263E-006	-2.2291085E-001	0
1.9626418E+004	1.034819994507416E+001	-2.2471574E-001	1.144965668017510E-002	-2.5729180E-006	-2.2491083E-001	0
2.1670387E+004	1.054819994002173E+001	-2.2672981E-001	1.046265682650102E-002	-2.3721961E-006	-2.2691083E-001	0
2.3838695E+004	1.074819993496931E+001	-2.2870718E-001	9.593947107184087E-003	-2.1942046E-006	-2.2891085E-001	0
2.6137213E+004	1.094819992991688E+001	-2.3071215E-001	8.826960745447580E-003	-2.0364871E-006	-2.3091081E-001	0
2.8507549E+004	1.114819992486446E+001	-2.3273088E-001	8.163833328432485E-003	-1.8999762E-006	-2.3291084E-001	0
3.1038916E+004	1.134819991981203E+001	-2.3474731E-001	7.562999583489334E-003	-1.7753938E-006	-2.3491085E-001	0
3.3621965E+004	1.154819991475961E+001	-2.3672532E-001	7.040793812332691E-003	-1.6667342E-006	-2.3691083E-001	0
3.6479461E+004	1.174819990970718E+001	-2.3874088E-001	6.544528688624110E-003	-1.5624465E-006	-2.3891084E-001	0
3.9394063E+004	1.194819990465476E+001	-2.4072076E-001	6.110585145284037E-003	-1.4709448E-006	-2.4091081E-001	0
4.2502078E+004	1.214819989960233E+001	-2.4273528E-001	5.711138924530179E-003	-1.3862949E-006	-2.4291085E-001	0
4.5711602E+004	1.234819989454991E+001	-2.4471074E-001	5.353361917786348E-003	-1.3100251E-006	-2.4491082E-001	0
4.9334738E+004	1.254819988949748E+001	-2.4672674E-001	5.001075009542437E-003	-1.2338990E-006	-2.4691083E-001	0
5.3032301E+004	1.274819988444506E+001	-2.4871683E-001	4.689912180699515E-003	-1.1664602E-006	-2.4891081E-001	0
5.6980246E+004	1.294819987939263E+001	-2.5070226E-001	4.399810102537267E-003	-1.1030423E-006	-2.5091082E-001	0
6.1305512E+004	1.314819987434021E+001	-2.5272888E-001	4.122449544145160E-003	-1.0418621E-006	-2.5291082E-001	0
6.5614102E+004	1.334819986928778E+001	-2.5471959E-001	3.882086032113527E-003	-9.8884334E-007	-2.5491083E-001	0
7.0884133E+004	1.354819986423536E+001	-2.5673431E-001	3.621886699336914E-003	-9.2986261E-007	-2.5691083E-001	0
7.4978984E+004	1.374819985918293E+001	-2.5871018E-001	3.450435795082103E-003	-8.9266285E-007	-2.5891080E-001	0
8.0578922E+004	1.394819985413051E+001	-2.6069731E-001	3.235304020947079E-003	-8.4343503E-007	-2.6091084E-001	0
8.6499813E+004	1.414819984907808E+001	-2.6270220E-001	3.037026252867593E-003	-7.9783348E-007	-2.6291084E-001	0
9.2923258E+004	1.434819984402566E+001	-2.6470670E-001	2.848659265934764E-003	-7.5405922E-007	-2.6491079E-001	0
1.0030071E+005	1.454819983897323E+001	-2.6670319E-001	2.659035818246103E-003	-7.0917332E-007	-2.6691082E-001	0
1.0611095E+005	1.474819983392081E+001	-2.6869690E-001	2.532225812425257E-003	-6.8040123E-007	-2.6891083E-001	0
1.1506483E+005	1.494819982886838E+001	-2.7070355E-001	2.352617657301222E-003	-6.3686196E-007	-2.7091083E-001	0
1.2325015E+005	1.514819982381596E+001	-2.7270085E-001	2.212580312712285E-003	-6.0337254E-007	-2.7291083E-001	0
1.3227859E+005	1.534819981876353E+001	-2.7469116E-001	2.076610896798734E-003	-5.7042666E-007	-2.7491084E-001	0
1.4229981E+005	1.554819981371111E+001	-2.7671820E-001	1.944613882930140E-003	-5.3811004E-007	-2.7691084E-001	0
1.5322498E+005	1.574819980865868E+001	-2.7869472E-001	1.818859593900668E-003	-5.0690659E-007	-2.7891082E-001	0
1.6321159E+005	1.594819980360626E+001	-2.8070879E-001	1.719907189960117E-003	-4.8279304E-007	-2.8091085E-001	0
1.7809027E+005	1.614819979855383E+001	-2.8270143E-001	1.587405269216649E-003	-4.4876174E-007	-2.8291082E-001	0
1.9413380E+005	1.634819979350141E+001	-2.8472209E-001	1.466628187207511E-003	-4.1758145E-007	-2.8491083E-001	0
2.0864173E+005	1.654819978844898E+001	-2.8673005E-001	1.374269910264035E-003	-3.9404449E-007	-2.8691083E-001	0
2.2865050E+005	1.674819978339656E+001	-2.8870293E-001	1.262638583476370E-003	-3.6452747E-007	-2.8891084E-001	0
2.4691486E+005	1.694819977834413E+001	-2.9070979E-001	1.177368600927334E-003	-3.4227259E-007	-2.9091081E-001	0
2.6806153E+005	1.714819977329171E+001	-2.9272813E-001	1.092018468025644E-003	-3.1966451E-007	-2.9291081E-001	0
2.9826278E+005	1.734819976823928E+001	-2.9471481E-001	9.881045175388781E-004	-2.9120903E-007	-2.9491085E-001	0
3.2710941E+005	1.754819976318686E+001	-2.9671937E-001	9.070951904617819E-004	-2.6915271E-007	-2.9691082E-001	0
3.6752141E+005	1.774819975813443E+001	-2.9873282E-001	8.128311022685422E-004	-2.4281931E-007	-2.9891086E-001	0
4.0348834E+005	1.794819975308201E+001	-3.0071399E-001	7.452854219187144E-004	-2.2411776E-007	-3.0091083E-001	0
4.6471072E+005	1.814819974802958E+001	-3.0272150E-001	6.514192236451435E-004	-1.9719860E-007	-3.0291080E-001	0
5.3531375E+005	1.834819974297716E+001	-3.0472922E-001	5.692534718740030E-004	-1.7346817E-007	-3.0491081E-001	0
6.1086000E+005	1.854819973792473E+001	-3.0671251E-001	5.020995054930014E-004	-1.5400020E-007	-3.0691081E-001	0
7.1013850E+005	1.874819973287231E+001	-3.0872065E-001	4.347330065530564E-004	-1.3421105E-007	-3.0891082E-001	0
8.3948200E+005	1.894819972781988E+001	-3.1072414E-001	3.701379353442894E-004	-1.1501079E-007	-3.1091082E-001	0
1.0617270E+006	1.914819972276746E+001	-3.1270978E-001	2.945293773046753E-004	-9.2102219E-008	-3.1291083E-001	0
1.3481873E+006	1.934819971771503E+001	-3.1470093E-001	2.334252319939436E-004	-7.3459141E-008	-3.1491083E-001	0
1.9517731E+006	1.954819971266261E+001	-3.1671584E-001	1.622708258142967E-004	-5.1393741E-008	-3.1691086E-001	0
3.0382458E+006	1.974819970761018E+001	-3.1870678E-001	1.048982875980494E-004	-3.3431796E-008	-3.1891084E-001	0
9.6546550E+006	1.994819970255776E+001	-3.2071579E-001	3.321877110426541E-005	-1.0653785E-008	-3.2091084E-001	0
1.3059526E+007	2.014819969750533E+001	-3.2274112E-001	-2.471308029392211E-005	7.9759275E-009	-3.2291082E-001	0
3.9128763E+006	2.034819969245291E+001	-3.2471421E-001	-8.298606547432252E-005	2.6946754E-008	-3.2491082E-001	0
2.2920575E+006	2.054819968740048E+001	-3.2672578E-001	-1.425469402738910E-004	4.6573760E-008	-3.2691082E-001	0
1.5081461E+006	2.074819968234806E+001	-3.2872307E-001	-2.179650062732108E-004	7.1650128E-008	-3.2891083E-001	0
1.2361403E+006	2.094819967729563E+001	-3.3072782E-001	-2.675487748414291E-004	8.8485820E-008	-3.3091083E-001	0
9.8840856E+005	2.114819967224321E+001	-3.3271345E-001	-3.366153190651495E-004	1.1199644E-007	-3.3291084E-001	0
9.0619888E+005	2.134819966719078E+001	-3.3471525E-001	-3.693617978074090E-004	1.2363103E-007	-3.3491084E-001	0
7.5269563E+005	2.154819966213836E+001	-3.3674055E-001	-4.473794642154676E-004	1.5065081E-007	-3.3691084E-001	0
6.9673300E+005	2.174819965708593E+001	-3.3872533E-001	-4.861623250217908E-004	1.6467550E-007	-3.3891082E-001	0
6.3459475E+005	2.194819965203351E+001	-3.4071293E-001	-5.368984558352628E-004	1.8292825E-007	-3.4091085E-001	0
5.7237400E+005	2.214819964698108E+001	-3.4273335E-001	-5.987926721956740E-004	2.0522621E-007	-3.4291080E-001	0
5.1756028E+005	2.234819964192866E+001	-3.4472513E-001	-6.660579194210548E-004	2.2960691E-007	-3.4491083E-001	0
4.8716406E+005	2.254819963687623E+001	-3.4672651E-001	-7.117243076861547E-004	2.4677368E-007	-3.4691083E-001	0
4.5946509E+005	2.274819963182381E+001	-3.4871426E-001	-7.589570265398946E-004	2.6465915E-007	-3.4891084E-001	0
4.1305581E+005	2.294819962677138E+001	-3.5073027E-001	-8.491110954385768E-004	2.9780895E-007	-3.5091084E-001	0
3.9519700E+005	2.314819962171896E+001	-3.5271677E-001	-8.925086989076021E-004	3.1480278E-007	-3.5291085E-001	0
3.9421241E+005	2.334819961666653E+001	-3.5471916E-001	-8.998173506009621E-004	3.1918245E-007	-3.5491085E-001	0
3.5694619E+005	2.354819961161411E+001	-3.5672668E-001	-9.993849870213421E-004	3.5650729E-007	-3.5691082E-001	0
3.4708244E+005	2.374819960656168E+001	-3.5872844E-001	-1.033553979950758E-003	3.7076521E-007	-3.5891086E-001	0
3.2854447E+005	2.394819960150926E+001	-3.6071071E-001	-1.097905298978762E-003	3.9602619E-007	-3.6091083E-001	0
3.1250619E+005	2.414819959645683E+001	-3.6270398E-001	-1.160629766223492E-003	4.2096502E-007	-3.6291081E-001	0
3.0390391E+005	2.434819959140441E+001	-3.6470827E-001	-1.200077596582837E-003	4.3767824E-007	-3.6491084E-001	0
2.9057275E+005	2.454819958635198E+001	-3.6670050E-001	-1.261992109495246E-003	4.6277313E-007	-3.6691082E-001	0
2.7994072E+005	2.474819958129956E+001	-3.6870885E-001	-1.317096207447924E-003	4.8562504E-007	-3.6891085E-001	0
2.6637819E+005	2.494819957624713E+001	-3.7070897E-001	-1.391664139845329E-003	5.1590240E-007	-3.7091082E-001	0
2.5929828E+005	2.514819957119471E+001	-3.7270945E-001	-1.437377264525249E-003	5.3572410E-007	-3.7291083E-001	0
2.5021305E+005	2.534819956614228E+001	-3.7470210E-001	-1.497532179833155E-003	5.6112845E-007	-3.7491086E-001	0
2.4564205E+005	2.554819956108986E+001	-3.7669832E-001	-1.533525339153935E-003	5.7767642E-007	-3.7691084E-001	0
2.3459309E+005	2.574819955603743E+001	-3.7871751E-001	-1.614359129337918E-003	6.1138610E-007	-3.7891087E-001	0
2.2732409E+005	2.594819955098501E+001	-3.8070950E-001	-1.674743306807801E-003	6.3759069E-007	-3.8091084E-001	0
2.2223156E+005	2.614819954593258E+001	-3.8271445E-001	-1.722142642302263E-003	6.5908887E-007	-3.8291082E-001	0
2.1913952E+005	2.634819954088016E+001	-3.8471031E-001	-1.755549743393203E-003	6.7537809E-007	-3.8491085E-001	0
2.0995689E+005	2.654819953582773E+001	-3.8672903E-001	-1.841944871097733E-003	7.1233353E-007	-3.8691083E-001	0
2.0205425E+005	2.674819953077531E+001	-3.8871068E-001	-1.923793667024281E-003	7.4779916E-007	-3.8891086E-001	0
2.0059030E+005	2.694819952572288E+001	-3.9069247E-001	-1.947713744587264E-003	7.6095711E-007	-3.9091083E-001	0
1.9510408E+005	2.714819952067046E+001	-3.9270809E-001	-2.012813305049758E-003	7.9044810E-007	-3.9291087E-001	0
1.8941180E+005	2.734819951561803E+001	-3.9471090E-001	-2.083877109736330E-003	8.2252899E-007	-3.9491081E-001	0
1.8351853E+005	2.754819951056561E+001	-3.9672607E-001	-2.161776714732160E-003	8.5763321E-007	-3.9691085E-001	0
1.8003314E+005	2.774819950551318E+001	-3.9871296E-001	-2.214664286482468E-003	8.8301533E-007	-3.9891088E-001	0
1.7591252E+005	2.794819950046076E+001	-4.0071982E-001	-2.277949382130089E-003	9.1281947E-007	-4.0091088E-001	0
1.7199683E+005	2.814819949540833E+001	-4.0270904E-001	-2.341374834396774E-003	9.4289283E-007	-4.0291083E-001	0
1.6861405E+005	2.834819949035591E+001	-4.0471256E-001	-2.400230386156754E-003	9.7140332E-007	-4.0491086E-001	0
1.6349763E+005	2.854819948530348E+001	-4.0672171E-001	-2.487630809916796E-003	1.0117734E-006	-4.0691090E-001	0
1.5985528E+005	2.874819948025106E+001	-4.0872118E-001	-2.556819930858953E-003	1.0450265E-006	-4.0891084E-001	0
1.5762484E+005	2.894819947519863E+001	-4.1071531E-001	-2.605650858013776E-003	1.0701807E-006	-4.1091084E-001	0
1.5490053E+005	2.914819947014621E+001	-4.1274634E-001	-2.664589583734502E-003	1.0997996E-006	-4.1291088E-001	0
1.5104505E+005	2.934819946509379E+001	-4.1474539E-001	-2.745838996533474E-003	1.1388240E-006	-4.1491082E-001	0
1.4771770E+005	2.954819946004136E+001	-4.1673651E-001	-2.821168241978977E-003	1.1756838E-006	-4.1691086E-001	0
1.4606464E+005	2.974819945498894E+001	-4.1873640E-001	-2.866788292245609E-003	1.2004286E-006	-4.1891086E-001	0
1.4082842E+005	2.994819944993651E+001	-4.2076215E-001	-2.987764595751438E-003	1.2571383E-006	-4.2091087E-001	0
1.3920211E+005	3.014819944488409E+001	-4.2273316E-001	-3.036830215326830E-003	1.2837688E-006	-4.2291084E-001	0
1.3591938E+005	3.034819943983166E+001	-4.2475763E-001	-3.125070471269323E-003	1.3273975E-006	-4.2491087E-001	0
1.3394763E+005	3.054819943477924E+001	-4.2675769E-001	-3.186004101050612E-003	1.3596517E-006	-4.2691085E-001	0
1.3093483E+005	3.074819942972681E+001	-4.2877072E-001	-3.274688132958857E-003	1.4040904E-006	-4.2891085E-001	0
1.2922329E+005	3.094819942467439E+001	-4.3075320E-001	-3.333402195704632E-003	1.4358736E-006	-4.3091086E-001	0
1.2663963E+005	3.114819941962196E+001	-4.3273887E-001	-3.417089061679316E-003	1.4787073E-006	-4.3291086E-001	0
1.2377672E+005	3.134819941456954E+001	-4.3476138E-001	-3.512464833118248E-003	1.5270840E-006	-4.3491086E-001	0
1.2246700E+005	3.154819940951711E+001	-4.3674791E-001	-3.566249815042048E-003	1.5575522E-006	-4.3691087E-001	0
1.1998724E+005	3.174819940446469E+001	-4.3876457E-001	-3.656760248954297E-003	1.6044569E-006	-4.3891087E-001	0
1.1720770E+005	3.194819939941226E+001	-4.4075036E-001	-3.760421774870147E-003	1.6574072E-006	-4.4091088E-001	0
1.1601993E+005	3.214819939435984E+001	-4.4274172E-001	-3.816083385112801E-003	1.6895393E-006	-4.4291085E-001	0
1.1349561E+005	3.234819938930741E+001	-4.4474164E-001	-3.918580215924814E-003	1.7427558E-006	-4.4491082E-001	0
1.1157923E+005	3.254819938425499E+001	-4.4676247E-001	-4.003992879518012E-003	1.7888337E-006	-4.4691089E-001	0
1.0980510E+005	3.274819937920256E+001	-4.4873413E-001	-4.086642081085331E-003	1.8338158E-006	-4.4891089E-001	0
1.0804385E+005	3.294819937415014E+001	-4.5076033E-001	-4.172012754351667E-003	1.8805779E-006	-4.5091087E-001	0
1.0637479E+005	3.314819936909771E+001	-4.5274574E-001	-4.256137655413055E-003	1.9269482E-006	-4.5291087E-001	0
1.0426853E+005	3.334819936404529E+001	-4.5473903E-001	-4.361229974536545E-003	1.9832214E-006	-4.5491087E-001	0
1.0268373E+005	3.354819935899286E+001	-4.5674187E-001	-4.448044991516409E-003	2.0316083E-006	-4.5691082E-001	0
1.0078443E+005	3.374819935394044E+001	-4.5874527E-001	-4.551747423492930E-003	2.0880925E-006	-4.5891085E-001	0
9.9480727E+004	3.394819934888801E+001	-4.6075198E-001	-4.631570178814513E-003	2.1340052E-006	-4.6091089E-001	0
9.7523711E+004	3.414819934383559E+001	-4.6272063E-001	-4.744698646118810E-003	2.1954700E-006	-4.6291086E-001	0
9.6245117E+004	3.434819933878316E+001	-4.6473446E-001	-4.828655127636017E-003	2.2440424E-006	-4.6491084E-001	0
9.4841008E+004	3.454819933373074E+001	-4.6674156E-001	-4.921305512613730E-003	2.2969778E-006	-4.6691087E-001	0
9.2914766E+004	3.474819932867831E+001	-4.6873167E-001	-5.044748870349128E-003	2.3646335E-006	-4.6891090E-001	0
9.2062938E+004	3.494819932362589E+001	-4.7075108E-001	-5.113361410968496E-003	2.4071203E-006	-4.7091085E-001	0
9.0467414E+004	3.514819931857346E+001	-4.7273481E-001	-5.225470699780400E-003	2.4702620E-006	-4.7291085E-001	0
8.9106648E+004	3.534819931352104E+001	-4.7473335E-001	-5.327698224698793E-003	2.5292361E-006	-4.7491089E-001	0
8.7904320E+004	3.554819930846861E+001	-4.7674704E-001	-5.423476500628042E-003	2.5856264E-006	-4.7691083E-001	0
8.6489563E+004	3.574819930341619E+001	-4.7872463E-001	-5.535056576903064E-003	2.6497678E-006	-4.7891086E-001	0
8.5135414E+004	3.594819929836376E+001	-4.8072407E-001	-5.646581419222516E-003	2.7144476E-006	-4.8091090E-001	0
8.3812438E+004	3.614819929331134E+001	-4.8273242E-001	-5.759675083493196E-003	2.7803819E-006	-4.8291087E-001	0
8.3022805E+004	3.634819928825891E+001	-4.8473060E-001	-5.838523777166135E-003	2.8301110E-006	-4.8491085E-001	0
8.1815211E+004	3.654819928320649E+001	-4.8672235E-001	-5.949045010288555E-003	2.8955333E-006	-4.8691085E-001	0
8.0470313E+004	3.674819927815406E+001	-4.8872671E-001	-6.073379141637331E-003	2.9682226E-006	-4.8891091E-001	0
7.9499398E+004	3.694819927310164E+001	-4.9071696E-001	-6.172586874753888E-003	3.0289930E-006	-4.9091086E-001	0
7.8222352E+004	3.714819926804921E+001	-4.9272513E-001	-6.299032466596972E-003	3.1036916E-006	-4.9291083E-001	0
7.7096125E+004	3.734819926299679E+001	-4.9472690E-001	-6.417014065307890E-003	3.1746695E-006	-4.9491087E-001	0
7.5995008E+004	3.754819925794436E+001	-4.9673465E-001	-6.536411385269933E-003	3.2468620E-006	-4.9691087E-001	0
7.4969742E+004	3.774819925289194E+001	-4.9873552E-001	-6.652490712613562E-003	3.3178335E-006	-4.9891081E-001	0
7.3999398E+004	3.794819924783951E+001	-5.0071442E-001	-6.766466082344602E-003	3.3880672E-006	-5.0091088E-001	0
7.3168672E+004	3.814819924278709E+001	-5.0274485E-001	-6.871039961803153E-003	3.4543800E-006	-5.0291091E-001	0
7.2079195E+004	3.834819923773466E+001	-5.0472641E-001	-7.002386674728404E-003	3.5342896E-006	-5.0491083E-001	0
7.1176664E+004	3.854819923268224E+001	-5.0673538E-001	-7.119403722275746E-003	3.6076538E-006	-5.0691086E-001	0
7.0180359E+004	3.874819922762981E+001	-5.0871241E-001	-7.248643532425963E-003	3.6874749E-006	-5.0891089E-001	0
6.9175484E+004	3.894819922257739E+001	-5.1074350E-001	-7.383302180347287E-003	3.7709735E-006	-5.1091081E-001	0
6.8336414E+004	3.914819921752496E+001	-5.1272547E-001	-7.502961320281998E-003	3.8469593E-006	-5.1291084E-001	0
6.7611305E+004	3.934819921247254E+001	-5.1472789E-001	-7.613045087360271E-003	3.9186466E-006	-5.1491088E-001	0
6.6752813E+004	3.954819920742011E+001	-5.1674366E-001	-7.741151432004666E-003	4.0001910E-006	-5.1691085E-001	0
6.5890125E+004	3.974819920236769E+001	-5.1872468E-001	-7.872570432377310E-003	4.0836967E-006	-5.1891083E-001	0
6.5032051E+004	3.994819919731526E+001	-5.2072299E-001	-8.007174533186792E-003	4.1695198E-006	-5.2091086E-001	0
6.4352387E+004	4.014819919226284E+001	-5.2273369E-001	-8.122988201689968E-003	4.2461597E-006	-5.2291089E-001	0
6.3359145E+004	4.034819918721041E+001	-5.2474588E-001	-8.282085762307989E-003	4.3459904E-006	-5.2491087E-001	0
6.2637750E+004	4.054819918215799E+001	-5.2672327E-001	-8.409038932411669E-003	4.4292365E-006	-5.2691084E-001	0
6.1963926E+004	4.074819917710556E+001	-5.2874058E-001	-8.533038819103694E-003	4.5117640E-006	-5.2891088E-001	0
6.1209621E+004	4.094819917205314E+001	-5.3073126E-001	-8.670716557563025E-003	4.6018204E-006	-5.3091085E-001	0
6.0541598E+004	4.114819916700071E+001	-5.3270692E-001	-8.799023221496657E-003	4.6873006E-006	-5.3291088E-001	0
5.9853191E+004	4.134819916194829E+001	-5.3471506E-001	-8.933777080388415E-003	4.7770250E-006	-5.3491086E-001	0
5.9144027E+004	4.154819915689586E+001	-5.3671914E-001	-9.074781867179221E-003	4.8706092E-006	-5.3691089E-001	0
5.8579648E+004	4.174819915184344E+001	-5.3873289E-001	-9.196587754814745E-003	4.9545042E-006	-5.3891093E-001	0
5.7671121E+004	4.194819914679101E+001	-5.4073930E-001	-9.376257904826379E-003	5.0701110E-006	-5.4091084E-001	0
5.7107848E+004	4.214819914173859E+001	-5.4273170E-001	-9.503627296398837E-003	5.1579200E-006	-5.4291087E-001	0
5.6442125E+004	4.234819913668616E+001	-5.4472691E-001	-9.651070338058287E-003	5.2571977E-006	-5.4491091E-001	0
5.5928207E+004	4.254819913163374E+001	-5.4673970E-001	-9.775741220820949E-003	5.3447857E-006	-5.4691082E-001	0
5.5229281E+004	4.274819912658131E+001	-5.4872090E-001	-9.935325809887444E-003	5.4517209E-006	-5.4891086E-001	0
5.4512375E+004	4.294819912152889E+001	-5.5070591E-001	-1.010240140985307E-002	5.5634523E-006	-5.5091089E-001	0
5.4166305E+004	4.314819911647646E+001	-5.5271524E-001	-1.020404219867867E-002	5.6399294E-006	-5.5291092E-001	0
5.3371664E+004	4.334819911142404E+001	-5.5473703E-001	-1.039384930991713E-002	5.7658531E-006	-5.5491084E-001	0
5.2813473E+004	4.354819910637161E+001	-5.5671883E-001	-1.054122770530364E-002	5.8685000E-006	-5.5691087E-001	0
5.2199516E+004	4.374819910131919E+001	-5.5873352E-001	-1.070380669251897E-002	5.9805757E-006	-5.5891091E-001	0
5.1686051E+004	4.394819909626676E+001	-5.6072176E-001	-1.084860859099822E-002	6.0830507E-006	-5.6091082E-001	0
5.1213082E+004	4.414819909121434E+001	-5.6271207E-001	-1.098766309935645E-002	6.1828905E-006	-5.6291085E-001	0
5.0785410E+004	4.434819908616191E+001	-5.6472844E-001	-1.111989481383333E-002	6.2797208E-006	-5.6491089E-001	0
5.0153660E+004	4.454819908110949E+001	-5.6671286E-001	-1.129953103313431E-002	6.4035894E-006	-5.6691086E-001	0
4.9628715E+004	4.474819907605706E+001	-5.6871843E-001	-1.145946356826130E-002	6.5172080E-006	-5.6891090E-001	0
4.9089332E+004	4.494819907100464E+001	-5.7069671E-001	-1.162567655735411E-002	6.6347352E-006	-5.7091087E-001	0
4.8724285E+004	4.514819906595221E+001	-5.7269502E-001	-1.175378979835232E-002	6.7313367E-006	-5.7291090E-001	0
4.8209719E+004	4.534819906089979E+001	-5.7471251E-001	-1.192109247663248E-002	6.8512009E-006	-5.7491082E-001	0
4.7638016E+004	4.554819905584736E+001	-5.7670218E-001	-1.210592355742274E-002	6.9815123E-006	-5.7691085E-001	0
4.7278086E+004	4.574819905079494E+001	-5.7870352E-001	-1.224041732970271E-002	7.0835727E-006	-5.7891089E-001	0
4.6727551E+004	4.594819904574251E+001	-5.8071291E-001	-1.242763481114498E-002	7.2168882E-006	-5.8091080E-001	0
4.6234785E+004	4.614819904069009E+001	-5.8271921E-001	-1.260348007794637E-002	7.3442898E-006	-5.8291090E-001	0
4.5748395E+004	4.634819903563766E+001	-5.8471990E-001	-1.278121085178061E-002	7.4734285E-006	-5.8491093E-001	0
4.5344652E+004	4.654819903058524E+001	-5.8669066E-001	-1.293847553116273E-002	7.5908829E-006	-5.8691084E-001	0
4.4947188E+004	4.674819902553281E+001	-5.8869123E-001	-1.309739860065620E-002	7.7103241E-006	-5.8891088E-001	0
4.4527262E+004	4.694819902048039E+001	-5.9071010E-001	-1.326625771654763E-002	7.8365129E-006	-5.9091085E-001	0
4.4142035E+004	4.714819901542796E+001	-5.9271169E-001	-1.342737557915039E-002	7.9585625E-006	-5.9291095E-001	0
4.3677016E+004	4.734819901037554E+001	-5.9472919E-001	-1.361652566112107E-002	8.0981454E-006	-5.9491086E-001	0
4.3256254E+004	4.754819900532311E+001	-5.9671181E-001	-1.379480992355159E-002	8.2315264E-006	-5.9691083E-001	0
4.2847871E+004	4.774819900027069E+001	-5.9872484E-001	-1.397326925311176E-002	8.3661434E-006	-5.9891093E-001	0
4.2516438E+004	4.794819899521826E+001	-6.0071796E-001	-1.412907571417271E-002	8.4875892E-006	-6.0091084E-001	0
4.2110492E+004	4.814819899016584E+001	-6.0273355E-001	-1.431314497309699E-002	8.6270129E-006	-6.0291088E-001	0
4.1764238E+004	4.834819898511341E+001	-6.0472786E-001	-1.447956116018448E-002	8.7561939E-006	-6.0491085E-001	0
4.1309957E+004	4.854819898006099E+001	-6.0673213E-001	-1.468730915790258E-002	8.9112627E-006	-6.0691088E-001	0
4.0973914E+004	4.874819897500856E+001	-6.0871714E-001	-1.485621229132489E-002	9.0432313E-006	-6.0891086E-001	0
4.0574289E+004	4.894819896995614E+001	-6.1071551E-001	-1.505178636411952E-002	9.1923594E-006	-6.1091083E-001	0
4.0249309E+004	4.914819896490371E+001	-6.1272222E-001	-1.522317391283318E-002	9.3275767E-006	-6.1291093E-001	0
3.9892488E+004	4.934819895985129E+001	-6.1471313E-001	-1.540924531651573E-002	9.4722654E-006	-6.1491084E-001	0
3.9566250E+004	4.954819895479886E+001	-6.1674660E-001	-1.558769347244884E-002	9.6136573E-006	-6.1691087E-001	0
3.9206340E+004	4.974819894974644E+001	-6.1873388E-001	-1.578147556287474E-002	9.7645334E-006	-6.1891091E-001	0
3.8915047E+004	4.994819894469401E+001	-6.2073910E-001	-1.595113403731405E-002	9.9014924E-006	-6.2091088E-001	0
3.8623355E+004	5.014819893964159E+001	-6.2273914E-001	-1.612338283621387E-002	1.0040661E-005	-6.2291086E-001	0
3.8323668E+004	5.034819893458916E+001	-6.2473410E-001	-1.630152165314255E-002	1.0184117E-005	-6.2491083E-001	0
3.7967352E+004	5.054819892953674E+001	-6.2672818E-001	-1.650702926386227E-002	1.0345420E-005	-6.2691092E-001	0
3.7699371E+004	5.074819892448431E+001	-6.2873340E-001	-1.667755705810237E-002	1.0485737E-005	-6.2891090E-001	0
3.7430688E+004	5.094819891943189E+001	-6.3074040E-001	-1.685089080728056E-002	1.0628538E-005	-6.3091081E-001	0
3.7102695E+004	5.114819891437946E+001	-6.3272691E-001	-1.705339514714285E-002	1.0790142E-005	-6.3291091E-001	0
3.6803820E+004	5.134819890932704E+001	-6.3471872E-001	-1.724600018455608E-002	1.0946359E-005	-6.3491088E-001	0
3.6518793E+004	5.154819890427461E+001	-6.3672245E-001	-1.743547436229509E-002	1.1101558E-005	-6.3691086E-001	0
3.6280176E+004	5.174819889922219E+001	-6.3873166E-001	-1.760552772595347E-002	1.1245208E-005	-6.3891083E-001	0
3.5971918E+004	5.194819889416976E+001	-6.4072406E-001	-1.781178509965409E-002	1.1412440E-005	-6.4091092E-001	0
3.5701961E+004	5.214819888911734E+001	-6.4272434E-001	-1.800249340651507E-002	1.1570641E-005	-6.4291090E-001	0
3.5494527E+004	5.234819888406491E+001	-6.4473730E-001	-1.816441364139704E-002	1.1711275E-005	-6.4491087E-001	0
3.5150902E+004	5.254819887901249E+001	-6.4674956E-001	-1.839922988497450E-002	1.1899694E-005	-6.4691091E-001	0
3.4920754E+004	5.274819887396006E+001	-6.4874983E-001	-1.857777357617788E-002	1.2052327E-005	-6.4891088E-001	0
3.4712258E+004	5.294819886890764E+001	-6.5075195E-001	-1.874703520490806E-002	1.2199670E-005	-6.5091085E-001	0
3.4411059E+004	5.314819886385521E+001	-6.5275091E-001	-1.896921888296332E-002	1.2382175E-005	-6.5291089E-001	0
3.4206934E+004	5.334819885880279E+001	-6.5474051E-001	-1.914057933700075E-002	1.2532113E-005	-6.5491092E-001	0
3.3944734E+004	5.354819885375036E+001	-6.5673226E-001	-1.934710300098286E-002	1.2705867E-005	-6.5691084E-001	0
3.3714063E+004	5.374819884869794E+001	-6.5873790E-001	-1.953896465779928E-002	1.2871056E-005	-6.5891087E-001	0
3.3479348E+004	5.394819884364551E+001	-6.6074938E-001	-1.973602871841901E-002	1.3040569E-005	-6.6091090E-001	0
3.3205680E+004	5.414819883859309E+001	-6.6274530E-001	-1.995879270045550E-002	1.3227596E-005	-6.6291088E-001	0
3.3012078E+004	5.434819883354066E+001	-6.6473573E-001	-2.013613830878589E-002	1.3385211E-005	-6.6491085E-001	0
3.2790859E+004	5.454819882848824E+001	-6.6675597E-001	-2.033359199155714E-002	1.3557544E-005	-6.6691089E-001	0
3.2579545E+004	5.474819882343581E+001	-6.6875029E-001	-2.052669212221568E-002	1.3727231E-005	-6.6891092E-001	0
3.2342732E+004	5.494819881838339E+001	-6.7073965E-001	-2.073849674777284E-002	1.3910132E-005	-6.7091084E-001	0
3.2142377E+004	5.514819881333096E+001	-6.7274863E-001	-2.093027014422075E-002	1.4080811E-005	-6.7291087E-001	0
3.1908119E+004	5.534819880827854E+001	-6.7475247E-001	-2.114673303054801E-002	1.4268810E-005	-6.7491090E-001	0
3.1749357E+004	5.554819880322611E+001	-6.7674154E-001	-2.131512514795986E-002	1.4424831E-005	-6.7691088E-001	0
3.1472273E+004	5.574819879817369E+001	-6.7875016E-001	-2.156660708220239E-002	1.4638338E-005	-6.7891085E-001	0
3.1329010E+004	5.594819879312126E+001	-6.8073553E-001	-2.172860055855663E-002	1.4791431E-005	-6.8091089E-001	0
3.1070686E+004	5.614819878806884E+001	-6.8275428E-001	-2.197422703876956E-002	1.5002997E-005	-6.8291092E-001	0
3.0916012E+004	5.634819878301641E+001	-6.8472779E-001	-2.214799931271816E-002	1.5165350E-005	-6.8491083E-001	0
3.0695061E+004	5.654819877796399E+001	-6.8674105E-001	-2.237301526890530E-002	1.5364469E-005	-6.8691087E-001	0
3.0510678E+004	5.674819877291156E+001	-6.8874109E-001	-2.257377197350902E-002	1.5547485E-005	-6.8891090E-001	0
3.0301820E+004	5.694819876785914E+001	-6.9072819E-001	-2.279493980895821E-002	1.5745107E-005	-6.9091082E-001	0
3.0103570E+004	5.714819876280671E+001	-6.9273722E-001	-2.301179631792703E-002	1.5941128E-005	-6.9291091E-001	0
2.9896645E+004	5.734819875775429E+001	-6.9474453E-001	-2.323821011670427E-002	1.6144619E-005	-6.9491094E-001	0
2.9744625E+004	5.754819875270186E+001	-6.9673890E-001	-2.342402718722594E-002	1.6320431E-005	-6.9691092E-001	0
2.9551326E+004	5.774819874764944E+001	-6.9872373E-001	-2.364441129757000E-002	1.6520911E-005	-6.9891089E-001	0
2.9355260E+004	5.794819874259701E+001	-7.0072544E-001	-2.387052382352550E-002	1.6726683E-005	-7.0091087E-001	0
2.9153760E+004	5.814819873754459E+001	-7.0274818E-001	-2.410488973383304E-002	1.6939668E-005	-7.0291096E-001	0
2.8992021E+004	5.834819873249216E+001	-7.0473498E-001	-2.430789413029866E-002	1.7130624E-005	-7.0491081E-001	0
2.8831732E+004	5.854819872743974E+001	-7.0672739E-001	-2.451213794499585E-002	1.7323398E-005	-7.0691091E-001	0
2.8612404E+004	5.874819872238731E+001	-7.0872891E-001	-2.476998835711280E-002	1.7555207E-005	-7.0891094E-001	0
2.8433664E+004	5.894819871733489E+001	-7.1071607E-001	-2.499558470743046E-002	1.7764763E-005	-7.1091086E-001	0
2.8268354E+004	5.914819871228246E+001	-7.1272826E-001	-2.521293906282740E-002	1.7969975E-005	-7.1291083E-001	0
2.8070879E+004	5.934819870723004E+001	-7.1471679E-001	-2.546114769902563E-002	1.8197510E-005	-7.1491092E-001	0
2.7917023E+004	5.954819870217761E+001	-7.1673000E-001	-2.567358249286289E-002	1.8401026E-005	-7.1691090E-001	0
2.7714621E+004	5.974819869712519E+001	-7.1873289E-001	-2.593334660629903E-002	1.8639150E-005	-7.1891087E-001	0
2.7532301E+004	5.994819869207277E+001	-7.2073001E-001	-2.617761677304226E-002	1.8866995E-005	-7.2091085E-001	0
2.7367236E+004	6.014819868702034E+001	-7.2271675E-001	-2.640810049040764E-002	1.9085577E-005	-7.2291094E-001	0
2.7180824E+004	6.034819868196792E+001	-7.2472847E-001	-2.666322643342778E-002	1.9323599E-005	-7.2491086E-001	0
2.7023186E+004	6.054819867691549E+001	-7.2672421E-001	-2.689261807212212E-002	1.9543517E-005	-7.2691089E-001	0
2.6824418E+004	6.074819867186307E+001	-7.2872287E-001	-2.716639915786367E-002	1.9796777E-005	-7.2891092E-001	0
2.6647393E+004	6.094819866681064E+001	-7.3073816E-001	-2.742250159022747E-002	2.0038668E-005	-7.3091090E-001	0
2.6455900E+004	6.114819866175822E+001	-7.3273081E-001	-2.769631048048837E-002	2.0293939E-005	-7.3291087E-001	0
2.6291420E+004	6.134819865670579E+001	-7.3471653E-001	-2.794510587709886E-002	2.0531732E-005	-7.3491085E-001	0
2.6125506E+004	6.154819865165337E+001	-7.3672193E-001	-2.819933636956629E-002	2.0775069E-005	-7.3691100E-001	0
2.5925234E+004	6.174819864660094E+001	-7.3872471E-001	-2.849442796209334E-002	2.1049538E-005	-7.3891091E-001	0
2.5747412E+004	6.194819864154852E+001	-7.4074692E-001	-2.876976165997580E-002	2.1311113E-005	-7.4091089E-001	0
2.5575285E+004	6.214819863649609E+001	-7.4273628E-001	-2.904117291992805E-002	2.1569933E-005	-7.4291092E-001	0
2.5361209E+004	6.234819863144367E+001	-7.4475610E-001	-2.936595330746580E-002	2.1870474E-005	-7.4491084E-001	0
2.5206119E+004	6.254819862639124E+001	-7.4675345E-001	-2.962587888182561E-002	2.2123228E-005	-7.4691093E-001	0
2.5009236E+004	6.274819862133882E+001	-7.4874949E-001	-2.993891929865486E-002	2.2416751E-005	-7.4891090E-001	0
2.4850934E+004	6.294819861628639E+001	-7.5073665E-001	-3.020959653175714E-002	2.2679451E-005	-7.5091100E-001	0
2.4663301E+004	6.314819861123397E+001	-7.5275326E-001	-3.052118894419165E-002	2.2974924E-005	-7.5291085E-001	0
2.4474416E+004	6.334819860618154E+001	-7.5474364E-001	-3.083806551539908E-002	2.3274833E-005	-7.5491083E-001	0
2.4266154E+004	6.354819860112912E+001	-7.5674593E-001	-3.118524345851248E-002	2.3599307E-005	-7.5691092E-001	0
2.4110775E+004	6.374819859607669E+001	-7.5875956E-001	-3.146972972556505E-002	2.3877958E-005	-7.5891089E-001	0
2.3877498E+004	6.394819859102427E+001	-7.6074398E-001	-3.186028722811973E-002	2.4237521E-005	-7.6091087E-001	0
2.3708986E+004	6.414819858597184E+001	-7.6274496E-001	-3.217113370449612E-002	2.4538371E-005	-7.6291090E-001	0
2.3536279E+004	6.434819858091942E+001	-7.6475567E-001	-3.249263318832085E-002	2.4848925E-005	-7.6491094E-001	0
2.3324625E+004	6.454819857586699E+001	-7.6674867E-001	-3.287292584774770E-002	2.5205272E-005	-7.6691085E-001	0
2.3125074E+004	6.474819857081457E+001	-7.6876014E-001	-3.324357428231063E-002	2.5556335E-005	-7.6891083E-001	0
2.2955240E+004	6.494819856576214E+001	-7.7074879E-001	-3.357615947719161E-002	2.5878784E-005	-7.7091098E-001	0
2.2739451E+004	6.514819856070972E+001	-7.7274740E-001	-3.398267529158305E-002	2.6260024E-005	-7.7291089E-001	0
2.2555529E+004	6.534819855565729E+001	-7.7474171E-001	-3.434819324351773E-002	2.6610978E-005	-7.7491087E-001	0
2.2344096E+004	6.554819855060487E+001	-7.7675390E-001	-3.476327404146495E-002	2.7002508E-005	-7.7691096E-001	0
2.2146564E+004	6.574819854555244E+001	-7.7875799E-001	-3.516382823778486E-002	2.7384112E-005	-7.7891093E-001	0
2.1939949E+004	6.594819854050002E+001	-7.8074300E-001	-3.558545121542944E-002	2.7783091E-005	-7.8091079E-001	0
2.1753369E+004	6.614819853544759E+001	-7.8273118E-001	-3.598206523222977E-002	2.8164284E-005	-7.8291088E-001	0
2.1544490E+004	6.634819853039517E+001	-7.8472644E-001	-3.642353323967212E-002	2.8582510E-005	-7.8491098E-001	0
2.1344619E+004	6.654819852534274E+001	-7.8675365E-001	-3.685957870800938E-002	2.8999408E-005	-7.8691101E-001	0
2.1131410E+004	6.674819852029032E+001	-7.8872043E-001	-3.732455401156565E-002	2.9438639E-005	-7.8891087E-001	0
2.0916816E+004	6.694819851523789E+001	-7.9073954E-001	-3.780400870545286E-002	2.9893125E-005	-7.9091096E-001	0
2.0717680E+004	6.714819851018547E+001	-7.9275650E-001	-3.826473308716605E-002	3.0334615E-005	-7.9291099E-001	0
2.0498512E+004	6.734819850513304E+001	-7.9473811E-001	-3.877052931825664E-002	3.0812418E-005	-7.9491085E-001	0
2.0278273E+004	6.754819850008062E+001	-7.9674107E-001	-3.929037917056899E-002	3.1304258E-005	-7.9691094E-001	0
2.0063967E+004	6.774819849502819E+001	-7.9874015E-001	-3.980968261423767E-002	3.1797590E-005	-7.9891104E-001	0
1.9837523E+004	6.794819848997577E+001	-8.0073601E-001	-4.036471653859569E-002	3.2321481E-005	-8.0091089E-001	0
1.9607877E+004	6.814819848492334E+001	-8.0274051E-001	-4.093969555633975E-002	3.2863951E-005	-8.0291098E-001	0
1.9393680E+004	6.834819847987092E+001	-8.0472553E-001	-4.149421576179291E-002	3.3391454E-005	-8.0491096E-001	0
1.9179248E+004	6.854819847481849E+001	-8.0672300E-001	-4.206228674185625E-002	3.3932614E-005	-8.0691093E-001	0
1.8964094E+004	6.874819846976607E+001	-8.0872011E-001	-4.264480718004982E-002	3.4487712E-005	-8.0891091E-001	0
1.8721137E+004	6.894819846471364E+001	-8.1071192E-001	-4.330463014208324E-002	3.5107580E-005	-8.1091094E-001	0
1.8502084E+004	6.914819845966122E+001	-8.1273341E-001	-4.392658668235483E-002	3.5700603E-005	-8.1291097E-001	0
1.8267191E+004	6.934819845460879E+001	-8.1473511E-001	-4.460100511135429E-002	3.6338006E-005	-8.1491089E-001	0
1.8027279E+004	6.954819844955637E+001	-8.1675160E-001	-4.530642689770614E-002	3.7004098E-005	-8.1691086E-001	0
1.7794139E+004	6.974819844450394E+001	-8.1874675E-001	-4.601216108444217E-002	3.7672307E-005	-8.1891102E-001	0
1.7557279E+004	6.994819843945152E+001	-8.2075197E-001	-4.674710276459576E-002	3.8367776E-005	-8.2091093E-001	0
1.7336547E+004	7.014819843439909E+001	-8.2274461E-001	-4.745723408131597E-002	3.9045182E-005	-8.2291090E-001	0
1.7095428E+004	7.034819842934667E+001	-8.2476592E-001	-4.824482513773254E-002	3.9790688E-005	-8.2491094E-001	0
1.6861164E+004	7.054819842429424E+001	-8.2675135E-001	-4.903287646205490E-002	4.0537998E-005	-8.2691097E-001	0
1.6631613E+004	7.074819841924182E+001	-8.2875776E-001	-4.983027082711655E-002	4.1297222E-005	-8.2891083E-001	0
1.6397230E+004	7.094819841418939E+001	-8.3074278E-001	-5.066360082517452E-002	4.2088421E-005	-8.3091092E-001	0
1.6156437E+004	7.114819840913697E+001	-8.3273739E-001	-5.154214545243907E-002	4.2921070E-005	-8.3291101E-001	0
1.5923939E+004	7.134819840408454E+001	-8.3473200E-001	-5.241994273082246E-002	4.3756605E-005	-8.3491087E-001	0
1.5683877E+004	7.154819839903212E+001	-8.3675259E-001	-5.335113092836707E-002	4.4641696E-005	-8.3691096E-001	0
1.5452030E+004	7.174819839397969E+001	-8.3874929E-001	-5.428084829197077E-002	4.5528024E-005	-8.3891094E-001	0
1.5209607E+004	7.194819838892727E+001	-8.4074277E-001	-5.527708500458983E-002	4.6473808E-005	-8.4091091E-001	0
1.4971410E+004	7.214819838387484E+001	-8.4273815E-001	-5.628983067589344E-002	4.7437588E-005	-8.4291089E-001	0
1.4738783E+004	7.234819837882242E+001	-8.4473497E-001	-5.731375075300182E-002	4.8414928E-005	-8.4491092E-001	0
1.4502375E+004	7.254819837376999E+001	-8.4675890E-001	-5.838760304900414E-002	4.9440223E-005	-8.4691107E-001	0
1.4268491E+004	7.274819836871757E+001	-8.4875852E-001	-5.948481255035643E-002	5.0488241E-005	-8.4891093E-001	0
1.4030414E+004	7.294819836366514E+001	-8.5075355E-001	-6.063638296867402E-002	5.1586620E-005	-8.5091084E-001	0
1.3802142E+004	7.314819835861272E+001	-8.5274279E-001	-6.178336980797003E-002	5.2685322E-005	-8.5291100E-001	0
1.3569107E+004	7.334819835356029E+001	-8.5474539E-001	-6.299201140439981E-002	5.3842130E-005	-8.5491097E-001	0
1.3337783E+004	7.354819834850787E+001	-8.5675585E-001	-6.423524943816028E-002	5.5033925E-005	-8.5691088E-001	0
1.3109162E+004	7.374819834345544E+001	-8.5876715E-001	-6.550892996876279E-002	5.6256918E-005	-8.5891098E-001	0
1.2878778E+004	7.394819833840302E+001	-8.6075580E-001	-6.683520782082142E-002	5.7528792E-005	-8.6091095E-001	0
1.2647489E+004	7.414819833335059E+001	-8.6274421E-001	-6.821466390045627E-002	5.8851805E-005	-8.6291093E-001	0
1.2430060E+004	7.434819832829817E+001	-8.6475003E-001	-6.956925855468032E-002	6.0160019E-005	-8.6491090E-001	0
1.2200388E+004	7.454819832324574E+001	-8.6674887E-001	-7.104273325163901E-002	6.1576211E-005	-8.6691099E-001	0
1.1979226E+004	7.474819831819332E+001	-8.6874455E-001	-7.252092905872676E-002	6.3002160E-005	-8.6891085E-001	0
1.1759352E+004	7.494819831314089E+001	-8.7074220E-001	-7.404678507841100E-002	6.4475658E-005	-8.7091094E-001	0
1.1539802E+004	7.514819830808847E+001	-8.7274057E-001	-7.562872901022455E-002	6.6004257E-005	-8.7291092E-001	0
1.1318275E+004	7.534819830303604E+001	-8.7474221E-001	-7.728581924557415E-002	6.7605171E-005	-8.7491089E-001	0
1.1102044E+004	7.554819829798362E+001	-8.7673408E-001	-7.897050740976563E-002	6.9236135E-005	-8.7691098E-001	0
1.0884821E+004	7.574819829293119E+001	-8.7872285E-001	-8.072919322255961E-002	7.0938586E-005	-8.7891090E-001	0
1.0669370E+004	7.594819828787877E+001	-8.8074672E-001	-8.254908548790518E-002	7.2704839E-005	-8.8091105E-001	0
1.0458520E+004	7.614819828282634E+001	-8.8272232E-001	-8.440222505262523E-002	7.4503725E-005	-8.8291091E-001	0
1.0245611E+004	7.634819827777392E+001	-8.8472426E-001	-8.635153693712971E-002	7.6397300E-005	-8.8491082E-001	0
1.0037289E+004	7.654819827272149E+001	-8.8673657E-001	-8.834423268976277E-002	7.8338060E-005	-8.8691097E-001	0
9.8295586E+003	7.674819826766907E+001	-8.8872522E-001	-9.041354283025238E-002	8.0352795E-005	-8.8891095E-001	0
9.6198350E+003	7.694819826261664E+001	-8.9070815E-001	-9.259078886925876E-002	8.2471372E-005	-8.9091092E-001	0
9.4140381E+003	7.714819825756422E+001	-8.9271027E-001	-9.482755921168673E-002	8.4653533E-005	-8.9291096E-001	0
9.2098340E+003	7.734819825251179E+001	-8.9471978E-001	-9.714830199324087E-002	8.6920511E-005	-8.9491099E-001	0
8.9891611E+003	7.755819824720675E+001	-8.9681131E-001	-9.976584849583681E-002	8.9471141E-005	-8.9701098E-001	0
8.7781045E+003	7.776819824190170E+001	-8.9890659E-001	-1.024032672212511E-001	9.2050970E-005	-8.9911097E-001	0
8.5800791E+003	7.796819823684928E+001	-9.0091395E-001	-1.050006568647264E-001	9.4596558E-005	-9.0111107E-001	0
8.3831523E+003	7.816819823179685E+001	-9.0291625E-001	-1.077060500411169E-001	9.7249540E-005	-9.0311092E-001	0
8.1887734E+003	7.836819822674443E+001	-9.0490043E-001	-1.105050034261399E-001	9.9996025E-005	-9.0511096E-001	0
7.9985591E+003	7.856819822169200E+001	-9.0692234E-001	-1.133857117131640E-001	1.0283203E-004	-9.0711099E-001	0
7.8058281E+003	7.876819821663958E+001	-9.0891683E-001	-1.164407913706129E-001	1.0583500E-004	-9.0911096E-001	0
7.6180679E+003	7.896819821158715E+001	-9.1090220E-001	-1.195712878639110E-001	1.0891775E-004	-9.1111094E-001	0
7.4332383E+003	7.916819820653473E+001	-9.1289711E-001	-1.228128411593827E-001	1.1211549E-004	-9.1311097E-001	0
7.2509214E+003	7.936819820148230E+001	-9.1490805E-001	-1.261781753186561E-001	1.1544143E-004	-9.1511101E-001	0
7.0559541E+003	7.956819819642988E+001	-9.1690749E-001	-1.299480512535489E-001	1.1915034E-004	-9.1711092E-001	0
6.8616113E+003	7.976819819137745E+001	-9.1889423E-001	-1.339181388270052E-001	1.2305661E-004	-9.1911089E-001	0
6.6899565E+003	7.996819818632503E+001	-9.2090201E-001	-1.376544076108838E-001	1.2676622E-004	-9.2111099E-001	0
6.5174272E+003	8.016819818127260E+001	-9.2291170E-001	-1.416067498949377E-001	1.3069053E-004	-9.2311096E-001	0
6.3485488E+003	8.036819817622018E+001	-9.2491513E-001	-1.456892211549825E-001	1.3475017E-004	-9.2511088E-001	0
6.1851416E+003	8.056819817116775E+001	-9.2692500E-001	-1.498631871930516E-001	1.3891194E-004	-9.2711103E-001	0
6.0239580E+003	8.076819816611533E+001	-9.2890579E-001	-1.542018971631896E-001	1.4323903E-004	-9.2911088E-001	0
5.8661914E+003	8.096819816106290E+001	-9.3091416E-001	-1.586914020917818E-001	1.4772807E-004	-9.3111098E-001	0
5.7135210E+003	8.116819815601048E+001	-9.3290645E-001	-1.632804840173818E-001	1.5232542E-004	-9.3311095E-001	0
5.5646323E+003	8.136819815095805E+001	-9.3491167E-001	-1.680096103693617E-001	1.5707414E-004	-9.3511093E-001	0
5.4177529E+003	8.156819814590563E+001	-9.3692499E-001	-1.729360939132352E-001	1.6202815E-004	-9.3711102E-001	0
5.2758511E+003	8.176819814085320E+001	-9.3891603E-001	-1.779648442182458E-001	1.6709404E-004	-9.3911093E-001	0
5.1382129E+003	8.196819813580078E+001	-9.4091719E-001	-1.831214942118313E-001	1.7230216E-004	-9.4111097E-001	0
5.0021006E+003	8.216819813074835E+001	-9.4291574E-001	-1.885039458798912E-001	1.7774334E-004	-9.4311094E-001	0
4.8701250E+003	8.236819812569593E+001	-9.4490653E-001	-1.940209929368821E-001	1.8333171E-004	-9.4511092E-001	0
4.7416851E+003	8.256819812064350E+001	-9.4691873E-001	-1.997008977263599E-001	1.8910052E-004	-9.4711095E-001	0
4.6151807E+003	8.276819811559108E+001	-9.4891727E-001	-2.056078222789326E-001	1.9510482E-004	-9.4911098E-001	0
4.4921396E+003	8.296819811053865E+001	-9.5093805E-001	-2.116893285636259E-001	2.0130344E-004	-9.5111096E-001	0
4.3724780E+003	8.316819810548623E+001	-9.5293397E-001	-2.179391155074311E-001	2.0768159E-004	-9.5311087E-001	0
4.2535210E+003	8.336819810043380E+001	-9.5493650E-001	-2.245049398295289E-001	2.1438797E-004	-9.5511097E-001	0
4.1373296E+003	8.356819809538138E+001	-9.5692712E-001	-2.312910165426540E-001	2.2132865E-004	-9.5711094E-001	0
4.0207732E+003	8.376819809032895E+001	-9.5892489E-001	-2.384926543809686E-001	2.2869655E-004	-9.5911092E-001	0
3.9058494E+003	8.396819808527653E+001	-9.6093076E-001	-2.460235042873419E-001	2.3641155E-004	-9.6111101E-001	0
3.7914858E+003	8.416819808022410E+001	-9.6293527E-001	-2.539730656452807E-001	2.4455963E-004	-9.6311098E-001	0
3.6786147E+003	8.436819807517168E+001	-9.6493179E-001	-2.623084577184818E-001	2.5310976E-004	-9.6511096E-001	0
3.5662957E+003	8.456819807011925E+001	-9.6693063E-001	-2.711302549631043E-001	2.6216416E-004	-9.6711093E-001	0
3.4498655E+003	8.476819806506683E+001	-9.6892285E-001	-2.808581496147520E-001	2.7212987E-004	-9.6911103E-001	0
3.3300779E+003	8.496819806001440E+001	-9.7093010E-001	-2.915637826910271E-001	2.8308804E-004	-9.7111100E-001	0
3.2231040E+003	8.516819805496198E+001	-9.7291827E-001	-3.018575506115893E-001	2.9368274E-004	-9.7311091E-001	0
3.1174932E+003	8.536819804990955E+001	-9.7492683E-001	-3.127278136385092E-001	3.0488672E-004	-9.7511095E-001	0
3.0147410E+003	8.556819804485713E+001	-9.7693563E-001	-3.240529330586697E-001	3.1657887E-004	-9.7711104E-001	0
2.9139329E+003	8.576819803980470E+001	-9.7891939E-001	-3.359443843216883E-001	3.2886246E-004	-9.7911090E-001	0
2.8161775E+003	8.596819803475228E+001	-9.8091263E-001	-3.483134825458405E-001	3.4166509E-004	-9.8111093E-001	0
2.7217380E+003	8.616819802969985E+001	-9.8291993E-001	-3.611368636311347E-001	3.5496862E-004	-9.8311096E-001	0
2.6309954E+003	8.636819802464743E+001	-9.8493075E-001	-3.743566967306187E-001	3.6871541E-004	-9.8511094E-001	0
2.5435347E+003	8.656819801959500E+001	-9.8693091E-001	-3.880155059105610E-001	3.8294450E-004	-9.8711097E-001	0
2.4600801E+003	8.676819801454258E+001	-9.8892725E-001	-4.019898492800678E-001	3.9753871E-004	-9.8911095E-001	0
2.3793508E+003	8.696819800949015E+001	-9.9092788E-001	-4.164698295793610E-001	4.1269156E-004	-9.9111092E-001	0
2.3016606E+003	8.716819800443773E+001	-9.9292660E-001	-4.313957204455150E-001	4.2834430E-004	-9.9311090E-001	0
2.2211638E+003	8.736819799938530E+001	-9.9492180E-001	-4.479281656705951E-001	4.4565351E-004	-9.9511099E-001	0
2.1519888E+003	8.756819799433288E+001	-9.9693161E-001	-4.632606035829117E-001	4.6183914E-004	-9.9711096E-001	0
2.0862981E+003	8.776819798928045E+001	-9.9894017E-001	-4.788099122730003E-001	4.7830245E-004	-9.9911094E-001	0
2.0233955E+003	8.796819798422803E+001	-1.0009497E+000	-4.946881440254849E-001	4.9515796E-004	-1.0011109E+000	0
1.9640012E+003	8.816839797917055E+001	-1.0029397E+000	-5.106614368674434E-001	5.1216263E-004	-1.0031124E+000	0
1.9075121E+003	8.836899797410297E+001	-1.0049542E+000	-5.268402839651793E-001	5.2945036E-004	-1.0051184E+000	0
1.8536515E+003	8.856949796903791E+001	-1.0069516E+000	-5.432259444312351E-001	5.4700224E-004	-1.0071234E+000	0
1.8028062E+003	8.877029796396528E+001	-1.0089600E+000	-5.596608367397380E-001	5.6467543E-004	-1.0091312E+000	0
1.7481187E+003	8.897089795889769E+001	-1.0109465E+000	-5.783054395315652E-001	5.8463588E-004	-1.0111371E+000	0
1.7020157E+003	8.917139795383264E+001	-1.0129716E+000	-5.951599580174527E-001	6.0288014E-004	-1.0131428E+000	0
1.6581476E+003	8.937179794877011E+001	-1.0149829E+000	-6.121185954438166E-001	6.2128995E-004	-1.0151465E+000	0
1.6167498E+003	8.957219794370758E+001	-1.0169810E+000	-6.290280919253801E-001	6.3970964E-004	-1.0171504E+000	0
1.5772640E+003	8.977279793864000E+001	-1.0189928E+000	-6.460508621069252E-001	6.5832114E-004	-1.0191562E+000	0
1.5399298E+003	8.997349793356989E+001	-1.0209911E+000	-6.630114214675844E-001	6.7692873E-004	-1.0211633E+000	0
1.5044801E+003	9.017429792849725E+001	-1.0229985E+000	-6.799680701315545E-001	6.9560629E-004	-1.0231713E+000	0
1.4660740E+003	9.037469792343472E+001	-1.0250080E+000	-6.991516106312403E-001	7.1663596E-004	-1.0251758E+000	0
1.4328361E+003	9.057499791837472E+001	-1.0269955E+000	-7.167571662054355E-001	7.3610642E-004	-1.0271784E+000	0
1.4022228E+003	9.077559791330714E+001	-1.0290111E+000	-7.338428093464948E-001	7.5513241E-004	-1.0291842E+000	0
1.3730293E+003	9.097619790823956E+001	-1.0310283E+000	-7.509149642522210E-001	7.7421457E-004	-1.0311904E+000	0
1.3448579E+003	9.117679790317197E+001	-1.0330276E+000	-7.681314612157486E-001	7.9350104E-004	-1.0331962E+000	0
1.3179025E+003	9.137749789810186E+001	-1.0350393E+000	-7.853686730821323E-001	8.1288745E-004	-1.0352032E+000	0
1.2919963E+003	9.157819789303176E+001	-1.0370255E+000	-8.026535207239291E-001	8.3237211E-004	-1.0372102E+000	0
1.2639977E+003	9.177869788796670E+001	-1.0390544E+000	-8.220381796235654E-001	8.5414236E-004	-1.0392157E+000	0
1.2386237E+003	9.197899788290670E+001	-1.0410390E+000	-8.404804319047958E-001	8.7497290E-004	-1.0412185E+000	0
1.2158044E+003	9.217959787783911E+001	-1.0430442E+000	-8.579046093152995E-001	8.9483242E-004	-1.0432243E+000	0
1.1936249E+003	9.238029787276901E+001	-1.0450522E+000	-8.755281827747616E-001	9.1497262E-004	-1.0452312E+000	0
1.1721842E+003	9.258079786770395E+001	-1.0470742E+000	-8.932675797250775E-001	9.3531742E-004	-1.0472364E+000	0
1.1515020E+003	9.278149786263384E+001	-1.0490552E+000	-9.110321144822109E-001	9.5572299E-004	-1.0492432E+000	0
1.1312194E+003	9.298219785756373E+001	-1.0510973E+000	-9.291719570267603E-001	9.7665016E-004	-1.0512502E+000	0
1.1079972E+003	9.318269785249868E+001	-1.0531036E+000	-9.504568676141458E-001	1.0009295E-003	-1.0532557E+000	0
1.0889613E+003	9.338299784743867E+001	-1.0550790E+000	-9.688856680382196E-001	1.0222509E-003	-1.0552585E+000	0
1.0702897E+003	9.358359784237109E+001	-1.0571101E+000	-9.876859772438543E-001	1.0440928E-003	-1.0572643E+000	0
1.0521602E+003	9.378429783730098E+001	-1.0590913E+000	-1.006587594089954E+000	1.0660682E-003	-1.0592712E+000	0
1.0343055E+003	9.398479783223593E+001	-1.0611095E+000	-1.025914917385368E+000	1.0886081E-003	-1.0612764E+000	0
1.0169967E+003	9.418549782716582E+001	-1.0631214E+000	-1.045353856189838E+000	1.1113381E-003	-1.0632832E+000	0
9.9604059E+002	9.439589782185067E+001	-1.0651788E+000	-1.069412976965186E+000	1.1391160E-003	-1.0653877E+000	0
9.7662531E+002	9.460639781653299E+001	-1.0672688E+000	-1.092813000634108E+000	1.1663253E-003	-1.0674924E+000	0
9.6044788E+002	9.480689781146793E+001	-1.0692899E+000	-1.113324271454314E+000	1.1904665E-003	-1.0694973E+000	0
9.4461847E+002	9.500769780639530E+001	-1.0713109E+000	-1.134120196941870E+000	1.2149953E-003	-1.0715052E+000	0
9.2890765E+002	9.520829780132772E+001	-1.0732995E+000	-1.155442674759286E+000	1.2401361E-003	-1.0735112E+000	0
9.1353461E+002	9.540899779625761E+001	-1.0753046E+000	-1.177081426380809E+000	1.2657212E-003	-1.0755185E+000	0
8.9596912E+002	9.560929779119761E+001	-1.0773183E+000	-1.202405670451810E+000	1.2953737E-003	-1.0775218E+000	0
8.8088055E+002	9.580969778613508E+001	-1.0793147E+000	-1.225267920575146E+000	1.3224497E-003	-1.0795252E+000	0
8.6618793E+002	9.601049778106244E+001	-1.0813199E+000	-1.248366449506637E+000	1.3498835E-003	-1.0815332E+000	0
8.5179144E+002	9.621099777599738E+001	-1.0833197E+000	-1.271813275771496E+000	1.3777803E-003	-1.0835384E+000	0
8.3751044E+002	9.641169777092728E+001	-1.0853111E+000	-1.295877605648334E+000	1.4064303E-003	-1.0855453E+000	0
8.2249890E+002	9.661229776585969E+001	-1.0873214E+000	-1.321973082552242E+000	1.4374097E-003	-1.0875512E+000	0
8.0693188E+002	9.681309776078706E+001	-1.0893159E+000	-1.349947778879745E+000	1.4705196E-003	-1.0895592E+000	0
7.9320422E+002	9.701369775571948E+001	-1.0913436E+000	-1.375867142074108E+000	1.5015439E-003	-1.0915653E+000	0
7.7957080E+002	9.721449775064684E+001	-1.0933505E+000	-1.402503187151304E+000	1.5334276E-003	-1.0935731E+000	0
7.6614142E+002	9.741519774557673E+001	-1.0953662E+000	-1.429718120318668E+000	1.5660650E-003	-1.0955803E+000	0
7.5036389E+002	9.761569774051168E+001	-1.0973634E+000	-1.462441571429085E+000	1.6048298E-003	-1.0975859E+000	0
7.3717242E+002	9.781599773545167E+001	-1.0993775E+000	-1.491343764213473E+000	1.6395499E-003	-1.0995885E+000	0
7.2401697E+002	9.801659773038409E+001	-1.1013734E+000	-1.521198403500138E+000	1.6754075E-003	-1.1015941E+000	0
7.1098309E+002	9.821729772531398E+001	-1.1033998E+000	-1.551935265035262E+000	1.7124050E-003	-1.1036013E+000	0
6.9749176E+002	9.841769772025145E+001	-1.1053808E+000	-1.584794033899715E+000	1.7518009E-003	-1.1056056E+000	0
6.8303015E+002	9.861799771519145E+001	-1.1073945E+000	-1.621296619145953E+000	1.7954148E-003	-1.1076084E+000	0
6.6992188E+002	9.881869771012134E+001	-1.1094136E+000	-1.656034370252071E+000	1.8372271E-003	-1.1096152E+000	0
6.5697156E+002	9.901929770505376E+001	-1.1114066E+000	-1.691711853180728E+000	1.8801796E-003	-1.1116213E+000	0
6.4320697E+002	9.921969769999123E+001	-1.1134075E+000	-1.731025147800249E+000	1.9273363E-003	-1.1136259E+000	0
6.2951660E+002	9.941999769493123E+001	-1.1153997E+000	-1.771835191571459E+000	1.9763045E-003	-1.1156285E+000	0
6.1701929E+002	9.962049768986617E+001	-1.1174123E+000	-1.810984421614418E+000	2.0236163E-003	-1.1176331E+000	0
6.0467102E+002	9.982129768479354E+001	-1.1194181E+000	-1.851284683379156E+000	2.0723618E-003	-1.1196413E+000	0
5.8994452E+002	1.000216976797310E+002	-1.1214234E+000	-1.900896226529717E+000	2.1317094E-003	-1.1216458E+000	0
5.7723029E+002	1.002219976746710E+002	-1.1234419E+000	-1.946262993036505E+000	2.1865135E-003	-1.1236484E+000	0
5.6465350E+002	1.004225976696034E+002	-1.1254442E+000	-1.993158903257523E+000	2.2431891E-003	-1.1256542E+000	0
5.5028381E+002	1.006230976645384E+002	-1.1274433E+000	-2.048839780767873E+000	2.3099508E-003	-1.1276599E+000	0
5.3811121E+002	1.008233976594784E+002	-1.1294571E+000	-2.098928918497873E+000	2.3706502E-003	-1.1296625E+000	0
5.2442285E+002	1.010237976544158E+002	-1.1314533E+000	-2.157520940737619E+000	2.4411341E-003	-1.1316665E+000	0
5.1054828E+002	1.012241976493533E+002	-1.1334671E+000	-2.220097779501955E+000	2.5164078E-003	-1.1336704E+000	0
4.9833334E+002	1.014246976442882E+002	-1.1354660E+000	-2.278527066663241E+000	2.5871899E-003	-1.1356753E+000	0
4.8443512E+002	1.016251976392232E+002	-1.1374841E+000	-2.348062818412700E+000	2.6708841E-003	-1.1376805E+000	0
4.7252634E+002	1.018255976341607E+002	-1.1394650E+000	-2.411431610825325E+000	2.7477418E-003	-1.1396844E+000	0
4.5883865E+002	1.020259976290981E+002	-1.1415035E+000	-2.487810204154783E+000	2.8398440E-003	-1.1416888E+000	0
4.4694946E+002	1.022263976240356E+002	-1.1434850E+000	-2.558421178489603E+000	2.9255161E-003	-1.1436925E+000	0
4.3328656E+002	1.024266976189756E+002	-1.1454841E+000	-2.643710182089407E+000	3.0283281E-003	-1.1456959E+000	0
4.2062039E+002	1.026268976139181E+002	-1.1474909E+000	-2.728091280645970E+000	3.1304597E-003	-1.1476977E+000	0
4.0752887E+002	1.028271976088581E+002	-1.1494802E+000	-2.820610473955004E+000	3.2422359E-003	-1.1497005E+000	0
3.9518799E+002	1.030277976037905E+002	-1.1515095E+000	-2.913827302354761E+000	3.3552998E-003	-1.1517063E+000	0
3.8307599E+002	1.032284975987204E+002	-1.1535217E+000	-3.011208382468880E+000	3.4734940E-003	-1.1537132E+000	0
3.7057523E+002	1.034290975936528E+002	-1.1555067E+000	-3.118143528833304E+000	3.6030358E-003	-1.1557196E+000	0
3.5837585E+002	1.036296975885853E+002	-1.1575210E+000	-3.229907887735521E+000	3.7386862E-003	-1.1577251E+000	0
3.4670267E+002	1.038303975835152E+002	-1.1595250E+000	-3.344436317716927E+000	3.8779576E-003	-1.1597322E+000	0
3.3521204E+002	1.040310975784450E+002	-1.1615307E+000	-3.465062634686548E+000	4.0247766E-003	-1.1617392E+000	0
3.2353824E+002	1.042316975733775E+002	-1.1635550E+000	-3.596344681291880E+000	4.1845450E-003	-1.1637453E+000	0
3.1206808E+002	1.044322975683099E+002	-1.1655551E+000	-3.734938493371232E+000	4.3532765E-003	-1.1657512E+000	0
3.0080466E+002	1.046326975632473E+002	-1.1675425E+000	-3.881397649655824E+000	4.5316964E-003	-1.1677557E+000	0
2.8947601E+002	1.048330975581848E+002	-1.1695379E+000	-4.040189262942436E+000	4.7251545E-003	-1.1697593E+000	0
2.7831174E+002	1.050334975531223E+002	-1.1715670E+000	-4.209549035502697E+000	4.9317684E-003	-1.1717639E+000	0
2.6739264E+002	1.052337975480623E+002	-1.1735743E+000	-4.388955252294849E+000	5.1507652E-003	-1.1737666E+000	0
2.5692084E+002	1.054341975429998E+002	-1.1755710E+000	-4.575615488693138E+000	5.3789606E-003	-1.1757705E+000	0
2.4648984E+002	1.056347975379322E+002	-1.1775740E+000	-4.777373640600587E+000	5.6257113E-003	-1.1777763E+000	0
2.3615898E+002	1.058353975328646E+002	-1.1795744E+000	-4.994831716554941E+000	5.8917752E-003	-1.1797824E+000	0
2.2665768E+002	1.060358975277995E+002	-1.1815803E+000	-5.213060836447784E+000	6.1596502E-003	-1.1817873E+000	0
2.1721838E+002	1.062365975227294E+002	-1.1835942E+000	-5.448867821265212E+000	6.4492486E-003	-1.1837944E+000	0
2.0797807E+002	1.064367975176719E+002	-1.1855845E+000	-5.700526607989445E+000	6.7584561E-003	-1.1857970E+000	0
1.9920549E+002	1.066368975126170E+002	-1.1875815E+000	-5.961590465118860E+000	7.0798746E-003	-1.1877978E+000	0
1.9076039E+002	1.068372975075545E+002	-1.1895908E+000	-6.236047357427175E+000	7.4183447E-003	-1.1898012E+000	0
1.8239615E+002	1.070375975024945E+002	-1.1916106E+000	-6.533090558992772E+000	7.7848998E-003	-1.1918049E+000	0
1.7450993E+002	1.072378974974345E+002	-1.1935977E+000	-6.839711889807177E+000	8.1638638E-003	-1.1938072E+000	0
1.6687134E+002	1.074381974923745E+002	-1.1956249E+000	-7.164951071176944E+000	8.5665947E-003	-1.1958109E+000	0
1.5926917E+002	1.076385974873119E+002	-1.1976298E+000	-7.519533445537434E+000	9.0056174E-003	-1.1978142E+000	0
1.5218547E+002	1.078392974822418E+002	-1.1996163E+000	-7.882594362094324E+000	9.4560888E-003	-1.1998212E+000	0
1.4507704E+002	1.080396974771793E+002	-1.2016488E+000	-8.282832350765176E+000	9.9530555E-003	-1.2018259E+000	0
1.3846400E+002	1.082401974721142E+002	-1.2036351E+000	-8.692765453063103E+000	1.0462917E-002	-1.2038306E+000	0
1.3223418E+002	1.084405974670517E+002	-1.2056302E+000	-9.117387014210408E+000	1.0992197E-002	-1.2058345E+000	0
1.2595178E+002	1.086409974619892E+002	-1.2076488E+000	-9.588183370975845E+000	1.1579158E-002	-1.2078384E+000	0
1.2019376E+002	1.088413974569266E+002	-1.2096422E+000	-1.006410122189501E+001	1.2173961E-002	-1.2098423E+000	0
1.1465816E+002	1.090419974518591E+002	-1.2116532E+000	-1.056752713730759E+001	1.2804179E-002	-1.2118485E+000	0
1.0883819E+002	1.092525974465389E+002	-1.2137376E+000	-1.115176229303006E+001	1.3535313E-002	-1.2139540E+000	0
1.0333324E+002	1.094631974412187E+002	-1.2158505E+000	-1.176630487017991E+001	1.4306067E-002	-1.2160604E+000	0
9.8446060E+001	1.096635974361561E+002	-1.2178713E+000	-1.237094988615105E+001	1.5066225E-002	-1.2180645E+000	0
9.3913605E+001	1.098640974310911E+002	-1.2198769E+000	-1.298935170262172E+001	1.5845411E-002	-1.2200695E+000	0
8.9738693E+001	1.100642974260336E+002	-1.2218862E+000	-1.361604551482395E+001	1.6637258E-002	-1.2220718E+000	0
8.5546280E+001	1.102644974209761E+002	-1.2238960E+000	-1.430682922567044E+001	1.7510071E-002	-1.2240736E+000	0
8.1587646E+001	1.104645974159212E+002	-1.2258822E+000	-1.502534098203490E+001	1.8419297E-002	-1.2260749E+000	0
7.8009972E+001	1.106649974108586E+002	-1.2278931E+000	-1.574020707739334E+001	1.9327292E-002	-1.2280784E+000	0
7.4468124E+001	1.108652974057986E+002	-1.2298815E+000	-1.651554340881611E+001	2.0312162E-002	-1.2300819E+000	0
7.1078323E+001	1.110655974007386E+002	-1.2319003E+000	-1.733159028765877E+001	2.1350792E-002	-1.2320845E+000	0
6.8023827E+001	1.112659973956761E+002	-1.2339025E+000	-1.813926837376698E+001	2.2382088E-002	-1.2340885E+000	0
6.5197578E+001	1.114661973906186E+002	-1.2359114E+000	-1.895640054743853E+001	2.3428431E-002	-1.2360910E+000	0
6.2491966E+001	1.116661973855662E+002	-1.2378989E+000	-1.980892989343533E+001	2.4521453E-002	-1.2380909E+000	0
5.9951775E+001	1.118663973805087E+002	-1.2399108E+000	-2.068180432002322E+001	2.5643593E-002	-1.2400924E+000	0
5.7552795E+001	1.120667973754462E+002	-1.2419096E+000	-2.157861453092096E+001	2.6798690E-002	-1.2420965E+000	0
5.5198833E+001	1.122671973703837E+002	-1.2439280E+000	-2.253540267702670E+001	2.8032416E-002	-1.2441008E+000	0
5.3011963E+001	1.124676973653186E+002	-1.2459285E+000	-2.350278110174428E+001	2.9282786E-002	-1.2461051E+000	0
5.0952137E+001	1.126681973602535E+002	-1.2479357E+000	-2.449231264135057E+001	3.0564830E-002	-1.2481105E+000	0
4.9056545E+001	1.128686973551885E+002	-1.2499464E+000	-2.547970564100673E+001	3.1848267E-002	-1.2501156E+000	0
4.7233109E+001	1.130688973501310E+002	-1.2519330E+000	-2.650541218653882E+001	3.3183001E-002	-1.2521178E+000	0
4.5580746E+001	1.132692973450685E+002	-1.2539489E+000	-2.751049687378338E+001	3.4496758E-002	-1.2541214E+000	0
4.4063366E+001	1.134697973400034E+002	-1.2559401E+000	-2.850304388297494E+001	3.5798114E-002	-1.2561265E+000	0
4.2442268E+001	1.136702973349384E+002	-1.2579495E+000	-2.963907178665488E+001	3.7284456E-002	-1.2581313E+000	0
4.1050121E+001	1.138708973298708E+002	-1.2599484E+000	-3.069292570700742E+001	3.8671501E-002	-1.2601373E+000	0
3.9732002E+001	1.140713973248057E+002	-1.2619655E+000	-3.176194241753183E+001	4.0082477E-002	-1.2621424E+000	0
3.8701214E+001	1.142618973199933E+002	-1.2638662E+000	-3.265701700602094E+001	4.1274101E-002	-1.2640475E+000	0
3.7672874E+001	1.144523973151809E+002	-1.2657841E+000	-3.359935049810395E+001	4.2529523E-002	-1.2659523E+000	0
3.6454590E+001	1.146527973101183E+002	-1.2677822E+000	-3.477702664216963E+001	4.4089697E-002	-1.2679566E+000	0
3.5301643E+001	1.148530973050583E+002	-1.2697806E+000	-3.596944790540643E+001	4.5673307E-002	-1.2699598E+000	0
3.4252323E+001	1.150534972999958E+002	-1.2717859E+000	-3.712991638891754E+001	4.7221303E-002	-1.2719632E+000	0
3.3302864E+001	1.152440972951808E+002	-1.2736830E+000	-3.824544793215603E+001	4.8712574E-002	-1.2738694E+000	0
3.2353947E+001	1.154343972903735E+002	-1.2756106E+000	-3.942673761491903E+001	5.0293162E-002	-1.2757725E+000	0
3.1404631E+001	1.156247972855635E+002	-1.2775058E+000	-4.067889685376463E+001	5.1967524E-002	-1.2776763E+000	0
3.0427202E+001	1.158152972807511E+002	-1.2794148E+000	-4.204838596561746E+001	5.3797327E-002	-1.2795813E+000	0
2.9487408E+001	1.160157972756861E+002	-1.2814207E+000	-4.345653970033788E+001	5.5686109E-002	-1.2815865E+000	0
2.8661926E+001	1.162162972706210E+002	-1.2834239E+000	-4.477800456967628E+001	5.7469163E-002	-1.2835914E+000	0
2.7725010E+001	1.164167972655559E+002	-1.2854366E+000	-4.636379231981275E+001	5.9597716E-002	-1.2855966E+000	0
2.6846512E+001	1.166171972604934E+002	-1.2874410E+000	-4.795561666925255E+001	6.1740030E-002	-1.2876005E+000	0
2.6018093E+001	1.168174972554334E+002	-1.2894530E+000	-4.955986074688099E+001	6.3905112E-002	-1.2896037E+000	0
2.5407541E+001	1.170077972506260E+002	-1.2913361E+000	-5.082491067935985E+001	6.5632038E-002	-1.2915064E+000	0
2.4735952E+001	1.171981972458161E+002	-1.2932789E+000	-5.228336876043954E+001	6.7616977E-002	-1.2934104E+000	0
2.4049709E+001	1.173984972407561E+002	-1.2952639E+000	-5.385777895021670E+001	6.9760039E-002	-1.2954137E+000	0
2.3061642E+001	1.175985972357012E+002	-1.2972783E+000	-5.625264211793058E+001	7.2975330E-002	-1.2974149E+000	0
2.2583694E+001	1.177788972311464E+002	-1.2990775E+000	-5.752280778114167E+001	7.4726589E-002	-1.2992175E+000	0
2.1886044E+001	1.179690972263415E+002	-1.3009871E+000	-5.944368686686641E+001	7.7335469E-002	-1.3011196E+000	0
2.1404617E+001	1.181593972215342E+002	-1.3028787E+000	-6.086905071924502E+001	7.9304993E-002	-1.3030225E+000	0
2.0989866E+001	1.183596972164742E+002	-1.3048835E+000	-6.216730619015016E+001	8.1121095E-002	-1.3050252E+000	0
2.0363705E+001	1.185603972114041E+002	-1.3068845E+000	-6.417714904931654E+001	8.3872125E-002	-1.3070322E+000	0
1.9694572E+001	1.187608972063390E+002	-1.3088928E+000	-6.645957074487706E+001	8.6988457E-002	-1.3090378E+000	0
1.9089001E+001	1.189511972015316E+002	-1.3107842E+000	-6.866698930699158E+001	9.0007603E-002	-1.3109403E+000	0
1.8575285E+001	1.191316971969718E+002	-1.3126130E+000	-7.066449115617559E+001	9.2755131E-002	-1.3127451E+000	0
1.7965654E+001	1.193221971921594E+002	-1.3145213E+000	-7.316857791038512E+001	9.6181653E-002	-1.3146504E+000	0
1.7534725E+001	1.195226971870943E+002	-1.3165119E+000	-7.508026870683730E+001	9.8844066E-002	-1.3166556E+000	0
1.6964724E+001	1.197132971822793E+002	-1.3184228E+000	-7.771554426082753E+001	1.0246194E-001	-1.3185612E+000	0
1.6520245E+001	1.198938971777170E+002	-1.3202238E+000	-7.991551477592452E+001	1.0550637E-001	-1.3203672E+000	0
1.6032675E+001	1.200841971729096E+002	-1.3221239E+000	-8.246433213454515E+001	1.0902806E-001	-1.3222711E+000	0
1.5469049E+001	1.202843971678521E+002	-1.3241349E+000	-8.559898467980554E+001	1.1334461E-001	-1.3242725E+000	0
1.5139900E+001	1.204848971627871E+002	-1.3261638E+000	-8.759395858061839E+001	1.1616393E-001	-1.3262773E+000	0
1.4927896E+001	1.206753971579747E+002	-1.3280374E+000	-8.896346464991382E+001	1.1814681E-001	-1.3281823E+000	0
1.4613661E+001	1.208659971531597E+002	-1.3299667E+000	-9.100845336943178E+001	1.2103821E-001	-1.3300884E+000	0
1.4240682E+001	1.210664971480946E+002	-1.3319691E+000	-9.353268408521333E+001	1.2458265E-001	-1.3320932E+000	0
1.3791027E+001	1.212668971430321E+002	-1.3339596E+000	-9.672662888227705E+001	1.2902941E-001	-1.3340977E+000	0
1.3182589E+001	1.214673971379671E+002	-1.3359717E+000	-1.013436521236750E+002	1.3539225E-001	-1.3361022E+000	0
1.3017592E+001	1.216478971334072E+002	-1.3377930E+000	-1.027680838420779E+002	1.3748242E-001	-1.3379076E+000	0
1.2766748E+001	1.218480971283498E+002	-1.3397751E+000	-1.049425499531967E+002	1.4059941E-001	-1.3399098E+000	0
1.2443504E+001	1.220283971237950E+002	-1.3415768E+000	-1.078134229215992E+002	1.4463998E-001	-1.3417124E+000	0
1.2145581E+001	1.222189971189800E+002	-1.3434443E+000	-1.106117824246769E+002	1.4860077E-001	-1.3436189E+000	0
1.1705647E+001	1.224293971136649E+002	-1.3455464E+000	-1.149484835410451E+002	1.5466851E-001	-1.3457224E+000	0
1.1464136E+001	1.226299971085973E+002	-1.3475593E+000	-1.175456477857916E+002	1.5839973E-001	-1.3477284E+000	0
1.1183265E+001	1.228101971040451E+002	-1.3493348E+000	-1.206566109636979E+002	1.6280617E-001	-1.3495302E+000	0
1.0561250E+001	1.229903970994928E+002	-1.3511609E+000	-1.279356956687379E+002	1.7286171E-001	-1.3513329E+000	0
1.0542889E+001	1.231904970944379E+002	-1.3531712E+000	-1.283491967964920E+002	1.7367844E-001	-1.3533337E+000	0
1.0316348E+001	1.233807970896305E+002	-1.3550687E+000	-1.313515900466518E+002	1.7799042E-001	-1.3552363E+000	0
1.0177729E+001	1.235710970848231E+002	-1.3569852E+000	-1.333288860683704E+002	1.8092532E-001	-1.3571396E+000	0
1.0127308E+001	1.237613970800157E+002	-1.3588983E+000	-1.341815899572171E+002	1.8233913E-001	-1.3590417E+000	0
1.0010636E+001	1.239516970752084E+002	-1.3608018E+000	-1.359355941315358E+002	1.8498141E-001	-1.3609457E+000	0
9.5945768E+000	1.241420970703984E+002	-1.3627002E+000	-1.420281794546156E+002	1.9354182E-001	-1.3628490E+000	0
9.4476061E+000	1.243324970655885E+002	-1.3646058E+000	-1.444393202575097E+002	1.9710273E-001	-1.3647535E+000	0
9.3210812E+000	1.245327970605285E+002	-1.3665912E+000	-1.466129503421480E+002	2.0035997E-001	-1.3667566E+000	0
9.3276405E+000	1.246832970567266E+002	-1.3681200E+000	-1.466737389221939E+002	2.0066726E-001	-1.3682612E+000	0
9.3005104E+000	1.248437970526720E+002	-1.3697172E+000	-1.472733430267244E+002	2.0172283E-001	-1.3698663E+000	0
9.1991310E+000	1.250240970481173E+002	-1.3715234E+000	-1.490927076614043E+002	2.0448413E-001	-1.3716697E+000	0
8.9888697E+000	1.252141970433149E+002	-1.3734187E+000	-1.527910322602376E+002	2.0984606E-001	-1.3735709E+000	0
8.8125734E+000	1.254144970382549E+002	-1.3754357E+000	-1.560765087364331E+002	2.1467321E-001	-1.3755736E+000	0
8.6523037E+000	1.255848970339503E+002	-1.3771285E+000	-1.591632192083071E+002	2.1918820E-001	-1.3772771E+000	0
8.4376116E+000	1.257652970293930E+002	-1.3789436E+000	-1.634281795367747E+002	2.2535823E-001	-1.3790815E+000	0
8.1141367E+000	1.259356970250883E+002	-1.3806317E+000	-1.701513983159298E+002	2.3491642E-001	-1.3807852E+000	0
8.0452566E+000	1.261162970205260E+002	-1.3824538E+000	-1.718346359882207E+002	2.3755345E-001	-1.3825911E+000	0
7.9017706E+000	1.263070970157059E+002	-1.3843484E+000	-1.751947118652806E+002	2.4253052E-001	-1.3844991E+000	0
7.5441060E+000	1.264974970108960E+002	-1.3862826E+000	-1.837570364370868E+002	2.5473917E-001	-1.3864038E+000	0
7.4837046E+000	1.266976970058386E+002	-1.3882899E+000	-1.855083860826221E+002	2.5753942E-001	-1.3884057E+000	0
7.5176873E+000	1.268978970007811E+002	-1.3902646E+000	-1.849324865119711E+002	2.5710508E-001	-1.3904078E+000	0
7.2367091E+000	1.270681969964789E+002	-1.3919710E+000	-1.923486205933496E+002	2.6774371E-001	-1.3921098E+000	0
7.2435031E+000	1.271787969936850E+002	-1.3930982E+000	-1.923238209406804E+002	2.6792598E-001	-1.3932154E+000	0
7.3108988E+000	1.272892969908935E+002	-1.3942149E+000	-1.907036253994445E+002	2.6588184E-001	-1.3943204E+000	0
7.3655105E+000	1.273996969881046E+002	-1.3953038E+000	-1.894374919024385E+002	2.6432285E-001	-1.3954242E+000	0
7.3712158E+000	1.274608969865585E+002	-1.3959051E+000	-1.893724475488107E+002	2.6434597E-001	-1.3960369E+000	0
7.3269520E+000	1.275120969852651E+002	-1.3964394E+000	-1.905894047086113E+002	2.6614657E-001	-1.3965483E+000	0
7.2260938E+000	1.276028969829713E+002	-1.3973200E+000	-1.933714231087165E+002	2.7020177E-001	-1.3974565E+000	0
7.1008916E+000	1.277134969801773E+002	-1.3984371E+000	-1.969382481053256E+002	2.7540576E-001	-1.3985621E+000	0
7.0766802E+000	1.278144969776258E+002	-1.3994532E+000	-1.977556085771585E+002	2.7674970E-001	-1.3995726E+000	0
7.0585961E+000	1.279451969743241E+002	-1.4007642E+000	-1.984479859172429E+002	2.7797884E-001	-1.4008789E+000	0
6.9617386E+000	1.280460969717751E+002	-1.4017522E+000	-2.013508879777792E+002	2.8224406E-001	-1.4018881E+000	0
6.8806858E+000	1.281469969692262E+002	-1.4027919E+000	-2.038738408811250E+002	2.8599256E-001	-1.4028971E+000	0
6.8868165E+000	1.282379969669273E+002	-1.4037240E+000	-2.038277042300838E+002	2.8611782E-001	-1.4038076E+000	0
6.9239478E+000	1.283090969651312E+002	-1.4044262E+000	-2.028360517512933E+002	2.8486827E-001	-1.4045184E+000	0
6.9331994E+000	1.283406969643329E+002	-1.4047358E+000	-2.026100399030579E+002	2.8461358E-001	-1.4048342E+000	0
6.8849368E+000	1.283722969635346E+002	-1.4050294E+000	-2.040729543923201E+002	2.8672850E-001	-1.4051503E+000	0
6.8581991E+000	1.284434969617359E+002	-1.4057552E+000	-2.049743894770590E+002	2.8814381E-001	-1.4058620E+000	0
6.7924018E+000	1.285444969591845E+002	-1.4067575E+000	-2.071075213577678E+002	2.9135007E-001	-1.4068723E+000	0
6.7244496E+000	1.286551969563880E+002	-1.4078816E+000	-2.093675649601191E+002	2.9476476E-001	-1.4079796E+000	0
6.7086043E+000	1.287858969530862E+002	-1.4091829E+000	-2.100560492188120E+002	2.9600739E-001	-1.4092863E+000	0
6.6746960E+000	1.289065969500371E+002	-1.4104108E+000	-2.113071200548229E+002	2.9802984E-001	-1.4104933E+000	0
6.6625986E+000	1.290172969472405E+002	-1.4114909E+000	-2.118529143829915E+002	2.9902846E-001	-1.4116001E+000	0
6.6824989E+000	1.291178969446992E+002	-1.4125365E+000	-2.113784814163992E+002	2.9857981E-001	-1.4126070E+000	0
6.6886225E+000	1.291492969439059E+002	-1.4128320E+000	-2.112291495369536E+002	2.9843131E-001	-1.4129200E+000	0
6.6918449E+000	1.291808969431077E+002	-1.4131542E+000	-2.111755772106530E+002	2.9842368E-001	-1.4132375E+000	0
6.7012763E+000	1.292716969408139E+002	-1.4140464E+000	-2.110115079586878E+002	2.9838008E-001	-1.4141444E+000	0
6.5249677E+000	1.293526969387676E+002	-1.4148346E+000	-2.168339624458617E+002	3.0678418E-001	-1.4149543E+000	0
6.4455566E+000	1.294435969364713E+002	-1.4157387E+000	-2.196456809457468E+002	3.1096089E-001	-1.4158633E+000	0
6.4179654E+000	1.295541969336773E+002	-1.4168782E+000	-2.207675041768071E+002	3.1280068E-001	-1.4169697E+000	0
6.3553705E+000	1.296846969303806E+002	-1.4181613E+000	-2.231437593419109E+002	3.1645384E-001	-1.4182744E+000	0
6.1091256E+000	1.297952969275866E+002	-1.4192566E+000	-2.323174707382259E+002	3.2971808E-001	-1.4193808E+000	0
6.1397748E+000	1.298762969255404E+002	-1.4201249E+000	-2.312991879197962E+002	3.2847375E-001	-1.4201900E+000	0
6.2288036E+000	1.299376969239893E+002	-1.4207112E+000	-2.280873174946701E+002	3.2404619E-001	-1.4208039E+000	0
6.2380047E+000	1.300186969219430E+002	-1.4215224E+000	-2.278809408603993E+002	3.2393786E-001	-1.4216144E+000	0
6.2058330E+000	1.300996969198968E+002	-1.4223498E+000	-2.291956393503497E+002	3.2599637E-001	-1.4224238E+000	0
6.1758013E+000	1.302004969173504E+002	-1.4233288E+000	-2.304686696911253E+002	3.2803267E-001	-1.4234320E+000	0
6.1282401E+000	1.302815969153016E+002	-1.4241246E+000	-2.323872130225909E+002	3.3094835E-001	-1.4242433E+000	0
6.0224853E+000	1.303428969137531E+002	-1.4247365E+000	-2.365695318681096E+002	3.3704925E-001	-1.4248559E+000	0
5.9654341E+000	1.304041969122045E+002	-1.4253349E+000	-2.389322997210393E+002	3.4055856E-001	-1.4254695E+000	0
5.9508247E+000	1.304948969099132E+002	-1.4262892E+000	-2.396792549353763E+002	3.4185192E-001	-1.4263766E+000	0
5.9359808E+000	1.305858969076144E+002	-1.4271753E+000	-2.404278763372618E+002	3.4313273E-001	-1.4272861E+000	0
5.9479074E+000	1.306570969058157E+002	-1.4279170E+000	-2.400704802931497E+002	3.4280071E-001	-1.4279983E+000	0
5.9207697E+000	1.307380969037695E+002	-1.4287109E+000	-2.413049241303788E+002	3.4475499E-001	-1.4288082E+000	0
5.9030690E+000	1.308390969012180E+002	-1.4297484E+000	-2.422042435714002E+002	3.4629112E-001	-1.4298182E+000	0
5.8100891E+000	1.309203968991642E+002	-1.4304971E+000	-2.462091469382476E+002	3.5220146E-001	-1.4306309E+000	0
5.5680909E+000	1.310015968971129E+002	-1.4313178E+000	-2.570571907808634E+002	3.6793053E-001	-1.4314432E+000	0
5.5714936E+000	1.310430968960645E+002	-1.4317445E+000	-2.569767707494379E+002	3.6792508E-001	-1.4318587E+000	0
5.5748386E+000	1.311043968945160E+002	-1.4323872E+000	-2.569378741803394E+002	3.6803454E-001	-1.4324709E+000	0
5.5174503E+000	1.311951968922222E+002	-1.4332709E+000	-2.597705121243148E+002	3.7232152E-001	-1.4333797E+000	0
5.4750476E+000	1.312563968906761E+002	-1.4339045E+000	-2.618981048536584E+002	3.7553689E-001	-1.4339911E+000	0
5.4220729E+000	1.312980968896227E+002	-1.4343054E+000	-2.645308179329090E+002	3.7941799E-001	-1.4344078E+000	0
5.4760146E+000	1.313792968875714E+002	-1.4351546E+000	-2.620801179081491E+002	3.7612548E-001	-1.4352199E+000	0
5.5393171E+000	1.314604968855201E+002	-1.4359550E+000	-2.592296068079727E+002	3.7224206E-001	-1.4360318E+000	0
5.5423303E+000	1.315317968837189E+002	-1.4366691E+000	-2.592175317589299E+002	3.7240982E-001	-1.4367459E+000	0
5.5412564E+000	1.316030968819177E+002	-1.4373686E+000	-2.593939889674375E+002	3.7284479E-001	-1.4374580E+000	0
5.4796495E+000	1.316644968803666E+002	-1.4379817E+000	-2.624222142388269E+002	3.7735835E-001	-1.4380722E+000	0
5.4121809E+000	1.317257968788181E+002	-1.4385697E+000	-2.658022253207910E+002	3.8237503E-001	-1.4386853E+000	0
5.3617287E+000	1.317969968770194E+002	-1.4392949E+000	-2.684385931647748E+002	3.8636231E-001	-1.4393969E+000	0
5.3624530E+000	1.318680968752233E+002	-1.4400225E+000	-2.685380202954093E+002	3.8670078E-001	-1.4401085E+000	0
5.3279581E+000	1.319193968739273E+002	-1.4405438E+000	-2.703744586677331E+002	3.8948625E-001	-1.4406209E+000	0
5.3068295E+000	1.319905968721287E+002	-1.4412504E+000	-2.715840944955235E+002	3.9142069E-001	-1.4413332E+000	0
5.3431458E+000	1.321211968688294E+002	-1.4426050E+000	-2.699916934278713E+002	3.8949138E-001	-1.4426399E+000	0
5.2878375E+000	1.322122968665281E+002	-1.4433991E+000	-2.729658401370380E+002	3.9399865E-001	-1.4435499E+000	0
5.2497067E+000	1.322833968647319E+002	-1.4441687E+000	-2.750951183446359E+002	3.9728376E-001	-1.4442614E+000	0
5.2420726E+000	1.323841968621855E+002	-1.4451944E+000	-2.756914096365729E+002	3.9842767E-001	-1.4452691E+000	0
5.2554984E+000	1.324850968596365E+002	-1.4461871E+000	-2.751760161359689E+002	3.9795601E-001	-1.4462782E+000	0
5.2031050E+000	1.325958968568375E+002	-1.4472804E+000	-2.781570692517994E+002	4.0257129E-001	-1.4473858E+000	0
5.2557330E+000	1.326968968542860E+002	-1.4483069E+000	-2.755670695741173E+002	3.9910570E-001	-1.4483958E+000	0
5.2303534E+000	1.327878968519872E+002	-1.4491954E+000	-2.770740916438244E+002	4.0153450E-001	-1.4493061E+000	0
5.1492805E+000	1.328788968496883E+002	-1.4500748E+000	-2.816072719396623E+002	4.0835160E-001	-1.4502158E+000	0
5.1687574E+000	1.329303968483873E+002	-1.4506358E+000	-2.806546392160390E+002	4.0712768E-001	-1.4507309E+000	0
5.2016025E+000	1.330016968465861E+002	-1.4513459E+000	-2.790190078205542E+002	4.0495309E-001	-1.4514438E+000	0
5.1817703E+000	1.330531968452851E+002	-1.4518468E+000	-2.801835596770829E+002	4.0678361E-001	-1.4519588E+000	0
5.2098927E+000	1.331144968437366E+002	-1.4525011E+000	-2.787967258065282E+002	4.0495253E-001	-1.4525721E+000	0
5.2496614E+000	1.331856968419379E+002	-1.4532031E+000	-2.768184477637549E+002	4.0227342E-001	-1.4532841E+000	0
5.2858357E+000	1.332370968406394E+002	-1.4537117E+000	-2.750202314142919E+002	3.9980015E-001	-1.4537982E+000	0
5.2960992E+000	1.333577968375903E+002	-1.4549044E+000	-2.747124593198623E+002	3.9968038E-001	-1.4550052E+000	0
5.2819290E+000	1.334686968347887E+002	-1.4560082E+000	-2.756584196711228E+002	4.0136093E-001	-1.4561139E+000	0
5.2727885E+000	1.335497968327400E+002	-1.4567971E+000	-2.762858875892135E+002	4.0249249E-001	-1.4569253E+000	0
5.2859282E+000	1.336109968311939E+002	-1.4574342E+000	-2.757196250639172E+002	4.0184319E-001	-1.4575373E+000	0
5.2714396E+000	1.337116968286500E+002	-1.4584373E+000	-2.766677566345352E+002	4.0350258E-001	-1.4585444E+000	0
5.2581449E+000	1.338122968261087E+002	-1.4594353E+000	-2.775570939325057E+002	4.0507662E-001	-1.4595504E+000	0
5.1724048E+000	1.339128968235673E+002	-1.4604423E+000	-2.823526647711512E+002	4.1235977E-001	-1.4605564E+000	0
5.1138129E+000	1.339740968220212E+002	-1.4610454E+000	-2.857056704522392E+002	4.1742894E-001	-1.4611681E+000	0
5.0700116E+000	1.339760968219707E+002	-1.4610893E+000	-2.881826301780020E+002	4.2106053E-001	-1.4611881E+000	0
5.0301347E+000	1.339879968216701E+002	-1.4611970E+000	-2.904886530502749E+002	4.2446116E-001	-1.4613072E+000	0
4.9265628E+000	1.339998968213695E+002	-1.4613338E+000	-2.966233835154111E+002	4.3346575E-001	-1.4614261E+000	0
4.9096894E+000	1.340512968200710E+002	-1.4618870E+000	-2.977555023581272E+002	4.3528491E-001	-1.4619409E+000	0
4.9260278E+000	1.341323968180222E+002	-1.4626833E+000	-2.969295615369983E+002	4.3431392E-001	-1.4627512E+000	0
4.9253716E+000	1.341738968169739E+002	-1.4630760E+000	-2.970488500365773E+002	4.3460503E-001	-1.4631667E+000	0
4.8355145E+000	1.342546968149327E+002	-1.4638599E+000	-3.027309538448458E+002	4.4315571E-001	-1.4639744E+000	0
4.7216578E+000	1.343656968121286E+002	-1.4649905E+000	-3.102703627303713E+002	4.5454314E-001	-1.4650840E+000	0
4.7011819E+000	1.344667968095746E+002	-1.4660550E+000	-3.118481855315804E+002	4.5718661E-001	-1.4660951E+000	0
4.7398534E+000	1.345183968082711E+002	-1.4665612E+000	-3.094106660604439E+002	4.5376968E-001	-1.4666109E+000	0
4.8118453E+000	1.345599968072202E+002	-1.4670113E+000	-3.048750092213950E+002	4.4725510E-001	-1.4670271E+000	0
4.8308344E+000	1.346312968054190E+002	-1.4676770E+000	-3.038143846720745E+002	4.4590139E-001	-1.4677401E+000	0
4.8466268E+000	1.346530968048683E+002	-1.4678928E+000	-3.028689379228490E+002	4.4457912E-001	-1.4679581E+000	0
4.8477392E+000	1.346550968048177E+002	-1.4679180E+000	-3.028046760294183E+002	4.4449246E-001	-1.4679782E+000	0
4.8334594E+000	1.346768968042670E+002	-1.4681368E+000	-3.037445317669049E+002	4.4593853E-001	-1.4681959E+000	0
4.6815495E+000	1.347283968029660E+002	-1.4686127E+000	-3.137022700887135E+002	4.6070713E-001	-1.4687114E+000	0
4.5977669E+000	1.348193968006672E+002	-1.4695503E+000	-3.196225953223543E+002	4.6970147E-001	-1.4696212E+000	0
4.6067395E+000	1.348905967988685E+002	-1.4703379E+000	-3.191710455831317E+002	4.6928927E-001	-1.4703332E+000	0
4.6277366E+000	1.349419967975700E+002	-1.4707978E+000	-3.178222738885615E+002	4.6745229E-001	-1.4708471E+000	0
4.5059481E+000	1.350427967950236E+002	-1.4717048E+000	-3.266137966897468E+002	4.8067909E-001	-1.4718552E+000	0
4.4324002E+000	1.351534967922271E+002	-1.4728812E+000	-3.322987723119281E+002	4.8943663E-001	-1.4729621E+000	0
4.4619260E+000	1.352443967899308E+002	-1.4738574E+000	-3.303186744744944E+002	4.8684263E-001	-1.4738714E+000	0
4.5351033E+000	1.352758967891350E+002	-1.4741629E+000	-3.250560881512183E+002	4.7918564E-001	-1.4741867E+000	0
4.5445566E+000	1.352975967885868E+002	-1.4744140E+000	-3.244351581843366E+002	4.7835174E-001	-1.4744033E+000	0
4.5580473E+000	1.353489967872883E+002	-1.4748712E+000	-3.235752186430468E+002	4.7723177E-001	-1.4749172E+000	0
4.5642686E+000	1.354101967857423E+002	-1.4755008E+000	-3.232721229096373E+002	4.7698829E-001	-1.4755293E+000	0
4.5671458E+000	1.354318967851941E+002	-1.4757046E+000	-3.231130785478472E+002	4.7681943E-001	-1.4757460E+000	0
4.5676303E+000	1.354338967851436E+002	-1.4757323E+000	-3.230848852396020E+002	4.7678682E-001	-1.4757662E+000	0
4.5602369E+000	1.354754967840927E+002	-1.4761214E+000	-3.236940207235239E+002	4.7781169E-001	-1.4761819E+000	0
4.4847207E+000	1.355467967822915E+002	-1.4768021E+000	-3.292963347253462E+002	4.8630553E-001	-1.4768955E+000	0
4.4630671E+000	1.356081967807404E+002	-1.4774286E+000	-3.310343676820917E+002	4.8907962E-001	-1.4775091E+000	0
4.4363322E+000	1.356594967794445E+002	-1.4779332E+000	-3.331430402856727E+002	4.9236315E-001	-1.4780222E+000	0
4.3473516E+000	1.357404967773982E+002	-1.4786856E+000	-3.401348009162889E+002	5.0295246E-001	-1.4788320E+000	0
4.2647262E+000	1.357919967760972E+002	-1.4792353E+000	-3.468535244176419E+002	5.1307797E-001	-1.4793471E+000	0
4.2688193E+000	1.358137967755465E+002	-1.4795059E+000	-3.465843204104654E+002	5.1277357E-001	-1.4795649E+000	0
4.3060923E+000	1.358652967742455E+002	-1.4800687E+000	-3.437150359951656E+002	5.0872189E-001	-1.4800800E+000	0
4.3251209E+000	1.359265967726969E+002	-1.4806144E+000	-3.423290194517904E+002	5.0685728E-001	-1.4806933E+000	0
4.2771983E+000	1.359581967718987E+002	-1.4809415E+000	-3.462410277047112E+002	5.1276273E-001	-1.4810088E+000	0
4.2436929E+000	1.359996967708503E+002	-1.4813653E+000	-3.490745927418066E+002	5.1710701E-001	-1.4814248E+000	0
4.2959104E+000	1.360707967690541E+002	-1.4821057E+000	-3.450038709592081E+002	5.1133221E-001	-1.4821352E+000	0
4.3636174E+000	1.361616967667578E+002	-1.4830217E+000	-3.398606117752315E+002	5.0402069E-001	-1.4830445E+000	0
4.3834357E+000	1.362426967647116E+002	-1.4837855E+000	-3.384983035517480E+002	5.0225890E-001	-1.4838545E+000	0
4.3946152E+000	1.362742967639133E+002	-1.4841229E+000	-3.377139391435512E+002	5.0120896E-001	-1.4841701E+000	0
4.3724999E+000	1.363059967631125E+002	-1.4843907E+000	-3.394832899833191E+002	5.0392586E-001	-1.4844869E+000	0
4.3263474E+000	1.363671967615664E+002	-1.4850203E+000	-3.432503637241578E+002	5.0973374E-001	-1.4850996E+000	0
4.3225203E+000	1.364381967597728E+002	-1.4857434E+000	-3.437215555469045E+002	5.1068205E-001	-1.4858098E+000	0
4.3146973E+000	1.365291967574740E+002	-1.4866771E+000	-3.445611523077473E+002	5.1225114E-001	-1.4867190E+000	0
4.3650279E+000	1.365902967559305E+002	-1.4873168E+000	-3.407347737032674E+002	5.0678056E-001	-1.4873312E+000	0
4.3944387E+000	1.366218967551322E+002	-1.4875913E+000	-3.385167855860847E+002	5.0357461E-001	-1.4876460E+000	0
4.3305807E+000	1.366534967543339E+002	-1.4878608E+000	-3.435707316030948E+002	5.1118541E-001	-1.4879627E+000	0
4.3170066E+000	1.367050967530304E+002	-1.4884150E+000	-3.447794075073807E+002	5.1317483E-001	-1.4884778E+000	0
4.2009306E+000	1.367761967512342E+002	-1.4890488E+000	-3.544568910080343E+002	5.2780360E-001	-1.4891893E+000	0
4.1497970E+000	1.368670967489379E+002	-1.4900241E+000	-3.590594989837446E+002	5.3500730E-001	-1.4900978E+000	0
4.1910005E+000	1.369679967463890E+002	-1.4910989E+000	-3.557859124627234E+002	5.3051198E-001	-1.4911072E+000	0
4.2452884E+000	1.370688967438400E+002	-1.4920877E+000	-3.514691182956287E+002	5.2442276E-001	-1.4921160E+000	0
4.2800074E+000	1.371597967415437E+002	-1.4929708E+000	-3.488243632843423E+002	5.2078462E-001	-1.4930254E+000	0
4.2179542E+000	1.372307967397501E+002	-1.4936354E+000	-3.541137168403511E+002	5.2891678E-001	-1.4937351E+000	0
4.2107663E+000	1.373118967377013E+002	-1.4944860E+000	-3.549201876254874E+002	5.3042322E-001	-1.4945459E+000	0
4.2265668E+000	1.373731967361528E+002	-1.4951242E+000	-3.537443821457132E+002	5.2889180E-001	-1.4951595E+000	0
4.2339487E+000	1.374244967348568E+002	-1.4955977E+000	-3.532394623027958E+002	5.2830416E-001	-1.4956722E+000	0
4.2378125E+000	1.375054967328106E+002	-1.4964058E+000	-3.531080839251435E+002	5.2839297E-001	-1.4964825E+000	0
4.2342181E+000	1.376063967302616E+002	-1.4974396E+000	-3.536519745452310E+002	5.2957249E-001	-1.4974911E+000	0
4.1671948E+000	1.376479967292107E+002	-1.4978513E+000	-3.594387268210717E+002	5.3838575E-001	-1.4979069E+000	0
4.1039214E+000	1.376794967284150E+002	-1.4981315E+000	-3.650487964518678E+002	5.4689109E-001	-1.4982228E+000	0
4.1196647E+000	1.377306967271215E+002	-1.4986886E+000	-3.637889799119803E+002	5.4520637E-001	-1.4987344E+000	0
4.1614289E+000	1.377622967263233E+002	-1.4990243E+000	-3.602186388505825E+002	5.3997648E-001	-1.4990500E+000	0
4.1903248E+000	1.377840967257725E+002	-1.4992162E+000	-3.577804353687352E+002	5.3639024E-001	-1.4992678E+000	0
4.2171879E+000	1.378751967234712E+002	-1.5001203E+000	-3.557157744272299E+002	5.3361642E-001	-1.5001789E+000	0
4.2268052E+000	1.379761967209197E+002	-1.5011321E+000	-3.551458193342528E+002	5.3312081E-001	-1.5011891E+000	0
4.2683620E+000	1.380770967183707E+002	-1.5021638E+000	-3.519298116895379E+002	5.2865618E-001	-1.5021982E+000	0
4.2949820E+000	1.381581967163220E+002	-1.5029768E+000	-3.499378552701046E+002	5.2594846E-001	-1.5030092E+000	0
4.3216262E+000	1.381997967152711E+002	-1.5033759E+000	-3.478727386274174E+002	5.2298349E-001	-1.5034249E+000	0
4.3350139E+000	1.382610967137225E+002	-1.5039810E+000	-3.469380069304771E+002	5.2178818E-001	-1.5040381E+000	0
4.3312678E+000	1.383520967114237E+002	-1.5048718E+000	-3.474437307043690E+002	5.2285826E-001	-1.5049478E+000	0
4.2962523E+000	1.384230967096300E+002	-1.5055748E+000	-3.504391150814911E+002	5.2761233E-001	-1.5056585E+000	0
4.2231264E+000	1.385136967073413E+002	-1.5064678E+000	-3.567186383949802E+002	5.3738517E-001	-1.5065644E+000	0
4.2217212E+000	1.385847967055452E+002	-1.5072373E+000	-3.570196205850432E+002	5.3811330E-001	-1.5072749E+000	0
4.2313828E+000	1.386559967037465E+002	-1.5079175E+000	-3.563651945503661E+002	5.3736931E-001	-1.5079871E+000	0
4.1891079E+000	1.387171967022005E+002	-1.5085037E+000	-3.601014069408957E+002	5.4321432E-001	-1.5085995E+000	0
4.1782393E+000	1.387881967004068E+002	-1.5092487E+000	-3.612164567030031E+002	5.4516548E-001	-1.5093095E+000	0
4.1664062E+000	1.388787966981181E+002	-1.5101564E+000	-3.624601760161175E+002	5.4737157E-001	-1.5102150E+000	0
4.1544609E+000	1.389693966958293E+002	-1.5110549E+000	-3.637186299628861E+002	5.4959881E-001	-1.5111215E+000	0
4.1485462E+000	1.390106966947860E+002	-1.5114937E+000	-3.643429807851599E+002	5.5070210E-001	-1.5115350E+000	0
4.1373281E+000	1.390422966939877E+002	-1.5117744E+000	-3.653987335004440E+002	5.5240047E-001	-1.5118499E+000	0
4.0926318E+000	1.390640966934370E+002	-1.5120192E+000	-3.694491159253657E+002	5.5861413E-001	-1.5120680E+000	0
4.0684896E+000	1.390759966931364E+002	-1.5121335E+000	-3.716694854114303E+002	5.6201386E-001	-1.5121870E+000	0
4.0553236E+000	1.391471966913377E+002	-1.5128446E+000	-3.730515107248984E+002	5.6436896E-001	-1.5128990E+000	0
4.0859647E+000	1.391985966900393E+002	-1.5133997E+000	-3.703898097607125E+002	5.6054783E-001	-1.5134133E+000	0
4.1202025E+000	1.392697966882406E+002	-1.5141103E+000	-3.674844252048615E+002	5.5641198E-001	-1.5141251E+000	0
3.9796715E+000	1.393805966854416E+002	-1.5150898E+000	-3.807072508941615E+002	5.7680565E-001	-1.5152329E+000	0
3.8140335E+000	1.394914966826400E+002	-1.5162405E+000	-3.975425172264245E+002	6.0277003E-001	-1.5163423E+000	0
3.7605951E+000	1.396120966795934E+002	-1.5175539E+000	-4.035408998521630E+002	6.1239505E-001	-1.5175481E+000	0
3.8375719E+000	1.397325966765493E+002	-1.5187337E+000	-3.957538172415889E+002	6.0104465E-001	-1.5187535E+000	0
3.7880979E+000	1.398532966735002E+002	-1.5199316E+000	-4.012387239391073E+002	6.0985541E-001	-1.5199612E+000	0
3.6901662E+000	1.399641966706986E+002	-1.5210711E+000	-4.121958138323735E+002	6.2697911E-001	-1.5210694E+000	0
3.7817581E+000	1.400947966673994E+002	-1.5223806E+000	-4.025589561006095E+002	6.1284792E-001	-1.5223757E+000	0
3.8450894E+000	1.401956966648504E+002	-1.5233684E+000	-3.961854246257086E+002	6.0353637E-001	-1.5233849E+000	0
3.7560170E+000	1.403260966615562E+002	-1.5246681E+000	-4.059268387427037E+002	6.1890370E-001	-1.5246894E+000	0
3.7122161E+000	1.404566966582570E+002	-1.5259840E+000	-4.110709136828118E+002	6.2728769E-001	-1.5259945E+000	0
3.5692694E+000	1.405675966554554E+002	-1.5271037E+000	-4.278476806990429E+002	6.5336776E-001	-1.5271039E+000	0
3.6223550E+000	1.406978966521638E+002	-1.5284234E+000	-4.219419216654746E+002	6.4490592E-001	-1.5284075E+000	0
3.6956463E+000	1.408283966488671E+002	-1.5297402E+000	-4.139303718278798E+002	6.3320595E-001	-1.5297111E+000	0
3.6901720E+000	1.409689966453152E+002	-1.5310999E+000	-4.149128984857443E+002	6.3527310E-001	-1.5311180E+000	0
3.6765001E+000	1.411095966417633E+002	-1.5325065E+000	-4.168384261589217E+002	6.3880759E-001	-1.5325245E+000	0
3.6196489E+000	1.412302966387142E+002	-1.5336950E+000	-4.237137485425869E+002	6.4984763E-001	-1.5337305E+000	0
3.5814307E+000	1.413606966354200E+002	-1.5350242E+000	-4.286064147803752E+002	6.5792120E-001	-1.5350349E+000	0
3.6248465E+000	1.414711966326286E+002	-1.5361888E+000	-4.237941700148576E+002	6.5102786E-001	-1.5361391E+000	0
3.6730061E+000	1.415817966298346E+002	-1.5372428E+000	-4.185244366184388E+002	6.4337367E-001	-1.5372454E+000	0
3.7076364E+000	1.417221966262878E+002	-1.5386635E+000	-4.149985058966240E+002	6.3854307E-001	-1.5386496E+000	0
3.7444882E+000	1.418329966234887E+002	-1.5397637E+000	-4.112080537425509E+002	6.3316321E-001	-1.5397575E+000	0
3.6995063E+000	1.419436966206922E+002	-1.5407929E+000	-4.164860912045424E+002	6.4171880E-001	-1.5408647E+000	0
3.6413813E+000	1.420344966183984E+002	-1.5417410E+000	-4.233945490664009E+002	6.5276474E-001	-1.5417726E+000	0
3.6266139E+000	1.421650966150992E+002	-1.5430790E+000	-4.254875307424272E+002	6.5656090E-001	-1.5430791E+000	0
3.6261189E+000	1.423056966115473E+002	-1.5444794E+000	-4.259318155531510E+002	6.5784287E-001	-1.5444856E+000	0
3.6053245E+000	1.424162966087533E+002	-1.5455850E+000	-4.286951284595517E+002	6.6258478E-001	-1.5455908E+000	0
3.5254908E+000	1.425369966057042E+002	-1.5467184E+000	-4.387242652150999E+002	6.7858285E-001	-1.5467969E+000	0
3.5184276E+000	1.426675966024050E+002	-1.5480864E+000	-4.399938199033786E+002	6.8114847E-001	-1.5481044E+000	0
3.5810950E+000	1.428078965988607E+002	-1.5495166E+000	-4.326935174227506E+002	6.7046577E-001	-1.5495067E+000	0
3.6022670E+000	1.429183965960692E+002	-1.5506127E+000	-4.304546713894115E+002	6.6746849E-001	-1.5506120E+000	0
3.5452728E+000	1.430289965932752E+002	-1.5516551E+000	-4.376687220901840E+002	6.7911088E-001	-1.5517178E+000	0
3.4613755E+000	1.431396965904787E+002	-1.5527893E+000	-4.486046969670879E+002	6.9658858E-001	-1.5528251E+000	0
3.3846617E+000	1.432503965876822E+002	-1.5539024E+000	-4.591012552182108E+002	7.1339852E-001	-1.5539314E+000	0
3.3278775E+000	1.433908965841329E+002	-1.5553217E+000	-4.673614659421073E+002	7.2689742E-001	-1.5553372E+000	0
3.3236780E+000	1.434720965820816E+002	-1.5561402E+000	-4.681982426312590E+002	7.2858208E-001	-1.5561479E+000	0
3.3403802E+000	1.435829965792800E+002	-1.5572581E+000	-4.661918726390813E+002	7.2598106E-001	-1.5572582E+000	0
3.3562884E+000	1.437036965762309E+002	-1.5584662E+000	-4.643421519705853E+002	7.2366154E-001	-1.5584639E+000	0
3.3921001E+000	1.438143965734344E+002	-1.5595812E+000	-4.597686020673264E+002	7.1704644E-001	-1.5595720E+000	0
3.4009604E+000	1.439645965696400E+002	-1.5610682E+000	-4.590080347074627E+002	7.1654284E-001	-1.5610737E+000	0
3.4024029E+000	1.441146965658481E+002	-1.5625299E+000	-4.592430599364261E+002	7.1758103E-001	-1.5625751E+000	0
3.3332198E+000	1.442251965630567E+002	-1.5636436E+000	-4.691090535919211E+002	7.3351938E-001	-1.5636796E+000	0
3.3473125E+000	1.443555965597625E+002	-1.5649797E+000	-4.675332072918172E+002	7.3167998E-001	-1.5649837E+000	0
3.4005785E+000	1.444859965564683E+002	-1.5662923E+000	-4.605958386399243E+002	7.2142774E-001	-1.5662876E+000	0
3.3956089E+000	1.446164965531716E+002	-1.5675764E+000	-4.616480903671736E+002	7.2366863E-001	-1.5675924E+000	0
3.3405125E+000	1.447470965498724E+002	-1.5688899E+000	-4.696554181098036E+002	7.3683763E-001	-1.5688990E+000	0
3.3384967E+000	1.448875965463230E+002	-1.5702993E+000	-4.703611933394550E+002	7.3860782E-001	-1.5703034E+000	0
3.3080280E+000	1.450182965430213E+002	-1.5716162E+000	-4.750915653890470E+002	7.4666160E-001	-1.5716106E+000	0
3.3072567E+000	1.451390965399696E+002	-1.5728158E+000	-4.755650768767928E+002	7.4797624E-001	-1.5728183E+000	0
3.3381011E+000	1.452695965366729E+002	-1.5741378E+000	-4.715668255439186E+002	7.4231118E-001	-1.5741241E+000	0
3.3513315E+000	1.454000965333762E+002	-1.5754201E+000	-4.700878442898556E+002	7.4058586E-001	-1.5754284E+000	0
3.2932003E+000	1.455109965305746E+002	-1.5767823E+000	-4.787994219725906E+002	7.5496250E-001	-1.5765375E+000	0
3.2218955E+000	1.456216965277781E+002	-1.5782495E+000	-4.898512191219079E+002	7.7310741E-001	-1.5776453E+000	0
3.1702089E+000	1.457619965242338E+002	-1.5796289E+000	-4.982728286087629E+002	7.8708619E-001	-1.5790478E+000	0
3.1308858E+000	1.459121965204395E+002	-1.5811604E+000	-5.050201521218241E+002	7.9851788E-001	-1.5805503E+000	0
3.0872366E+000	1.460525965168927E+002	-1.5825557E+000	-5.126123521673981E+002	8.1123757E-001	-1.5819541E+000	0
3.1405878E+000	1.462030965130907E+002	-1.5840887E+000	-5.043924014965637E+002	7.9900229E-001	-1.5834588E+000	0
3.2158525E+000	1.463531965092989E+002	-1.5855794E+000	-4.930510471631796E+002	7.8177160E-001	-1.5849603E+000	0
3.2269187E+000	1.464932965057596E+002	-1.5869524E+000	-4.917856877653794E+002	7.8044051E-001	-1.5863607E+000	0
3.1696222E+000	1.466234965024705E+002	-1.5882598E+000	-5.010880583987164E+002	7.9585803E-001	-1.5876628E+000	0
3.1443577E+000	1.467638964989237E+002	-1.5896689E+000	-5.055623633567975E+002	8.0367672E-001	-1.5890671E+000	0
3.0325465E+000	1.469044964953719E+002	-1.5910500E+000	-5.246580951183532E+002	8.3475727E-001	-1.5904722E+000	0
3.0504825E+000	1.470052964928254E+002	-1.5921036E+000	-5.219186184558421E+002	8.3094853E-001	-1.5914804E+000	0
2.9764524E+000	1.471061964902765E+002	-1.5930618E+000	-5.352216642685544E+002	8.5264117E-001	-1.5924894E+000	0
2.9275017E+000	1.471971964879776E+002	-1.5939693E+000	-5.444811143492752E+002	8.6788619E-001	-1.5933999E+000	0
3.0020471E+000	1.472882964856763E+002	-1.5949639E+000	-5.312920863425934E+002	8.4739172E-001	-1.5943105E+000	0
3.0358119E+000	1.474189964823745E+002	-1.5962728E+000	-5.258141452722839E+002	8.3934283E-001	-1.5956175E+000	0
3.0620234E+000	1.475397964793228E+002	-1.5974716E+000	-5.217045830668121E+002	8.3340824E-001	-1.5968250E+000	0
3.0341167E+000	1.476504964765263E+002	-1.5985290E+000	-5.268514921196829E+002	8.4218740E-001	-1.5979327E+000	0
3.0405450E+000	1.477809964732296E+002	-1.5999174E+000	-5.261942847814635E+002	8.4186739E-001	-1.5992376E+000	0
3.0787296E+000	1.479114964699329E+002	-1.6011950E+000	-5.200829980018716E+002	8.3275431E-001	-1.6005424E+000	0
3.1017566E+000	1.480222964671339E+002	-1.6022884E+000	-5.165745062313399E+002	8.2770133E-001	-1.6016508E+000	0
3.1093423E+000	1.481230964645874E+002	-1.6033193E+000	-5.156458067219864E+002	8.2674485E-001	-1.6026584E+000	0
3.0880318E+000	1.482635964610381E+002	-1.6047002E+000	-5.196514656844392E+002	8.3388484E-001	-1.6040642E+000	0
3.1023879E+000	1.484040964574888E+002	-1.6061363E+000	-5.177097210685647E+002	8.3151239E-001	-1.6054692E+000	0
3.1408503E+000	1.485344964541946E+002	-1.6073931E+000	-5.117700455998674E+002	8.2261568E-001	-1.6067729E+000	0
3.1399455E+000	1.486549964511505E+002	-1.6086044E+000	-5.123032820439576E+002	8.2409334E-001	-1.6079785E+000	0
3.0936582E+000	1.487756964481014E+002	-1.6097888E+000	-5.203511855865127E+002	8.3765548E-001	-1.6091840E+000	0
3.1055672E+000	1.488963964450522E+002	-1.6110255E+000	-5.187540201764459E+002	8.3572590E-001	-1.6103923E+000	0
3.0951836E+000	1.490366964415080E+002	-1.6124331E+000	-5.209490969987335E+002	8.3999556E-001	-1.6117951E+000	0
3.1100962E+000	1.491471964387165E+002	-1.6135828E+000	-5.188208588053860E+002	8.3716047E-001	-1.6128994E+000	0
3.1321390E+000	1.492479964361701E+002	-1.6145436E+000	-5.154763349345685E+002	8.3225900E-001	-1.6139088E+000	0
3.1204233E+000	1.493883964326233E+002	-1.6159494E+000	-5.178622204730345E+002	8.3683914E-001	-1.6153121E+000	0
3.1493654E+000	1.495186964293316E+002	-1.6172743E+000	-5.135238703991226E+002	8.3050895E-001	-1.6166152E+000	0
3.1769638E+000	1.496589964257873E+002	-1.6186501E+000	-5.094959003049780E+002	8.2469559E-001	-1.6180174E+000	0
3.1770205E+000	1.497795964227407E+002	-1.6198392E+000	-5.098611028905862E+002	8.2589298E-001	-1.6192230E+000	0
3.1918216E+000	1.499199964191939E+002	-1.6212587E+000	-5.079415165274768E+002	8.2350463E-001	-1.6206278E+000	0
3.1783557E+000	1.500604964156446E+002	-1.6226116E+000	-5.105192124026444E+002	8.2837445E-001	-1.6220325E+000	0
3.1707664E+000	1.501909964123479E+002	-1.6239731E+000	-5.121705424081365E+002	8.3175123E-001	-1.6233382E+000	0
3.1996851E+000	1.503214964090512E+002	-1.6252918E+000	-5.079536712607076E+002	8.2557297E-001	-1.6246431E+000	0
3.2004125E+000	1.504422964059995E+002	-1.6264572E+000	-5.082023760331231E+002	8.2656944E-001	-1.6258502E+000	0
3.2036362E+000	1.505036964044484E+002	-1.6271309E+000	-5.079012614850417E+002	8.2642180E-001	-1.6264635E+000	0
3.2226522E+000	1.506046964018969E+002	-1.6281068E+000	-5.052071340715220E+002	8.2253116E-001	-1.6274748E+000	0
3.0787342E+000	1.507353963985952E+002	-1.6293914E+000	-5.292407205460679E+002	8.6234027E-001	-1.6287822E+000	0
3.0780370E+000	1.508759963950433E+002	-1.6308221E+000	-5.298253443355516E+002	8.6405087E-001	-1.6301877E+000	0
3.1154099E+000	1.510164963914940E+002	-1.6322374E+000	-5.239238307307185E+002	8.5516810E-001	-1.6315929E+000	0
3.0558617E+000	1.511569963879447E+002	-1.6335511E+000	-5.345631593053176E+002	8.7323624E-001	-1.6329973E+000	0
2.9034121E+000	1.512874963846480E+002	-1.6348577E+000	-5.630814979590796E+002	9.2055809E-001	-1.6343024E+000	0
2.8581512E+000	1.513982963818489E+002	-1.6360285E+000	-5.724079714581649E+002	9.3647575E-001	-1.6354103E+000	0
2.9092679E+000	1.515089963790524E+002	-1.6372348E+000	-5.627652202678109E+002	9.2137879E-001	-1.6365172E+000	0
2.9144025E+000	1.516097963765060E+002	-1.6381605E+000	-5.620913561292655E+002	9.2079586E-001	-1.6375260E+000	0
2.9011307E+000	1.517304963734568E+002	-1.6393881E+000	-5.650859240202208E+002	9.2639512E-001	-1.6387324E+000	0
2.8611054E+000	1.518706963699151E+002	-1.6408006E+000	-5.734848260889867E+002	9.4097424E-001	-1.6401353E+000	0
2.8778956E+000	1.520011963666184E+002	-1.6421502E+000	-5.706079753117660E+002	9.3702400E-001	-1.6414402E+000	0
2.9087973E+000	1.521019963640720E+002	-1.6431018E+000	-5.648732432397810E+002	9.2814428E-001	-1.6424474E+000	0
2.9129689E+000	1.521823963620409E+002	-1.6438973E+000	-5.643374112552647E+002	9.2771274E-001	-1.6432513E+000	0
2.9176352E+000	1.522281963608839E+002	-1.6443721E+000	-5.635975864955353E+002	9.2676413E-001	-1.6437525E+000	1