EC-Lab ASCII FILE
Nb header lines : 63                          

Linear Sweep Voltammetry

Run on channel : 1 (SN 1340)
User : 
Electrode connection : standard
Potential control : Ewe
Ewe ctrl range : min = -5.00 V, max = 5.00 V
Ewe,I filtering : <None>
Safety Limits :
	Do not start on E overload
Channel : Floating
Acquisition started on : 03/11/2026 11:29:47.811
Technique started on : 03/11/2026 11:29:51.148
Loaded Setting File :  NONE
Saved on :
	File : Ni_N52magB_flat_3-11_02_LSV_C01.mpr
	Directory : C:\Users\volt\Documents\Platalytix\
	Host : 172.28.65.128
Device : SP-200 (SN 0262)
Address : USB
EC-LAB for windows v11.60 (software)
Internet server v11.60 (firmware)
Command interpretor v11.60 (firmware)
Electrode material : Ni
Initial state : 
Electrolyte : KOH (1 M)
Comments : With magnet B (-) side, flat position
Cable : standard
Reference electrode : Hg/HgO (0.140 V)
Electrode surface area : 1.000 cm˛
Characteristic mass : 0.001 g
Equivalent Weight : 0.000 g/eq.
Density : 0.000 g/cm3
Volume (V) : 0.001 cmł
Cycle Definition : Charge/Discharge alternance
tR (h:m:s)          0:00:5.0000         
dER/dt (mV/h)       0.0                 
dER (mV)            0                   
dtR (s)             0.0000              
dE/dt               10.000              
dE/dt unit          mV/s                
Ei (V)              -0.200              
vs.                 Ref                 
EL (V)              -2.500              
vs.                 Ref                 
record              <I>                 
dI                  0.000               
unit dI             µA                  
tI (s)              0.0000              
step percent        50                  
N                   10                  
E range min (V)     -5.000              
E range max (V)     5.000               
I Range             Auto                
I Range min         Unset               
I Range max         Unset               
I Range init        Unset               
Bandwidth           8                   

<I>/mA	Ewe/V	control/V	Rwe/Ohm	time/s	
0.000000000000000E+000	-2.3526955E-001	0.0000000E+000	0.0000000E+000	3.337400158488890E+000
0.000000000000000E+000	-3.9399815E-001	-1.9985047E-001	0.0000000E+000	8.337200032183318E+000
5.787623953819274E-001	-2.0122527E-001	-2.0135026E-001	3.4768201E+002	8.497200028141378E+000
1.392845095563395E-001	-2.0261550E-001	-2.0275031E-001	1.4546880E+003	8.637200024604681E+000
6.530924168438615E-002	-2.0493852E-001	-2.0505032E-001	3.1379712E+003	8.867200018794392E+000
4.821983186102319E-002	-2.0711584E-001	-2.0725028E-001	4.2952417E+003	9.087200013236725E+000
3.937186358381473E-002	-2.0938665E-001	-2.0945030E-001	5.3181797E+003	9.307200007679057E+000
3.391008529560791E-002	-2.1137694E-001	-2.1145031E-001	6.2334531E+003	9.507200002626632E+000
2.987723271526171E-002	-2.1328427E-001	-2.1345030E-001	7.1386890E+003	9.707199997574207E+000
2.676203370156593E-002	-2.1530092E-001	-2.1545030E-001	8.0450132E+003	9.907199992521782E+000
2.420877724676873E-002	-2.1737503E-001	-2.1745032E-001	8.9791826E+003	1.010719998746936E+001
2.208575124080481E-002	-2.1930738E-001	-2.1945029E-001	9.9298125E+003	1.030719998241693E+001
2.033443354762339E-002	-2.2132933E-001	-2.2145030E-001	1.0884460E+004	1.050719997736451E+001
1.876704944622365E-002	-2.2338647E-001	-2.2345032E-001	1.1903121E+004	1.070719997231208E+001
1.746468585963379E-002	-2.2534221E-001	-2.2545028E-001	1.2902735E+004	1.090719996725966E+001
1.624178174326657E-002	-2.2741486E-001	-2.2745031E-001	1.4001842E+004	1.110719996220723E+001
1.521241072475035E-002	-2.2937037E-001	-2.2945032E-001	1.5077845E+004	1.130719995715481E+001
1.426368373337408E-002	-2.3142515E-001	-2.3145030E-001	1.6224781E+004	1.150719995210238E+001
1.343063486155544E-002	-2.3336880E-001	-2.3345031E-001	1.7375857E+004	1.170719994704996E+001
1.263756586382348E-002	-2.3538902E-001	-2.3545031E-001	1.8626137E+004	1.190719994199753E+001
1.193474985435003E-002	-2.3730019E-001	-2.3745032E-001	1.9883131E+004	1.210719993694511E+001
1.126042150441173E-002	-2.3937792E-001	-2.3945029E-001	2.1258344E+004	1.230719993189268E+001
1.068269282051729E-002	-2.4141234E-001	-2.4145032E-001	2.2598453E+004	1.250719992684026E+001
1.011991589716876E-002	-2.4335343E-001	-2.4345028E-001	2.4046980E+004	1.270719992178783E+001
9.605799695461589E-003	-2.4535203E-001	-2.4545029E-001	2.5542072E+004	1.290719991673541E+001
9.115716153473313E-003	-2.4743779E-001	-2.4745032E-001	2.7144086E+004	1.310719991168298E+001
8.675303071847634E-003	-2.4933776E-001	-2.4945030E-001	2.8741102E+004	1.330719990663056E+001
8.255094278230568E-003	-2.5136879E-001	-2.5145030E-001	3.0450143E+004	1.350719990157813E+001
7.850227743791627E-003	-2.5333682E-001	-2.5345030E-001	3.2271270E+004	1.370719989652571E+001
7.494822423073561E-003	-2.5539732E-001	-2.5545028E-001	3.4076500E+004	1.390719989147328E+001
7.131369896006060E-003	-2.5738996E-001	-2.5745031E-001	3.6092641E+004	1.410719988642086E+001
6.825022212395448E-003	-2.5932470E-001	-2.5945029E-001	3.7996168E+004	1.430719988136843E+001
6.504182128843940E-003	-2.6133391E-001	-2.6145029E-001	4.0179367E+004	1.450719987631601E+001
6.217138738135945E-003	-2.6337579E-001	-2.6345029E-001	4.2362863E+004	1.470719987126358E+001
5.926607250048017E-003	-2.6535401E-001	-2.6545030E-001	4.4773340E+004	1.490719986621116E+001
5.681580716856038E-003	-2.6736698E-001	-2.6745030E-001	4.7058555E+004	1.510719986115873E+001
5.427539632744102E-003	-2.6934898E-001	-2.6945031E-001	4.9626348E+004	1.530719985610631E+001
5.184720209818187E-003	-2.7140430E-001	-2.7145031E-001	5.2346953E+004	1.550719985105388E+001
4.958014798909213E-003	-2.7339840E-001	-2.7345029E-001	5.5142715E+004	1.570719984600146E+001
4.737985791858135E-003	-2.7532142E-001	-2.7545032E-001	5.8109383E+004	1.590719984094903E+001
4.531479597268809E-003	-2.7738687E-001	-2.7745029E-001	6.1213313E+004	1.610719983589661E+001
4.344718473226421E-003	-2.7930376E-001	-2.7945030E-001	6.4285813E+004	1.630719983084418E+001
4.124678625394437E-003	-2.8132123E-001	-2.8145030E-001	6.8204398E+004	1.650719982579176E+001
3.942367220571993E-003	-2.8336915E-001	-2.8345031E-001	7.1877922E+004	1.670719982073933E+001
3.761106995619407E-003	-2.8534588E-001	-2.8545028E-001	7.5867523E+004	1.690719981568691E+001
3.604453913666858E-003	-2.8736612E-001	-2.8745031E-001	7.9725289E+004	1.710719981063448E+001
3.434173582301768E-003	-2.8940311E-001	-2.8945032E-001	8.4271547E+004	1.730719980558206E+001
3.284841244567759E-003	-2.9133737E-001	-2.9145029E-001	8.8691461E+004	1.750719980052963E+001
3.155570558223207E-003	-2.9328907E-001	-2.9345033E-001	9.2943273E+004	1.770719979547721E+001
2.997114989497916E-003	-2.9539672E-001	-2.9545030E-001	9.8560352E+004	1.790719979042478E+001
2.861942243282511E-003	-2.9734883E-001	-2.9745030E-001	1.0389756E+005	1.810719978537236E+001
2.728715792069701E-003	-2.9937628E-001	-2.9945028E-001	1.0971325E+005	1.830719978031993E+001
2.593662121916312E-003	-3.0137315E-001	-3.0145031E-001	1.1619600E+005	1.850719977526751E+001
2.489041749253610E-003	-3.0331510E-001	-3.0345029E-001	1.2186019E+005	1.870719977021508E+001
2.395290835116286E-003	-3.0531707E-001	-3.0545029E-001	1.2746555E+005	1.890719976516266E+001
2.239162039893799E-003	-3.0734983E-001	-3.0745029E-001	1.3726109E+005	1.910719976011023E+001
2.150952516573344E-003	-3.0938724E-001	-3.0945030E-001	1.4383731E+005	1.930719975505781E+001
2.006350533914063E-003	-3.1138518E-001	-3.1145030E-001	1.5519980E+005	1.950719975000538E+001
1.912649447386994E-003	-3.1337166E-001	-3.1345034E-001	1.6384166E+005	1.970719974495296E+001
1.792848882382667E-003	-3.1538808E-001	-3.1545031E-001	1.7591448E+005	1.990719973990053E+001
1.705335086970702E-003	-3.1728417E-001	-3.1745031E-001	1.8605386E+005	2.010719973484811E+001
1.598994368103796E-003	-3.1935024E-001	-3.1945029E-001	1.9971942E+005	2.030719972979568E+001
1.513260299652349E-003	-3.2137552E-001	-3.2145029E-001	2.1237292E+005	2.050719972474326E+001
1.409282363053946E-003	-3.2333189E-001	-3.2345030E-001	2.2943017E+005	2.070719971969083E+001
1.323427506061400E-003	-3.2535639E-001	-3.2545030E-001	2.4584377E+005	2.090719971463841E+001
1.240719260636337E-003	-3.2736385E-001	-3.2745031E-001	2.6385006E+005	2.110719970958598E+001
1.148453545366711E-003	-3.2936415E-001	-3.2945031E-001	2.8678928E+005	2.130719970453356E+001
1.059119384330147E-003	-3.3136594E-001	-3.3145031E-001	3.1286931E+005	2.150719969948113E+001
9.595397537678473E-004	-3.3332860E-001	-3.3345029E-001	3.4738384E+005	2.170719969442871E+001
8.977404023302830E-004	-3.3534929E-001	-3.3545032E-001	3.7354819E+005	2.190719968937628E+001
8.270859556383202E-004	-3.3730417E-001	-3.3745030E-001	4.0782241E+005	2.210719968432386E+001
7.428492429595868E-004	-3.3931485E-001	-3.3945030E-001	4.5677484E+005	2.230719967927143E+001
6.503267740347422E-004	-3.4135395E-001	-3.4145030E-001	5.2489606E+005	2.250719967421901E+001
5.756234042328624E-004	-3.4339669E-001	-3.4345031E-001	5.9656488E+005	2.270719966916658E+001
4.864312937320972E-004	-3.4541205E-001	-3.4545031E-001	7.1009419E+005	2.290719966411416E+001
4.120608525965343E-004	-3.4734568E-001	-3.4745032E-001	8.4294756E+005	2.310719965906173E+001
3.222293132230133E-004	-3.4927341E-001	-3.4945032E-001	1.0839281E+006	2.330719965400931E+001
2.822074765722469E-004	-3.5132757E-001	-3.5145029E-001	1.2449265E+006	2.350719964895688E+001
1.943447789487440E-004	-3.5336456E-001	-3.5345033E-001	1.8182354E+006	2.370719964390446E+001
1.228327841523726E-004	-3.5539731E-001	-3.5545030E-001	2.8933425E+006	2.390719963885203E+001
5.232730484587985E-005	-3.5736427E-001	-3.5745028E-001	6.8294035E+006	2.410719963379961E+001
-1.244093014370426E-005	-3.5935906E-001	-3.5945031E-001	2.8885224E+007	2.430719962874718E+001
-9.893005951441955E-005	-3.6141407E-001	-3.6145028E-001	3.6532280E+006	2.450719962369476E+001
-1.525030270747112E-004	-3.6326796E-001	-3.6345032E-001	2.3820378E+006	2.470719961864233E+001
-2.453168542066357E-004	-3.6531913E-001	-3.6545029E-001	1.4891726E+006	2.490719961358991E+001
-3.260111466797371E-004	-3.6734655E-001	-3.6745030E-001	1.1267914E+006	2.510719960853748E+001
-3.435354784860033E-004	-3.6931479E-001	-3.6945033E-001	1.0750413E+006	2.530719960348506E+001
-4.287137813815019E-004	-3.7132806E-001	-3.7145030E-001	8.6614444E+005	2.550719959843264E+001
-5.077673605412020E-004	-3.7332028E-001	-3.7345034E-001	7.3521913E+005	2.570719959338021E+001
-5.326683159020820E-004	-3.7532374E-001	-3.7545031E-001	7.0461063E+005	2.590719958832779E+001
-6.326571026526139E-004	-3.7730622E-001	-3.7745035E-001	5.9638344E+005	2.610719958327536E+001
-6.859941275807746E-004	-3.7941641E-001	-3.7945032E-001	5.5308988E+005	2.630719957822294E+001
-7.522195162158705E-004	-3.8138783E-001	-3.8145030E-001	5.0701666E+005	2.650719957317051E+001
-8.389528391434095E-004	-3.8333356E-001	-3.8345033E-001	4.5691909E+005	2.670719956811809E+001
-9.055275295086051E-004	-3.8536990E-001	-3.8545030E-001	4.2557503E+005	2.690719956306566E+001
-9.496169035001587E-004	-3.8741496E-001	-3.8745031E-001	4.0796975E+005	2.710719955801324E+001
-1.051268867607848E-003	-3.8934353E-001	-3.8945028E-001	3.7035581E+005	2.730719955296081E+001
-1.109579616514332E-003	-3.9135361E-001	-3.9145035E-001	3.5270441E+005	2.750719954790839E+001
-1.181734826949776E-003	-3.9330992E-001	-3.9345035E-001	3.3282419E+005	2.770719954285596E+001
-1.219717237804795E-003	-3.9534718E-001	-3.9545035E-001	3.2413019E+005	2.790719953780354E+001
-1.271313994909107E-003	-3.9736503E-001	-3.9745030E-001	3.1256247E+005	2.810719953275111E+001
-1.371090230550140E-003	-3.9937487E-001	-3.9945033E-001	2.9128272E+005	2.830719952769869E+001
-1.465416595868997E-003	-4.0133333E-001	-4.0145037E-001	2.7386978E+005	2.850719952264626E+001
-1.502164810849360E-003	-4.0340322E-001	-4.0345031E-001	2.6854791E+005	2.870719951759384E+001
-1.582693368263770E-003	-4.0534899E-001	-4.0545031E-001	2.5611341E+005	2.890719951254141E+001
-1.650055494600929E-003	-4.0732443E-001	-4.0745035E-001	2.4685498E+005	2.910719950748899E+001
-1.702586502923174E-003	-4.0930983E-001	-4.0945029E-001	2.4040472E+005	2.930719950243656E+001
-1.788547075506956E-003	-4.1141897E-001	-4.1145033E-001	2.3002972E+005	2.950719949738414E+001
-1.865110584463820E-003	-4.1344708E-001	-4.1345033E-001	2.2167430E+005	2.970719949233171E+001
-1.913853260809249E-003	-4.1537330E-001	-4.1545036E-001	2.1703508E+005	2.990719948727929E+001
-1.999405521309866E-003	-4.1740477E-001	-4.1745031E-001	2.0876444E+005	3.010719948222686E+001
-2.078030660252916E-003	-4.1937262E-001	-4.1945034E-001	2.0181253E+005	3.030719947717444E+001
-2.117530840289469E-003	-4.2141572E-001	-4.2145032E-001	1.9901278E+005	3.050719947212201E+001
-2.199538799006136E-003	-4.2341197E-001	-4.2345032E-001	1.9250034E+005	3.070719946706959E+001
-2.285059119522762E-003	-4.2543796E-001	-4.2545033E-001	1.8618247E+005	3.090719946201716E+001
-2.346002438273806E-003	-4.2738053E-001	-4.2745036E-001	1.8217395E+005	3.110719945696474E+001
-2.425466263924800E-003	-4.2937759E-001	-4.2945033E-001	1.7702889E+005	3.130719945191231E+001
-2.487912471366559E-003	-4.3140462E-001	-4.3145034E-001	1.7340023E+005	3.150719944685989E+001
-2.537165978077910E-003	-4.3341765E-001	-4.3345034E-001	1.7082747E+005	3.170719944180746E+001
-2.645244306435007E-003	-4.3535361E-001	-4.3545035E-001	1.6457973E+005	3.190719943675504E+001
-2.727661626433925E-003	-4.3743646E-001	-4.3745032E-001	1.6037050E+005	3.210719943170261E+001
-2.777965775683185E-003	-4.3943647E-001	-4.3945029E-001	1.5818642E+005	3.230719942665019E+001
-2.870545791657547E-003	-4.4141638E-001	-4.4145033E-001	1.5377438E+005	3.250719942159776E+001
-2.935772800276661E-003	-4.4340205E-001	-4.4345036E-001	1.5103419E+005	3.270719941654534E+001
-3.007676329564959E-003	-4.4544417E-001	-4.4545034E-001	1.4810242E+005	3.290719941149291E+001
-3.089258771968764E-003	-4.4744146E-001	-4.4745031E-001	1.4483781E+005	3.310719940644049E+001
-3.169354355225897E-003	-4.4938678E-001	-4.4945034E-001	1.4179127E+005	3.330719940138806E+001
-3.234386816106077E-003	-4.5146945E-001	-4.5145029E-001	1.3958425E+005	3.350719939633564E+001
-3.332371177958791E-003	-4.5341811E-001	-4.5345032E-001	1.3606470E+005	3.370719939128321E+001
-3.402365305259843E-003	-4.5542076E-001	-4.5545036E-001	1.3385416E+005	3.390719938623079E+001
-3.509036432479171E-003	-4.5745286E-001	-4.5745036E-001	1.3036424E+005	3.410719938117836E+001
-3.570885272565161E-003	-4.5937333E-001	-4.5945030E-001	1.2864410E+005	3.430719937612594E+001
-3.653200764893796E-003	-4.6141502E-001	-4.6145034E-001	1.2630431E+005	3.450719937107351E+001
-3.733339911882981E-003	-4.6345857E-001	-4.6345037E-001	1.2414047E+005	3.470719936602109E+001
-3.824678364125617E-003	-4.6540880E-001	-4.6545032E-001	1.2168573E+005	3.490719936096866E+001
-3.889884898018545E-003	-4.6742135E-001	-4.6745032E-001	1.2016329E+005	3.510719935591624E+001
-3.999396767964875E-003	-4.6939620E-001	-4.6945035E-001	1.1736675E+005	3.530719935086381E+001
-4.100244477476516E-003	-4.7139049E-001	-4.7145033E-001	1.1496644E+005	3.550719934581139E+001
-4.176706219735607E-003	-4.7338715E-001	-4.7345033E-001	1.1333983E+005	3.570719934075896E+001
-4.288194237361137E-003	-4.7539666E-001	-4.7545037E-001	1.1086173E+005	3.590719933570654E+001
-4.368631778070564E-003	-4.7734573E-001	-4.7745034E-001	1.0926664E+005	3.610719933065411E+001
-4.443724069483283E-003	-4.7942603E-001	-4.7945032E-001	1.0788834E+005	3.630719932560169E+001
-4.550964636243771E-003	-4.8129600E-001	-4.8145035E-001	1.0575692E+005	3.650719932054926E+001
-4.650525269044471E-003	-4.8336142E-001	-4.8345038E-001	1.0393695E+005	3.670719931549684E+001
-4.728676671236956E-003	-4.8536894E-001	-4.8545033E-001	1.0264371E+005	3.690719931044441E+001
-4.846373598287690E-003	-4.8738620E-001	-4.8745030E-001	1.0056720E+005	3.710719930539199E+001
-4.944634111373740E-003	-4.8941812E-001	-4.8945034E-001	9.8979641E+004	3.730719930033956E+001
-5.030990516957767E-003	-4.9143851E-001	-4.9145034E-001	9.7682258E+004	3.750719929528714E+001
-5.121263169077427E-003	-4.9337980E-001	-4.9345028E-001	9.6339477E+004	3.770719929023471E+001
-5.214356877591600E-003	-4.9535826E-001	-4.9545032E-001	9.4998914E+004	3.790719928518229E+001
-5.342104425198443E-003	-4.9739268E-001	-4.9745035E-001	9.3108008E+004	3.810719928012986E+001
-5.438069130927314E-003	-4.9937537E-001	-4.9945033E-001	9.1829539E+004	3.830719927507744E+001
-5.558738966478790E-003	-5.0143147E-001	-5.0145030E-001	9.0205977E+004	3.850719927002501E+001
-5.653589412656042E-003	-5.0336474E-001	-5.0345033E-001	8.9034539E+004	3.870719926497259E+001
-5.767698882806571E-003	-5.0534993E-001	-5.0545037E-001	8.7617250E+004	3.890719925992016E+001
-5.870099013865066E-003	-5.0739968E-001	-5.0745034E-001	8.6438008E+004	3.910719925486774E+001
-6.008370584802233E-003	-5.0938296E-001	-5.0945038E-001	8.4778883E+004	3.930719924981531E+001
-6.101007841543549E-003	-5.1138854E-001	-5.1145035E-001	8.3820336E+004	3.950719924476289E+001
-6.201436300775192E-003	-5.1336336E-001	-5.1345032E-001	8.2781367E+004	3.970719923971046E+001
-6.328100021339877E-003	-5.1540667E-001	-5.1545036E-001	8.1447305E+004	3.990719923465804E+001
-6.443844090111325E-003	-5.1736438E-001	-5.1745033E-001	8.0288156E+004	4.010719922960561E+001
-6.571254460537010E-003	-5.1934552E-001	-5.1945031E-001	7.9032938E+004	4.030719922455319E+001
-6.662022952009433E-003	-5.2137339E-001	-5.2145034E-001	7.8260523E+004	4.050719921950076E+001
-6.792446878031738E-003	-5.2338874E-001	-5.2345031E-001	7.7054523E+004	4.070719921444834E+001
-6.913036298742736E-003	-5.2535725E-001	-5.2545041E-001	7.5995148E+004	4.090719920939591E+001
-7.063654047471876E-003	-5.2737981E-001	-5.2745026E-001	7.4661047E+004	4.110719920434349E+001
-7.173660274686355E-003	-5.2937961E-001	-5.2945030E-001	7.3794906E+004	4.130719919929106E+001
-7.291344659867069E-003	-5.3142953E-001	-5.3145039E-001	7.2884984E+004	4.150719919423864E+001
-7.424630973616897E-003	-5.3336042E-001	-5.3345031E-001	7.1836625E+004	4.170719918918621E+001
-7.571005841673320E-003	-5.3542930E-001	-5.3545034E-001	7.0721023E+004	4.190719918413379E+001
-7.655951421158269E-003	-5.3740239E-001	-5.3745031E-001	7.0194070E+004	4.210719917908136E+001
-7.788122107146495E-003	-5.3938365E-001	-5.3945041E-001	6.9257219E+004	4.230719917402894E+001
-7.895516264851594E-003	-5.4133546E-001	-5.4145032E-001	6.8562391E+004	4.250719916897651E+001
-8.027403637655467E-003	-5.4336309E-001	-5.4345036E-001	6.7688523E+004	4.270719916392409E+001
-8.164788863150196E-003	-5.4535341E-001	-5.4545039E-001	6.6793328E+004	4.290719915887166E+001
-8.317002786250582E-003	-5.4740578E-001	-5.4745030E-001	6.5817672E+004	4.310719915381924E+001
-8.434451188532605E-003	-5.4942805E-001	-5.4945034E-001	6.5140938E+004	4.330719914876681E+001
-8.574615241093798E-003	-5.5139035E-001	-5.5145037E-001	6.4304969E+004	4.350719914371439E+001
-8.732462948800090E-003	-5.5341423E-001	-5.5345035E-001	6.3374355E+004	4.370719913866196E+001
-8.851417222998995E-003	-5.5537969E-001	-5.5545032E-001	6.2744719E+004	4.390719913360954E+001
-8.985501717812499E-003	-5.5739546E-001	-5.5745035E-001	6.2032758E+004	4.410719912855711E+001
-9.110939960616377E-003	-5.5943143E-001	-5.5945039E-001	6.1402164E+004	4.430719912350469E+001
-9.261659550907658E-003	-5.6143868E-001	-5.6145030E-001	6.0619664E+004	4.450719911845226E+001
-9.457087433842076E-003	-5.6341112E-001	-5.6345028E-001	5.9575543E+004	4.470719911339984E+001
-9.591696780864476E-003	-5.6539679E-001	-5.6545037E-001	5.8946484E+004	4.490719910834741E+001
-9.716199955938892E-003	-5.6735206E-001	-5.6745028E-001	5.8392383E+004	4.510719910329499E+001
-9.872059331921224E-003	-5.6939626E-001	-5.6945032E-001	5.7677555E+004	4.530719909824256E+001
-1.002994262872847E-002	-5.7141459E-001	-5.7145035E-001	5.6970875E+004	4.550719909319014E+001
-1.018628777595301E-002	-5.7334465E-001	-5.7345039E-001	5.6285926E+004	4.570719908813771E+001
-1.030253983822613E-002	-5.7538354E-001	-5.7545030E-001	5.5848707E+004	4.590719908308529E+001
-1.050297362302785E-002	-5.7739151E-001	-5.7745034E-001	5.4974098E+004	4.610719907803286E+001
-1.065915835911221E-002	-5.7939893E-001	-5.7945037E-001	5.4356910E+004	4.630719907298044E+001
-1.079767735982778E-002	-5.8140981E-001	-5.8145034E-001	5.3845820E+004	4.650719906792801E+001
-1.096015747426959E-002	-5.8339399E-001	-5.8345032E-001	5.3228613E+004	4.670719906287559E+001
-1.115214672313664E-002	-5.8538324E-001	-5.8545035E-001	5.2490633E+004	4.690719905782316E+001
-1.131384766428589E-002	-5.8740515E-001	-5.8745039E-001	5.1919133E+004	4.710719905277074E+001
-1.147199154187620E-002	-5.8937061E-001	-5.8945036E-001	5.1374742E+004	4.730719904771831E+001
-1.164005047183956E-002	-5.9129769E-001	-5.9145033E-001	5.0798551E+004	4.750719904266589E+001
-1.180255240729063E-002	-5.9330845E-001	-5.9345037E-001	5.0269504E+004	4.770719903761346E+001
-1.197853903687407E-002	-5.9538567E-001	-5.9545040E-001	4.9704363E+004	4.790719903256104E+001
-1.214992119035790E-002	-5.9738833E-001	-5.9745032E-001	4.9168082E+004	4.810719902750861E+001
-1.233485479793744E-002	-5.9938794E-001	-5.9945035E-001	4.8593027E+004	4.830719902245619E+001
-1.247647819990955E-002	-6.0147929E-001	-6.0145038E-001	4.8209059E+004	4.850719901740376E+001
-1.269596367319435E-002	-6.0338324E-001	-6.0345030E-001	4.7525598E+004	4.870719901235134E+001
-1.285990293675196E-002	-6.0552520E-001	-6.0545033E-001	4.7086297E+004	4.890719900729891E+001
-1.304419837441181E-002	-6.0740286E-001	-6.0745037E-001	4.6564980E+004	4.910719900224649E+001
-1.323059137938049E-002	-6.0948342E-001	-6.0945034E-001	4.6066227E+004	4.930719899719406E+001
-1.341580816459056E-002	-6.1140049E-001	-6.1145031E-001	4.5573137E+004	4.950719899214164E+001
-1.357514930235920E-002	-6.1339056E-001	-6.1345035E-001	4.5184813E+004	4.970719898708921E+001
-1.376421696505384E-002	-6.1535454E-001	-6.1545038E-001	4.4706832E+004	4.990719898203679E+001
-1.395788506970080E-002	-6.1740100E-001	-6.1745030E-001	4.4233133E+004	5.010719897698436E+001
-1.411795467436588E-002	-6.1940348E-001	-6.1945033E-001	4.3873457E+004	5.030719897193194E+001
-1.432523459392498E-002	-6.2138468E-001	-6.2145036E-001	4.3376930E+004	5.050719896687951E+001
-1.453772630482331E-002	-6.2338346E-001	-6.2345034E-001	4.2880395E+004	5.070719896182709E+001
-1.470465667093329E-002	-6.2539208E-001	-6.2545037E-001	4.2530207E+004	5.090719895677466E+001
-1.489215703190634E-002	-6.2740129E-001	-6.2745035E-001	4.2129645E+004	5.110719895172224E+001
-1.508502769265473E-002	-6.2941682E-001	-6.2945038E-001	4.1724605E+004	5.130719894666981E+001
-1.530915070267055E-002	-6.3140351E-001	-6.3145030E-001	4.1243535E+004	5.150719894161739E+001
-1.547889510072479E-002	-6.3333654E-001	-6.3345033E-001	4.0916133E+004	5.170719893656496E+001
-1.568496003897454E-002	-6.3543862E-001	-6.3545042E-001	4.0512605E+004	5.190719893151254E+001
-1.589357842996932E-002	-6.3748372E-001	-6.3745028E-001	4.0109516E+004	5.210719892646011E+001
-1.608581037897838E-002	-6.3940841E-001	-6.3945037E-001	3.9749840E+004	5.230719892140769E+001
-1.629190728036152E-002	-6.4137161E-001	-6.4145041E-001	3.9367496E+004	5.250719891635526E+001
-1.649397597864660E-002	-6.4346820E-001	-6.4345038E-001	3.9012316E+004	5.270719891130284E+001
-1.670474682136308E-002	-6.4545745E-001	-6.4545029E-001	3.8639164E+004	5.290719890625041E+001
-1.689449906910934E-002	-6.4742821E-001	-6.4745033E-001	3.8321836E+004	5.310719890119799E+001
-1.711623753762068E-002	-6.4937609E-001	-6.4945042E-001	3.7939184E+004	5.330719889614556E+001
-1.733858872887663E-002	-6.5142417E-001	-6.5145034E-001	3.7570773E+004	5.350719889109314E+001
-1.753739263363976E-002	-6.5341806E-001	-6.5345031E-001	3.7258563E+004	5.370719888604071E+001
-1.775881620068540E-002	-6.5545696E-001	-6.5545040E-001	3.6908820E+004	5.390719888098829E+001
-1.796905351673359E-002	-6.5741158E-001	-6.5745032E-001	3.6585766E+004	5.410719887593586E+001
-1.815674247224383E-002	-6.5938276E-001	-6.5945035E-001	3.6316137E+004	5.430719887088344E+001
-1.838533340490267E-002	-6.6137630E-001	-6.6145033E-001	3.5973039E+004	5.450719886583101E+001
-1.861030073208711E-002	-6.6345662E-001	-6.6345036E-001	3.5649969E+004	5.470719886077859E+001
-1.883086212910717E-002	-6.6545004E-001	-6.6545033E-001	3.5338266E+004	5.490719885572616E+001
-1.903787434886176E-002	-6.6740960E-001	-6.6745031E-001	3.5056938E+004	5.510719885067374E+001
-1.925110965906457E-002	-6.6944790E-001	-6.6945040E-001	3.4774508E+004	5.530719884562131E+001
-1.947989545526541E-002	-6.7144012E-001	-6.7145032E-001	3.4468363E+004	5.550719884056889E+001
-1.971119597882601E-002	-6.7337757E-001	-6.7345029E-001	3.4162188E+004	5.570719883551646E+001
-1.994258374973074E-002	-6.7540771E-001	-6.7545038E-001	3.3867613E+004	5.590719883046404E+001
-2.017185448424970E-002	-6.7738658E-001	-6.7745030E-001	3.3580777E+004	5.610719882541162E+001
-2.041595846600933E-002	-6.7944527E-001	-6.7945033E-001	3.3280105E+004	5.630719882035919E+001
-2.061323785102162E-002	-6.8138379E-001	-6.8145031E-001	3.3055641E+004	5.650719881530677E+001
-2.085549384236751E-002	-6.8344474E-001	-6.8345040E-001	3.2770488E+004	5.670719881025434E+001
-2.108397523309221E-002	-6.8536979E-001	-6.8545038E-001	3.2506668E+004	5.690719880520192E+001
-2.132825556703762E-002	-6.8736631E-001	-6.8745029E-001	3.2227967E+004	5.710719880014949E+001
-2.157348223572263E-002	-6.8939704E-001	-6.8945038E-001	3.1955762E+004	5.730719879509707E+001
-2.182348372120102E-002	-6.9138473E-001	-6.9145030E-001	3.1680768E+004	5.750719879004464E+001
-2.205865737011176E-002	-6.9341797E-001	-6.9345033E-001	3.1435186E+004	5.770719878499222E+001
-2.228710928373789E-002	-6.9535190E-001	-6.9545037E-001	3.1199734E+004	5.790719877993979E+001
-2.254933490293296E-002	-6.9741321E-001	-6.9745040E-001	3.0928326E+004	5.810719877488737E+001
-2.280391517922581E-002	-6.9943732E-001	-6.9945037E-001	3.0671809E+004	5.830719876983494E+001
-2.305944151083505E-002	-7.0142710E-001	-7.0145035E-001	3.0418217E+004	5.850719876478252E+001
-2.330337346467037E-002	-7.0336741E-001	-7.0345044E-001	3.0183072E+004	5.870719875973009E+001
-2.354247784326524E-002	-7.0545083E-001	-7.0545036E-001	2.9965021E+004	5.890719875467767E+001
-2.382637631101103E-002	-7.0749843E-001	-7.0745033E-001	2.9693916E+004	5.910719874962524E+001
-2.408222133933108E-002	-7.0940280E-001	-7.0945036E-001	2.9457531E+004	5.930719874457282E+001
-2.435753097963073E-002	-7.1137995E-001	-7.1145040E-001	2.9205750E+004	5.950719873952039E+001
-2.462758958342870E-002	-7.1341187E-001	-7.1345037E-001	2.8967994E+004	5.970719873446797E+001
-2.489571800838755E-002	-7.1541464E-001	-7.1545035E-001	2.8736453E+004	5.990719872941554E+001
-2.514807950328329E-002	-7.1742284E-001	-7.1745044E-001	2.8527938E+004	6.010719872436312E+001
-2.546274140841479E-002	-7.1941739E-001	-7.1945041E-001	2.8253729E+004	6.030719871931069E+001
-2.571343690027050E-002	-7.2134143E-001	-7.2145039E-001	2.8053094E+004	6.050719871425827E+001
-2.601516733865761E-002	-7.2344315E-001	-7.2345036E-001	2.7808514E+004	6.070719870920584E+001
-2.630871270314417E-002	-7.2538000E-001	-7.2545034E-001	2.7571855E+004	6.090719870415342E+001
-2.659615273867227E-002	-7.2734553E-001	-7.2745031E-001	2.7347771E+004	6.110719869910099E+001
-2.689115598490532E-002	-7.2938228E-001	-7.2945040E-001	2.7123500E+004	6.130719869404857E+001
-2.720769952883417E-002	-7.3134756E-001	-7.3145038E-001	2.6880170E+004	6.150719868899614E+001
-2.749659561461304E-002	-7.3341972E-001	-7.3345035E-001	2.6673109E+004	6.170719868394372E+001
-2.781586633396477E-002	-7.3542517E-001	-7.3545033E-001	2.6439053E+004	6.190719867889129E+001
-2.814525067056556E-002	-7.3742962E-001	-7.3745042E-001	2.6200855E+004	6.210719867383887E+001
-2.844531826285293E-002	-7.3943675E-001	-7.3945040E-001	2.5995025E+004	6.230719866878644E+001
-2.876023399351124E-002	-7.4141413E-001	-7.4145031E-001	2.5779141E+004	6.250719866373402E+001
-2.909677942117667E-002	-7.4345195E-001	-7.4345034E-001	2.5551004E+004	6.270719865868159E+001
-2.944969993281077E-002	-7.4535763E-001	-7.4545038E-001	2.5309516E+004	6.290719865362917E+001
-2.979419561622491E-002	-7.4745077E-001	-7.4745035E-001	2.5087127E+004	6.310719864857674E+001
-3.012761486775527E-002	-7.4936688E-001	-7.4945033E-001	2.4873090E+004	6.330719864352432E+001
-3.048182075897070E-002	-7.5143576E-001	-7.5145042E-001	2.4651932E+004	6.350719863847189E+001
-3.086731698925782E-002	-7.5343555E-001	-7.5345039E-001	2.4408846E+004	6.370719863341947E+001
-3.120889340695251E-002	-7.5537634E-001	-7.5545037E-001	2.4203881E+004	6.390719862836704E+001
-3.162212767918104E-002	-7.5741017E-001	-7.5745034E-001	2.3951904E+004	6.410719862331462E+001
-3.197207687266360E-002	-7.5945944E-001	-7.5945044E-001	2.3753834E+004	6.430719861826219E+001
-3.237712680934474E-002	-7.6137298E-001	-7.6145029E-001	2.3515768E+004	6.450719861320977E+001
-3.278608959091106E-002	-7.6343399E-001	-7.6345038E-001	2.3285303E+004	6.470719860815734E+001
-3.318056189893304E-002	-7.6543689E-001	-7.6545048E-001	2.3068834E+004	6.490719860310492E+001
-3.361567153987130E-002	-7.6740223E-001	-7.6745033E-001	2.2828705E+004	6.510719859805249E+001
-3.404898540636342E-002	-7.6943570E-001	-7.6945031E-001	2.2597904E+004	6.530719859300007E+001
-3.448360477143358E-002	-7.7140278E-001	-7.7145040E-001	2.2370131E+004	6.550719858794764E+001
-3.493745123192493E-002	-7.7341163E-001	-7.7345037E-001	2.2137037E+004	6.570719858289522E+001
-3.541217473533020E-002	-7.7538872E-001	-7.7545035E-001	2.1896105E+004	6.590719857784279E+001
-3.590127371400470E-002	-7.7743232E-001	-7.7745038E-001	2.1654729E+004	6.610719857279037E+001
-3.639252770157814E-002	-7.7937847E-001	-7.7945042E-001	2.1415893E+004	6.630719856773794E+001
-3.690765541159835E-002	-7.8138459E-001	-7.8145039E-001	2.1171342E+004	6.650719856268552E+001
-3.742722386959924E-002	-7.8335428E-001	-7.8345031E-001	2.0930066E+004	6.670719855763309E+001
-3.796207584053202E-002	-7.8537196E-001	-7.8545046E-001	2.0688330E+004	6.690719855258067E+001
-3.855501801670946E-002	-7.8739429E-001	-7.8745043E-001	2.0422615E+004	6.710719854752824E+001
-3.914451894119109E-002	-7.8940517E-001	-7.8945041E-001	2.0166430E+004	6.730719854247582E+001
-3.973533644007271E-002	-7.9144514E-001	-7.9145038E-001	1.9917918E+004	6.750719853742339E+001
-4.038175488104123E-002	-7.9338956E-001	-7.9345042E-001	1.9647229E+004	6.770719853237097E+001
-4.103757838070266E-002	-7.9539186E-001	-7.9545039E-001	1.9382037E+004	6.790719852731854E+001
-4.174485743043688E-002	-7.9743862E-001	-7.9745036E-001	1.9102680E+004	6.810719852226612E+001
-4.247497807387793E-002	-7.9940355E-001	-7.9945046E-001	1.8820576E+004	6.830719851721369E+001
-4.322249502843223E-002	-8.0132216E-001	-8.0145043E-001	1.8539471E+004	6.850719851216127E+001
-4.400405786533446E-002	-8.0344319E-001	-8.0345041E-001	1.8258389E+004	6.870719850710884E+001
-4.483177164667701E-002	-8.0543077E-001	-8.0545038E-001	1.7965625E+004	6.890719850205642E+001
-4.568745915106412E-002	-8.0743164E-001	-8.0745035E-001	1.7672938E+004	6.910719849700399E+001
-4.661309299066607E-002	-8.0947822E-001	-8.0945045E-001	1.7365898E+004	6.930719849195157E+001
-4.752753970166768E-002	-8.1139559E-001	-8.1145036E-001	1.7072113E+004	6.950719848689914E+001
-4.850709223074423E-002	-8.1340688E-001	-8.1345046E-001	1.6768824E+004	6.970719848184672E+001
-4.955875636828111E-002	-8.1543243E-001	-8.1545049E-001	1.6453852E+004	6.990719847679429E+001
-5.065240257719500E-002	-8.1739873E-001	-8.1745028E-001	1.6137413E+004	7.010719847174187E+001
-5.173636501435341E-002	-8.1934083E-001	-8.1945044E-001	1.5836846E+004	7.030719846668944E+001
-5.294796089534032E-002	-8.2139397E-001	-8.2145041E-001	1.5513231E+004	7.050719846163702E+001
-5.417619453523448E-002	-8.2341003E-001	-8.2345039E-001	1.5198742E+004	7.070719845658459E+001
-5.539814395093007E-002	-8.2547605E-001	-8.2545036E-001	1.4900789E+004	7.090719845153217E+001
-5.673340520749703E-002	-8.2740432E-001	-8.2745045E-001	1.4584076E+004	7.110719844647974E+001
-5.808460927576831E-002	-8.2940185E-001	-8.2945043E-001	1.4279202E+004	7.130719844142732E+001
-5.945338876210515E-002	-8.3139098E-001	-8.3145034E-001	1.3983912E+004	7.150719843637489E+001
-6.089850842409983E-002	-8.3338255E-001	-8.3345044E-001	1.3684777E+004	7.170719843132247E+001
-6.235887339315460E-002	-8.3541042E-001	-8.3545041E-001	1.3396817E+004	7.190719842627004E+001
-6.391039479612587E-002	-8.3738756E-001	-8.3745039E-001	1.3102525E+004	7.210719842121762E+001
-6.548687905313938E-002	-8.3939755E-001	-8.3945036E-001	1.2817798E+004	7.230719841616519E+001
-6.710872739181772E-002	-8.4140754E-001	-8.4145045E-001	1.2537975E+004	7.250719841111277E+001
-6.877371600655890E-002	-8.4347004E-001	-8.4345043E-001	1.2264425E+004	7.270719840606034E+001
-7.046403579018978E-002	-8.4547168E-001	-8.4545034E-001	1.1998627E+004	7.290719840100792E+001
-7.224256047491173E-002	-8.4746242E-001	-8.4745049E-001	1.1730792E+004	7.310719839595549E+001
-7.404328975351337E-002	-8.4947205E-001	-8.4945047E-001	1.1472641E+004	7.330719839090307E+001
-7.586044808131683E-002	-8.5142833E-001	-8.5145032E-001	1.1223613E+004	7.350719838585064E+001
-7.779166115925126E-002	-8.5344213E-001	-8.5345042E-001	1.0970869E+004	7.370719838079822E+001
-7.972437641984631E-002	-8.5543543E-001	-8.5545051E-001	1.0729910E+004	7.390719837574579E+001
-8.173568354805516E-002	-8.5738820E-001	-8.5745037E-001	1.0489766E+004	7.410719837069337E+001
-8.382296541076405E-002	-8.5947126E-001	-8.5945040E-001	1.0253410E+004	7.430719836564094E+001
-8.594382692935154E-002	-8.6141956E-001	-8.6145043E-001	1.0023054E+004	7.450719836058852E+001
-8.817207501766200E-002	-8.6337972E-001	-8.6345041E-001	9.7919863E+003	7.470719835553609E+001
-9.042368373145138E-002	-8.6539119E-001	-8.6545038E-001	9.5704043E+003	7.490719835048367E+001
-9.274685118862758E-002	-8.6743051E-001	-8.6745042E-001	9.3526680E+003	7.510719834543124E+001
-9.515714094722783E-002	-8.6936677E-001	-8.6945045E-001	9.1361172E+003	7.530719834037882E+001
-9.790325677764877E-002	-8.7153065E-001	-8.7155038E-001	8.9019580E+003	7.551719833507377E+001
-1.007144778508635E-001	-8.7361133E-001	-8.7365043E-001	8.6741387E+003	7.572719832976873E+001
-1.033525877841270E-001	-8.7559241E-001	-8.7565041E-001	8.4718965E+003	7.592719832471630E+001
-1.061688065190976E-001	-8.7763053E-001	-8.7765038E-001	8.2663691E+003	7.612719831966388E+001
-1.091173767257909E-001	-8.7962663E-001	-8.7965041E-001	8.0612881E+003	7.632719831461145E+001
-1.121159197927326E-001	-8.8164240E-001	-8.8165045E-001	7.8636685E+003	7.652719830955903E+001
-1.152053870822467E-001	-8.8360029E-001	-8.8365042E-001	7.6697827E+003	7.672719830450660E+001
-1.185444610081443E-001	-8.8559520E-001	-8.8565034E-001	7.4705742E+003	7.692719829945418E+001
-1.219124394086715E-001	-8.8761842E-001	-8.8765043E-001	7.2807861E+003	7.712719829440175E+001
-1.254096295137606E-001	-8.8961065E-001	-8.8965040E-001	7.0936392E+003	7.732719828934933E+001
-1.290870346160626E-001	-8.9161372E-001	-8.9165038E-001	6.9070742E+003	7.752719828429690E+001
-1.328441167383323E-001	-8.9356196E-001	-8.9365041E-001	6.7263945E+003	7.772719827924448E+001
-1.368101056213253E-001	-8.9560407E-001	-8.9565045E-001	6.5463296E+003	7.792719827419205E+001
-1.409215460153395E-001	-8.9756298E-001	-8.9765042E-001	6.3692388E+003	7.812719826913963E+001
-1.451405456845061E-001	-8.9957064E-001	-8.9965039E-001	6.1979277E+003	7.832719826408720E+001
-1.495650846198575E-001	-9.0159392E-001	-9.0165049E-001	6.0281045E+003	7.852719825903478E+001
-1.541572200744719E-001	-9.0358967E-001	-9.0365046E-001	5.8614814E+003	7.872719825398235E+001
-1.590447027918347E-001	-9.0562171E-001	-9.0565044E-001	5.6941333E+003	7.892719824892993E+001
-1.645720483927382E-001	-9.0761209E-001	-9.0765041E-001	5.5149834E+003	7.912719824387750E+001
-1.696651312311406E-001	-9.0961677E-001	-9.0965050E-001	5.3612476E+003	7.932719823882508E+001
-1.749256160004649E-001	-9.1160011E-001	-9.1165036E-001	5.2113584E+003	7.952719823377265E+001
-1.803641303055953E-001	-9.1359806E-001	-9.1365039E-001	5.0652979E+003	7.972719822872023E+001
-1.860028477501789E-001	-9.1561294E-001	-9.1565043E-001	4.9225747E+003	7.992719822366780E+001
-1.918041575077051E-001	-9.1752756E-001	-9.1765040E-001	4.7836689E+003	8.012719821861538E+001
-1.977864726153022E-001	-9.1961390E-001	-9.1965038E-001	4.6495288E+003	8.032719821356295E+001
-2.038720527182325E-001	-9.2157793E-001	-9.2165041E-001	4.5203740E+003	8.052719820851053E+001
-2.101473050390520E-001	-9.2359638E-001	-9.2365038E-001	4.3949951E+003	8.072719820345810E+001
-2.165554025275898E-001	-9.2557633E-001	-9.2565036E-001	4.2740854E+003	8.092719819840568E+001
-2.230900194571941E-001	-9.2756701E-001	-9.2765045E-001	4.1578149E+003	8.112719819335325E+001
-2.297931418388810E-001	-9.2961198E-001	-9.2965049E-001	4.0454297E+003	8.132719818830083E+001
-2.365322483813301E-001	-9.3157166E-001	-9.3165040E-001	3.9384551E+003	8.152719818324840E+001
-2.434346605358373E-001	-9.3360764E-001	-9.3365043E-001	3.8351467E+003	8.172719817819598E+001
-2.504334192482292E-001	-9.3561369E-001	-9.3565047E-001	3.7359778E+003	8.192719817314355E+001
-2.575197004208398E-001	-9.3762416E-001	-9.3765050E-001	3.6409802E+003	8.212719816809113E+001
-2.647066774066373E-001	-9.3963355E-001	-9.3965042E-001	3.5497161E+003	8.232719816303870E+001
-2.719501809548586E-001	-9.4162041E-001	-9.4165039E-001	3.4624739E+003	8.252719815798628E+001
-2.792868411058649E-001	-9.4358015E-001	-9.4365048E-001	3.3785342E+003	8.272719815293385E+001
-2.866247491552034E-001	-9.4561338E-001	-9.4565034E-001	3.2991338E+003	8.292719814788143E+001
-2.940989520058634E-001	-9.4759363E-001	-9.4765037E-001	3.2220232E+003	8.312719814282900E+001
-3.016460162129198E-001	-9.4958651E-001	-9.4965041E-001	3.1480161E+003	8.332719813777658E+001
-3.092494927971796E-001	-9.5159101E-001	-9.5165038E-001	3.0770981E+003	8.352719813272415E+001
-3.170033690462614E-001	-9.5359880E-001	-9.5365036E-001	3.0081660E+003	8.372719812767173E+001
-3.247409523454183E-001	-9.5559579E-001	-9.5565039E-001	2.9426401E+003	8.392719812261930E+001
-3.326109303583871E-001	-9.5758742E-001	-9.5765042E-001	2.8790017E+003	8.412719811756688E+001
-3.412032033361143E-001	-9.5957375E-001	-9.5965040E-001	2.8123235E+003	8.432719811251445E+001
-3.506353194561374E-001	-9.6159178E-001	-9.6165043E-001	2.7424270E+003	8.452719810746203E+001
-3.589453397344076E-001	-9.6355855E-001	-9.6365047E-001	2.6844158E+003	8.472719810240960E+001
-3.675270791623806E-001	-9.6556991E-001	-9.6565038E-001	2.6272075E+003	8.492719809735718E+001
-3.762707842509698E-001	-9.6754813E-001	-9.6765041E-001	2.5714146E+003	8.512719809230475E+001
-3.852318890958752E-001	-9.6960723E-001	-9.6965045E-001	2.5169443E+003	8.532719808725233E+001
-3.943850270804035E-001	-9.7161168E-001	-9.7165048E-001	2.4636121E+003	8.552719808219990E+001
-4.036782844722806E-001	-9.7362804E-001	-9.7365040E-001	2.4118911E+003	8.572719807714748E+001
-4.130008368881715E-001	-9.7560197E-001	-9.7565037E-001	2.3622275E+003	8.592719807209505E+001
-4.225959882326009E-001	-9.7758597E-001	-9.7765046E-001	2.3132874E+003	8.612719806704263E+001
-4.323908161971719E-001	-9.7956163E-001	-9.7965044E-001	2.2654543E+003	8.632719806199020E+001
-4.423209392294583E-001	-9.8157138E-001	-9.8165035E-001	2.2191384E+003	8.652719805693778E+001
-4.523670207878023E-001	-9.8359227E-001	-9.8365051E-001	2.1743235E+003	8.672719805188535E+001
-4.625388329759965E-001	-9.8558897E-001	-9.8565036E-001	2.1308242E+003	8.692719804683293E+001
-4.726880967380538E-001	-9.8758167E-001	-9.8765045E-001	2.0892883E+003	8.712719804178050E+001
-4.830683160260687E-001	-9.8960012E-001	-9.8965043E-001	2.0485718E+003	8.732719803672808E+001
-4.933650089077268E-001	-9.9156713E-001	-9.9165040E-001	2.0098043E+003	8.752719803167565E+001
-5.038679655294978E-001	-9.9359137E-001	-9.9365038E-001	1.9719280E+003	8.772719802662323E+001
-5.143871819832757E-001	-9.9559402E-001	-9.9565041E-001	1.9354954E+003	8.792719802157080E+001
-5.252441806241444E-001	-9.9756926E-001	-9.9765044E-001	1.8992485E+003	8.812719801651838E+001
-5.374789107168549E-001	-9.9959296E-001	-9.9965036E-001	1.8597808E+003	8.832719801146595E+001
-5.479009132452142E-001	-1.0015990E+000	-1.0016503E+000	1.8280659E+003	8.852719800641353E+001
-5.582401891769067E-001	-1.0036023E+000	-1.0036504E+000	1.7977965E+003	8.872719800136110E+001
-5.685887449292171E-001	-1.0055777E+000	-1.0056505E+000	1.7685500E+003	8.892719799630868E+001
-5.789335280859582E-001	-1.0075979E+000	-1.0076504E+000	1.7404380E+003	8.912719799125625E+001
-5.892128907693170E-001	-1.0096171E+000	-1.0096503E+000	1.7135013E+003	8.932719798620383E+001
-5.994505404353223E-001	-1.0116392E+000	-1.0116504E+000	1.6876108E+003	8.952719798115140E+001
-6.095738454960502E-001	-1.0135986E+000	-1.0136504E+000	1.6627986E+003	8.972719797609898E+001
-6.195999776306724E-001	-1.0156076E+000	-1.0156504E+000	1.6391343E+003	8.992719797104655E+001
-6.296282258104355E-001	-1.0175772E+000	-1.0176504E+000	1.6161556E+003	9.012719796599413E+001
-6.401295854019473E-001	-1.0196165E+000	-1.0196503E+000	1.5928282E+003	9.032719796094170E+001
-6.497070637875790E-001	-1.0215954E+000	-1.0216504E+000	1.5723938E+003	9.052719795588928E+001
-6.592057846917401E-001	-1.0235966E+000	-1.0236504E+000	1.5527726E+003	9.072719795083685E+001
-6.689229675541188E-001	-1.0256219E+000	-1.0256504E+000	1.5332437E+003	9.092719794578443E+001
-6.785610412878951E-001	-1.0276417E+000	-1.0276504E+000	1.5144425E+003	9.112719794073200E+001
-6.879905573559117E-001	-1.0295945E+000	-1.0296504E+000	1.4965243E+003	9.132719793567958E+001
-6.974450686477667E-001	-1.0316293E+000	-1.0316504E+000	1.4791549E+003	9.152719793062715E+001
-7.069017128034787E-001	-1.0335881E+000	-1.0336505E+000	1.4621383E+003	9.172719792557473E+001
-7.186074724078750E-001	-1.0356115E+000	-1.0356504E+000	1.4411366E+003	9.192719792052230E+001
-7.281007974824600E-001	-1.0376303E+000	-1.0376505E+000	1.4251190E+003	9.212719791546988E+001
-7.373987099497903E-001	-1.0396278E+000	-1.0396504E+000	1.4098584E+003	9.232719791041745E+001
-7.467147251189852E-001	-1.0416455E+000	-1.0416504E+000	1.3949712E+003	9.252719790536503E+001
-7.560762473531977E-001	-1.0436172E+000	-1.0436505E+000	1.3803069E+003	9.272719790031260E+001
-7.654601606390443E-001	-1.0456331E+000	-1.0456505E+000	1.3660189E+003	9.292719789526018E+001
-7.749281806613659E-001	-1.0476379E+000	-1.0476505E+000	1.3519161E+003	9.312719789020775E+001
-7.843774064167350E-001	-1.0496376E+000	-1.0496504E+000	1.3381792E+003	9.332719788515533E+001
-7.940384832183378E-001	-1.0516695E+000	-1.0516504E+000	1.3244565E+003	9.352719788010290E+001
-8.037112689325774E-001	-1.0536294E+000	-1.0536505E+000	1.3109551E+003	9.372719787505048E+001
-8.133205456359320E-001	-1.0556400E+000	-1.0556505E+000	1.2979385E+003	9.392719786999805E+001
-8.231346835794113E-001	-1.0576124E+000	-1.0576504E+000	1.2848595E+003	9.412719786494563E+001
-8.330219317050216E-001	-1.0595342E+000	-1.0596504E+000	1.2719164E+003	9.432719785989320E+001
-8.431275882620959E-001	-1.0615700E+000	-1.0616505E+000	1.2590859E+003	9.452719785484078E+001
-8.533952424214046E-001	-1.0636694E+000	-1.0636505E+000	1.2463972E+003	9.472719784978835E+001
-8.637485807326488E-001	-1.0656302E+000	-1.0656505E+000	1.2337273E+003	9.492719784473593E+001
-8.742490205618161E-001	-1.0676075E+000	-1.0676504E+000	1.2211710E+003	9.512719783968350E+001
-8.851606696337235E-001	-1.0696384E+000	-1.0696503E+000	1.2084115E+003	9.532719783463108E+001
-8.967155057117537E-001	-1.0716197E+000	-1.0716505E+000	1.1950499E+003	9.552719782957865E+001
-9.104700432308963E-001	-1.0736659E+000	-1.0736505E+000	1.1792435E+003	9.572719782452623E+001
-9.221546843546555E-001	-1.0756308E+000	-1.0756503E+000	1.1664320E+003	9.592719781947380E+001
-9.338817921321390E-001	-1.0776327E+000	-1.0776504E+000	1.1539283E+003	9.612719781442138E+001
-9.459253118591011E-001	-1.0796233E+000	-1.0796504E+000	1.1413409E+003	9.632719780936895E+001
-9.584755353595837E-001	-1.0816087E+000	-1.0816505E+000	1.1284677E+003	9.652719780431653E+001
-9.714963019333478E-001	-1.0836171E+000	-1.0836505E+000	1.1154104E+003	9.672719779926410E+001
-9.846840528454524E-001	-1.0856123E+000	-1.0856503E+000	1.1024980E+003	9.692719779421168E+001
-9.982604789135774E-001	-1.0876158E+000	-1.0876504E+000	1.0895111E+003	9.712719778915925E+001
-1.012367696566784E+000	-1.0896696E+000	-1.0896504E+000	1.0763575E+003	9.732719778410683E+001
-1.026945456701952E+000	-1.0916488E+000	-1.0916504E+000	1.0630056E+003	9.752719777905440E+001
-1.042156691048421E+000	-1.0935873E+000	-1.0936505E+000	1.0493501E+003	9.772719777400198E+001
-1.057822232842110E+000	-1.0956041E+000	-1.0956504E+000	1.0357167E+003	9.792719776894955E+001
-1.081291561254397E+000	-1.0977631E+000	-1.0978503E+000	1.0152332E+003	9.814719776339189E+001
-1.098233224701582E+000	-1.0997503E+000	-1.0998504E+000	1.0013813E+003	9.834719775833946E+001
-1.115804054417442E+000	-1.1018203E+000	-1.1018505E+000	9.8746759E+002	9.854719775328704E+001
-1.134022514810979E+000	-1.1037742E+000	-1.1038505E+000	9.7332654E+002	9.874719774823461E+001
-1.153090362181535E+000	-1.1058072E+000	-1.1058503E+000	9.5899438E+002	9.894719774318219E+001
-1.172968365902461E+000	-1.1077710E+000	-1.1078506E+000	9.4441681E+002	9.914719773812976E+001
-1.193502325218281E+000	-1.1097836E+000	-1.1098504E+000	9.2985461E+002	9.934719773307734E+001
-1.215076089775410E+000	-1.1117913E+000	-1.1118504E+000	9.1499725E+002	9.954719772802491E+001
-1.237452828466822E+000	-1.1137894E+000	-1.1138505E+000	9.0006616E+002	9.974719772297249E+001
-1.261309960844359E+000	-1.1158084E+000	-1.1158504E+000	8.8464246E+002	9.994719771792006E+001
-1.290249821685611E+000	-1.1177845E+000	-1.1178504E+000	8.6633185E+002	1.001471977128676E+002
-1.315692537166435E+000	-1.1197778E+000	-1.1198504E+000	8.5109381E+002	1.003471977078152E+002
-1.342296857158752E+000	-1.1218135E+000	-1.1218505E+000	8.3574176E+002	1.005471977027628E+002
-1.370305084274946E+000	-1.1237839E+000	-1.1238505E+000	8.2009760E+002	1.007471976977104E+002
-1.399581984935708E+000	-1.1257893E+000	-1.1258504E+000	8.0437537E+002	1.009471976926579E+002
-1.430767979134984E+000	-1.1278144E+000	-1.1278504E+000	7.8825806E+002	1.011471976876055E+002
-1.466973117453442E+000	-1.1298106E+000	-1.1298504E+000	7.7016449E+002	1.013471976825531E+002
-1.501912033299405E+000	-1.1318095E+000	-1.1318505E+000	7.5357904E+002	1.015471976775007E+002
-1.537102157921609E+000	-1.1338072E+000	-1.1338505E+000	7.3762640E+002	1.017471976724482E+002
-1.574578400490094E+000	-1.1358223E+000	-1.1358504E+000	7.2135010E+002	1.019471976673958E+002
-1.614202027283020E+000	-1.1377983E+000	-1.1378504E+000	7.0486737E+002	1.021471976623434E+002
-1.659676871416657E+000	-1.1397370E+000	-1.1398504E+000	6.8672223E+002	1.023471976572910E+002
-1.705460525255077E+000	-1.1417317E+000	-1.1418505E+000	6.6945654E+002	1.025471976522385E+002
-1.751552842118164E+000	-1.1437874E+000	-1.1438504E+000	6.5301337E+002	1.027471976471861E+002
-1.799627705428605E+000	-1.1457994E+000	-1.1458504E+000	6.3668689E+002	1.029471976421337E+002
-1.857570697965272E+000	-1.1477770E+000	-1.1478504E+000	6.1789142E+002	1.031471976370813E+002
-1.911003662412675E+000	-1.1497798E+000	-1.1498505E+000	6.0166278E+002	1.033471976320288E+002
-1.967822389723636E+000	-1.1517662E+000	-1.1518505E+000	5.8529987E+002	1.035471976269764E+002
-2.032104928038013E+000	-1.1538007E+000	-1.1538504E+000	5.6778601E+002	1.037471976219240E+002
-2.098509108854675E+000	-1.1557784E+000	-1.1558504E+000	5.5076166E+002	1.039471976168716E+002
-2.164831342154475E+000	-1.1578004E+000	-1.1578503E+000	5.3482245E+002	1.041471976118191E+002
-2.244823486508285E+000	-1.1598066E+000	-1.1598505E+000	5.1665826E+002	1.043471976067667E+002
-2.319105087967408E+000	-1.1617883E+000	-1.1618505E+000	5.0096408E+002	1.045471976017143E+002
-2.403124026481116E+000	-1.1638157E+000	-1.1638505E+000	4.8429282E+002	1.047471975966619E+002
-2.489699179386875E+000	-1.1657940E+000	-1.1658504E+000	4.6824695E+002	1.049471975916094E+002
-2.581599760673893E+000	-1.1677464E+000	-1.1678504E+000	4.5233441E+002	1.051471975865570E+002
-2.680498355522319E+000	-1.1697891E+000	-1.1698505E+000	4.3640732E+002	1.053471975815046E+002
-2.785374309673323E+000	-1.1717802E+000	-1.1718504E+000	4.2069040E+002	1.055471975764522E+002
-2.895050778680908E+000	-1.1738029E+000	-1.1738503E+000	4.0545157E+002	1.057471975713997E+002
-3.017975715383940E+000	-1.1758054E+000	-1.1758504E+000	3.8960071E+002	1.059471975663473E+002
-3.140710449374204E+000	-1.1777799E+000	-1.1778504E+000	3.7500430E+002	1.061471975612949E+002
-3.270118595892882E+000	-1.1797856E+000	-1.1798503E+000	3.6077762E+002	1.063471975562425E+002
-3.412810512647333E+000	-1.1817994E+000	-1.1818504E+000	3.4628333E+002	1.065471975511900E+002
-3.559918233123767E+000	-1.1837764E+000	-1.1838504E+000	3.3252908E+002	1.067471975461376E+002
-3.718909348625175E+000	-1.1858006E+000	-1.1858504E+000	3.1885709E+002	1.069471975410852E+002
-3.889746201045106E+000	-1.1877764E+000	-1.1878504E+000	3.0536090E+002	1.071471975360328E+002
-4.067077018100917E+000	-1.1897770E+000	-1.1898504E+000	2.9253860E+002	1.073471975309803E+002
-4.252241593639866E+000	-1.1917853E+000	-1.1918505E+000	2.8027225E+002	1.075471975259279E+002
-4.456127788609663E+000	-1.1937733E+000	-1.1938504E+000	2.6789474E+002	1.077471975208755E+002
-4.664043262871218E+000	-1.1957835E+000	-1.1958504E+000	2.5638345E+002	1.079471975158231E+002
-4.885670251890915E+000	-1.1977446E+000	-1.1978505E+000	2.4515462E+002	1.081471975107706E+002
-5.131505866575118E+000	-1.1997594E+000	-1.1998504E+000	2.3380260E+002	1.083471975057182E+002
-5.380772091330050E+000	-1.2017943E+000	-1.2018504E+000	2.2334978E+002	1.085471975006658E+002
-5.648194022865255E+000	-1.2037836E+000	-1.2038504E+000	2.1312717E+002	1.087471974956134E+002
-5.930007154709045E+000	-1.2057697E+000	-1.2058505E+000	2.0333359E+002	1.089471974905609E+002
-6.222603023930759E+000	-1.2077888E+000	-1.2078503E+000	1.9409705E+002	1.091471974855085E+002
-6.529513577552621E+000	-1.2097960E+000	-1.2098504E+000	1.8528117E+002	1.093471974804561E+002
-6.866489646994324E+000	-1.2117510E+000	-1.2118504E+000	1.7647314E+002	1.095471974754037E+002
-7.218203115355138E+000	-1.2137873E+000	-1.2138505E+000	1.6815643E+002	1.097471974703512E+002
-7.582867369089513E+000	-1.2158161E+000	-1.2158505E+000	1.6033725E+002	1.099471974652988E+002
-7.971811592646503E+000	-1.2177980E+000	-1.2178504E+000	1.5276302E+002	1.101471974602464E+002
-8.389134118075816E+000	-1.2198409E+000	-1.2198504E+000	1.4540724E+002	1.103471974551940E+002
-8.821070695612717E+000	-1.2217984E+000	-1.2218505E+000	1.3850908E+002	1.105471974501415E+002
-9.273726468724155E+000	-1.2238264E+000	-1.2238505E+000	1.3196706E+002	1.107471974450891E+002
-9.744151194484850E+000	-1.2258152E+000	-1.2258503E+000	1.2580009E+002	1.109471974400367E+002
-1.024622645467316E+001	-1.2278327E+000	-1.2278504E+000	1.1983267E+002	1.111471974349843E+002
-1.080097241511152E+001	-1.2299452E+000	-1.2299504E+000	1.1387356E+002	1.113571974296792E+002
-1.139812892310471E+001	-1.2320325E+000	-1.2320504E+000	1.0809077E+002	1.115671974243742E+002
-1.197721987922179E+001	-1.2340022E+000	-1.2340504E+000	1.0302911E+002	1.117671974193217E+002
-1.256791941392447E+001	-1.2359823E+000	-1.2360505E+000	9.8344223E+001	1.119671974142693E+002
-1.320532379858616E+001	-1.2380168E+000	-1.2380505E+000	9.3751343E+001	1.121671974092169E+002
-1.383377122487076E+001	-1.2399654E+000	-1.2400504E+000	8.9633217E+001	1.123671974041645E+002
-1.451410889382271E+001	-1.2420025E+000	-1.2420505E+000	8.5572083E+001	1.125671973991120E+002
-1.520085102373778E+001	-1.2439702E+000	-1.2440505E+000	8.1835564E+001	1.127671973940596E+002
-1.591937985793268E+001	-1.2460153E+000	-1.2460504E+000	7.8270340E+001	1.129671973890072E+002
-1.664566440782313E+001	-1.2480013E+000	-1.2480503E+000	7.4974556E+001	1.131671973839548E+002
-1.739813186211373E+001	-1.2500283E+000	-1.2500504E+000	7.1848419E+001	1.133671973789023E+002
-1.815916431936816E+001	-1.2520231E+000	-1.2520505E+000	6.8947174E+001	1.135671973738499E+002
-1.894629056613189E+001	-1.2539972E+000	-1.2540505E+000	6.6186951E+001	1.137671973687975E+002
-1.976517237489719E+001	-1.2560470E+000	-1.2560505E+000	6.3548496E+001	1.139671973637451E+002
-2.062075298389345E+001	-1.2580057E+000	-1.2580504E+000	6.1006779E+001	1.141671973586926E+002
-2.147085051039181E+001	-1.2600102E+000	-1.2600505E+000	5.8684692E+001	1.143671973536402E+002
-2.235218430957553E+001	-1.2620251E+000	-1.2620505E+000	5.6460930E+001	1.145671973485878E+002
-2.322748365734713E+001	-1.2639564E+000	-1.2640505E+000	5.4416416E+001	1.147671973435354E+002
-2.409489579049369E+001	-1.2660344E+000	-1.2660505E+000	5.2543674E+001	1.149671973384829E+002
-2.503143387370642E+001	-1.2680510E+000	-1.2680503E+000	5.0658344E+001	1.151671973334305E+002
-2.596557918968119E+001	-1.2700036E+000	-1.2700504E+000	4.8911041E+001	1.153671973283781E+002
-2.695246267805291E+001	-1.2720110E+000	-1.2720505E+000	4.7194614E+001	1.155671973233257E+002
-2.791226141523077E+001	-1.2740287E+000	-1.2740504E+000	4.5644051E+001	1.157671973182732E+002
-2.889258346400842E+001	-1.2760519E+000	-1.2760503E+000	4.4165379E+001	1.159671973132208E+002
-2.992901737781875E+001	-1.2780571E+000	-1.2780504E+000	4.2702942E+001	1.161671973081684E+002
-3.094843395524015E+001	-1.2800472E+000	-1.2800504E+000	4.1360645E+001	1.163671973031160E+002
-3.200366314441453E+001	-1.2820545E+000	-1.2820505E+000	4.0059620E+001	1.165671972980635E+002
-3.312043043383127E+001	-1.2840617E+000	-1.2840505E+000	3.8769474E+001	1.167671972930111E+002
-3.427591771738872E+001	-1.2860531E+000	-1.2860504E+000	3.7520603E+001	1.169671972879587E+002
-3.539893078209320E+001	-1.2880206E+000	-1.2880504E+000	3.6385860E+001	1.171671972829063E+002
-3.658320728883723E+001	-1.2900311E+000	-1.2900504E+000	3.5262932E+001	1.173671972778538E+002
-3.780435495230614E+001	-1.2919990E+000	-1.2920505E+000	3.4175930E+001	1.175671972728014E+002
-3.921129631563662E+001	-1.2940578E+000	-1.2940505E+000	3.3002171E+001	1.177671972677490E+002
-4.064201011814498E+001	-1.2960368E+000	-1.2960504E+000	3.1889093E+001	1.179671972626966E+002
-4.194626669386344E+001	-1.2980288E+000	-1.2980504E+000	3.0945038E+001	1.181671972576441E+002
-4.322443776119863E+001	-1.3000478E+000	-1.3000505E+000	3.0076683E+001	1.183671972525917E+002
-4.460565041036034E+001	-1.3020121E+000	-1.3020505E+000	2.9189398E+001	1.185671972475393E+002
-4.610285310004565E+001	-1.3040533E+000	-1.3040504E+000	2.8285740E+001	1.187671972424869E+002
-4.758493209398785E+001	-1.3060418E+000	-1.3060504E+000	2.7446543E+001	1.189671972374344E+002
-4.914523481484741E+001	-1.3080662E+000	-1.3080504E+000	2.6616339E+001	1.191671972323820E+002
-5.065550706067603E+001	-1.3101004E+000	-1.3100505E+000	2.5862942E+001	1.193671972273296E+002
-5.228687811546604E+001	-1.3120275E+000	-1.3120505E+000	2.5092863E+001	1.195671972222772E+002
-5.403210956223154E+001	-1.3140491E+000	-1.3140504E+000	2.4319782E+001	1.197671972172247E+002
-5.551894116617927E+001	-1.3160559E+000	-1.3160504E+000	2.3704628E+001	1.199671972121723E+002
-5.717015610098019E+001	-1.3180308E+000	-1.3180505E+000	2.3054525E+001	1.201671972071199E+002
-5.879952768241492E+001	-1.3200722E+000	-1.3200505E+000	2.2450388E+001	1.203671972020675E+002
-6.064569056277350E+001	-1.3220570E+000	-1.3220506E+000	2.1799686E+001	1.205671971970150E+002
-6.236136523341929E+001	-1.3240385E+000	-1.3240504E+000	2.1231710E+001	1.207671971919626E+002
-6.417971709147588E+001	-1.3260311E+000	-1.3260504E+000	2.0661217E+001	1.209671971869102E+002
-6.588245168456683E+001	-1.3280044E+000	-1.3280504E+000	2.0157179E+001	1.211671971818578E+002
-6.758814244800155E+001	-1.3300320E+000	-1.3300505E+000	1.9678482E+001	1.213671971768053E+002
-6.936386060822846E+001	-1.3320557E+000	-1.3320504E+000	1.9203886E+001	1.215671971717529E+002
-7.096955898505493E+001	-1.3340390E+000	-1.3340504E+000	1.8797340E+001	1.217671971667005E+002
-7.314627208515094E+001	-1.3360637E+000	-1.3360504E+000	1.8265644E+001	1.219671971616481E+002
-7.502997344962023E+001	-1.3380609E+000	-1.3380504E+000	1.7833685E+001	1.221671971565956E+002
-7.691746472068911E+001	-1.3400725E+000	-1.3400505E+000	1.7422215E+001	1.223671971515432E+002
-7.907385922559524E+001	-1.3420959E+000	-1.3420506E+000	1.6972687E+001	1.225671971464908E+002
-8.115323529329953E+001	-1.3440176E+000	-1.3440504E+000	1.6561480E+001	1.227671971414384E+002
-8.331887596696947E+001	-1.3460366E+000	-1.3460505E+000	1.6155241E+001	1.229671971363859E+002
-8.520209286326440E+001	-1.3480492E+000	-1.3480504E+000	1.5821785E+001	1.231671971313335E+002
-8.709560989684780E+001	-1.3500710E+000	-1.3500504E+000	1.5501022E+001	1.233671971262811E+002
-8.953615851899667E+001	-1.3520801E+000	-1.3520504E+000	1.5100940E+001	1.235671971212287E+002
-9.191081542979600E+001	-1.3540447E+000	-1.3540504E+000	1.4732159E+001	1.237671971161762E+002
-9.407273584644781E+001	-1.3560989E+000	-1.3560504E+000	1.4415429E+001	1.239671971111238E+002
-9.622349989170903E+001	-1.3580582E+000	-1.3580503E+000	1.4113582E+001	1.241671971060714E+002
-9.869561869649363E+001	-1.3600895E+000	-1.3600504E+000	1.3780647E+001	1.243671971010190E+002
-1.005448937356605E+002	-1.3620653E+000	-1.3620504E+000	1.3546837E+001	1.245671970959665E+002
-1.043027415189069E+002	-1.3641000E+000	-1.3640504E+000	1.3078276E+001	1.247671970909141E+002
-1.066433817383377E+002	-1.3660810E+000	-1.3660504E+000	1.2809806E+001	1.249671970858617E+002
-1.091394921643389E+002	-1.3681577E+000	-1.3681505E+000	1.2535863E+001	1.251771970805567E+002
-1.142192824735665E+002	-1.3702807E+000	-1.3702505E+000	1.1996930E+001	1.253871970752516E+002
-1.179151337271105E+002	-1.3722024E+000	-1.3722504E+000	1.1637203E+001	1.255871970701992E+002
-1.193265639259700E+002	-1.3741851E+000	-1.3742504E+000	1.1516171E+001	1.257871970651468E+002
-1.222219999479867E+002	-1.3762640E+000	-1.3762504E+000	1.1260362E+001	1.259871970600943E+002
-1.259901273472242E+002	-1.3782753E+000	-1.3782504E+000	1.0939549E+001	1.261871970550419E+002
-1.268527096728885E+002	-1.3802520E+000	-1.3802505E+000	1.0880745E+001	1.263871970499895E+002
-1.282904784857824E+002	-1.3822801E+000	-1.3822504E+000	1.0774611E+001	1.265871970449371E+002
-1.304407164266590E+002	-1.3842565E+000	-1.3842504E+000	1.0612150E+001	1.267871970398846E+002
-1.320309324664597E+002	-1.3862423E+000	-1.3862504E+000	1.0499375E+001	1.269871970348322E+002
-1.351163320390004E+002	-1.3882546E+000	-1.3882505E+000	1.0274514E+001	1.271871970297798E+002
-1.375030935681052E+002	-1.3902591E+000	-1.3902504E+000	1.0110748E+001	1.273871970247274E+002
-1.393266643472271E+002	-1.3922895E+000	-1.3922504E+000	9.9929867E+000	1.275871970196749E+002
-1.408230304718020E+002	-1.3943039E+000	-1.3942506E+000	9.9011068E+000	1.277871970146225E+002
-1.429936517285113E+002	-1.3962797E+000	-1.3962504E+000	9.7646275E+000	1.279871970095701E+002
-1.493337434219404E+002	-1.3982632E+000	-1.3982505E+000	9.3633442E+000	1.281871970045177E+002
-1.557757824975615E+002	-1.4002527E+000	-1.4002504E+000	8.9888983E+000	1.283871969994652E+002
-1.559753414411388E+002	-1.4023002E+000	-1.4022505E+000	8.9905252E+000	1.285871969944128E+002
-1.592256627255830E+002	-1.4042872E+000	-1.4042505E+000	8.8194780E+000	1.287871969893604E+002
-1.617293202017436E+002	-1.4062881E+000	-1.4062505E+000	8.6953201E+000	1.289871969843080E+002
-1.632237353562768E+002	-1.4083296E+000	-1.4082505E+000	8.6282158E+000	1.291871969792555E+002
-1.651385927492252E+002	-1.4102962E+000	-1.4102505E+000	8.5400763E+000	1.293871969742031E+002
-1.699588675585469E+002	-1.4122682E+000	-1.4122504E+000	8.3094702E+000	1.295871969691507E+002
-1.728332523531931E+002	-1.4142416E+000	-1.4142505E+000	8.1826935E+000	1.297871969640983E+002
-1.774117290989885E+002	-1.4162483E+000	-1.4162503E+000	7.9828339E+000	1.299871969590458E+002
-1.813686402011626E+002	-1.4182817E+000	-1.4182504E+000	7.8198838E+000	1.301871969539934E+002
-1.846476498050215E+002	-1.4202719E+000	-1.4202505E+000	7.6917949E+000	1.303871969489410E+002
-1.849123311086041E+002	-1.4222952E+000	-1.4222504E+000	7.6917272E+000	1.305871969438886E+002
-1.877103486634169E+002	-1.4242549E+000	-1.4242505E+000	7.5875139E+000	1.307871969388361E+002
-1.902387790150110E+002	-1.4262878E+000	-1.4262503E+000	7.4973555E+000	1.309871969337837E+002
-1.924453495981479E+002	-1.4282646E+000	-1.4282504E+000	7.4216633E+000	1.311871969287313E+002
-1.944086246057973E+002	-1.4302838E+000	-1.4302505E+000	7.3571005E+000	1.313871969236789E+002
-1.955784258485655E+002	-1.4322981E+000	-1.4322504E+000	7.3233948E+000	1.315871969186264E+002
-2.016399310300144E+002	-1.4343129E+000	-1.4342505E+000	7.1132388E+000	1.317871969135740E+002
-2.059386363537674E+002	-1.4363163E+000	-1.4362503E+000	6.9744864E+000	1.319871969085216E+002
-2.065203159379853E+002	-1.4382772E+000	-1.4382504E+000	6.9643378E+000	1.321871969034692E+002
-2.091087079599611E+002	-1.4402868E+000	-1.4402505E+000	6.8877416E+000	1.323871968984167E+002
-2.125514707522057E+002	-1.4423312E+000	-1.4422504E+000	6.7857971E+000	1.325871968933643E+002
-2.162517171911650E+002	-1.4443280E+000	-1.4442505E+000	6.6789203E+000	1.327871968883119E+002
-2.194880291368831E+002	-1.4463005E+000	-1.4462513E+000	6.5894279E+000	1.329872968832569E+002
-2.221256477740344E+002	-1.4482695E+000	-1.4482533E+000	6.5200462E+000	1.331874968781995E+002
-2.260170497361696E+002	-1.4503413E+000	-1.4502554E+000	6.4169555E+000	1.333876968731420E+002
-2.299905356885083E+002	-1.4523189E+000	-1.4522566E+000	6.3146896E+000	1.335877968680870E+002
-2.321558817627754E+002	-1.4542866E+000	-1.4542564E+000	6.2642674E+000	1.337877968630346E+002
-2.316586222335045E+002	-1.4563234E+000	-1.4562565E+000	6.2865062E+000	1.339877968579822E+002
-2.334053601007608E+002	-1.4583609E+000	-1.4582564E+000	6.2481894E+000	1.341877968529298E+002
-2.340164357075075E+002	-1.4602813E+000	-1.4602565E+000	6.2400799E+000	1.343877968478773E+002
-2.365880958875700E+002	-1.4623331E+000	-1.4622574E+000	6.1809244E+000	1.345878968428224E+002
-2.382327319207916E+002	-1.4643611E+000	-1.4642584E+000	6.1467671E+000	1.347879968377674E+002
-2.385271986249891E+002	-1.4663618E+000	-1.4662585E+000	6.1475663E+000	1.349879968327150E+002
-2.424439091326079E+002	-1.4683553E+000	-1.4682592E+000	6.0564742E+000	1.351880968276600E+002
-2.460251929700509E+002	-1.4703249E+000	-1.4702605E+000	5.9763184E+000	1.353881968226051E+002
-2.458196766820474E+002	-1.4723568E+000	-1.4722613E+000	5.9895806E+000	1.355882968175501E+002
-2.460772846399243E+002	-1.4743397E+000	-1.4742624E+000	5.9913688E+000	1.357883968124952E+002
-2.484247857243024E+002	-1.4763693E+000	-1.4762625E+000	5.9429226E+000	1.359883968074428E+002
-2.557769530311452E+002	-1.4783561E+000	-1.4782624E+000	5.7798643E+000	1.361883968023903E+002
-2.577103483995870E+002	-1.4803870E+000	-1.4802624E+000	5.7443833E+000	1.363883967973379E+002
-2.639092138763560E+002	-1.4823521E+000	-1.4822643E+000	5.6169019E+000	1.365885967922804E+002
-2.664662395723817E+002	-1.4843334E+000	-1.4842646E+000	5.5704370E+000	1.367885967872280E+002
-2.682408740482624E+002	-1.4863228E+000	-1.4862645E+000	5.5410004E+000	1.369885967821756E+002
-2.687289816668253E+002	-1.4883386E+000	-1.4882643E+000	5.5384374E+000	1.371885967771232E+002
-2.726905132042839E+002	-1.4903166E+000	-1.4902644E+000	5.4652309E+000	1.373885967720707E+002
-2.698511577776153E+002	-1.4923619E+000	-1.4922652E+000	5.5303149E+000	1.375886967670158E+002
-2.741216465805121E+002	-1.4943924E+000	-1.4942665E+000	5.4515667E+000	1.377887967619608E+002
-2.759111585314308E+002	-1.4963394E+000	-1.4962665E+000	5.4232655E+000	1.379887967569084E+002
-2.814043048568874E+002	-1.4983546E+000	-1.4982666E+000	5.3245616E+000	1.381887967518560E+002
-2.894194920792863E+002	-1.5003775E+000	-1.5002664E+000	5.1840930E+000	1.383887967468036E+002
-2.921747162336658E+002	-1.5023549E+000	-1.5022665E+000	5.1419744E+000	1.385887967417511E+002
-3.016245440933208E+002	-1.5043696E+000	-1.5042673E+000	4.9875569E+000	1.387888967366962E+002
-3.063317652853066E+002	-1.5063989E+000	-1.5062683E+000	4.9175406E+000	1.389889967316412E+002
-3.056791143330875E+002	-1.5083888E+000	-1.5082684E+000	4.9345498E+000	1.391889967265888E+002
-3.030679311358707E+002	-1.5103676E+000	-1.5102692E+000	4.9835944E+000	1.393890967215339E+002
-3.029148606296940E+002	-1.5123620E+000	-1.5122720E+000	4.9926968E+000	1.395893967164739E+002
-3.063791168947077E+002	-1.5143816E+000	-1.5142753E+000	4.9428358E+000	1.397896967114139E+002
-3.075286238620614E+002	-1.5164061E+000	-1.5162766E+000	4.9309430E+000	1.399897967063589E+002
-3.079402115539192E+002	-1.5183990E+000	-1.5182761E+000	4.9308243E+000	1.401897967013065E+002
-3.085201427585134E+002	-1.5204099E+000	-1.5202763E+000	4.9280734E+000	1.403897966962541E+002
-3.223313608969679E+002	-1.5224228E+000	-1.5222764E+000	4.7231607E+000	1.405897966912016E+002
-3.232273299166009E+002	-1.5244206E+000	-1.5242773E+000	4.7162490E+000	1.407898966861467E+002
-3.302457074946014E+002	-1.5264194E+000	-1.5262785E+000	4.6220717E+000	1.409899966810917E+002
-3.303626428691691E+002	-1.5284292E+000	-1.5282793E+000	4.6265192E+000	1.411900966760368E+002
-3.305566143135366E+002	-1.5304191E+000	-1.5302804E+000	4.6298246E+000	1.413901966709818E+002
-3.342321233112875E+002	-1.5324365E+000	-1.5322813E+000	4.5849466E+000	1.415902966659269E+002
-3.350382342046628E+002	-1.5343982E+000	-1.5342824E+000	4.5797706E+000	1.417903966608719E+002
-3.364435453717679E+002	-1.5364295E+000	-1.5362825E+000	4.5666785E+000	1.419903966558195E+002
-3.516532813826925E+002	-1.5384177E+000	-1.5382824E+000	4.3748140E+000	1.421903966507671E+002
-3.575927167803584E+002	-1.5403987E+000	-1.5402832E+000	4.3076906E+000	1.423904966457121E+002
-3.565320570279164E+002	-1.5424187E+000	-1.5422843E+000	4.3261714E+000	1.425905966406572E+002
-3.569837313087617E+002	-1.5443857E+000	-1.5442845E+000	4.3262076E+000	1.427905966356047E+002
-3.638571613272852E+002	-1.5464239E+000	-1.5462846E+000	4.2500854E+000	1.429905966305523E+002
-3.639647881497117E+002	-1.5484549E+000	-1.5482852E+000	4.2544084E+000	1.431906966254974E+002
-3.644281430276878E+002	-1.5503871E+000	-1.5502865E+000	4.2543015E+000	1.433907966204424E+002
-3.606960560779589E+002	-1.5524265E+000	-1.5522872E+000	4.3039742E+000	1.435908966153875E+002
-3.620348713238509E+002	-1.5544014E+000	-1.5542891E+000	4.2935128E+000	1.437910966103300E+002
-3.674382087097688E+002	-1.5564221E+000	-1.5562905E+000	4.2358747E+000	1.439911966052750E+002
-3.724166753081236E+002	-1.5584249E+000	-1.5582906E+000	4.1846271E+000	1.441911966002226E+002
-3.732640747608566E+002	-1.5604229E+000	-1.5602913E+000	4.1804795E+000	1.443912965951677E+002
-3.737312333156734E+002	-1.5624609E+000	-1.5622925E+000	4.1807075E+000	1.445913965901127E+002
-3.746437665956643E+002	-1.5644437E+000	-1.5642926E+000	4.1758165E+000	1.447913965850603E+002
-3.762314347009806E+002	-1.5664034E+000	-1.5662925E+000	4.1634040E+000	1.449913965800079E+002
-3.772846527150195E+002	-1.5684330E+000	-1.5682935E+000	4.1571612E+000	1.451914965749529E+002
-3.771508863345298E+002	-1.5704488E+000	-1.5702946E+000	4.1639800E+000	1.453915965698980E+002
-3.774277225378919E+002	-1.5724599E+000	-1.5722953E+000	4.1662545E+000	1.455916965648430E+002
-3.857807625406356E+002	-1.5744832E+000	-1.5742980E+000	4.0812898E+000	1.457919965597830E+002
-3.877792177113806E+002	-1.5764598E+000	-1.5763004E+000	4.0653539E+000	1.459921965547255E+002
-3.872283771259717E+002	-1.5784600E+000	-1.5783005E+000	4.0763025E+000	1.461921965496731E+002
-3.843891105274070E+002	-1.5804483E+000	-1.5803014E+000	4.1115842E+000	1.463922965446181E+002
-3.842378937489857E+002	-1.5824494E+000	-1.5823025E+000	4.1184106E+000	1.465923965395632E+002
-3.874162737875358E+002	-1.5844564E+000	-1.5843034E+000	4.0898037E+000	1.467924965345082E+002
-3.986747947550175E+002	-1.5864385E+000	-1.5863042E+000	3.9792798E+000	1.469925965294533E+002
-4.119083666293263E+002	-1.5884340E+000	-1.5883043E+000	3.8562799E+000	1.471925965244009E+002
-4.156732321109912E+002	-1.5904580E+000	-1.5903043E+000	3.8262219E+000	1.473925965193484E+002
-4.200445298910699E+002	-1.5924479E+000	-1.5923042E+000	3.7911406E+000	1.475925965142960E+002
-4.186483072250603E+002	-1.5944452E+000	-1.5943043E+000	3.8085554E+000	1.477925965092436E+002
-4.130019339650135E+002	-1.5964270E+000	-1.5963043E+000	3.8654225E+000	1.479925965041912E+002
-4.143584698268342E+002	-1.5984285E+000	-1.5983043E+000	3.8575983E+000	1.481925964991387E+002
-4.124724450879082E+002	-1.6004567E+000	-1.6003042E+000	3.8801544E+000	1.483925964940863E+002
-4.093302408335148E+002	-1.6024357E+000	-1.6023043E+000	3.9147749E+000	1.485925964890339E+002
-4.139568602719792E+002	-1.6044484E+000	-1.6043043E+000	3.8758831E+000	1.487925964839815E+002
-4.144446463033460E+002	-1.6064645E+000	-1.6063044E+000	3.8761859E+000	1.489925964789290E+002
-4.242192233425139E+002	-1.6084757E+000	-1.6083043E+000	3.7916143E+000	1.491925964738766E+002
-4.240740240663636E+002	-1.6104918E+000	-1.6103042E+000	3.7976665E+000	1.493925964688242E+002
-4.231467132698108E+002	-1.6124704E+000	-1.6123043E+000	3.8106651E+000	1.495925964637718E+002
-4.199987398480607E+002	-1.6144949E+000	-1.6143042E+000	3.8440471E+000	1.497925964587193E+002
-4.257829935891291E+002	-1.6164618E+000	-1.6163043E+000	3.7964451E+000	1.499925964536669E+002
-4.462668111675694E+002	-1.6184740E+000	-1.6183044E+000	3.6266959E+000	1.501925964486145E+002
-4.509722129579559E+002	-1.6204597E+000	-1.6203042E+000	3.5932584E+000	1.503925964435621E+002
-4.565427029235598E+002	-1.6224561E+000	-1.6223043E+000	3.5537882E+000	1.505925964385096E+002
-4.527275259921880E+002	-1.6244948E+000	-1.6243042E+000	3.5882394E+000	1.507925964334572E+002
-4.493476896437392E+002	-1.6264831E+000	-1.6263043E+000	3.6196539E+000	1.509925964284048E+002
-4.473585923815508E+002	-1.6285049E+000	-1.6283044E+000	3.6402674E+000	1.511925964233524E+002
-4.481194788095881E+002	-1.6304771E+000	-1.6303042E+000	3.6384873E+000	1.513925964182999E+002
-4.530858629577006E+002	-1.6324537E+000	-1.6323043E+000	3.6029675E+000	1.515925964132475E+002
-4.508584778627846E+002	-1.6344646E+000	-1.6343044E+000	3.6252277E+000	1.517925964081951E+002
-4.513535459349752E+002	-1.6364481E+000	-1.6363043E+000	3.6256459E+000	1.519925964031427E+002
-4.522523965900446E+002	-1.6384870E+000	-1.6383041E+000	3.6229482E+000	1.521925963980902E+002
-4.625254026399980E+002	-1.6404672E+000	-1.6403042E+000	3.5467613E+000	1.523925963930378E+002
-4.589860661089297E+002	-1.6424533E+000	-1.6423043E+000	3.5784383E+000	1.525925963879854E+002
-4.560483122326077E+002	-1.6444612E+000	-1.6443044E+000	3.6058924E+000	1.527925963829330E+002
-4.517584431533642E+002	-1.6464702E+000	-1.6463042E+000	3.6445808E+000	1.529925963778805E+002
-4.472466530486290E+002	-1.6485003E+000	-1.6483042E+000	3.6858864E+000	1.531925963728281E+002
-4.435448568910692E+002	-1.6504464E+000	-1.6503042E+000	3.7210362E+000	1.533925963677757E+002
-4.474612270234138E+002	-1.6524559E+000	-1.6523043E+000	3.6929588E+000	1.535925963627233E+002
-4.546817290247714E+002	-1.6545144E+000	-1.6543044E+000	3.6388409E+000	1.537925963576708E+002
-4.934496188390831E+002	-1.6564893E+000	-1.6563042E+000	3.3569572E+000	1.539925963526184E+002
-5.011476073967883E+002	-1.6584922E+000	-1.6583042E+000	3.3093886E+000	1.541925963475660E+002
-4.923151405100907E+002	-1.6605185E+000	-1.6603042E+000	3.3728771E+000	1.543925963425136E+002
-4.930298902896520E+002	-1.6624608E+000	-1.6623043E+000	3.3719270E+000	1.545925963374611E+002
-4.941888284358847E+002	-1.6645283E+000	-1.6643044E+000	3.3682029E+000	1.547925963324087E+002
-5.006233344824141E+002	-1.6670334E+000	-1.6663042E+000	3.3299155E+000	1.549925963273563E+002
-5.186142031827476E+002	-1.6690804E+000	-1.6683042E+000	3.2183468E+000	1.551925963223039E+002
-5.324536214858745E+002	-1.6710576E+000	-1.6703043E+000	3.1384096E+000	1.553925963172514E+002
-5.311440632921785E+002	-1.6730666E+000	-1.6723043E+000	3.1499300E+000	1.555925963121990E+002
-5.328969845068987E+002	-1.6750405E+000	-1.6743044E+000	3.1432726E+000	1.557925963071466E+002
-5.384074573776343E+002	-1.6770875E+000	-1.6763043E+000	3.1149039E+000	1.559925963020942E+002
-5.410389317622803E+002	-1.6790577E+000	-1.6783042E+000	3.1033955E+000	1.561925962970417E+002
-5.460414260077087E+002	-1.6810629E+000	-1.6803043E+000	3.0786362E+000	1.563925962919893E+002
-5.477805052041440E+002	-1.6830734E+000	-1.6823041E+000	3.0725324E+000	1.565925962869369E+002
-5.562123535268693E+002	-1.6850740E+000	-1.6843044E+000	3.0295515E+000	1.567925962818845E+002
-5.642541445085531E+002	-1.6871169E+000	-1.6863043E+000	2.9899945E+000	1.569925962768320E+002
-5.585374038549235E+002	-1.6891041E+000	-1.6883042E+000	3.0241556E+000	1.571925962717796E+002
-5.600678618121856E+002	-1.6910659E+000	-1.6903043E+000	3.0193946E+000	1.573925962667272E+002
-5.564550160518298E+002	-1.6931071E+000	-1.6923044E+000	3.0426667E+000	1.575925962616748E+002
-5.589209597840559E+002	-1.6942587E+000	-1.6936040E+000	3.0313029E+000	1.577225962583907E+002
-5.570953598022479E+002	-1.6947576E+000	-1.6940039E+000	3.0421319E+000	1.577607962574257E+002