EC-Lab ASCII FILE
Nb header lines : 61                          

Linear Sweep Voltammetry

Run on channel : 1 (SN 1340)
User : 
Electrode connection : standard
Potential control : Ewe
Ewe ctrl range : min = -5.00 V, max = 5.00 V
Ewe,I filtering : <None>
Channel : Grounded
Acquisition started on : 03/11/2026 18:13:32.747
Technique started on : 03/11/2026 18:13:35.587
Loaded Setting File :  NONE
Saved on :
	File : X22_02_LSV_C01.mpr
	Directory : C:\Users\volt\Documents\Platalytix\
	Host : 172.28.65.128
Device : SP-200 (SN 0262)
Address : USB
EC-LAB for windows v11.60 (software)
Internet server v11.60 (firmware)
Command interpretor v11.60 (firmware)
Electrode material : Pt22.5Pd22.5Ni22.5Co22.5Cr10
Initial state : 
Electrolyte : KOH (1M)
Comments : With magnet side B (-), flat position
Cable : standard
Reference electrode : Hg/HgO (0.140 V)
Electrode surface area : 1.000 cm˛
Characteristic mass : 0.001 g
Equivalent Weight : 0.000 g/eq.
Density : 0.000 g/cm3
Volume (V) : 0.001 cmł
Cycle Definition : Charge/Discharge alternance
tR (h:m:s)          0:00:5.0000         
dER/dt (mV/h)       0.0                 
dER (mV)            0                   
dtR (s)             0.0000              
dE/dt               10.000              
dE/dt unit          mV/s                
Ei (V)              -0.200              
vs.                 Ref                 
EL (V)              -2.500              
vs.                 Ref                 
record              <I>                 
dI                  0.000               
unit dI             µA                  
tI (s)              0.0000              
step percent        50                  
N                   10                  
E range min (V)     -5.000              
E range max (V)     5.000               
I Range             Auto                
I Range min         Unset               
I Range max         Unset               
I Range init        Unset               
Bandwidth           8                   

<I>/mA	Ewe/V	control/V	Rwe/Ohm	time/s	
0.000000000000000E+000	-1.4822762E-001	0.0000000E+000	0.0000000E+000	2.840400134882657E+000
0.000000000000000E+000	-3.5459660E-002	-1.9991295E-001	0.0000000E+000	7.840200008577085E+000
-3.213721062202246E-002	-2.0172186E-001	-2.0181273E-001	6.2768940E+003	8.040200003524660E+000
-1.439676879553544E-001	-2.0286092E-001	-2.0301279E-001	1.4090726E+003	8.160200000493205E+000
-1.392058297810139E-001	-2.0495175E-001	-2.0511279E-001	1.4722928E+003	8.370199995188159E+000
-1.278783399569473E-001	-2.0700850E-001	-2.0711277E-001	1.6187925E+003	8.570199990135734E+000
-1.192874933831614E-001	-2.0897867E-001	-2.0911279E-001	1.7518909E+003	8.770199985083309E+000
-1.126397444038751E-001	-2.1094930E-001	-2.1111278E-001	1.8727786E+003	8.970199980030884E+000
-1.073827429868857E-001	-2.1297932E-001	-2.1311279E-001	1.9833663E+003	9.170199974978459E+000
-1.030769294778269E-001	-2.1495797E-001	-2.1511279E-001	2.0854131E+003	9.370199969926034E+000
-9.947100311386783E-002	-2.1696891E-001	-2.1711276E-001	2.1812278E+003	9.570199964873609E+000
-9.633060424301432E-002	-2.1894948E-001	-2.1911278E-001	2.2728965E+003	9.770199959821184E+000
-9.361838819796953E-002	-2.2097738E-001	-2.2111279E-001	2.3604058E+003	9.970199954768759E+000
-9.129848470330615E-002	-2.2297364E-001	-2.2311279E-001	2.4422490E+003	1.017019994971633E+001
-8.910545515627200E-002	-2.2494937E-001	-2.2511277E-001	2.5245298E+003	1.037019994466391E+001
-8.722422314678960E-002	-2.2692400E-001	-2.2711280E-001	2.6016167E+003	1.057019993961148E+001
-8.551411110487561E-002	-2.2898988E-001	-2.2911277E-001	2.6778022E+003	1.077019993455906E+001
-8.394831484035853E-002	-2.3098233E-001	-2.3111276E-001	2.7514827E+003	1.097019992950663E+001
-8.246498776002142E-002	-2.3303464E-001	-2.3311280E-001	2.8258616E+003	1.117019992445421E+001
-8.114439429073272E-002	-2.3498976E-001	-2.3511277E-001	2.8959458E+003	1.137019991940178E+001
-7.988482784657253E-002	-2.3702167E-001	-2.3711278E-001	2.9670425E+003	1.157019991434936E+001
-7.870657594458452E-002	-2.3899886E-001	-2.3911278E-001	3.0365806E+003	1.177019990929693E+001
-7.765383782053181E-002	-2.4104905E-001	-2.4111277E-001	3.1041487E+003	1.197019990424451E+001
-7.660454259330085E-002	-2.4299185E-001	-2.4311277E-001	3.1720293E+003	1.217019989919208E+001
-7.563480732766102E-002	-2.4497606E-001	-2.4511278E-001	3.2389329E+003	1.237019989413966E+001
-7.474111639282099E-002	-2.4697319E-001	-2.4711278E-001	3.3043818E+003	1.257019988908723E+001
-7.386349983906171E-002	-2.4894270E-001	-2.4911277E-001	3.3703074E+003	1.277019988403481E+001
-7.303825842719208E-002	-2.5096744E-001	-2.5111279E-001	3.4361094E+003	1.297019987898238E+001
-7.225042619201791E-002	-2.5300828E-001	-2.5311276E-001	3.5018240E+003	1.317019987392996E+001
-7.148051246696596E-002	-2.5494197E-001	-2.5511277E-001	3.5665940E+003	1.337019986887753E+001
-7.075639833567364E-002	-2.5693083E-001	-2.5711277E-001	3.6312026E+003	1.357019986382511E+001
-7.008998159450103E-002	-2.5897101E-001	-2.5911275E-001	3.6948362E+003	1.377019985877268E+001
-6.936626279644253E-002	-2.6095667E-001	-2.6111278E-001	3.7620115E+003	1.397019985372026E+001
-6.875876582474727E-002	-2.6295084E-001	-2.6311278E-001	3.8242520E+003	1.417019984866783E+001
-6.815943195032642E-002	-2.6492849E-001	-2.6511279E-001	3.8868940E+003	1.437019984361541E+001
-6.754151514896045E-002	-2.6695740E-001	-2.6711279E-001	3.9524937E+003	1.457019983856299E+001
-6.696087275336093E-002	-2.6894480E-001	-2.6911280E-001	4.0164470E+003	1.477019983351056E+001
-6.644179475443046E-002	-2.7098227E-001	-2.7111280E-001	4.0784910E+003	1.497019982845814E+001
-6.594989256924877E-002	-2.7298766E-001	-2.7311277E-001	4.1393193E+003	1.517019982340571E+001
-6.541469618847051E-002	-2.7497628E-001	-2.7511281E-001	4.2035859E+003	1.537019981835329E+001
-6.494433545642653E-002	-2.7694750E-001	-2.7711275E-001	4.2643828E+003	1.557019981330086E+001
-6.446983657572447E-002	-2.7899283E-001	-2.7911279E-001	4.3274941E+003	1.577019980824844E+001
-6.401695898848081E-002	-2.8098571E-001	-2.8111279E-001	4.3892388E+003	1.597019980319601E+001
-6.353705972771007E-002	-2.8294739E-001	-2.8311276E-001	4.4532656E+003	1.617019979814359E+001
-6.309262582348013E-002	-2.8497741E-001	-2.8511277E-001	4.5168101E+003	1.637019979309116E+001
-6.270180137557668E-002	-2.8697434E-001	-2.8711277E-001	4.5768115E+003	1.657019978803874E+001
-6.228739203665545E-002	-2.8899312E-001	-2.8911281E-001	4.6396729E+003	1.677019978298631E+001
-6.187413446341239E-002	-2.9095566E-001	-2.9111278E-001	4.7023794E+003	1.697019977793389E+001
-6.153349411914588E-002	-2.9299080E-001	-2.9311281E-001	4.7614849E+003	1.717019977288146E+001
-6.115105220057526E-002	-2.9498196E-001	-2.9511276E-001	4.8238247E+003	1.737019976782904E+001
-6.077308022488959E-002	-2.9697105E-001	-2.9711276E-001	4.8865557E+003	1.757019976277661E+001
-6.042948095001244E-002	-2.9894015E-001	-2.9911277E-001	4.9469258E+003	1.777019975772419E+001
-6.009547077932406E-002	-3.0097249E-001	-3.0111277E-001	5.0082393E+003	1.797019975267176E+001
-5.975951634077122E-002	-3.0295733E-001	-3.0311278E-001	5.0696079E+003	1.817019974761934E+001
-5.941065128094392E-002	-3.0498138E-001	-3.0511278E-001	5.1334463E+003	1.837019974256691E+001
-5.908640501112630E-002	-3.0695835E-001	-3.0711278E-001	5.1950757E+003	1.857019973751449E+001
-5.881793115788514E-002	-3.0899581E-001	-3.0911279E-001	5.2534287E+003	1.877019973246206E+001
-5.847225292182423E-002	-3.1097874E-001	-3.1111279E-001	5.3183984E+003	1.897019972740964E+001
-5.813652687587786E-002	-3.1297377E-001	-3.1311280E-001	5.3834272E+003	1.917019972235721E+001
-5.785532603980087E-002	-3.1494775E-001	-3.1511280E-001	5.4437124E+003	1.937019971730479E+001
-5.758699905887532E-002	-3.1693509E-001	-3.1711280E-001	5.5035874E+003	1.957019971225236E+001
-5.734036114360391E-002	-3.1896132E-001	-3.1911278E-001	5.5625972E+003	1.977019970719994E+001
-5.700791751978529E-002	-3.2098645E-001	-3.2111278E-001	5.6305591E+003	1.997019970214751E+001
-5.678933806497777E-002	-3.2295451E-001	-3.2311279E-001	5.6868862E+003	2.017019969709509E+001
-5.658490099213487E-002	-3.2494909E-001	-3.2511279E-001	5.7426816E+003	2.037019969204266E+001
-5.633851529316558E-002	-3.2696003E-001	-3.2711279E-001	5.8034902E+003	2.057019968699024E+001
-5.603383614654212E-002	-3.2899874E-001	-3.2911277E-001	5.8714302E+003	2.077019968193781E+001
-5.582133195597405E-002	-3.3096430E-001	-3.3111280E-001	5.9289932E+003	2.097019967688539E+001
-5.559699380212813E-002	-3.3296800E-001	-3.3311278E-001	5.9889570E+003	2.117019967183296E+001
-5.538106138834864E-002	-3.3500946E-001	-3.3511281E-001	6.0491699E+003	2.137019966678054E+001
-5.505655596007386E-002	-3.3700067E-001	-3.3711275E-001	6.1209907E+003	2.157019966172811E+001
-5.485159657312688E-002	-3.3897442E-001	-3.3911276E-001	6.1798457E+003	2.177019965667569E+001
-5.471025793359109E-002	-3.4098727E-001	-3.4111276E-001	6.2326021E+003	2.197019965162326E+001
-5.451012229021057E-002	-3.4299329E-001	-3.4311280E-001	6.2922861E+003	2.217019964657084E+001
-5.429087754374873E-002	-3.4500846E-001	-3.4511280E-001	6.3548145E+003	2.237019964151841E+001
-5.406990531798184E-002	-3.4699032E-001	-3.4711280E-001	6.4174390E+003	2.257019963646599E+001
-5.390267512579427E-002	-3.4898105E-001	-3.4911281E-001	6.4742808E+003	2.277019963141356E+001
-5.373358787797700E-002	-3.5096720E-001	-3.5111278E-001	6.5316167E+003	2.297019962636114E+001
-5.353963506976145E-002	-3.5301566E-001	-3.5311282E-001	6.5935386E+003	2.317019962130871E+001
-5.333260965719400E-002	-3.5496315E-001	-3.5511279E-001	6.6556494E+003	2.337019961625629E+001
-5.320896366040917E-002	-3.5697702E-001	-3.5711277E-001	6.7089639E+003	2.357019961120386E+001
-5.301335969804677E-002	-3.5901240E-001	-3.5911280E-001	6.7721118E+003	2.377019960615144E+001
-5.280779754582499E-002	-3.6095327E-001	-3.6111277E-001	6.8352266E+003	2.397019960109901E+001
-5.266812214915095E-002	-3.6293301E-001	-3.6311281E-001	6.8909429E+003	2.417019959604659E+001
-5.247951886308311E-002	-3.6500823E-001	-3.6511278E-001	6.9552510E+003	2.437019959099416E+001
-5.234265892318724E-002	-3.6698434E-001	-3.6711279E-001	7.0111904E+003	2.457019958594174E+001
-5.220299930408889E-002	-3.6896318E-001	-3.6911282E-001	7.0678540E+003	2.477019958088931E+001
-5.208004331121185E-002	-3.7098029E-001	-3.7111279E-001	7.1232715E+003	2.497019957583689E+001
-5.188143784085231E-002	-3.7293309E-001	-3.7311277E-001	7.1881797E+003	2.517019957078446E+001
-5.176892445756370E-002	-3.7493402E-001	-3.7511280E-001	7.2424531E+003	2.537019956573204E+001
-5.163176986864038E-002	-3.7696809E-001	-3.7711278E-001	7.3010879E+003	2.557019956067961E+001
-5.143829284958112E-002	-3.7896073E-001	-3.7911278E-001	7.3672881E+003	2.577019955562719E+001
-5.134011481998391E-002	-3.8091540E-001	-3.8111278E-001	7.4194497E+003	2.597019955057476E+001
-5.120496289506771E-002	-3.8292995E-001	-3.8311282E-001	7.4783755E+003	2.617019954552234E+001
-5.107011752099611E-002	-3.8495705E-001	-3.8511279E-001	7.5378140E+003	2.637019954046991E+001
-5.096745745610454E-002	-3.8694590E-001	-3.8711280E-001	7.5920190E+003	2.657019953541749E+001
-5.083890737439856E-002	-3.8899794E-001	-3.8911277E-001	7.6515796E+003	2.677019953036506E+001
-5.074791856851357E-002	-3.9098403E-001	-3.9111280E-001	7.7044346E+003	2.697019952531264E+001
-5.060426260781836E-002	-3.9296767E-001	-3.9311284E-001	7.7655054E+003	2.717019952026021E+001
-5.045639054560425E-002	-3.9499256E-001	-3.9511284E-001	7.8283950E+003	2.737019951520779E+001
-5.037224644588108E-002	-3.9699581E-001	-3.9711279E-001	7.8812412E+003	2.757019951015536E+001
-5.027326934309898E-002	-3.9899063E-001	-3.9911282E-001	7.9364370E+003	2.777019950510294E+001
-5.019047877871644E-002	-4.0098858E-001	-4.0111285E-001	7.9893354E+003	2.797019950005051E+001
-5.008581383449440E-002	-4.0299702E-001	-4.0311280E-001	8.0461309E+003	2.817019949499809E+001
-4.993974249503785E-002	-4.0499985E-001	-4.0511280E-001	8.1097705E+003	2.837019948994566E+001
-4.982299973624360E-002	-4.0696326E-001	-4.0711284E-001	8.1681807E+003	2.857019948489324E+001
-4.976336115099000E-002	-4.0897056E-001	-4.0911278E-001	8.2183066E+003	2.877019947984081E+001
-4.963372443494340E-002	-4.1095072E-001	-4.1111282E-001	8.2796670E+003	2.897019947478839E+001
-4.957254338785688E-002	-4.1302463E-001	-4.1311282E-001	8.3317217E+003	2.917019946973596E+001
-4.952520580250613E-002	-4.1496170E-001	-4.1511285E-001	8.3787979E+003	2.937019946468354E+001
-4.948893784389052E-002	-4.1701913E-001	-4.1711280E-001	8.4265117E+003	2.957019945963111E+001
-4.939472149633084E-002	-4.1903749E-001	-4.1911277E-001	8.4834473E+003	2.977019945457869E+001
-4.935601534313472E-002	-4.2099702E-001	-4.2111281E-001	8.5298018E+003	2.997019944952626E+001
-4.921668426232934E-002	-4.2295977E-001	-4.2311281E-001	8.5938291E+003	3.017019944447384E+001
-4.912852134361263E-002	-4.2501298E-001	-4.2511281E-001	8.6510439E+003	3.037019943942141E+001
-4.897561856722876E-002	-4.2709219E-001	-4.2711282E-001	8.7205068E+003	3.057019943436899E+001
-4.895516980519699E-002	-4.2905244E-001	-4.2911282E-001	8.7641904E+003	3.077019942931656E+001
-4.886301444360852E-002	-4.3105081E-001	-4.3111277E-001	8.8216172E+003	3.097019942426414E+001
-4.880678407502592E-002	-4.3302059E-001	-4.3311283E-001	8.8721396E+003	3.117019941921171E+001
-4.877400137943400E-002	-4.3505400E-001	-4.3511283E-001	8.9197930E+003	3.137019941415929E+001
-4.880292077238357E-002	-4.3702269E-001	-4.3711281E-001	8.9548467E+003	3.157019940910686E+001
-4.873696050306808E-002	-4.3899772E-001	-4.3911278E-001	9.0074902E+003	3.177019940405444E+001
-4.863503391436297E-002	-4.4100317E-001	-4.4111282E-001	9.0676025E+003	3.197019939900201E+001
-4.859394312872134E-002	-4.4298351E-001	-4.4311279E-001	9.1160234E+003	3.217019939394959E+001
-4.853350943817114E-002	-4.4498786E-001	-4.4511279E-001	9.1686729E+003	3.237019938889716E+001
-4.840154760589011E-002	-4.4704697E-001	-4.4711280E-001	9.2362119E+003	3.257019938384474E+001
-4.835150545239109E-002	-4.4905430E-001	-4.4911283E-001	9.2872871E+003	3.277019937879231E+001
-4.838294279550426E-002	-4.5103776E-001	-4.5111278E-001	9.3222471E+003	3.297019937373989E+001
-4.836847935671229E-002	-4.5304769E-001	-4.5311281E-001	9.3665898E+003	3.317019936868746E+001
-4.831764483196090E-002	-4.5506561E-001	-4.5511284E-001	9.4182080E+003	3.337019936363504E+001
-4.827161950202835E-002	-4.5702583E-001	-4.5711279E-001	9.4677959E+003	3.357019935858261E+001
-4.825691115390944E-002	-4.5893186E-001	-4.5911279E-001	9.5101787E+003	3.377019935353019E+001
-4.824171727074444E-002	-4.6094114E-001	-4.6111283E-001	9.5548242E+003	3.397019934847776E+001
-4.818797504551536E-002	-4.6302909E-001	-4.6311286E-001	9.6088096E+003	3.417019934342534E+001
-4.818928022546864E-002	-4.6486729E-001	-4.6511281E-001	9.6466953E+003	3.437019933837291E+001
-4.809787360446560E-002	-4.6692744E-001	-4.6711281E-001	9.7078604E+003	3.457019933332049E+001
-4.804029340022650E-002	-4.6902895E-001	-4.6911281E-001	9.7632412E+003	3.477019932826806E+001
-4.798665768630572E-002	-4.7109997E-001	-4.7111279E-001	9.8173115E+003	3.497019932321564E+001
-4.803620675492135E-002	-4.7301728E-001	-4.7311282E-001	9.8470986E+003	3.517019931816321E+001
-4.799870623522740E-002	-4.7506490E-001	-4.7511286E-001	9.8974521E+003	3.537019931311079E+001
-4.800866750679278E-002	-4.7705463E-001	-4.7711283E-001	9.9368438E+003	3.557019930805836E+001
-4.799612116595497E-002	-4.7900489E-001	-4.7911280E-001	9.9800752E+003	3.577019930300594E+001
-4.799405753727626E-002	-4.8089421E-001	-4.8111281E-001	1.0019870E+004	3.597019929795351E+001
-4.798403325888734E-002	-4.8295200E-001	-4.8311281E-001	1.0064848E+004	3.617019929290109E+001
-4.799190290296518E-002	-4.8492134E-001	-4.8511282E-001	1.0104232E+004	3.637019928784866E+001
-4.792926603476277E-002	-4.8700315E-001	-4.8711279E-001	1.0160872E+004	3.657019928279624E+001
-4.784458696281491E-002	-4.8900917E-001	-4.8911282E-001	1.0220783E+004	3.677019927774381E+001
-4.777889560101356E-002	-4.9106210E-001	-4.9111283E-001	1.0277804E+004	3.697019927269139E+001
-4.784087281301419E-002	-4.9302527E-001	-4.9311277E-001	1.0305524E+004	3.717019926763896E+001
-4.784491983804090E-002	-4.9506360E-001	-4.9511281E-001	1.0347255E+004	3.737019926258654E+001
-4.788526681926553E-002	-4.9702001E-001	-4.9711284E-001	1.0379393E+004	3.757019925753411E+001
-4.786015004041044E-002	-4.9898422E-001	-4.9911281E-001	1.0425881E+004	3.777019925248169E+001
-4.785249875135111E-002	-5.0096673E-001	-5.0111276E-001	1.0468978E+004	3.797019924742926E+001
-4.784650346522944E-002	-5.0298065E-001	-5.0311285E-001	1.0512381E+004	3.817019924237684E+001
-4.779736967936854E-002	-5.0497377E-001	-5.0511277E-001	1.0564886E+004	3.837019923732441E+001
-4.777348985264096E-002	-5.0698167E-001	-5.0711280E-001	1.0612196E+004	3.857019923227199E+001
-4.767358472123062E-002	-5.0902039E-001	-5.0911283E-001	1.0677200E+004	3.877019922721956E+001
-4.764768014616549E-002	-5.1105386E-001	-5.1111281E-001	1.0725682E+004	3.897019922216714E+001
-4.767845389818626E-002	-5.1303226E-001	-5.1311278E-001	1.0760254E+004	3.917019921711471E+001
-4.767968788555066E-002	-5.1504493E-001	-5.1511282E-001	1.0802188E+004	3.937019921206229E+001
-4.765615114903121E-002	-5.1697010E-001	-5.1711285E-001	1.0847920E+004	3.957019920700986E+001
-4.770482446266600E-002	-5.1889253E-001	-5.1911277E-001	1.0877149E+004	3.977019920195744E+001
-4.769168634394239E-002	-5.2091342E-001	-5.2111280E-001	1.0922521E+004	3.997019919690501E+001
-4.765842631094941E-002	-5.2296698E-001	-5.2311283E-001	1.0973232E+004	4.017019919185259E+001
-4.758473020205345E-002	-5.2505201E-001	-5.2511281E-001	1.1034044E+004	4.037019918680016E+001
-4.754015989020832E-002	-5.2709496E-001	-5.2711284E-001	1.1087362E+004	4.057019918174774E+001
-4.754066587158634E-002	-5.2901310E-001	-5.2911282E-001	1.1127591E+004	4.077019917669531E+001
-4.750118407161058E-002	-5.3102726E-001	-5.3111285E-001	1.1179242E+004	4.097019917164289E+001
-4.755063760865164E-002	-5.3297055E-001	-5.3311282E-001	1.1208483E+004	4.117019916659046E+001
-4.752464531582956E-002	-5.3496385E-001	-5.3511280E-001	1.1256557E+004	4.137019916153804E+001
-4.754098647463101E-002	-5.3697848E-001	-5.3711283E-001	1.1295064E+004	4.157019915648561E+001
-4.753539864662326E-002	-5.3899115E-001	-5.3911281E-001	1.1338732E+004	4.177019915143319E+001
-4.754183465897902E-002	-5.4106277E-001	-5.4111278E-001	1.1380771E+004	4.197019914638076E+001
-4.745566388307043E-002	-5.4308218E-001	-5.4311281E-001	1.1443991E+004	4.217019914132834E+001
-4.739642166479763E-002	-5.4507405E-001	-5.4511285E-001	1.1500320E+004	4.237019913627591E+001
-4.732104906254786E-002	-5.4708278E-001	-5.4711288E-001	1.1561087E+004	4.257019913122349E+001
-4.733850361959868E-002	-5.4904109E-001	-5.4911280E-001	1.1598192E+004	4.277019912617106E+001
-4.731079237245209E-002	-5.5092406E-001	-5.5111283E-001	1.1644786E+004	4.297019912111864E+001
-4.736849369376672E-002	-5.5293989E-001	-5.5311280E-001	1.1673157E+004	4.317019911606621E+001
-4.729079629179478E-002	-5.5494887E-001	-5.5511278E-001	1.1734817E+004	4.337019911101379E+001
-4.730402223914726E-002	-5.5698234E-001	-5.5711281E-001	1.1774523E+004	4.357019910596136E+001
-4.725148151032088E-002	-5.5904496E-001	-5.5911285E-001	1.1831269E+004	4.377019910090894E+001
-4.721623571835609E-002	-5.6108713E-001	-5.6111282E-001	1.1883352E+004	4.397019909585651E+001
-4.712142509671219E-002	-5.6308705E-001	-5.6311285E-001	1.1949703E+004	4.417019909080409E+001
-4.709586870641160E-002	-5.6507814E-001	-5.6511283E-001	1.1998465E+004	4.437019908575166E+001
-4.713431194603079E-002	-5.6700194E-001	-5.6711286E-001	1.2029494E+004	4.457019908069924E+001
-4.720369908539457E-002	-5.6895572E-001	-5.6911278E-001	1.2053202E+004	4.477019907564681E+001
-4.713919971881619E-002	-5.7090855E-001	-5.7111281E-001	1.2111121E+004	4.497019907059439E+001
-4.713934811139398E-002	-5.7294339E-001	-5.7311285E-001	1.2154249E+004	4.517019906554197E+001
-4.706047720100548E-002	-5.7500005E-001	-5.7511276E-001	1.2218321E+004	4.537019906048954E+001
-4.704139179491007E-002	-5.7703823E-001	-5.7711285E-001	1.2266606E+004	4.557019905543712E+001
-4.701688100083340E-002	-5.7903349E-001	-5.7911289E-001	1.2315438E+004	4.577019905038469E+001
-4.692053915447048E-002	-5.8097738E-001	-5.8111280E-001	1.2382155E+004	4.597019904533227E+001
-4.699486312789070E-002	-5.8295131E-001	-5.8311278E-001	1.2404575E+004	4.617019904027984E+001
-4.697863974971717E-002	-5.8493263E-001	-5.8511281E-001	1.2451033E+004	4.637019903522742E+001
-4.695806369188610E-002	-5.8694226E-001	-5.8711290E-001	1.2499286E+004	4.657019903017499E+001
-4.694569252390202E-002	-5.8897227E-001	-5.8911276E-001	1.2545821E+004	4.677019902512257E+001
-4.686608639268031E-002	-5.9096664E-001	-5.9111279E-001	1.2609687E+004	4.697019902007014E+001
-4.684271922946393E-002	-5.9301466E-001	-5.9311289E-001	1.2659697E+004	4.717019901501772E+001
-4.673531193781399E-002	-5.9500968E-001	-5.9511280E-001	1.2731479E+004	4.737019900996529E+001
-4.678453052867326E-002	-5.9705228E-001	-5.9711283E-001	1.2761745E+004	4.757019900491287E+001
-4.675434154058143E-002	-5.9895468E-001	-5.9911281E-001	1.2810675E+004	4.777019899986044E+001
-4.671610349049105E-002	-6.0091978E-001	-6.0111284E-001	1.2863226E+004	4.797019899480802E+001
-4.676600339555304E-002	-6.0287154E-001	-6.0311282E-001	1.2891235E+004	4.817019898975559E+001
-4.672354282763780E-002	-6.0494393E-001	-6.0511279E-001	1.2947305E+004	4.837019898470317E+001
-4.667002855047231E-002	-6.0700095E-001	-6.0711288E-001	1.3006227E+004	4.857019897965074E+001
-4.656048021817794E-002	-6.0908890E-001	-6.0911274E-001	1.3081671E+004	4.877019897459832E+001
-4.653169540318808E-002	-6.1103427E-001	-6.1111283E-001	1.3131571E+004	4.897019896954589E+001
-4.657319422690920E-002	-6.1305541E-001	-6.1311287E-001	1.3163268E+004	4.917019896449347E+001
-4.651873322761302E-002	-6.1500579E-001	-6.1511284E-001	1.3220604E+004	4.937019895944104E+001
-4.657312829544788E-002	-6.1705470E-001	-6.1711282E-001	1.3249157E+004	4.957019895438862E+001
-4.655350146254489E-002	-6.1905080E-001	-6.1911279E-001	1.3297621E+004	4.977019894933619E+001
-4.650966607138751E-002	-6.2102759E-001	-6.2111288E-001	1.3352656E+004	4.997019894428377E+001
-4.644690799926021E-002	-6.2307966E-001	-6.2311280E-001	1.3414879E+004	5.017019893923134E+001
-4.638359894766952E-002	-6.2507766E-001	-6.2511277E-001	1.3476265E+004	5.037019893417892E+001
-4.634923070495986E-002	-6.2703192E-001	-6.2711287E-001	1.3528421E+004	5.057019892912649E+001
-4.638039652398585E-002	-6.2899047E-001	-6.2911278E-001	1.3561559E+004	5.077019892407407E+001
-4.636441306855166E-002	-6.3092196E-001	-6.3111281E-001	1.3607893E+004	5.097019891902164E+001
-4.640493271455293E-002	-6.3302076E-001	-6.3311279E-001	1.3641238E+004	5.117019891396922E+001
-4.634473959428531E-002	-6.3496798E-001	-6.3511288E-001	1.3700972E+004	5.137019890891679E+001
-4.625161133322231E-002	-6.3703495E-001	-6.3711286E-001	1.3773249E+004	5.157019890386437E+001
-4.626280359227991E-002	-6.3902611E-001	-6.3911283E-001	1.3812957E+004	5.177019889881194E+001
-4.621581023700466E-002	-6.4111722E-001	-6.4111286E-001	1.3872249E+004	5.197019889375952E+001
-4.617507129225462E-002	-6.4303732E-001	-6.4311284E-001	1.3926071E+004	5.217019888870709E+001
-4.622930450425145E-002	-6.4504778E-001	-6.4511281E-001	1.3953223E+004	5.237019888365467E+001
-4.622762258953360E-002	-6.4700395E-001	-6.4711285E-001	1.3996046E+004	5.257019887860224E+001
-4.618365212307729E-002	-6.4898849E-001	-6.4911288E-001	1.4052342E+004	5.277019887354982E+001
-4.605516710565694E-002	-6.5104306E-001	-6.5111279E-001	1.4136156E+004	5.297019886849739E+001
-4.606087267205594E-002	-6.5308708E-001	-6.5311283E-001	1.4178782E+004	5.317019886344497E+001
-4.607795331629250E-002	-6.5505236E-001	-6.5511286E-001	1.4216178E+004	5.337019885839254E+001
-4.604994867138487E-002	-6.5702194E-001	-6.5711284E-001	1.4267594E+004	5.357019885334012E+001
-4.601831347845242E-002	-6.5902293E-001	-6.5911275E-001	1.4320884E+004	5.377019884828769E+001
-4.605191946874404E-002	-6.6101474E-001	-6.6111284E-001	1.4353685E+004	5.397019884323527E+001
-4.602883306047872E-002	-6.6302013E-001	-6.6311282E-001	1.4404452E+004	5.417019883818284E+001
-4.593906869590197E-002	-6.6507012E-001	-6.6511279E-001	1.4477223E+004	5.437019883313042E+001
-4.591866178847759E-002	-6.6703176E-001	-6.6711283E-001	1.4526376E+004	5.457019882807799E+001
-4.597910593159271E-002	-6.6902989E-001	-6.6911286E-001	1.4550737E+004	5.477019882302557E+001
-4.599179637031270E-002	-6.7101389E-001	-6.7111284E-001	1.4589860E+004	5.497019881797314E+001
-4.601393282955167E-002	-6.7305386E-001	-6.7311281E-001	1.4627175E+004	5.517019881292072E+001
-4.595052193699289E-002	-6.7503285E-001	-6.7511284E-001	1.4690429E+004	5.537019880786829E+001
-4.590084917010229E-002	-6.7702800E-001	-6.7711282E-001	1.4749793E+004	5.557019880281587E+001
-4.590752928611730E-002	-6.7906272E-001	-6.7911279E-001	1.4791969E+004	5.577019879776344E+001
-4.586714857322310E-002	-6.8103546E-001	-6.8111283E-001	1.4848001E+004	5.597019879271102E+001
-4.591340733989813E-002	-6.8300164E-001	-6.8311286E-001	1.4875864E+004	5.617019878765859E+001
-4.586758285332171E-002	-6.8499410E-001	-6.8511277E-001	1.4934166E+004	5.637019878260617E+001
-4.588828712586679E-002	-6.8698442E-001	-6.8711281E-001	1.4970801E+004	5.657019877755374E+001
-4.584394429563260E-002	-6.8903351E-001	-6.8911284E-001	1.5029979E+004	5.677019877250132E+001
-4.582990900098083E-002	-6.9100291E-001	-6.9111288E-001	1.5077554E+004	5.697019876744889E+001
-4.582788199534771E-002	-6.9300914E-001	-6.9311279E-001	1.5121998E+004	5.717019876239647E+001
-4.582936398720866E-002	-6.9504380E-001	-6.9511282E-001	1.5165905E+004	5.737019875734404E+001
-4.587325908094769E-002	-6.9702059E-001	-6.9711292E-001	1.5194486E+004	5.757019875229162E+001
-4.587819116626168E-002	-6.9905549E-001	-6.9911277E-001	1.5237207E+004	5.777019874723919E+001
-4.586735788084434E-002	-7.0099139E-001	-7.0111287E-001	1.5283013E+004	5.797019874218677E+001
-4.579560721505338E-002	-7.0302403E-001	-7.0311290E-001	1.5351342E+004	5.817019873713434E+001
-4.581882725834058E-002	-7.0505917E-001	-7.0511281E-001	1.5387979E+004	5.837019873208192E+001
-4.583824936262504E-002	-7.0705611E-001	-7.0711279E-001	1.5425024E+004	5.857019872702949E+001
-4.584322001942365E-002	-7.0902264E-001	-7.0911288E-001	1.5466249E+004	5.877019872197707E+001
-4.582124009233213E-002	-7.1101195E-001	-7.1111286E-001	1.5517082E+004	5.897019871692464E+001
-4.589921110911532E-002	-7.1300012E-001	-7.1311277E-001	1.5534039E+004	5.917019871187222E+001
-4.590285729718224E-002	-7.1504247E-001	-7.1511281E-001	1.5577298E+004	5.937019870681979E+001
-4.581109251639059E-002	-7.1699703E-001	-7.1711290E-001	1.5651166E+004	5.957019870176737E+001
-4.587609909739876E-002	-7.1902043E-001	-7.1911281E-001	1.5673095E+004	5.977019869671494E+001
-4.590018039892368E-002	-7.2106677E-001	-7.2111285E-001	1.5709454E+004	5.997019869166252E+001
-4.590348402131139E-002	-7.2306120E-001	-7.2311288E-001	1.5751771E+004	6.017019868661009E+001
-4.594238495238784E-002	-7.2503966E-001	-7.2511286E-001	1.5781498E+004	6.037019868155767E+001
-4.592280064697860E-002	-7.2699559E-001	-7.2711283E-001	1.5830820E+004	6.057019867650524E+001
-4.585969576093651E-002	-7.2898954E-001	-7.2911280E-001	1.5896083E+004	6.077019867145282E+001
-4.590647041537865E-002	-7.3107421E-001	-7.3111296E-001	1.5925298E+004	6.097019866640039E+001
-4.597551867132488E-002	-7.3306078E-001	-7.3311275E-001	1.5944590E+004	6.117019866134797E+001
-4.593433210887055E-002	-7.3503202E-001	-7.3511285E-001	1.6001801E+004	6.137019865629554E+001
-4.601206860738383E-002	-7.3697060E-001	-7.3711288E-001	1.6016897E+004	6.157019865124312E+001
-4.597306637808275E-002	-7.3894399E-001	-7.3911279E-001	1.6073411E+004	6.177019864619069E+001
-4.598254563108417E-002	-7.4105251E-001	-7.4111289E-001	1.6115952E+004	6.197019864113827E+001
-4.602017390115143E-002	-7.4303496E-001	-7.4311286E-001	1.6145853E+004	6.217019863608584E+001
-4.604531681353052E-002	-7.4507201E-001	-7.4511296E-001	1.6181276E+004	6.237019863103342E+001
-4.603467601517219E-002	-7.4702948E-001	-7.4711281E-001	1.6227539E+004	6.257019862598099E+001
-4.611217778343990E-002	-7.4900544E-001	-7.4911278E-001	1.6243115E+004	6.277019862092857E+001
-4.609655906618398E-002	-7.5102991E-001	-7.5111288E-001	1.6292537E+004	6.297019861587614E+001
-4.609033131344747E-002	-7.5303471E-001	-7.5311285E-001	1.6338236E+004	6.317019861082372E+001
-4.618965622323823E-002	-7.5504345E-001	-7.5511283E-001	1.6346592E+004	6.337019860577129E+001
-4.616267133035312E-002	-7.5702077E-001	-7.5711286E-001	1.6398980E+004	6.357019860071887E+001
-4.619706499911946E-002	-7.5902498E-001	-7.5911289E-001	1.6430156E+004	6.377019859566644E+001
-4.622337068568361E-002	-7.6102066E-001	-7.6111281E-001	1.6463980E+004	6.397019859061402E+001
-4.627624702589173E-002	-7.6302630E-001	-7.6311278E-001	1.6488508E+004	6.417019858556159E+001
-4.630326055325018E-002	-7.6503420E-001	-7.6511294E-001	1.6522254E+004	6.437019858050917E+001
-4.635320790270425E-002	-7.6704007E-001	-7.6711285E-001	1.6547725E+004	6.457019857545674E+001
-4.637091114875247E-002	-7.6906830E-001	-7.6911283E-001	1.6585145E+004	6.477019857040432E+001
-4.640518654931891E-002	-7.7103364E-001	-7.7111292E-001	1.6615248E+004	6.497019856535189E+001
-4.643361708661442E-002	-7.7302104E-001	-7.7311289E-001	1.6647875E+004	6.517019856029947E+001
-4.647974062725768E-002	-7.7498448E-001	-7.7511275E-001	1.6673598E+004	6.537019855524704E+001
-4.646247722601315E-002	-7.7705497E-001	-7.7711284E-001	1.6724355E+004	6.557019855019462E+001
-4.661198062035565E-002	-7.7899289E-001	-7.7911282E-001	1.6712289E+004	6.577019854514219E+001
-4.664654376607202E-002	-7.8101397E-001	-7.8111291E-001	1.6743232E+004	6.597019854008977E+001
-4.667870134966301E-002	-7.8303343E-001	-7.8311282E-001	1.6774961E+004	6.617019853503734E+001
-4.678469701446231E-002	-7.8503978E-001	-7.8511292E-001	1.6779842E+004	6.637019852998492E+001
-4.687290836089741E-002	-7.8703552E-001	-7.8711295E-001	1.6790840E+004	6.657019852493249E+001
-4.693467666547058E-002	-7.8899807E-001	-7.8911281E-001	1.6810557E+004	6.677019851988007E+001
-4.706428500627247E-002	-7.9102772E-001	-7.9111290E-001	1.6807389E+004	6.697019851482764E+001
-4.708701968425355E-002	-7.9304457E-001	-7.9311299E-001	1.6842105E+004	6.717019850977522E+001
-4.713111119967817E-002	-7.9503655E-001	-7.9511285E-001	1.6868615E+004	6.737019850472279E+001
-4.723475710172109E-002	-7.9705828E-001	-7.9711282E-001	1.6874402E+004	6.757019849967037E+001
-4.733152825268117E-002	-7.9903805E-001	-7.9911292E-001	1.6881729E+004	6.777019849461794E+001
-4.738867290047700E-002	-8.0100203E-001	-8.0111289E-001	1.6902816E+004	6.797019848956552E+001
-4.750099438459077E-002	-8.0303341E-001	-8.0311286E-001	1.6905613E+004	6.817019848451309E+001
-4.763258854639996E-002	-8.0499446E-001	-8.0511290E-001	1.6900078E+004	6.837019847946067E+001
-4.767081771249737E-002	-8.0697691E-001	-8.0711293E-001	1.6928111E+004	6.857019847440824E+001
-4.791899545719036E-002	-8.0903918E-001	-8.0911285E-001	1.6883475E+004	6.877019846935582E+001
-4.793792677797226E-002	-8.1100082E-001	-8.1111282E-001	1.6917729E+004	6.897019846430339E+001
-4.810066686340231E-002	-8.1300139E-001	-8.1311291E-001	1.6902082E+004	6.917019845925097E+001
-4.819526761778725E-002	-8.1500494E-001	-8.1511289E-001	1.6910477E+004	6.937019845419854E+001
-4.841523620040242E-002	-8.1705195E-001	-8.1711286E-001	1.6875926E+004	6.957019844914612E+001
-4.847688375509707E-002	-8.1907618E-001	-8.1911290E-001	1.6896223E+004	6.977019844409369E+001
-4.870309955371843E-002	-8.2107061E-001	-8.2111293E-001	1.6858693E+004	6.997019843904127E+001
-4.881883952914501E-002	-8.2306582E-001	-8.2311279E-001	1.6859594E+004	7.017019843398884E+001
-4.900367248036780E-002	-8.2507378E-001	-8.2511288E-001	1.6836979E+004	7.037019842893642E+001
-4.922278472401886E-002	-8.2699555E-001	-8.2711297E-001	1.6801072E+004	7.057019842388399E+001
-4.936035128749594E-002	-8.2903981E-001	-8.2911283E-001	1.6795662E+004	7.077019841883157E+001
-4.952370413407997E-002	-8.3102715E-001	-8.3111292E-001	1.6780393E+004	7.097019841377914E+001
-4.962595434681993E-002	-8.3303881E-001	-8.3311290E-001	1.6786354E+004	7.117019840872672E+001
-5.007995511648033E-002	-8.3502442E-001	-8.3511287E-001	1.6673824E+004	7.137019840367429E+001
-5.032514743538583E-002	-8.3704680E-001	-8.3711284E-001	1.6632773E+004	7.157019839862187E+001
-5.061096877341176E-002	-8.3902907E-001	-8.3911288E-001	1.6578008E+004	7.177019839356944E+001
-5.092232507841465E-002	-8.4103727E-001	-8.4111291E-001	1.6516082E+004	7.197019838851702E+001
-5.131382537032164E-002	-8.4305513E-001	-8.4311289E-001	1.6429395E+004	7.217019838346459E+001
-5.183917719896136E-002	-8.4503567E-001	-8.4511280E-001	1.6301102E+004	7.237019837841217E+001
-5.231660761017243E-002	-8.4702355E-001	-8.4711295E-001	1.6190338E+004	7.257019837335974E+001
-5.285130976593710E-002	-8.4907502E-001	-8.4911293E-001	1.6065354E+004	7.277019836830732E+001
-5.342589457077951E-002	-8.5103875E-001	-8.5111284E-001	1.5929331E+004	7.297019836325489E+001
-5.431259586686976E-002	-8.5304934E-001	-8.5311294E-001	1.5706289E+004	7.317019835820247E+001
-5.521984247421075E-002	-8.5504562E-001	-8.5511291E-001	1.5484391E+004	7.337019835315004E+001
-5.628474974263553E-002	-8.5708433E-001	-8.5711288E-001	1.5227647E+004	7.357019834809762E+001
-5.773820525221085E-002	-8.5903490E-001	-8.5911286E-001	1.4878102E+004	7.377019834304519E+001
-5.937318632045518E-002	-8.6104804E-001	-8.6111295E-001	1.4502305E+004	7.397019833799277E+001
-6.130390417658615E-002	-8.6307883E-001	-8.6311281E-001	1.4078692E+004	7.417019833294034E+001
-6.375985403276996E-002	-8.6510950E-001	-8.6511290E-001	1.3568248E+004	7.437019832788792E+001
-6.634499109930893E-002	-8.6709028E-001	-8.6711287E-001	1.3069416E+004	7.457019832283549E+001
-6.958130005875914E-002	-8.6904156E-001	-8.6911285E-001	1.2489585E+004	7.477019831778307E+001
-7.300686685773883E-002	-8.7103033E-001	-8.7111294E-001	1.1930800E+004	7.497019831273064E+001
-7.666128890719817E-002	-8.7306815E-001	-8.7311286E-001	1.1388645E+004	7.517019830767822E+001
-8.022498360638623E-002	-8.7499881E-001	-8.7511301E-001	1.0906812E+004	7.537019830262579E+001
-8.373566056325049E-002	-8.7701207E-001	-8.7711287E-001	1.0473579E+004	7.557019829757337E+001
-8.679215499261184E-002	-8.7904042E-001	-8.7911278E-001	1.0128109E+004	7.577019829252095E+001
-8.969799181459104E-002	-8.8100111E-001	-8.8111293E-001	9.8218604E+003	7.597019828746852E+001
-9.218958918746489E-002	-8.8302428E-001	-8.8311291E-001	9.5783516E+003	7.617019828241610E+001
-9.462527045716118E-002	-8.8501966E-001	-8.8511288E-001	9.3528887E+003	7.637019827736367E+001
-9.690944080889347E-002	-8.8704741E-001	-8.8711292E-001	9.1533643E+003	7.657019827231125E+001
-9.930749336371592E-002	-8.8906401E-001	-8.8911289E-001	8.9526377E+003	7.677019826725882E+001
-1.022028601760057E-001	-8.9103651E-001	-8.9111286E-001	8.7183125E+003	7.697019826220640E+001
-1.055125847444054E-001	-8.9306515E-001	-8.9311284E-001	8.4640625E+003	7.717019825715397E+001
-1.094414479407542E-001	-8.9503276E-001	-8.9511293E-001	8.1781885E+003	7.737019825210155E+001
-1.140115342679476E-001	-8.9701563E-001	-8.9711291E-001	7.8677622E+003	7.757019824704912E+001
-1.192039449207165E-001	-8.9902908E-001	-8.9911288E-001	7.5419404E+003	7.777019824199670E+001
-1.249633923483391E-001	-9.0105647E-001	-9.0111291E-001	7.2105635E+003	7.797019823694427E+001
-1.335885566785988E-001	-9.0304440E-001	-9.0311283E-001	6.7598936E+003	7.817019823189185E+001
-1.410031169726843E-001	-9.0506542E-001	-9.0511292E-001	6.4187617E+003	7.837019822683942E+001
-1.496554782736597E-001	-9.0705854E-001	-9.0711290E-001	6.0609780E+003	7.857019822178700E+001
-1.601829927218246E-001	-9.0906447E-001	-9.0911299E-001	5.6751621E+003	7.877019821673457E+001
-1.727367070790744E-001	-9.1106492E-001	-9.1111296E-001	5.2742983E+003	7.897019821168215E+001
-1.879756546361788E-001	-9.1301459E-001	-9.1311288E-001	4.8570894E+003	7.917019820662972E+001
-2.057895211507128E-001	-9.1502070E-001	-9.1511291E-001	4.4463911E+003	7.937019820157730E+001
-2.270294990276494E-001	-9.1707927E-001	-9.1711289E-001	4.0394719E+003	7.957019819652487E+001
-2.512240093032454E-001	-9.1910279E-001	-9.1911286E-001	3.6584990E+003	7.977019819147245E+001
-2.800236660797074E-001	-9.2104787E-001	-9.2111290E-001	3.2891787E+003	7.997019818642002E+001
-3.189939477221193E-001	-9.2306274E-001	-9.2311293E-001	2.8936685E+003	8.017019818136760E+001
-3.529676589544639E-001	-9.2509949E-001	-9.2511290E-001	2.6209185E+003	8.037019817631517E+001
-3.935981081131338E-001	-9.2707026E-001	-9.2711282E-001	2.3553728E+003	8.057019817126275E+001
-4.425342538332773E-001	-9.2908573E-001	-9.2911291E-001	2.0994663E+003	8.077019816621032E+001
-5.027666571011560E-001	-9.3105507E-001	-9.3111289E-001	1.8518632E+003	8.097019816115790E+001
-5.589668911094030E-001	-9.3308342E-001	-9.3311286E-001	1.6692999E+003	8.117019815610547E+001
-6.344707190373793E-001	-9.3505019E-001	-9.3511295E-001	1.4737484E+003	8.137019815105305E+001
-7.091369428112291E-001	-9.3706995E-001	-9.3711293E-001	1.3214231E+003	8.157019814600062E+001
-8.007014382233579E-001	-9.3908334E-001	-9.3911290E-001	1.1728258E+003	8.177019814094820E+001
-8.917048282650981E-001	-9.4105750E-001	-9.4111288E-001	1.0553464E+003	8.197019813589577E+001
-1.008943348067081E+000	-9.4305646E-001	-9.4311297E-001	9.3469714E+002	8.217019813084335E+001
-1.133874070746190E+000	-9.4510233E-001	-9.4521296E-001	8.3351611E+002	8.238019812553830E+001
-1.264001871993477E+000	-9.4727337E-001	-9.4731283E-001	7.4942401E+002	8.259019812023325E+001
-1.410031586294133E+000	-9.4927108E-001	-9.4931293E-001	6.7322681E+002	8.279019811518083E+001
-1.568295739574227E+000	-9.5125949E-001	-9.5131290E-001	6.0655621E+002	8.299019811012840E+001
-1.736603142047416E+000	-9.5324075E-001	-9.5331287E-001	5.4891113E+002	8.319019810507598E+001
-1.923708009966511E+000	-9.5523101E-001	-9.5531297E-001	4.9655716E+002	8.339019810002355E+001
-2.121932795714756E+000	-9.5724827E-001	-9.5731282E-001	4.5112091E+002	8.359019809497113E+001
-2.338775915657585E+000	-9.5922542E-001	-9.5931292E-001	4.1013995E+002	8.379019808991870E+001
-2.560944256564930E+000	-9.6121430E-001	-9.6131289E-001	3.7533591E+002	8.399019808486628E+001
-2.807295547895425E+000	-9.6317399E-001	-9.6331298E-001	3.4309674E+002	8.419019807981385E+001
-3.064532123134391E+000	-9.6522254E-001	-9.6531296E-001	3.1496570E+002	8.439019807476143E+001
-3.341443147045680E+000	-9.6723402E-001	-9.6731287E-001	2.8946594E+002	8.459019806970900E+001
-3.621127601653803E+000	-9.6922964E-001	-9.6931291E-001	2.6765961E+002	8.479019806465658E+001
-3.921993427232010E+000	-9.7125882E-001	-9.7131300E-001	2.4764418E+002	8.499019805960415E+001
-4.235527003669670E+000	-9.7329301E-001	-9.7331285E-001	2.2979266E+002	8.519019805455173E+001
-4.561254037244246E+000	-9.7526425E-001	-9.7531289E-001	2.1381494E+002	8.539019804949930E+001
-4.901759685572578E+000	-9.7721583E-001	-9.7731292E-001	1.9936021E+002	8.559019804444688E+001
-5.255910747310722E+000	-9.7921234E-001	-9.7931290E-001	1.8630688E+002	8.579019803939445E+001
-5.625293983725172E+000	-9.8123550E-001	-9.8131293E-001	1.7443275E+002	8.599019803434203E+001
-6.001714659385943E+000	-9.8324549E-001	-9.8331290E-001	1.6382742E+002	8.619019802928960E+001
-6.386993192288330E+000	-9.8523045E-001	-9.8531288E-001	1.5425575E+002	8.639019802423718E+001
-6.791814928017004E+000	-9.8719370E-001	-9.8731285E-001	1.4535049E+002	8.659019801918475E+001
-7.206825586943950E+000	-9.8925984E-001	-9.8931295E-001	1.3726707E+002	8.679019801413233E+001
-7.631005893894354E+000	-9.9126244E-001	-9.9131280E-001	1.2989931E+002	8.699019800907990E+001
-8.070077567752008E+000	-9.9323219E-001	-9.9331284E-001	1.2307591E+002	8.719019800402748E+001
-8.518199128831640E+000	-9.9524266E-001	-9.9531281E-001	1.1683721E+002	8.739019799897505E+001
-8.972226377044422E+000	-9.9725431E-001	-9.9731284E-001	1.1114903E+002	8.759019799392263E+001
-9.438494997229981E+000	-9.9927843E-001	-9.9931282E-001	1.0587264E+002	8.779019798887020E+001
-9.918082485253080E+000	-1.0012504E+000	-1.0013149E+000	1.0095201E+002	8.799039798381273E+001
-1.040848753108465E+001	-1.0032601E+000	-1.0033168E+000	9.6388657E+001	8.819059797875525E+001
-1.094405595088733E+001	-1.0053591E+000	-1.0054188E+000	9.1863480E+001	8.840079797344515E+001
-1.148716355260418E+001	-1.0074507E+000	-1.0075206E+000	8.7702301E+001	8.861099796813505E+001
-1.201192134277375E+001	-1.0094173E+000	-1.0095237E+000	8.4034622E+001	8.881129796307505E+001
-1.254609329528819E+001	-1.0114241E+000	-1.0115249E+000	8.0616653E+001	8.901139795802010E+001
-1.308285193079763E+001	-1.0134721E+000	-1.0135264E+000	7.7465683E+001	8.921159795296262E+001
-1.363069897260357E+001	-1.0154573E+000	-1.0155296E+000	7.4497810E+001	8.941189794790262E+001
-1.419081028964732E+001	-1.0174658E+000	-1.0175318E+000	7.1698921E+001	8.961209794284514E+001
-1.474682869021717E+001	-1.0194662E+000	-1.0195336E+000	6.9131210E+001	8.981229793778766E+001
-1.532322749820679E+001	-1.0215178E+000	-1.0215356E+000	6.6664658E+001	9.001249793273018E+001
-1.591214909827994E+001	-1.0234754E+000	-1.0235378E+000	6.4320374E+001	9.021269792767271E+001
-1.650356846405067E+001	-1.0254718E+000	-1.0255405E+000	6.2136368E+001	9.041299792261270E+001
-1.711396036854288E+001	-1.0274421E+000	-1.0275437E+000	6.0035320E+001	9.061329791755270E+001
-1.773084239603277E+001	-1.0294553E+000	-1.0295457E+000	5.8060146E+001	9.081349791249522E+001
-1.835957185601006E+001	-1.0314835E+000	-1.0315477E+000	5.6182331E+001	9.101369790743775E+001
-1.900027593359090E+001	-1.0335138E+000	-1.0335504E+000	5.4394672E+001	9.121399790237774E+001
-1.964222890669316E+001	-1.0354506E+000	-1.0355537E+000	5.2715534E+001	9.141429789731774E+001
-2.029001100099458E+001	-1.0374976E+000	-1.0375564E+000	5.1133419E+001	9.161459789225773E+001
-2.096043935848400E+001	-1.0395180E+000	-1.0395604E+000	4.9594284E+001	9.181499788719520E+001
-2.164147014047552E+001	-1.0414786E+000	-1.0415629E+000	4.8124210E+001	9.201519788213773E+001
-2.231958624053820E+001	-1.0435325E+000	-1.0435637E+000	4.6754116E+001	9.221529787708278E+001
-2.300344014221400E+001	-1.0455506E+000	-1.0455664E+000	4.5451923E+001	9.241559787202277E+001
-2.371671526150905E+001	-1.0475243E+000	-1.0475689E+000	4.4168186E+001	9.261579786696529E+001
-2.442207457081258E+001	-1.0495033E+000	-1.0495689E+000	4.2973553E+001	9.281579786191287E+001
-2.514988261475855E+001	-1.0515009E+000	-1.0515698E+000	4.1809376E+001	9.301589785685792E+001
-2.589368339595876E+001	-1.0535330E+000	-1.0535709E+000	4.0686871E+001	9.321599785180297E+001
-2.664201181800523E+001	-1.0555183E+000	-1.0555716E+000	3.9618565E+001	9.341609784674802E+001
-2.740307343236441E+001	-1.0575370E+000	-1.0575737E+000	3.8591911E+001	9.361629784169054E+001
-2.815660206519635E+001	-1.0595657E+000	-1.0595764E+000	3.7631161E+001	9.381659783663054E+001
-2.895227110987094E+001	-1.0615288E+000	-1.0615798E+000	3.6664783E+001	9.401689783157053E+001
-2.976440123311522E+001	-1.0634853E+000	-1.0635810E+000	3.5730106E+001	9.421699782651558E+001
-3.055602002714079E+001	-1.0655670E+000	-1.0655836E+000	3.4872574E+001	9.441729782145558E+001
-3.136152541556316E+001	-1.0675337E+000	-1.0675850E+000	3.4039597E+001	9.461739781640063E+001
-3.215958852227703E+001	-1.0695817E+000	-1.0695876E+000	3.3258564E+001	9.481769781134062E+001
-3.300016841907893E+001	-1.0715604E+000	-1.0715907E+000	3.2471359E+001	9.501799780628062E+001
-3.382794916756012E+001	-1.0735595E+000	-1.0735935E+000	3.1735874E+001	9.521829780122061E+001
-3.468301779558860E+001	-1.0755837E+000	-1.0755950E+000	3.1011826E+001	9.541839779616566E+001
-3.552466591593394E+001	-1.0775132E+000	-1.0775957E+000	3.0331409E+001	9.561849779111071E+001
-3.638813781792346E+001	-1.0795765E+000	-1.0795969E+000	2.9668364E+001	9.581859778605576E+001
-3.727381483288701E+001	-1.0815632E+000	-1.0815977E+000	2.9016703E+001	9.601869778100081E+001
-3.820214086472508E+001	-1.0835811E+000	-1.0835997E+000	2.8364407E+001	9.621889777594333E+001
-3.905549314085198E+001	-1.0855619E+000	-1.0856036E+000	2.7795370E+001	9.641929777088080E+001
-3.991651104176697E+001	-1.0875689E+000	-1.0876057E+000	2.7246090E+001	9.661949776582333E+001
-4.089522882194473E+001	-1.0895542E+000	-1.0896070E+000	2.6642574E+001	9.681959776076837E+001
-4.181322560128729E+001	-1.0915389E+000	-1.0916088E+000	2.6105112E+001	9.701979775571090E+001
-4.267283201866422E+001	-1.0935920E+000	-1.0936112E+000	2.5627361E+001	9.722009775065089E+001
-4.354968371288294E+001	-1.0955650E+000	-1.0956156E+000	2.5156668E+001	9.742049774558836E+001
-4.447919688770412E+001	-1.0975782E+000	-1.0976177E+000	2.4676214E+001	9.762069774053089E+001
-4.569815918320535E+001	-1.0996119E+000	-1.0996212E+000	2.4062498E+001	9.782109773546836E+001
-4.677504555376720E+001	-1.1016173E+000	-1.1016283E+000	2.3551390E+001	9.802179773039825E+001
-4.797615523774573E+001	-1.1036403E+000	-1.1036325E+000	2.3003935E+001	9.822219772533572E+001
-4.904801084258730E+001	-1.1056398E+000	-1.1056365E+000	2.2541990E+001	9.842259772027319E+001
-5.017040804034718E+001	-1.1076363E+000	-1.1076411E+000	2.2077482E+001	9.862309771520813E+001
-5.125759475085181E+001	-1.1096244E+000	-1.1096449E+000	2.1647999E+001	9.882339771014813E+001
-5.232879292935749E+001	-1.1116643E+000	-1.1116468E+000	2.1243835E+001	9.902359770509065E+001
-5.336642885779048E+001	-1.1136441E+000	-1.1136488E+000	2.0867878E+001	9.922379770003317E+001
-5.449079346573558E+001	-1.1156406E+000	-1.1156523E+000	2.0473928E+001	9.942419769497064E+001
-5.586140632359081E+001	-1.1175889E+000	-1.1176549E+000	2.0006458E+001	9.962439768991317E+001
-5.686731154436575E+001	-1.1196641E+000	-1.1196557E+000	1.9689062E+001	9.982449768485822E+001
-5.817163906162926E+001	-1.1216787E+000	-1.1216584E+000	1.9282227E+001	1.000247976797982E+002
-5.928825755945671E+001	-1.1236378E+000	-1.1236631E+000	1.8952114E+001	1.002252976747332E+002
-6.054679347598358E+001	-1.1256726E+000	-1.1256669E+000	1.8591778E+001	1.004255976696732E+002
-6.239745119941290E+001	-1.1275927E+000	-1.1276684E+000	1.8071135E+001	1.006257976646157E+002
-6.391298495014053E+001	-1.1296220E+000	-1.1296736E+000	1.7674374E+001	1.008262976595506E+002
-6.518028885250635E+001	-1.1317034E+000	-1.1316764E+000	1.7362663E+001	1.010265976544906E+002
-6.642963335150307E+001	-1.1336204E+000	-1.1336799E+000	1.7064980E+001	1.012268976494306E+002
-6.783524152857694E+001	-1.1356968E+000	-1.1356832E+000	1.6741987E+001	1.014272976443681E+002
-6.894246760085053E+001	-1.1376377E+000	-1.1376868E+000	1.6501263E+001	1.016275976393081E+002
-6.984130289016571E+001	-1.1396856E+000	-1.1396877E+000	1.6318218E+001	1.018276976342531E+002
-7.095499680655871E+001	-1.1417205E+000	-1.1416912E+000	1.6090771E+001	1.020280976291906E+002
-7.259715230719019E+001	-1.1437308E+000	-1.1436949E+000	1.5754485E+001	1.022283976241306E+002
-7.407595840594678E+001	-1.1457350E+000	-1.1456969E+000	1.5467030E+001	1.024285976190731E+002
-7.601346719128640E+001	-1.1476966E+000	-1.1476977E+000	1.5098596E+001	1.026286976140182E+002
-7.771309762481110E+001	-1.1497461E+000	-1.1497008E+000	1.4794753E+001	1.028289976089582E+002
-8.005891964339799E+001	-1.1517427E+000	-1.1517036E+000	1.4386189E+001	1.030292976038982E+002
-8.220028628550648E+001	-1.1537169E+000	-1.1537056E+000	1.4035437E+001	1.032294975988407E+002
-8.312420556563541E+001	-1.1557187E+000	-1.1557077E+000	1.3903516E+001	1.034296975937832E+002
-8.415833046328908E+001	-1.1577604E+000	-1.1577098E+000	1.3756931E+001	1.036298975887257E+002
-8.609351314548729E+001	-1.1597706E+000	-1.1597124E+000	1.3471057E+001	1.038301975836657E+002
-8.807160156857881E+001	-1.1618069E+000	-1.1617165E+000	1.3191618E+001	1.040305975786032E+002
-9.055501457783362E+001	-1.1637796E+000	-1.1637198E+000	1.2851631E+001	1.042308975735432E+002
-9.227834698442985E+001	-1.1658090E+000	-1.1657218E+000	1.2633615E+001	1.044310975684857E+002
-9.436923788963850E+001	-1.1678013E+000	-1.1677244E+000	1.2374808E+001	1.046313975634257E+002
-9.676898347493420E+001	-1.1697545E+000	-1.1697277E+000	1.2088114E+001	1.048316975583657E+002
-9.821445166064495E+001	-1.1717690E+000	-1.1717290E+000	1.1930719E+001	1.050317975533108E+002
-9.949378469245403E+001	-1.1737897E+000	-1.1737304E+000	1.1797619E+001	1.052319975482533E+002
-1.012343671631849E+002	-1.1757576E+000	-1.1757337E+000	1.1614214E+001	1.054322975431933E+002
-1.028990974867374E+002	-1.1777971E+000	-1.1777393E+000	1.1446136E+001	1.056328975381257E+002
-1.050117629984991E+002	-1.1798086E+000	-1.1797438E+000	1.1235014E+001	1.058332975330632E+002
-1.063913586945216E+002	-1.1817935E+000	-1.1817449E+000	1.1107984E+001	1.060333975280082E+002
-1.076149888895889E+002	-1.1837491E+000	-1.1837463E+000	1.0999853E+001	1.062335975229507E+002
-1.088730687360210E+002	-1.1858000E+000	-1.1857498E+000	1.0891582E+001	1.064338975178907E+002
-1.115143716120645E+002	-1.1879038E+000	-1.1878537E+000	1.0652472E+001	1.066442975125756E+002
-1.156982746304777E+002	-1.1899620E+000	-1.1899586E+000	1.0285046E+001	1.068547975072579E+002
-1.176684881141504E+002	-1.1919440E+000	-1.1919632E+000	1.0129679E+001	1.070552975021928E+002
-1.185367857091019E+002	-1.1939689E+000	-1.1939684E+000	1.0072560E+001	1.072557974971278E+002
-1.197719762168499E+002	-1.1959994E+000	-1.1959709E+000	9.9856358E+000	1.074559974920703E+002
-1.212422003151341E+002	-1.1979913E+000	-1.1979709E+000	9.8809757E+000	1.076559974870179E+002
-1.226476942608692E+002	-1.1999737E+000	-1.1999718E+000	9.7839079E+000	1.078560974819629E+002
-1.246866371323536E+002	-1.2019575E+000	-1.2019756E+000	9.6398258E+000	1.080564974769004E+002
-1.260635831624934E+002	-1.2039727E+000	-1.2039796E+000	9.5505190E+000	1.082568974718379E+002
-1.279922681060236E+002	-1.2060156E+000	-1.2059809E+000	9.4225664E+000	1.084569974667829E+002
-1.304178610775660E+002	-1.2080342E+000	-1.2079844E+000	9.2627974E+000	1.086573974617204E+002
-1.328279385303201E+002	-1.2100277E+000	-1.2099876E+000	9.1097374E+000	1.088576974566604E+002
-1.347959398920570E+002	-1.2119967E+000	-1.2119889E+000	8.9913445E+000	1.090577974516054E+002
-1.362585408116788E+002	-1.2139914E+000	-1.2139906E+000	8.9094706E+000	1.092579974465480E+002
-1.397236224422059E+002	-1.2159725E+000	-1.2159939E+000	8.7026987E+000	1.094582974414880E+002
-1.437718096181056E+002	-1.2180116E+000	-1.2179958E+000	8.4718390E+000	1.096584974364305E+002
-1.477129927708720E+002	-1.2200252E+000	-1.2199969E+000	8.2594299E+000	1.098585974313755E+002
-1.510673328067287E+002	-1.2220309E+000	-1.2219975E+000	8.0893126E+000	1.100586974263206E+002
-1.518297700982880E+002	-1.2240909E+000	-1.2239969E+000	8.0622587E+000	1.102585974212707E+002
-1.534774322985370E+002	-1.2259821E+000	-1.2259996E+000	7.9880280E+000	1.104588974162107E+002
-1.543704491972401E+002	-1.2279582E+000	-1.2280017E+000	7.9546194E+000	1.106590974111532E+002
-1.565025318741993E+002	-1.2300255E+000	-1.2300045E+000	7.8594608E+000	1.108593974060932E+002
-1.596849178662812E+002	-1.2320061E+000	-1.2320085E+000	7.7152314E+000	1.110597974010307E+002
-1.614285175399959E+002	-1.2340032E+000	-1.2340115E+000	7.6442699E+000	1.112600973959707E+002
-1.657691852749067E+002	-1.2360407E+000	-1.2360128E+000	7.4563961E+000	1.114601973909157E+002
-1.670077237174626E+002	-1.2380451E+000	-1.2380129E+000	7.4131007E+000	1.116601973858633E+002
-1.702207150405218E+002	-1.2400506E+000	-1.2400129E+000	7.2849569E+000	1.118601973808109E+002
-1.755019403228414E+002	-1.2420028E+000	-1.2420129E+000	7.0768609E+000	1.120601973757584E+002
-1.772699147877709E+002	-1.2441121E+000	-1.2440144E+000	7.0181799E+000	1.122603973707010E+002
-1.805873347820875E+002	-1.2460299E+000	-1.2460169E+000	6.8998742E+000	1.124605973656435E+002
-1.842924089991948E+002	-1.2479962E+000	-1.2480177E+000	6.7718263E+000	1.126606973605885E+002
-1.871242216475615E+002	-1.2501327E+000	-1.2500187E+000	6.6807637E+000	1.128607973555336E+002
-1.882815326195450E+002	-1.2521077E+000	-1.2520189E+000	6.6501889E+000	1.130607973504812E+002
-1.900488834728067E+002	-1.2540267E+000	-1.2540206E+000	6.5984426E+000	1.132609973454237E+002
-1.932665381537120E+002	-1.2560413E+000	-1.2560244E+000	6.4990106E+000	1.134613973403611E+002
-1.969728570773304E+002	-1.2580254E+000	-1.2580284E+000	6.3867955E+000	1.136617973352986E+002
-2.000537808508734E+002	-1.2600522E+000	-1.2600317E+000	6.2985673E+000	1.138620973302386E+002
-2.036646394044981E+002	-1.2620785E+000	-1.2620347E+000	6.1968465E+000	1.140623973251786E+002
-2.095884947478353E+002	-1.2641844E+000	-1.2640374E+000	6.0317450E+000	1.142626973201186E+002
-2.097852264110197E+002	-1.2660772E+000	-1.2660389E+000	6.0351110E+000	1.144627973150637E+002
-2.101865476859130E+002	-1.2680147E+000	-1.2680389E+000	6.0328059E+000	1.146627973100112E+002
-2.108056404699601E+002	-1.2700816E+000	-1.2700397E+000	6.0248942E+000	1.148628973049563E+002
-2.154645686180246E+002	-1.2721505E+000	-1.2720443E+000	5.9042215E+000	1.150633972998912E+002
-2.207300189019197E+002	-1.2741076E+000	-1.2740476E+000	5.7722445E+000	1.152636972948312E+002
-2.223183502458942E+002	-1.2761021E+000	-1.2760496E+000	5.7399764E+000	1.154638972897737E+002
-2.263544660902876E+002	-1.2781428E+000	-1.2780516E+000	5.6466427E+000	1.156640972847163E+002
-2.274004456137327E+002	-1.2801321E+000	-1.2800529E+000	5.6294174E+000	1.158641972796613E+002
-2.314499527712493E+002	-1.2821380E+000	-1.2820570E+000	5.5395908E+000	1.160646972745963E+002
-2.342981323114591E+002	-1.2841424E+000	-1.2840617E+000	5.4808049E+000	1.162650972695337E+002
-2.334188131950882E+002	-1.2861860E+000	-1.2860628E+000	5.5102072E+000	1.164651972644788E+002
-2.350294423992013E+002	-1.2881237E+000	-1.2880645E+000	5.4806910E+000	1.166653972594213E+002
-2.403526120767742E+002	-1.2901787E+000	-1.2900678E+000	5.3678579E+000	1.168656972543613E+002
-2.460039989219716E+002	-1.2921866E+000	-1.2920687E+000	5.2527056E+000	1.170657972493063E+002
-2.485761227142073E+002	-1.2941277E+000	-1.2940704E+000	5.2061625E+000	1.172659972442489E+002
-2.515776341650230E+002	-1.2961113E+000	-1.2960738E+000	5.1519341E+000	1.174662972391889E+002
-2.533392274600110E+002	-1.2982081E+000	-1.2980758E+000	5.1243863E+000	1.176664972341314E+002
-2.546320898809645E+002	-1.3002013E+000	-1.3000785E+000	5.1061959E+000	1.178667972290714E+002
-2.546112887463532E+002	-1.3021636E+000	-1.3020797E+000	5.1143198E+000	1.180668972240164E+002
-2.599350314998242E+002	-1.3041714E+000	-1.3040836E+000	5.0172977E+000	1.182672972189539E+002
-2.615190429367433E+002	-1.3061938E+000	-1.3060868E+000	4.9946413E+000	1.184675972138939E+002
-2.648764870320783E+002	-1.3081359E+000	-1.3079886E+000	4.9386635E+000	1.186577972090890E+002
-2.704196839437986E+002	-1.3095770E+000	-1.3094920E+000	4.8427577E+000	1.188082972052871E+002
-2.718994134728749E+002	-1.3107704E+000	-1.3107038E+000	4.8207917E+000	1.189293972022278E+002
-2.745234660645276E+002	-1.3122935E+000	-1.3122100E+000	4.7802601E+000	1.190799971984234E+002
-2.787844638755168E+002	-1.3136966E+000	-1.3136160E+000	4.7122302E+000	1.192205971948715E+002
-2.794007159005678E+002	-1.3153301E+000	-1.3152217E+000	4.7076836E+000	1.193811971908144E+002
-2.837912721938565E+002	-1.3170452E+000	-1.3169290E+000	4.6408939E+000	1.195518971865022E+002
-2.862342586418104E+002	-1.3185034E+000	-1.3183368E+000	4.6063786E+000	1.196926971829453E+002
-2.884986864137915E+002	-1.3199152E+000	-1.3197436E+000	4.5751166E+000	1.198333971793909E+002
-2.894868404666317E+002	-1.3210773E+000	-1.3209531E+000	4.5635142E+000	1.199542971763367E+002
-2.891916437559134E+002	-1.3221649E+000	-1.3220589E+000	4.5719333E+000	1.200648971735427E+002
-2.893843906580069E+002	-1.3236024E+000	-1.3234637E+000	4.5738559E+000	1.202053971699934E+002
-2.923647591730196E+002	-1.3247918E+000	-1.3246698E+000	4.5312977E+000	1.203259971669468E+002
-2.963890338554238E+002	-1.3260987E+000	-1.3259729E+000	4.4741826E+000	1.204562971636551E+002
-2.949136406060770E+002	-1.3272870E+000	-1.3271774E+000	4.5005956E+000	1.205767971606110E+002
-2.982848956976950E+002	-1.3284053E+000	-1.3282846E+000	4.4534783E+000	1.206874971578145E+002
-2.993082693851748E+002	-1.3298086E+000	-1.3296896E+000	4.4429398E+000	1.208279971542652E+002
-3.027150205703529E+002	-1.3311340E+000	-1.3309970E+000	4.3973174E+000	1.209586971509634E+002
-3.058726272133645E+002	-1.3323383E+000	-1.3322036E+000	4.3558598E+000	1.210793971479143E+002
-3.106456998195708E+002	-1.3333161E+000	-1.3332126E+000	4.2920794E+000	1.211802971453653E+002
-3.107711106582151E+002	-1.3343858E+000	-1.3343195E+000	4.2937894E+000	1.212909971425688E+002
-3.094736538708921E+002	-1.3355918E+000	-1.3355258E+000	4.3156881E+000	1.214115971395222E+002
-3.094939010807821E+002	-1.3368527E+000	-1.3367317E+000	4.3194799E+000	1.215321971364756E+002
-3.089407574067336E+002	-1.3381634E+000	-1.3380371E+000	4.3314562E+000	1.216626971331789E+002
-3.082043896546393E+002	-1.3395547E+000	-1.3394413E+000	4.3463192E+000	1.218030971296321E+002
-3.112165648844530E+002	-1.3409790E+000	-1.3408461E+000	4.3088288E+000	1.219435971260828E+002
-3.162570806188959E+002	-1.3423688E+000	-1.3422514E+000	4.2445498E+000	1.220841971225309E+002
-3.187524691094989E+002	-1.3436557E+000	-1.3435571E+000	4.2153578E+000	1.222146971192342E+002
-3.220100917968157E+002	-1.3449395E+000	-1.3447635E+000	4.1766996E+000	1.223353971161851E+002
-3.283388553754176E+002	-1.3460170E+000	-1.3458723E+000	4.0994754E+000	1.224462971133835E+002
-3.323930806350654E+002	-1.3472421E+000	-1.3470842E+000	4.0531592E+000	1.225673971103242E+002
-3.371785055178088E+002	-1.3486253E+000	-1.3484888E+000	3.9997368E+000	1.227078971067749E+002
-3.347616406013713E+002	-1.3498608E+000	-1.3496971E+000	4.0323043E+000	1.228287971037207E+002
-3.352054955105605E+002	-1.3509860E+000	-1.3508050E+000	4.0303216E+000	1.229394971009242E+002
-3.389075116870390E+002	-1.3518103E+000	-1.3517135E+000	3.9887292E+000	1.230303970986279E+002
-3.387742114594976E+002	-1.3531400E+000	-1.3530178E+000	3.9942238E+000	1.231607970953337E+002
-3.359970736802484E+002	-1.3543826E+000	-1.3542223E+000	4.0309358E+000	1.232812970922896E+002
-3.355419238829713E+002	-1.3554233E+000	-1.3553267E+000	4.0395050E+000	1.233916970895007E+002
-3.348313022382274E+002	-1.3566374E+000	-1.3565317E+000	4.0517039E+000	1.235121970864566E+002
-3.382708402676487E+002	-1.3579843E+000	-1.3578385E+000	4.0144882E+000	1.236428970831548E+002
-3.398332957047996E+002	-1.3592943E+000	-1.3591424E+000	3.9998856E+000	1.237732970798606E+002
-3.439438323194263E+002	-1.3604103E+000	-1.3602499E+000	3.9553270E+000	1.238839970770641E+002
-3.458441684860645E+002	-1.3616930E+000	-1.3615561E+000	3.9373024E+000	1.240146970737624E+002
-3.467519782936611E+002	-1.3628422E+000	-1.3626645E+000	3.9303083E+000	1.241254970709633E+002
-3.478860820231703E+002	-1.3640255E+000	-1.3638719E+000	3.9208970E+000	1.242461970679142E+002
-3.508489305083608E+002	-1.3651749E+000	-1.3650796E+000	3.8910618E+000	1.243669970648625E+002
-3.535978356628116E+002	-1.3665229E+000	-1.3663845E+000	3.8646247E+000	1.244974970615658E+002
-3.541773301373873E+002	-1.3679065E+000	-1.3677913E+000	3.8622079E+000	1.246381970580114E+002
-3.571199223172152E+002	-1.3689493E+000	-1.3687994E+000	3.8333042E+000	1.247389970554650E+002
-3.594444093774209E+002	-1.3701723E+000	-1.3700025E+000	3.8119171E+000	1.248592970524260E+002
-3.656531641464155E+002	-1.3713521E+000	-1.3712083E+000	3.7504177E+000	1.249798970493794E+002
-3.682509572751505E+002	-1.3726010E+000	-1.3724157E+000	3.7273521E+000	1.251005970463302E+002
-3.716894186199333E+002	-1.3739036E+000	-1.3737234E+000	3.6963754E+000	1.252313970430259E+002
-3.754315330041954E+002	-1.3751935E+000	-1.3750291E+000	3.6629674E+000	1.253618970397292E+002
-3.778174093133784E+002	-1.3764101E+000	-1.3762375E+000	3.6430564E+000	1.254827970366750E+002
-3.800481299333940E+002	-1.3775134E+000	-1.3773481E+000	3.6245761E+000	1.255937970338709E+002
-3.819542605613801E+002	-1.3789227E+000	-1.3787531E+000	3.6101775E+000	1.257342970303216E+002
-3.797244124197623E+002	-1.3803028E+000	-1.3801589E+000	3.6350119E+000	1.258748970267698E+002
-3.810637401677377E+002	-1.3814552E+000	-1.3812637E+000	3.6252601E+000	1.259853970239783E+002
-3.860706074445288E+002	-1.3827081E+000	-1.3825716E+000	3.5814900E+000	1.261161970206740E+002
-3.899566473749337E+002	-1.3839345E+000	-1.3837804E+000	3.5489445E+000	1.262370970176198E+002
-3.902273462379944E+002	-1.3852590E+000	-1.3850870E+000	3.5498769E+000	1.263676970143206E+002
-3.917384823009061E+002	-1.3864986E+000	-1.3862948E+000	3.5393474E+000	1.264884970112689E+002
-3.920580018172632E+002	-1.3878592E+000	-1.3877015E+000	3.5399334E+000	1.266291970077145E+002
-3.993755666389161E+002	-1.3892032E+000	-1.3890070E+000	3.4784381E+000	1.267596970044178E+002
-4.070129659026861E+002	-1.3905625E+000	-1.3904130E+000	3.4165068E+000	1.269002970008660E+002
-4.121966787631413E+002	-1.3918701E+000	-1.3917209E+000	3.3767135E+000	1.270310969975617E+002
-4.139538536101804E+002	-1.3930320E+000	-1.3929293E+000	3.3651867E+000	1.271519969945075E+002
-4.122824448915371E+002	-1.3945028E+000	-1.3943363E+000	3.3823967E+000	1.272925969909556E+002
-4.133403190053014E+002	-1.3959081E+000	-1.3957409E+000	3.3771400E+000	1.274330969874063E+002
-4.166722294189085E+002	-1.3972019E+000	-1.3970442E+000	3.3532398E+000	1.275633969841147E+002
-4.166041972098692E+002	-1.3985509E+000	-1.3983473E+000	3.3570254E+000	1.276936969808230E+002
-4.154548249332793E+002	-1.3997693E+000	-1.3995508E+000	3.3692455E+000	1.278140969777814E+002
-4.211065114247886E+002	-1.4009094E+000	-1.4007565E+000	3.3267341E+000	1.279346969747348E+002
-4.252234092772587E+002	-1.4019412E+000	-1.4017634E+000	3.2969520E+000	1.280353969721909E+002
-4.245968555952254E+002	-1.4032183E+000	-1.4030707E+000	3.3048248E+000	1.281660969688892E+002
-4.282930707102032E+002	-1.4046475E+000	-1.4044794E+000	3.2796409E+000	1.283069969653297E+002
-4.264178899315539E+002	-1.4061970E+000	-1.4059863E+000	3.2976968E+000	1.284575969615253E+002
-4.239879331890379E+002	-1.4074243E+000	-1.4072934E+000	3.3194914E+000	1.285883969582210E+002
-4.298230122374052E+002	-1.4087762E+000	-1.4086004E+000	3.2775726E+000	1.287190969549192E+002
-4.309744882375982E+002	-1.4100447E+000	-1.4098101E+000	3.2717590E+000	1.288399969518650E+002
-4.395601965010164E+002	-1.4113888E+000	-1.4112177E+000	3.2109113E+000	1.289807969483081E+002
-4.380438544156363E+002	-1.4126185E+000	-1.4124259E+000	3.2248335E+000	1.291015969452565E+002
-4.367900111751212E+002	-1.4138657E+000	-1.4136325E+000	3.2369461E+000	1.292222969422073E+002
-4.464866674984848E+002	-1.4150531E+000	-1.4148377E+000	3.1693065E+000	1.293427969391632E+002
-4.528475296659376E+002	-1.4164236E+000	-1.4162441E+000	3.1278155E+000	1.294833969356114E+002
-4.512882486545595E+002	-1.4179170E+000	-1.4177492E+000	3.1419320E+000	1.296339969318069E+002
-4.509832831668468E+002	-1.4189253E+000	-1.4187601E+000	3.1462924E+000	1.297350969292529E+002
-4.508146323543388E+002	-1.4197788E+000	-1.4195725E+000	3.1493628E+000	1.298162969272016E+002
-4.482678010297013E+002	-1.4208899E+000	-1.4206804E+000	3.1697345E+000	1.299270969244026E+002
-4.495169987817968E+002	-1.4222468E+000	-1.4220865E+000	3.1639445E+000	1.300676969208507E+002
-4.478137357457827E+002	-1.4237745E+000	-1.4235938E+000	3.1793900E+000	1.302183969170437E+002
-4.564688084989648E+002	-1.4252001E+000	-1.4250013E+000	3.1222289E+000	1.303590969134893E+002
-4.690661478799475E+002	-1.4271053E+000	-1.4269027E+000	3.0424395E+000	1.305491969086870E+002
-4.705523547261191E+002	-1.4291103E+000	-1.4289027E+000	3.0370910E+000	1.307491969036346E+002
-4.715517428564617E+002	-1.4310944E+000	-1.4309027E+000	3.0348618E+000	1.309491968985822E+002
-4.718507214500769E+002	-1.4330759E+000	-1.4329027E+000	3.0371382E+000	1.311491968935297E+002
-4.750357254876035E+002	-1.4350667E+000	-1.4349027E+000	3.0209658E+000	1.313491968884773E+002
-4.805725220660752E+002	-1.4371068E+000	-1.4369028E+000	2.9904058E+000	1.315491968834249E+002
-4.861079560969674E+002	-1.4391109E+000	-1.4389027E+000	2.9604759E+000	1.317491968783725E+002
-4.936118511796803E+002	-1.4411252E+000	-1.4409027E+000	2.9195514E+000	1.319491968733200E+002
-5.018885745396688E+002	-1.4431460E+000	-1.4429028E+000	2.8754311E+000	1.321491968682676E+002
-5.208123106188764E+002	-1.4451582E+000	-1.4449027E+000	2.7748158E+000	1.323491968632152E+002
-5.100454943693671E+002	-1.4471365E+000	-1.4469028E+000	2.8372695E+000	1.325491968581628E+002
-5.168226289684269E+002	-1.4491793E+000	-1.4489027E+000	2.8040168E+000	1.327491968531103E+002
-5.196022950905528E+002	-1.4512101E+000	-1.4509027E+000	2.7929249E+000	1.329491968480579E+002
-5.212885316775228E+002	-1.4531536E+000	-1.4529028E+000	2.7876186E+000	1.331491968430055E+002
-5.330681093436515E+002	-1.4551980E+000	-1.4549026E+000	2.7298539E+000	1.333491968379531E+002
-5.249024054079631E+002	-1.4571215E+000	-1.4569027E+000	2.7759855E+000	1.335491968329006E+002
-5.217921121515110E+002	-1.4591396E+000	-1.4589028E+000	2.7964003E+000	1.337491968278482E+002
-5.173477202305171E+002	-1.4611224E+000	-1.4609027E+000	2.8242559E+000	1.339491968227958E+002
-5.286940899673784E+002	-1.4631612E+000	-1.4629028E+000	2.7675006E+000	1.341491968177434E+002
-5.298016812979768E+002	-1.4651546E+000	-1.4649026E+000	2.7654774E+000	1.343491968126909E+002
-5.325295615466530E+002	-1.4671540E+000	-1.4669027E+000	2.7550659E+000	1.345491968076385E+002
-5.361623528711924E+002	-1.4691437E+000	-1.4689028E+000	2.7401099E+000	1.347491968025861E+002
-5.424631500590131E+002	-1.4711584E+000	-1.4709027E+000	2.7119968E+000	1.349491967975337E+002
-5.451192606884847E+002	-1.4731526E+000	-1.4729028E+000	2.7024410E+000	1.351491967924812E+002
-5.465954750865476E+002	-1.4750975E+000	-1.4749026E+000	2.6987007E+000	1.353491967874288E+002
-5.491866400020172E+002	-1.4771129E+000	-1.4769027E+000	2.6896374E+000	1.355491967823764E+002
-5.526322531105443E+002	-1.4791416E+000	-1.4789026E+000	2.6765387E+000	1.357491967773240E+002
-5.562053914059316E+002	-1.4811308E+000	-1.4809027E+000	2.6629207E+000	1.359491967722715E+002
-5.441129842182954E+002	-1.4831226E+000	-1.4829026E+000	2.7257621E+000	1.361491967672191E+002
-5.506239145932022E+002	-1.4852113E+000	-1.4849026E+000	2.6973243E+000	1.363491967621667E+002
-5.740650603235983E+002	-1.4875553E+000	-1.4869027E+000	2.5912659E+000	1.365491967571143E+002
-5.636534391606469E+002	-1.4896919E+000	-1.4889028E+000	2.6429217E+000	1.367491967520618E+002
-5.687094606758510E+002	-1.4916439E+000	-1.4909027E+000	2.6228576E+000	1.369491967470094E+002
-5.776181552653416E+002	-1.4936000E+000	-1.4929026E+000	2.5857913E+000	1.371491967419570E+002
-5.936877543001783E+002	-1.4952986E+000	-1.4945027E+000	2.5186617E+000	1.373091967379150E+002
-5.917873499253217E+002	-1.4959430E+000	-1.4952024E+000	2.5278387E+000	1.373659967364802E+002