EC-Lab ASCII FILE
Nb header lines : 61                          

Linear Sweep Voltammetry

Run on channel : 1 (SN 1340)
User : 
Electrode connection : standard
Potential control : Ewe
Ewe ctrl range : min = -5.00 V, max = 5.00 V
Ewe,I filtering : <None>
Channel : Grounded
Acquisition started on : 03/11/2026 19:05:07.049
Technique started on : 03/11/2026 19:05:09.869
Loaded Setting File :  NONE
Saved on :
	File : X225_N52magA_up_3_11_02_LSV_C01.mpr
	Directory : C:\Users\volt\Documents\Platalytix\
	Host : 172.28.65.128
Device : SP-200 (SN 0262)
Address : USB
EC-LAB for windows v11.60 (software)
Internet server v11.60 (firmware)
Command interpretor v11.60 (firmware)
Electrode material : Pt22.5Pd22.5Ni22.5Co22.5Cr10
Initial state : 
Electrolyte : KOH (1M)
Comments : With magnet side A (+), up position
Cable : standard
Reference electrode : Hg/HgO (0.140 V)
Electrode surface area : 1.000 cm˛
Characteristic mass : 0.001 g
Equivalent Weight : 0.000 g/eq.
Density : 0.000 g/cm3
Volume (V) : 0.001 cmł
Cycle Definition : Charge/Discharge alternance
tR (h:m:s)          0:00:5.0000         
dER/dt (mV/h)       0.0                 
dER (mV)            0                   
dtR (s)             0.0000              
dE/dt               10.000              
dE/dt unit          mV/s                
Ei (V)              -0.200              
vs.                 Ref                 
EL (V)              -2.500              
vs.                 Ref                 
record              <I>                 
dI                  0.000               
unit dI             µA                  
tI (s)              0.0000              
step percent        50                  
N                   10                  
E range min (V)     -5.000              
E range max (V)     5.000               
I Range             Auto                
I Range min         Unset               
I Range max         Unset               
I Range init        Unset               
Bandwidth           8                   

<I>/mA	Ewe/V	control/V	Rwe/Ohm	time/s	
0.000000000000000E+000	-1.5414569E-001	0.0000000E+000	0.0000000E+000	2.820400133932708E+000
0.000000000000000E+000	-3.1846900E-002	-1.9999985E-001	0.0000000E+000	7.820200007627136E+000
-5.326226935372702E-002	-2.0168775E-001	-2.0189963E-001	3.7866909E+003	8.020200002574711E+000
-1.524049186499368E-001	-2.0292084E-001	-2.0309968E-001	1.3314586E+003	8.140199999543256E+000
-1.430807216758172E-001	-2.0500249E-001	-2.0519970E-001	1.4327750E+003	8.350199994238210E+000
-1.303150457585573E-001	-2.0703268E-001	-2.0719963E-001	1.5887090E+003	8.550199989185785E+000
-1.208847641644999E-001	-2.0900658E-001	-2.0919953E-001	1.7289738E+003	8.750199984133360E+000
-1.137658475239309E-001	-2.1107468E-001	-2.1119942E-001	1.8553431E+003	8.950199979080935E+000
-1.083050154914024E-001	-2.1299253E-001	-2.1319933E-001	1.9665990E+003	9.150199974028510E+000
-1.037372100682266E-001	-2.1503115E-001	-2.1519922E-001	2.0728450E+003	9.350199968976085E+000
-9.998236240422109E-002	-2.1704704E-001	-2.1719913E-001	2.1708533E+003	9.550199963923660E+000
-9.675086804722621E-002	-2.1905148E-001	-2.1919902E-001	2.2640776E+003	9.750199958871235E+000
-9.403086188376042E-002	-2.2102498E-001	-2.2119890E-001	2.3505579E+003	9.950199953818810E+000
-9.157977054579813E-002	-2.2301792E-001	-2.2319880E-001	2.4352312E+003	1.015019994876639E+001
-8.946552484765080E-002	-2.2505502E-001	-2.2519869E-001	2.5155503E+003	1.035019994371396E+001
-8.748748649731164E-002	-2.2703552E-001	-2.2719859E-001	2.5950627E+003	1.055019993866154E+001
-8.574079141092583E-002	-2.2905672E-001	-2.2919850E-001	2.6715022E+003	1.075019993360911E+001
-8.415385560119892E-002	-2.3102511E-001	-2.3119839E-001	2.7452708E+003	1.095019992855669E+001
-8.270780914705977E-002	-2.3306583E-001	-2.3319830E-001	2.8179421E+003	1.115019992350426E+001
-8.133454423803221E-002	-2.3502314E-001	-2.3519817E-001	2.8895857E+003	1.135019991845184E+001
-8.013236348183561E-002	-2.3700213E-001	-2.3719807E-001	2.9576331E+003	1.155019991339941E+001
-7.894644708649290E-002	-2.3903035E-001	-2.3919795E-001	3.0277532E+003	1.175019990834699E+001
-7.779049129317211E-002	-2.4105011E-001	-2.4119830E-001	3.0987092E+003	1.195009990329709E+001
-7.675678244382209E-002	-2.4304816E-001	-2.4319775E-001	3.1664714E+003	1.214999989824719E+001
-7.586548314165797E-002	-2.4501017E-001	-2.4519765E-001	3.2295342E+003	1.234999989319476E+001
-7.496633285565746E-002	-2.4705110E-001	-2.4719758E-001	3.2954941E+003	1.254999988814234E+001
-7.408718758868796E-002	-2.4902011E-001	-2.4919744E-001	3.3611765E+003	1.274999988308991E+001
-7.325830369345110E-002	-2.5104302E-001	-2.5119737E-001	3.4268201E+003	1.294999987803749E+001
-7.252107023962640E-002	-2.5300461E-001	-2.5319725E-001	3.4887048E+003	1.314999987298506E+001
-7.181168876666444E-002	-2.5499803E-001	-2.5519714E-001	3.5509265E+003	1.334999986793264E+001
-7.102814337867983E-002	-2.5706103E-001	-2.5719705E-001	3.6191433E+003	1.354999986288021E+001
-7.031224097458888E-002	-2.5898126E-001	-2.5919694E-001	3.6833025E+003	1.374999985782779E+001
-6.970059137966665E-002	-2.6102006E-001	-2.6119685E-001	3.7448760E+003	1.394999985277536E+001
-6.908829259589000E-002	-2.6301813E-001	-2.6319674E-001	3.8069856E+003	1.414999984772294E+001
-6.857300563261355E-002	-2.6495957E-001	-2.6519662E-001	3.8639050E+003	1.434999984267051E+001
-6.793602739773297E-002	-2.6698458E-001	-2.6719654E-001	3.9299409E+003	1.454999983761809E+001
-6.733268532319089E-002	-2.6904505E-001	-2.6919642E-001	3.9957571E+003	1.474999983256566E+001
-6.685112674969784E-002	-2.7106985E-001	-2.7119631E-001	4.0548286E+003	1.494999982751324E+001
-6.633988220683928E-002	-2.7306494E-001	-2.7319622E-001	4.1161504E+003	1.514999982246081E+001
-6.576156791282695E-002	-2.7504355E-001	-2.7519614E-001	4.1824360E+003	1.534999981740839E+001
-6.536415177809229E-002	-2.7704394E-001	-2.7719602E-001	4.2384692E+003	1.554999981235596E+001
-6.490620232030780E-002	-2.7901718E-001	-2.7919659E-001	4.2987754E+003	1.574989980730606E+001
-6.436896347335172E-002	-2.8102499E-001	-2.8119582E-001	4.3658462E+003	1.594979980225617E+001
-6.399340415003896E-002	-2.8308740E-001	-2.8319567E-001	4.4236968E+003	1.614979979720374E+001
-6.353075889492504E-002	-2.8501186E-001	-2.8519562E-001	4.4862026E+003	1.634979979215132E+001
-6.315905418534140E-002	-2.8701478E-001	-2.8719550E-001	4.5443174E+003	1.654979978709889E+001
-6.275498001971391E-002	-2.8905362E-001	-2.8919539E-001	4.6060664E+003	1.674979978204647E+001
-6.240359138087070E-002	-2.9099461E-001	-2.9119527E-001	4.6631069E+003	1.694979977699404E+001
-6.200388873887169E-002	-2.9300565E-001	-2.9319516E-001	4.7256011E+003	1.714979977194162E+001
-6.159884655054093E-002	-2.9507521E-001	-2.9519507E-001	4.7902715E+003	1.734979976688919E+001
-6.127017300128240E-002	-2.9698312E-001	-2.9719496E-001	4.8471074E+003	1.754979976183677E+001
-6.092010574708873E-002	-2.9904145E-001	-2.9919484E-001	4.9087480E+003	1.774979975678434E+001
-6.058357447985574E-002	-3.0101153E-001	-3.0119476E-001	4.9685337E+003	1.794979975173192E+001
-6.026199978803726E-002	-3.0302405E-001	-3.0319464E-001	5.0284434E+003	1.814979974667949E+001
-5.996367558910864E-002	-3.0502614E-001	-3.0519456E-001	5.0868486E+003	1.834979974162707E+001
-5.960752537564862E-002	-3.0702358E-001	-3.0719444E-001	5.1507520E+003	1.854979973657464E+001
-5.936479189986447E-002	-3.0908063E-001	-3.0919436E-001	5.2064639E+003	1.874979973152222E+001
-5.901665249871121E-002	-3.1105050E-001	-3.1119421E-001	5.2705547E+003	1.894979972646979E+001
-5.875073334037456E-002	-3.1302121E-001	-3.1319416E-001	5.3279541E+003	1.914979972141737E+001
-5.848339585642283E-002	-3.1502968E-001	-3.1519404E-001	5.3866519E+003	1.934979971636494E+001
-5.818775658116985E-002	-3.1701267E-001	-3.1719416E-001	5.4480991E+003	1.954969971131504E+001
-5.799262451806264E-002	-3.1904173E-001	-3.1919384E-001	5.5014189E+003	1.974959970626514E+001
-5.770329781807954E-002	-3.2102245E-001	-3.2119372E-001	5.5633296E+003	1.994959970121272E+001
-5.747140166845999E-002	-3.2303536E-001	-3.2319361E-001	5.6208018E+003	2.014959969616029E+001
-5.717135199594850E-002	-3.2506910E-001	-3.2519352E-001	5.6858740E+003	2.034959969110787E+001
-5.699439826706576E-002	-3.2709116E-001	-3.2719341E-001	5.7390054E+003	2.054959968605544E+001
-5.675583357327188E-002	-3.2901812E-001	-3.2919329E-001	5.7970801E+003	2.074959968100302E+001
-5.652462074041054E-002	-3.3105251E-001	-3.3119321E-001	5.8567842E+003	2.094959967595059E+001
-5.630181524258482E-002	-3.3296463E-001	-3.3319309E-001	5.9139233E+003	2.114959967089817E+001
-5.605983494753497E-002	-3.3508325E-001	-3.3519298E-001	5.9772427E+003	2.134959966584574E+001
-5.585068718492225E-002	-3.3706114E-001	-3.3719289E-001	6.0350400E+003	2.154959966079332E+001
-5.571536107047925E-002	-3.3900914E-001	-3.3919275E-001	6.0846621E+003	2.174959965574089E+001
-5.555261192893979E-002	-3.4104496E-001	-3.4119269E-001	6.1391348E+003	2.194959965068847E+001
-5.534718996663579E-002	-3.4298685E-001	-3.4319258E-001	6.1970059E+003	2.214959964563604E+001
-5.512400392216982E-002	-3.4508085E-001	-3.4519246E-001	6.2600830E+003	2.234959964058362E+001
-5.497904565415512E-002	-3.4703523E-001	-3.4719238E-001	6.3121362E+003	2.254959963553119E+001
-5.478818888476100E-002	-3.4905323E-001	-3.4919226E-001	6.3709575E+003	2.274959963047877E+001
-5.465614166144528E-002	-3.5104346E-001	-3.5119218E-001	6.4227632E+003	2.294959962542634E+001
-5.445924959812831E-002	-3.5305384E-001	-3.5319206E-001	6.4828994E+003	2.314959962037392E+001
-5.430182433237717E-002	-3.5505018E-001	-3.5519177E-001	6.5384575E+003	2.334949961532402E+001
-5.417873428357339E-002	-3.5706866E-001	-3.5719189E-001	6.5905684E+003	2.354939961027412E+001
-5.400964420641485E-002	-3.5905507E-001	-3.5919175E-001	6.6479805E+003	2.374939960522170E+001
-5.384573362801476E-002	-3.6103514E-001	-3.6119163E-001	6.7049907E+003	2.394939960016927E+001
-5.376304508569130E-002	-3.6308584E-001	-3.6319155E-001	6.7534463E+003	2.414939959511685E+001
-5.358285962312581E-002	-3.6498013E-001	-3.6519143E-001	6.8115088E+003	2.434939959006442E+001
-5.355791930191645E-002	-3.6703375E-001	-3.6719131E-001	6.8530249E+003	2.454939958501200E+001
-5.335248146594740E-002	-3.6906773E-001	-3.6919123E-001	6.9175361E+003	2.474939957995957E+001
-5.324444431513808E-002	-3.7105355E-001	-3.7119111E-001	6.9688687E+003	2.494939957490715E+001
-5.308796894153722E-002	-3.7305227E-001	-3.7319100E-001	7.0270586E+003	2.514939956985472E+001
-5.303774224837088E-002	-3.7503630E-001	-3.7519091E-001	7.0711211E+003	2.534939956480230E+001
-5.290101112506404E-002	-3.7699831E-001	-3.7719080E-001	7.1264858E+003	2.554939955974987E+001
-5.280822393317575E-002	-3.7902758E-001	-3.7919071E-001	7.1774346E+003	2.574939955469745E+001
-5.267965961131527E-002	-3.8104111E-001	-3.8119060E-001	7.2331733E+003	2.594939954964502E+001
-5.267321148754256E-002	-3.8301927E-001	-3.8319051E-001	7.2716143E+003	2.614939954459260E+001
-5.249974636050547E-002	-3.8500589E-001	-3.8519043E-001	7.3334810E+003	2.634939953954017E+001
-5.247072637072692E-002	-3.8703391E-001	-3.8719028E-001	7.3761875E+003	2.654939953448775E+001
-5.234408196296281E-002	-3.8905451E-001	-3.8919017E-001	7.4326357E+003	2.674939952943532E+001
-5.223357632266284E-002	-3.9096346E-001	-3.9119008E-001	7.4849072E+003	2.694939952438290E+001
-5.220481880174188E-002	-3.9305004E-001	-3.9318931E-001	7.5289995E+003	2.714929951933300E+001
-5.207778793409079E-002	-3.9499629E-001	-3.9518988E-001	7.5847363E+003	2.734919951428310E+001
-5.198950813175118E-002	-3.9702073E-001	-3.9718980E-001	7.6365547E+003	2.754919950923068E+001
-5.197300596105681E-002	-3.9907730E-001	-3.9918968E-001	7.6785493E+003	2.774919950417825E+001
-5.190138954272205E-002	-4.0100896E-001	-4.0118960E-001	7.7263628E+003	2.794919949912583E+001
-5.180854320340272E-002	-4.0302873E-001	-4.0318945E-001	7.7791943E+003	2.814919949407340E+001
-5.178682788596178E-002	-4.0503997E-001	-4.0518934E-001	7.8212935E+003	2.834919948902098E+001
-5.171043572993828E-002	-4.0702569E-001	-4.0718928E-001	7.8712485E+003	2.854919948396855E+001
-5.170937496038941E-002	-4.0907541E-001	-4.0918913E-001	7.9110493E+003	2.874919947891613E+001
-5.163988696364807E-002	-4.1102207E-001	-4.1118905E-001	7.9593911E+003	2.894919947386370E+001
-5.157672435725247E-002	-4.1306809E-001	-4.1318896E-001	8.0088081E+003	2.914919946881128E+001
-5.150205547215969E-002	-4.1507259E-001	-4.1518885E-001	8.0593403E+003	2.934919946375885E+001
-5.150456951567861E-002	-4.1706806E-001	-4.1718876E-001	8.0976904E+003	2.954919945870643E+001
-5.144449470083234E-002	-4.1908249E-001	-4.1918862E-001	8.1463042E+003	2.974919945365400E+001
-5.143235881375696E-002	-4.2109692E-001	-4.2118856E-001	8.1873926E+003	2.994919944860158E+001
-5.135725313837747E-002	-4.2309308E-001	-4.2318842E-001	8.2382344E+003	3.014919944354915E+001
-5.135395338541299E-002	-4.2507631E-001	-4.2518833E-001	8.2773818E+003	3.034919943849673E+001
-5.131970919444806E-002	-4.2705104E-001	-4.2718822E-001	8.3213848E+003	3.054919943344430E+001
-5.126041812080950E-002	-4.2907694E-001	-4.2918813E-001	8.3705313E+003	3.074919942839188E+001
-5.124891050426028E-002	-4.3114311E-001	-4.3118802E-001	8.4127275E+003	3.094919942333945E+001
-5.120431731458674E-002	-4.3309769E-001	-4.3318856E-001	8.4582256E+003	3.114909941828955E+001
-5.118863329834097E-002	-4.3506521E-001	-4.3518782E-001	8.4992539E+003	3.134899941323965E+001
-5.121865588590896E-002	-4.3711486E-001	-4.3718764E-001	8.5342900E+003	3.154899940818723E+001
-5.117656538778248E-002	-4.3906793E-001	-4.3918759E-001	8.5794727E+003	3.174899940313480E+001
-5.110695417611422E-002	-4.4111142E-001	-4.4118744E-001	8.6311426E+003	3.194899939808238E+001
-5.109136122492186E-002	-4.4308639E-001	-4.4318739E-001	8.6724326E+003	3.214899939302995E+001
-5.108920327924138E-002	-4.4509146E-001	-4.4518724E-001	8.7120449E+003	3.234899938797753E+001
-5.110798209489587E-002	-4.4705814E-001	-4.4718719E-001	8.7473252E+003	3.254899938292510E+001
-5.109856032941673E-002	-4.4912323E-001	-4.4918704E-001	8.7893516E+003	3.274899937787268E+001
-5.107611737028195E-002	-4.5109829E-001	-4.5118695E-001	8.8318828E+003	3.294899937282025E+001
-5.105210095644005E-002	-4.5307043E-001	-4.5318690E-001	8.8746680E+003	3.314899936776783E+001
-5.103264465271290E-002	-4.5504770E-001	-4.5518675E-001	8.9167959E+003	3.334899936271540E+001
-5.103802530869983E-002	-4.5709965E-001	-4.5718670E-001	8.9560605E+003	3.354899935766298E+001
-5.103166789595727E-002	-4.5909178E-001	-4.5918655E-001	8.9962139E+003	3.374899935261055E+001
-5.098410078499649E-002	-4.6105638E-001	-4.6118647E-001	9.0431406E+003	3.394899934755813E+001
-5.100929936343424E-002	-4.6309265E-001	-4.6318635E-001	9.0785928E+003	3.414899934250570E+001
-5.102894272625669E-002	-4.6503386E-001	-4.6518624E-001	9.1131396E+003	3.434899933745328E+001
-5.097063001331859E-002	-4.6708605E-001	-4.6718618E-001	9.1638271E+003	3.454899933240085E+001
-5.096143310310985E-002	-4.6904293E-001	-4.6918598E-001	9.2038799E+003	3.474899932734843E+001
-5.101492037493494E-002	-4.7106305E-001	-4.7118619E-001	9.2338291E+003	3.494889932229853E+001
-5.104527290479666E-002	-4.7305331E-001	-4.7318578E-001	9.2673281E+003	3.514879931724863E+001
-5.100759722096027E-002	-4.7506690E-001	-4.7518572E-001	9.3136494E+003	3.534879931219621E+001
-5.102855219957680E-002	-4.7701681E-001	-4.7718561E-001	9.3480371E+003	3.554879930714378E+001
-5.100339885363903E-002	-4.7910801E-001	-4.7918549E-001	9.3936484E+003	3.574879930209136E+001
-5.100486755673089E-002	-4.8106134E-001	-4.8118544E-001	9.4316748E+003	3.594879929703893E+001
-5.107077804041393E-002	-4.8304087E-001	-4.8318529E-001	9.4582637E+003	3.614879929198651E+001
-5.103479581937864E-002	-4.8506764E-001	-4.8518524E-001	9.5046455E+003	3.634879928693408E+001
-5.102789503006910E-002	-4.8704094E-001	-4.8718509E-001	9.5446016E+003	3.654879928188166E+001
-5.103191989896372E-002	-4.8908371E-001	-4.8918501E-001	9.5838779E+003	3.674879927682923E+001
-5.101525899848536E-002	-4.9107504E-001	-4.9118489E-001	9.6260420E+003	3.694879927177681E+001
-5.099475178276247E-002	-4.9302238E-001	-4.9318478E-001	9.6681006E+003	3.714879926672438E+001
-5.101870673512199E-002	-4.9506658E-001	-4.9518472E-001	9.7036289E+003	3.734879926167196E+001
-5.103669172604830E-002	-4.9713162E-001	-4.9718451E-001	9.7406709E+003	3.754879925661953E+001
-5.100011801486506E-002	-4.9907941E-001	-4.9918452E-001	9.7858477E+003	3.774879925156711E+001
-5.100384597770036E-002	-5.0104469E-001	-5.0118440E-001	9.8236650E+003	3.794879924651468E+001
-5.102130875536304E-002	-5.0307035E-001	-5.0318432E-001	9.8600049E+003	3.814879924146226E+001
-5.103046285113078E-002	-5.0506037E-001	-5.0518417E-001	9.8972324E+003	3.834879923640983E+001
-5.101068055282543E-002	-5.0709242E-001	-5.0718409E-001	9.9409063E+003	3.854879923135741E+001
-5.104751364204652E-002	-5.0905448E-001	-5.0918424E-001	9.9721699E+003	3.874869922630751E+001
-5.106331227091676E-002	-5.1107460E-001	-5.1118386E-001	1.0008646E+004	3.894859922125761E+001
-5.103850964712342E-002	-5.1306498E-001	-5.1318377E-001	1.0052507E+004	3.914859921620518E+001
-5.097675479868258E-002	-5.1506162E-001	-5.1518363E-001	1.0103853E+004	3.934859921115276E+001
-5.095360290983497E-002	-5.1706052E-001	-5.1718360E-001	1.0147674E+004	3.954859920610033E+001
-5.098129221493741E-002	-5.1903206E-001	-5.1918346E-001	1.0180834E+004	3.974859920104791E+001
-5.099749415078081E-002	-5.2105963E-001	-5.2118337E-001	1.0217357E+004	3.994859919599548E+001
-5.095597200439861E-002	-5.2304375E-001	-5.2318329E-001	1.0264621E+004	4.014859919094306E+001
-5.097514720392884E-002	-5.2505898E-001	-5.2518314E-001	1.0300294E+004	4.034859918589063E+001
-5.097612753444994E-002	-5.2704978E-001	-5.2718306E-001	1.0339149E+004	4.054859918083821E+001
-5.090713443904027E-002	-5.2901441E-001	-5.2918291E-001	1.0391754E+004	4.074859917578578E+001
-5.093168989172336E-002	-5.3109974E-001	-5.3118289E-001	1.0427688E+004	4.094859917073336E+001
-5.091773581220127E-002	-5.3304935E-001	-5.3318274E-001	1.0468834E+004	4.114859916568093E+001
-5.088089589059119E-002	-5.3506845E-001	-5.3518265E-001	1.0516098E+004	4.134859916062851E+001
-5.085107189330729E-002	-5.3704572E-001	-5.3718251E-001	1.0561148E+004	4.154859915557608E+001
-5.091240207554842E-002	-5.3900009E-001	-5.3918242E-001	1.0586813E+004	4.174859915052366E+001
-5.088660419948149E-002	-5.4105747E-001	-5.4118234E-001	1.0632611E+004	4.194859914547123E+001
-5.080851038829204E-002	-5.4309392E-001	-5.4318219E-001	1.0689034E+004	4.214859914041881E+001
-5.079641004933511E-002	-5.4510319E-001	-5.4518211E-001	1.0731136E+004	4.234859913536638E+001
-5.081631628285943E-002	-5.4704213E-001	-5.4718202E-001	1.0765088E+004	4.254849913031649E+001
-5.074050528675234E-002	-5.4906839E-001	-5.4918194E-001	1.0821106E+004	4.274839912526659E+001
-5.070666457914985E-002	-5.5104673E-001	-5.5118185E-001	1.0867343E+004	4.294839912021416E+001
-5.069032089484860E-002	-5.5303890E-001	-5.5318171E-001	1.0910147E+004	4.314839911516174E+001
-5.069557425054949E-002	-5.5507255E-001	-5.5518162E-001	1.0949132E+004	4.334839911010931E+001
-5.064431124244334E-002	-5.5704921E-001	-5.5718148E-001	1.0999245E+004	4.354839910505689E+001
-5.064959642202815E-002	-5.5907023E-001	-5.5918139E-001	1.1038000E+004	4.374839910000446E+001
-5.056815503097550E-002	-5.6107718E-001	-5.6118125E-001	1.1095465E+004	4.394839909495204E+001
-5.053195282510670E-002	-5.6308401E-001	-5.6318116E-001	1.1143128E+004	4.414839908989961E+001
-5.051681754134944E-002	-5.6507057E-001	-5.6518108E-001	1.1185791E+004	4.434839908484719E+001
-5.046585956567259E-002	-5.6701183E-001	-5.6718093E-001	1.1235553E+004	4.454839907979476E+001
-5.046900974316326E-002	-5.6905270E-001	-5.6918091E-001	1.1275289E+004	4.474839907474234E+001
-5.041373600547605E-002	-5.7100987E-001	-5.7118070E-001	1.1326474E+004	4.494839906968991E+001
-5.040253657380914E-002	-5.7306546E-001	-5.7318068E-001	1.1369774E+004	4.514839906463749E+001
-5.036432823259174E-002	-5.7502007E-001	-5.7518053E-001	1.1417209E+004	4.534839905958506E+001
-5.029225516103430E-002	-5.7706898E-001	-5.7718050E-001	1.1474312E+004	4.554839905453264E+001
-5.025795999335769E-002	-5.7905328E-001	-5.7918036E-001	1.1521623E+004	4.574839904948021E+001
-5.025229076992188E-002	-5.8107674E-001	-5.8118021E-001	1.1563189E+004	4.594839904442779E+001
-5.019207893186550E-002	-5.8306819E-001	-5.8318019E-001	1.1616737E+004	4.614839903937536E+001
-5.011928705419333E-002	-5.8502090E-001	-5.8517957E-001	1.1672570E+004	4.634829903432546E+001
-5.013466458883808E-002	-5.8703971E-001	-5.8717996E-001	1.1709258E+004	4.654819902927557E+001
-5.006584191912378E-002	-5.8900875E-001	-5.8917981E-001	1.1764683E+004	4.674819902422314E+001
-4.999428039021769E-002	-5.9105176E-001	-5.9117973E-001	1.1822388E+004	4.694819901917072E+001
-4.995599035553791E-002	-5.9305364E-001	-5.9317958E-001	1.1871522E+004	4.714819901411829E+001
-4.996698590781101E-002	-5.9502858E-001	-5.9517950E-001	1.1908435E+004	4.734819900906587E+001
-4.990285879757095E-002	-5.9703177E-001	-5.9717941E-001	1.1963879E+004	4.754819900401344E+001
-4.979528148411488E-002	-5.9904724E-001	-5.9917927E-001	1.2030201E+004	4.774819899896102E+001
-4.977490926000905E-002	-6.0107028E-001	-6.0117924E-001	1.2075769E+004	4.794819899390859E+001
-4.980344870687381E-002	-6.0305852E-001	-6.0317910E-001	1.2108771E+004	4.814819898885617E+001
-4.975921164167540E-002	-6.0504740E-001	-6.0517901E-001	1.2159506E+004	4.834819898380374E+001
-4.966974077807529E-002	-6.0710579E-001	-6.0717893E-001	1.2222850E+004	4.854819897875132E+001
-4.965571187755458E-002	-6.0905123E-001	-6.0917878E-001	1.2265481E+004	4.874819897369889E+001
-4.961635654764729E-002	-6.1108094E-001	-6.1117870E-001	1.2316119E+004	4.894819896864647E+001
-4.955563279419989E-002	-6.1308831E-001	-6.1317855E-001	1.2371718E+004	4.914819896359404E+001
-4.950102256630018E-002	-6.1506981E-001	-6.1517847E-001	1.2425396E+004	4.934819895854162E+001
-4.948505530843439E-002	-6.1705393E-001	-6.1717832E-001	1.2469501E+004	4.954819895348919E+001
-4.944939797114856E-002	-6.1909932E-001	-6.1917824E-001	1.2519855E+004	4.974819894843677E+001
-4.943336717744296E-002	-6.2107915E-001	-6.2117821E-001	1.2563966E+004	4.994819894338434E+001
-4.935746094117643E-002	-6.2306452E-001	-6.2317830E-001	1.2623513E+004	5.014819893833192E+001
-4.933919619490079E-002	-6.2504750E-001	-6.2517798E-001	1.2668376E+004	5.034799893328454E+001
-4.928867676603688E-002	-6.2708867E-001	-6.2717783E-001	1.2722773E+004	5.054799892823212E+001
-4.924074381055599E-002	-6.2908143E-001	-6.2917781E-001	1.2775628E+004	5.074799892317969E+001
-4.920694361390132E-002	-6.3112408E-001	-6.3117760E-001	1.2825915E+004	5.094799891812727E+001
-4.917405246727397E-002	-6.3308245E-001	-6.3317758E-001	1.2874319E+004	5.114799891307484E+001
-4.915747550039529E-002	-6.3505656E-001	-6.3517743E-001	1.2918819E+004	5.134799890802242E+001
-4.909281162840728E-002	-6.3705957E-001	-6.3717735E-001	1.2976637E+004	5.154799890296999E+001
-4.902715772990107E-002	-6.3903809E-001	-6.3917720E-001	1.3034369E+004	5.174799889791757E+001
-4.903432208402725E-002	-6.4110982E-001	-6.4117712E-001	1.3074716E+004	5.194799889286514E+001
-4.900216569072358E-002	-6.4309239E-001	-6.4317703E-001	1.3123755E+004	5.214799888781272E+001
-4.897803444068989E-002	-6.4509255E-001	-6.4517689E-001	1.3171059E+004	5.234799888276029E+001
-4.892905622292021E-002	-6.4702886E-001	-6.4717680E-001	1.3223816E+004	5.254799887770787E+001
-4.891964640149471E-002	-6.4902592E-001	-6.4917666E-001	1.3267184E+004	5.274799887265544E+001
-4.884752729414521E-002	-6.5110230E-001	-6.5117657E-001	1.3329278E+004	5.294799886760302E+001
-4.878737336043659E-002	-6.5307176E-001	-6.5317649E-001	1.3386082E+004	5.314799886255059E+001
-4.877593344955994E-002	-6.5506303E-001	-6.5517640E-001	1.3430046E+004	5.334799885749817E+001
-4.878906453848775E-002	-6.5710312E-001	-6.5717632E-001	1.3468246E+004	5.354799885244574E+001
-4.874033329885941E-002	-6.5908271E-001	-6.5917617E-001	1.3522327E+004	5.374799884739332E+001
-4.866569345186589E-002	-6.6108268E-001	-6.6117615E-001	1.3584162E+004	5.394799884234089E+001
-4.861938016101952E-002	-6.6308469E-001	-6.6317689E-001	1.3638279E+004	5.414789883729100E+001
-4.863379340906082E-002	-6.6504890E-001	-6.6517591E-001	1.3674625E+004	5.434779883224110E+001
-4.862666797724924E-002	-6.6711706E-001	-6.6717577E-001	1.3719160E+004	5.454779882718867E+001
-4.856949888197215E-002	-6.6908264E-001	-6.6917568E-001	1.3775778E+004	5.474779882213625E+001
-4.849954363847769E-002	-6.7105550E-001	-6.7117560E-001	1.3836326E+004	5.494779881708382E+001
-4.852890042385372E-002	-6.7308480E-001	-6.7317539E-001	1.3869772E+004	5.514779881203140E+001
-4.849792475407733E-002	-6.7505264E-001	-6.7517543E-001	1.3919207E+004	5.534779880697897E+001
-4.849619182146669E-002	-6.7706555E-001	-6.7717528E-001	1.3961211E+004	5.554779880192655E+001
-4.846424903760749E-002	-6.7903525E-001	-6.7917514E-001	1.4011055E+004	5.574779879687412E+001
-4.842426481998818E-002	-6.8105733E-001	-6.8117505E-001	1.4064382E+004	5.594779879182170E+001
-4.841297178802695E-002	-6.8308848E-001	-6.8317491E-001	1.4109617E+004	5.614779878676927E+001
-4.839415768981864E-002	-6.8504161E-001	-6.8517482E-001	1.4155461E+004	5.634779878171685E+001
-4.837530190885370E-002	-6.8700612E-001	-6.8717468E-001	1.4201588E+004	5.654779877666442E+001
-4.832026922400590E-002	-6.8908060E-001	-6.8917465E-001	1.4260694E+004	5.674779877161200E+001
-4.826882522967124E-002	-6.9105476E-001	-6.9117451E-001	1.4316793E+004	5.694779876655957E+001
-4.827037577748583E-002	-6.9305605E-001	-6.9317436E-001	1.4357793E+004	5.714779876150715E+001
-4.825722464426807E-002	-6.9504511E-001	-6.9517434E-001	1.4402924E+004	5.734779875645472E+001
-4.827416140655794E-002	-6.9702083E-001	-6.9717425E-001	1.4438797E+004	5.754779875140230E+001
-4.826840342422650E-002	-6.9901693E-001	-6.9917417E-001	1.4481874E+004	5.774779874634987E+001
-4.819677781020860E-002	-7.0107192E-001	-7.0117444E-001	1.4546033E+004	5.794769874129997E+001
-4.817153073033176E-002	-7.0306534E-001	-7.0317394E-001	1.4595038E+004	5.814759873625007E+001
-4.819797904255996E-002	-7.0504022E-001	-7.0517385E-001	1.4628004E+004	5.834759873119765E+001
-4.813134020522802E-002	-7.0705968E-001	-7.0717365E-001	1.4690214E+004	5.854759872614522E+001
-4.817022847026470E-002	-7.0905715E-001	-7.0917362E-001	1.4719821E+004	5.874759872109280E+001
-4.809254268633056E-002	-7.1106011E-001	-7.1117347E-001	1.4785247E+004	5.894759871604037E+001
-4.813152910189081E-002	-7.1307302E-001	-7.1317345E-001	1.4815092E+004	5.914759871098795E+001
-4.807132292066885E-002	-7.1502912E-001	-7.1517324E-001	1.4874338E+004	5.934759870593552E+001
-4.812717804782375E-002	-7.1707344E-001	-7.1717316E-001	1.4899553E+004	5.954759870088310E+001
-4.814364171751651E-002	-7.1906942E-001	-7.1917307E-001	1.4935917E+004	5.974759869583067E+001
-4.801983054586900E-002	-7.2110128E-001	-7.2117299E-001	1.5016739E+004	5.994759869077825E+001
-4.805917462282294E-002	-7.2310948E-001	-7.2317284E-001	1.5046231E+004	6.014759868572582E+001
-4.806609211548696E-002	-7.2498626E-001	-7.2517276E-001	1.5083112E+004	6.034759868067340E+001
-4.803934632277845E-002	-7.2708851E-001	-7.2717267E-001	1.5135271E+004	6.054759867562098E+001
-4.796434896195598E-002	-7.2904432E-001	-7.2917259E-001	1.5199713E+004	6.074759867056855E+001
-4.800473036674258E-002	-7.3105490E-001	-7.3117250E-001	1.5228810E+004	6.094759866551613E+001
-4.798047905265140E-002	-7.3304367E-001	-7.3317236E-001	1.5277956E+004	6.114759866046370E+001
-4.806677034085638E-002	-7.3504043E-001	-7.3517227E-001	1.5292070E+004	6.134759865541128E+001
-4.806355610378987E-002	-7.3706698E-001	-7.3717219E-001	1.5335257E+004	6.154759865035885E+001
-4.799771292586259E-002	-7.3906559E-001	-7.3917204E-001	1.5397934E+004	6.174749864530895E+001
-4.798865806292341E-002	-7.4106419E-001	-7.4117190E-001	1.5442486E+004	6.194739864025905E+001
-4.799858230280174E-002	-7.4307328E-001	-7.4317181E-001	1.5481150E+004	6.214739863520663E+001
-4.810869692673775E-002	-7.4506944E-001	-7.4517179E-001	1.5487209E+004	6.234739863015420E+001
-4.806561803349124E-002	-7.4704736E-001	-7.4717158E-001	1.5542240E+004	6.254739862510178E+001
-4.801647526649178E-002	-7.4899495E-001	-7.4917150E-001	1.5598707E+004	6.274739862004935E+001
-4.809429310473379E-002	-7.5099218E-001	-7.5117141E-001	1.5614996E+004	6.294739861499693E+001
-4.805634242388512E-002	-7.5303072E-001	-7.5317132E-001	1.5669747E+004	6.314739860994450E+001
-4.815499805354323E-002	-7.5505280E-001	-7.5517124E-001	1.5679635E+004	6.334739860489208E+001
-4.812158052434690E-002	-7.5705850E-001	-7.5717103E-001	1.5732203E+004	6.354739859983965E+001
-4.815576837927149E-002	-7.5902563E-001	-7.5917101E-001	1.5761884E+004	6.374739859478723E+001
-4.813948121342126E-002	-7.6110417E-001	-7.6117080E-001	1.5810394E+004	6.394739858973480E+001
-4.823744827390475E-002	-7.6305425E-001	-7.6317084E-001	1.5818711E+004	6.414739858468238E+001
-4.822453433624518E-002	-7.6504052E-001	-7.6517063E-001	1.5864135E+004	6.434739857962995E+001
-4.826948292344346E-002	-7.6703411E-001	-7.6717055E-001	1.5890663E+004	6.454739857457753E+001
-4.825966640891899E-002	-7.6905447E-001	-7.6917052E-001	1.5935760E+004	6.474739856952510E+001
-4.832845608426078E-002	-7.7111113E-001	-7.7117032E-001	1.5955634E+004	6.494739856447268E+001
-4.841983599573485E-002	-7.7300417E-001	-7.7317023E-001	1.5964618E+004	6.514739855942025E+001
-4.850870899353488E-002	-7.7499092E-001	-7.7517015E-001	1.5976325E+004	6.534739855436783E+001
-4.843562929111384E-002	-7.7703291E-001	-7.7716959E-001	1.6042590E+004	6.554729854931793E+001
-4.853271973100753E-002	-7.7906156E-001	-7.7916998E-001	1.6052296E+004	6.574719854426803E+001
-4.854628252305826E-002	-7.8105313E-001	-7.8116983E-001	1.6088835E+004	6.594719853921561E+001
-4.864763679767392E-002	-7.8305846E-001	-7.8316981E-001	1.6096536E+004	6.614719853416318E+001
-4.864555401484716E-002	-7.8506535E-001	-7.8516966E-001	1.6138481E+004	6.634719852911076E+001
-4.874327081723390E-002	-7.8704166E-001	-7.8716964E-001	1.6146673E+004	6.654719852405833E+001
-4.883153319898403E-002	-7.8902864E-001	-7.8916943E-001	1.6158179E+004	6.674719851900591E+001
-4.878981239051527E-002	-7.9104859E-001	-7.9116935E-001	1.6213396E+004	6.694719851395348E+001
-4.900137849242903E-002	-7.9306370E-001	-7.9316926E-001	1.6184519E+004	6.714719850890106E+001
-4.912770032046399E-002	-7.9503304E-001	-7.9516917E-001	1.6182989E+004	6.734719850384863E+001
-4.925675390292444E-002	-7.9702353E-001	-7.9716909E-001	1.6181000E+004	6.754719849879621E+001
-4.927931511626826E-002	-7.9903919E-001	-7.9916888E-001	1.6214494E+004	6.774719849374378E+001
-4.944874470643801E-002	-8.0103052E-001	-8.0116886E-001	1.6199208E+004	6.794719848869136E+001
-4.944267050392687E-002	-8.0306554E-001	-8.0316877E-001	1.6242357E+004	6.814719848363893E+001
-4.958241845981612E-002	-8.0501384E-001	-8.0516869E-001	1.6235873E+004	6.834719847858651E+001
-4.973052673003819E-002	-8.0704463E-001	-8.0716848E-001	1.6228354E+004	6.854719847353408E+001
-4.987189828686373E-002	-8.0908817E-001	-8.0916840E-001	1.6223328E+004	6.874719846848166E+001
-4.995150276715299E-002	-8.1104314E-001	-8.1116831E-001	1.6236611E+004	6.894719846342923E+001
-5.001568984897098E-002	-8.1304228E-001	-8.1316817E-001	1.6255745E+004	6.914719845837681E+001
-5.021079773296999E-002	-8.1509751E-001	-8.1516743E-001	1.6233511E+004	6.934709845332691E+001
-5.046244087479068E-002	-8.1703609E-001	-8.1716800E-001	1.6190975E+004	6.954699844827701E+001
-5.070280349631778E-002	-8.1903058E-001	-8.1916791E-001	1.6153556E+004	6.974699844322458E+001
-5.076794393514783E-002	-8.2106024E-001	-8.2116777E-001	1.6172809E+004	6.994699843817216E+001
-5.091788615480204E-002	-8.2309401E-001	-8.2316768E-001	1.6165125E+004	7.014699843311973E+001
-5.117995641247079E-002	-8.2502353E-001	-8.2516760E-001	1.6120052E+004	7.034699842806731E+001
-5.132506942891801E-002	-8.2702732E-001	-8.2716739E-001	1.6113516E+004	7.054699842301488E+001
-5.170461265665915E-002	-8.2900763E-001	-8.2916743E-001	1.6033533E+004	7.074699841796246E+001
-5.184783591506625E-002	-8.3109677E-001	-8.3116728E-001	1.6029536E+004	7.094699841291003E+001
-5.210415536934798E-002	-8.3304858E-001	-8.3316720E-001	1.5988141E+004	7.114699840785761E+001
-5.223783348632094E-002	-8.3505493E-001	-8.3516705E-001	1.5985635E+004	7.134699840280518E+001
-5.263323581179868E-002	-8.3705872E-001	-8.3716691E-001	1.5903615E+004	7.154699839775276E+001
-5.303323755511702E-002	-8.3902353E-001	-8.3916694E-001	1.5820711E+004	7.174699839270033E+001
-5.341103549860859E-002	-8.4107250E-001	-8.4116673E-001	1.5747167E+004	7.194699838764791E+001
-5.374573920473319E-002	-8.4304744E-001	-8.4316671E-001	1.5685847E+004	7.214699838259548E+001
-5.404068541432194E-002	-8.4507281E-001	-8.4516650E-001	1.5637715E+004	7.234699837754306E+001
-5.475469277812631E-002	-8.4708852E-001	-8.4716642E-001	1.5470610E+004	7.254699837249063E+001
-5.541085903406107E-002	-8.4905201E-001	-8.4916633E-001	1.5322845E+004	7.274699836743821E+001
-5.609125815133442E-002	-8.5108048E-001	-8.5116625E-001	1.5173140E+004	7.294699836238578E+001
-5.667829882277524E-002	-8.5302299E-001	-8.5316616E-001	1.5050258E+004	7.314699835733336E+001
-5.778652102184714E-002	-8.5505772E-001	-8.5516620E-001	1.4796837E+004	7.334689835228346E+001
-5.879731987478420E-002	-8.5706669E-001	-8.5716593E-001	1.4576629E+004	7.354679834723356E+001
-6.025633388336160E-002	-8.5903537E-001	-8.5916585E-001	1.4256350E+004	7.374679834218114E+001
-6.206276608565531E-002	-8.6109668E-001	-8.6116576E-001	1.3874610E+004	7.394679833712871E+001
-6.398806768752507E-002	-8.6306852E-001	-8.6316556E-001	1.3487960E+004	7.414679833207629E+001
-6.626406389335093E-002	-8.6504304E-001	-8.6516547E-001	1.3054482E+004	7.434679832702386E+001
-6.920227337451235E-002	-8.6713803E-001	-8.6716539E-001	1.2530484E+004	7.454679832197144E+001
-7.226765298658389E-002	-8.6904383E-001	-8.6916524E-001	1.2025350E+004	7.474679831691901E+001
-7.580874679776972E-002	-8.7109363E-001	-8.7116528E-001	1.1490675E+004	7.494679831186659E+001
-7.982851358187593E-002	-8.7306607E-001	-8.7316507E-001	1.0936770E+004	7.514679830681416E+001
-8.416547007170294E-002	-8.7508768E-001	-8.7516499E-001	1.0397229E+004	7.534679830176174E+001
-8.902178422649243E-002	-8.7706208E-001	-8.7716490E-001	9.8522188E+003	7.554679829670931E+001
-9.427417411633710E-002	-8.7907737E-001	-8.7916476E-001	9.3246895E+003	7.574679829165689E+001
-9.998554420021755E-002	-8.8105673E-001	-8.8116467E-001	8.8118408E+003	7.594679828660446E+001
-1.058399929979688E-001	-8.8303149E-001	-8.8316447E-001	8.3430801E+003	7.614679828155204E+001
-1.121191001421183E-001	-8.8506109E-001	-8.8516450E-001	7.8939365E+003	7.634679827649961E+001
-1.185244760822393E-001	-8.8702869E-001	-8.8716435E-001	7.4839282E+003	7.654679827144719E+001
-1.251491723632829E-001	-8.8903058E-001	-8.8916427E-001	7.1037671E+003	7.674679826639476E+001
-1.317303152385330E-001	-8.9108706E-001	-8.9116412E-001	6.7644800E+003	7.694679826134234E+001
-1.382428430065159E-001	-8.9298916E-001	-8.9316535E-001	6.4595688E+003	7.714679825628991E+001
-1.446847125873090E-001	-8.9505553E-001	-8.9516580E-001	6.1862480E+003	7.734679825123749E+001
-1.509442215166616E-001	-8.9707828E-001	-8.9716578E-001	5.9431108E+003	7.754679824618506E+001
-1.567805605431567E-001	-8.9906812E-001	-8.9916575E-001	5.7345640E+003	7.774679824113264E+001
-1.626069593769151E-001	-9.0105522E-001	-9.0116578E-001	5.5413076E+003	7.794679823608021E+001
-1.679943075547177E-001	-9.0303850E-001	-9.0316582E-001	5.3754111E+003	7.814679823102779E+001
-1.736043412988064E-001	-9.0506572E-001	-9.0516579E-001	5.2133818E+003	7.834679822597536E+001
-1.795600092560139E-001	-9.0704548E-001	-9.0716583E-001	5.0514893E+003	7.854679822092294E+001
-1.867187032961795E-001	-9.0905851E-001	-9.0916586E-001	4.8685991E+003	7.874679821587051E+001
-1.955526761051751E-001	-9.1107291E-001	-9.1116577E-001	4.6589644E+003	7.894679821081809E+001
-2.074488088163355E-001	-9.1295731E-001	-9.1316581E-001	4.4008799E+003	7.914679820576566E+001
-2.232546209444264E-001	-9.1507220E-001	-9.1516584E-001	4.0987827E+003	7.934679820071324E+001
-2.438714705669498E-001	-9.1710562E-001	-9.1716588E-001	3.7606106E+003	7.954679819566081E+001
-2.674114964944621E-001	-9.1910213E-001	-9.1916579E-001	3.4370330E+003	7.974679819060839E+001
-3.018910369947720E-001	-9.2102271E-001	-9.2116576E-001	3.0508447E+003	7.994679818555596E+001
-3.329249865369115E-001	-9.2301857E-001	-9.2316586E-001	2.7724521E+003	8.014679818050354E+001
-3.698333112518739E-001	-9.2507458E-001	-9.2516583E-001	2.5013284E+003	8.034679817545111E+001
-4.183658506180636E-001	-9.2711091E-001	-9.2716575E-001	2.2160291E+003	8.054679817039869E+001
-4.708094100030706E-001	-9.2908394E-001	-9.2916578E-001	1.9733759E+003	8.074679816534626E+001
-5.237782422301116E-001	-9.3107712E-001	-9.3116575E-001	1.7776171E+003	8.094679816029384E+001
-6.003272457643805E-001	-9.3306452E-001	-9.3316585E-001	1.5542598E+003	8.114679815524141E+001
-6.671019201240860E-001	-9.3512154E-001	-9.3516582E-001	1.4017671E+003	8.134679815018899E+001
-7.590426530629912E-001	-9.3707317E-001	-9.3716580E-001	1.2345461E+003	8.154679814513656E+001
-8.556029852775349E-001	-9.3906796E-001	-9.3916577E-001	1.0975510E+003	8.174679814008414E+001
-9.600556215985172E-001	-9.4110602E-001	-9.4116580E-001	9.8026196E+002	8.194679813503171E+001
-1.093833796293246E+000	-9.4313431E-001	-9.4326591E-001	8.6222815E+002	8.215679812972667E+001
-1.223981135961963E+000	-9.4524652E-001	-9.4536573E-001	7.7227216E+002	8.236679812442162E+001
-1.372265078642672E+000	-9.4723850E-001	-9.4736576E-001	6.9027368E+002	8.256679811936920E+001
-1.538390584653271E+000	-9.4924277E-001	-9.4936579E-001	6.1703625E+002	8.276679811431677E+001
-1.714652920965433E+000	-9.5119202E-001	-9.5136577E-001	5.5474316E+002	8.296679810926435E+001
-1.915382700628030E+000	-9.5326078E-001	-9.5336574E-001	4.9768686E+002	8.316679810421192E+001
-2.125709048322406E+000	-9.5527774E-001	-9.5536578E-001	4.4939252E+002	8.336679809915950E+001
-2.351729466328550E+000	-9.5726377E-001	-9.5736581E-001	4.0704672E+002	8.356679809410707E+001
-2.606258568123749E+000	-9.5928061E-001	-9.5936579E-001	3.6806808E+002	8.376679808905465E+001
-2.864856695067843E+000	-9.6125990E-001	-9.6136582E-001	3.3553506E+002	8.396679808400222E+001
-3.150195709296611E+000	-9.6326512E-001	-9.6336585E-001	3.0577945E+002	8.416679807894980E+001
-3.453000773918600E+000	-9.6526384E-001	-9.6536577E-001	2.7954349E+002	8.436679807389737E+001
-3.772985565250153E+000	-9.6729743E-001	-9.6736580E-001	2.5637454E+002	8.456679806884495E+001
-4.108265425376349E+000	-9.6926898E-001	-9.6936584E-001	2.3593144E+002	8.476679806379252E+001
-4.460749993789229E+000	-9.7121370E-001	-9.7136587E-001	2.1772430E+002	8.496679805874010E+001
-4.832618871378514E+000	-9.7327232E-001	-9.7336578E-001	2.0139645E+002	8.516679805368767E+001
-5.226851530423787E+000	-9.7525609E-001	-9.7536576E-001	1.8658577E+002	8.536679804863525E+001
-5.630403426397656E+000	-9.7724056E-001	-9.7736585E-001	1.7356493E+002	8.556679804358282E+001
-6.062494984998992E+000	-9.7922730E-001	-9.7936583E-001	1.6152216E+002	8.576679803853040E+001
-6.504159691449971E+000	-9.8126113E-001	-9.8136574E-001	1.5086670E+002	8.596679803347797E+001
-6.968915775925140E+000	-9.8325211E-001	-9.8336577E-001	1.4109111E+002	8.616679802842555E+001
-7.438106116861967E+000	-9.8526353E-001	-9.8536575E-001	1.3246161E+002	8.636679802337312E+001
-7.931101383333058E+000	-9.8726606E-001	-9.8736584E-001	1.2448032E+002	8.656679801832070E+001
-8.435791025829401E+000	-9.8930705E-001	-9.8936576E-001	1.1727496E+002	8.676679801326827E+001
-8.959389399306332E+000	-9.9124569E-001	-9.9136573E-001	1.1063764E+002	8.696679800821585E+001
-9.492596805298419E+000	-9.9327946E-001	-9.9336571E-001	1.0463728E+002	8.716679800316342E+001
-1.003418665124175E+001	-9.9526000E-001	-9.9536580E-001	9.9186913E+001	8.736679799811100E+001
-1.060160067893752E+001	-9.9727380E-001	-9.9736577E-001	9.4068230E+001	8.756679799305857E+001
-1.123340379620083E+001	-9.9934524E-001	-9.9946576E-001	8.8961929E+001	8.777679798775353E+001
-1.184401163431784E+001	-1.0014443E+000	-1.0015658E+000	8.4552803E+001	8.798679798244848E+001
-1.245691629527923E+001	-1.0034349E+000	-1.0035658E+000	8.0552429E+001	8.818679797739605E+001
-1.306736621767487E+001	-1.0054578E+000	-1.0055658E+000	7.6944176E+001	8.838679797234363E+001
-1.369756963382770E+001	-1.0074620E+000	-1.0075659E+000	7.3550423E+001	8.858679796729120E+001
-1.434012789615427E+001	-1.0094790E+000	-1.0095658E+000	7.0395401E+001	8.878679796223878E+001
-1.497529319962682E+001	-1.0114504E+000	-1.0115658E+000	6.7541275E+001	8.898679795718635E+001
-1.564218053160883E+001	-1.0134622E+000	-1.0135658E+000	6.4790337E+001	8.918679795213393E+001
-1.632056256473200E+001	-1.0154293E+000	-1.0155659E+000	6.2217785E+001	8.938679794708150E+001
-1.700661276068011E+001	-1.0174338E+000	-1.0175658E+000	5.9825775E+001	8.958679794202908E+001
-1.770051141039306E+001	-1.0194585E+000	-1.0195658E+000	5.7594864E+001	8.978679793697665E+001
-1.841575434080860E+001	-1.0214716E+000	-1.0215658E+000	5.5467270E+001	8.998679793192423E+001
-1.913660383089331E+001	-1.0234803E+000	-1.0235659E+000	5.3482861E+001	9.018679792687180E+001
-1.987201109143337E+001	-1.0254828E+000	-1.0255659E+000	5.1604378E+001	9.038679792181938E+001
-2.060752269294531E+001	-1.0275017E+000	-1.0275658E+000	4.9860516E+001	9.058679791676695E+001
-2.136204585520869E+001	-1.0294706E+000	-1.0295658E+000	4.8191570E+001	9.078679791171453E+001
-2.212851846853357E+001	-1.0314732E+000	-1.0315659E+000	4.6612843E+001	9.098679790666210E+001
-2.290531928428442E+001	-1.0334400E+000	-1.0335658E+000	4.5117905E+001	9.118679790160968E+001
-2.368585776850211E+001	-1.0354275E+000	-1.0355657E+000	4.3715008E+001	9.138679789655725E+001
-2.448351119380953E+001	-1.0374784E+000	-1.0375658E+000	4.2374577E+001	9.158679789150483E+001
-2.529390303604725E+001	-1.0394592E+000	-1.0395658E+000	4.1095249E+001	9.178679788645240E+001
-2.611651992338304E+001	-1.0414524E+000	-1.0415658E+000	3.9877151E+001	9.198679788139998E+001
-2.696050329543579E+001	-1.0434483E+000	-1.0435658E+000	3.8702850E+001	9.218679787634755E+001
-2.780207371117046E+001	-1.0454689E+000	-1.0455658E+000	3.7603992E+001	9.238679787129513E+001
-2.866500620074288E+001	-1.0474569E+000	-1.0475659E+000	3.6541309E+001	9.258679786624270E+001
-2.955910079738715E+001	-1.0494524E+000	-1.0495658E+000	3.5503529E+001	9.278679786119028E+001
-3.047501743299340E+001	-1.0514790E+000	-1.0515658E+000	3.4502983E+001	9.298679785613786E+001
-3.140382583990113E+001	-1.0534874E+000	-1.0535657E+000	3.3546467E+001	9.318679785108543E+001
-3.234411672372670E+001	-1.0554333E+000	-1.0555657E+000	3.2631382E+001	9.338679784603301E+001
-3.329573953313889E+001	-1.0574571E+000	-1.0575658E+000	3.1759531E+001	9.358679784098058E+001
-3.427545174044008E+001	-1.0594929E+000	-1.0595659E+000	3.0911131E+001	9.378679783592816E+001
-3.526431285713272E+001	-1.0615153E+000	-1.0615658E+000	3.0101688E+001	9.398679783087573E+001
-3.630182918967023E+001	-1.0634815E+000	-1.0635657E+000	2.9295534E+001	9.418679782582331E+001
-3.733018399312112E+001	-1.0654770E+000	-1.0655658E+000	2.8541971E+001	9.438679782077088E+001
-3.838554720056851E+001	-1.0674644E+000	-1.0675659E+000	2.7809017E+001	9.458679781571846E+001
-3.943736233489557E+001	-1.0694757E+000	-1.0695658E+000	2.7118336E+001	9.478679781066603E+001
-4.054837913361814E+001	-1.0714692E+000	-1.0715657E+000	2.6424463E+001	9.498679780561361E+001
-4.166012583433108E+001	-1.0735363E+000	-1.0735657E+000	2.5768915E+001	9.518679780056118E+001
-4.280975250916680E+001	-1.0754960E+000	-1.0755658E+000	2.5122686E+001	9.538679779550876E+001
-4.395075161332716E+001	-1.0774930E+000	-1.0775658E+000	2.4515917E+001	9.558679779045633E+001
-4.519164390845106E+001	-1.0794847E+000	-1.0795658E+000	2.3886822E+001	9.578679778540391E+001
-4.638567707381813E+001	-1.0814654E+000	-1.0815657E+000	2.3314640E+001	9.598679778035148E+001
-4.755984898246066E+001	-1.0834910E+000	-1.0835658E+000	2.2781631E+001	9.618679777529906E+001
-4.889659115192296E+001	-1.0854594E+000	-1.0855658E+000	2.2199080E+001	9.638679777024663E+001
-5.012401959928519E+001	-1.0874691E+000	-1.0875659E+000	2.1695568E+001	9.658679776519421E+001
-5.140246002203776E+001	-1.0894631E+000	-1.0895659E+000	2.1194767E+001	9.678679776014178E+001
-5.272632408358334E+001	-1.0914830E+000	-1.0915658E+000	2.0700912E+001	9.698679775508936E+001
-5.399542070083862E+001	-1.0934660E+000	-1.0935658E+000	2.0251089E+001	9.718679775003693E+001
-5.536150935988326E+001	-1.0954589E+000	-1.0955658E+000	1.9787373E+001	9.738679774498451E+001
-5.674007951915928E+001	-1.0975076E+000	-1.0975659E+000	1.9342722E+001	9.758679773993208E+001
-5.828407513257298E+001	-1.0994706E+000	-1.0995659E+000	1.8863997E+001	9.778679773487966E+001
-5.977653376585738E+001	-1.1015054E+000	-1.1015658E+000	1.8427053E+001	9.798679772982723E+001
-6.111207824769735E+001	-1.1035057E+000	-1.1035658E+000	1.8057081E+001	9.818679772477481E+001
-6.244993366513950E+001	-1.1054912E+000	-1.1055658E+000	1.7702040E+001	9.838679771972238E+001
-6.388891797379313E+001	-1.1074867E+000	-1.1075659E+000	1.7334566E+001	9.858679771466996E+001
-6.536017744070818E+001	-1.1094828E+000	-1.1095659E+000	1.6974905E+001	9.878679770961753E+001
-6.695195613102044E+001	-1.1115226E+000	-1.1115658E+000	1.6601793E+001	9.898679770456511E+001
-6.880709191082281E+001	-1.1135191E+000	-1.1135658E+000	1.6183203E+001	9.918679769951268E+001
-7.038946444377331E+001	-1.1154792E+000	-1.1155659E+000	1.5847247E+001	9.938679769446026E+001
-7.211802029879993E+001	-1.1174922E+000	-1.1175659E+000	1.5495325E+001	9.958679768940783E+001
-7.402566555135647E+001	-1.1194848E+000	-1.1195658E+000	1.5122928E+001	9.978679768435541E+001
-7.586755523551915E+001	-1.1215240E+000	-1.1215658E+000	1.4782656E+001	9.998679767930298E+001
-7.773463665547024E+001	-1.1235288E+000	-1.1235657E+000	1.4453387E+001	1.001867976742506E+002
-7.962355598462705E+001	-1.1255352E+000	-1.1255659E+000	1.4135707E+001	1.003867976691981E+002
-8.102620876673416E+001	-1.1275909E+000	-1.1275659E+000	1.3916372E+001	1.005867976641457E+002
-8.284522469838453E+001	-1.1295557E+000	-1.1295657E+000	1.3634530E+001	1.007867976590933E+002
-8.455005524055753E+001	-1.1315889E+000	-1.1315658E+000	1.3383657E+001	1.009867976540409E+002
-8.664301386658036E+001	-1.1335689E+000	-1.1335658E+000	1.3083212E+001	1.011867976489884E+002
-8.877762659985467E+001	-1.1355305E+000	-1.1355659E+000	1.2790728E+001	1.013867976439360E+002
-9.073544234050939E+001	-1.1375335E+000	-1.1375659E+000	1.2536816E+001	1.015867976388836E+002
-9.282523205328926E+001	-1.1395361E+000	-1.1395657E+000	1.2276147E+001	1.017867976338312E+002
-9.456378038670186E+001	-1.1415443E+000	-1.1415658E+000	1.2071687E+001	1.019867976287787E+002
-9.656966802592751E+001	-1.1435167E+000	-1.1435658E+000	1.1841365E+001	1.021867976237263E+002
-9.888106140744367E+001	-1.1455224E+000	-1.1455657E+000	1.1584851E+001	1.023867976186739E+002
-1.014222941312122E+002	-1.1475309E+000	-1.1475658E+000	1.1314385E+001	1.025867976136215E+002
-1.032254724653935E+002	-1.1495305E+000	-1.1495658E+000	1.1136113E+001	1.027867976085690E+002
-1.047694943324237E+002	-1.1515650E+000	-1.1515658E+000	1.0991415E+001	1.029867976035166E+002
-1.071287808093898E+002	-1.1535610E+000	-1.1535658E+000	1.0767984E+001	1.031867975984642E+002
-1.114691586066265E+002	-1.1556121E+000	-1.1556659E+000	1.0367102E+001	1.033967975931591E+002
-1.139730425605428E+002	-1.1577191E+000	-1.1577659E+000	1.0157833E+001	1.036067975878541E+002
-1.160517222400154E+002	-1.1596947E+000	-1.1597657E+000	9.9929123E+000	1.038067975828017E+002
-1.196848883304469E+002	-1.1617125E+000	-1.1617658E+000	9.7064257E+000	1.040067975777492E+002
-1.214794712910038E+002	-1.1637297E+000	-1.1637658E+000	9.5796404E+000	1.042067975726968E+002
-1.242390950499203E+002	-1.1657034E+000	-1.1657658E+000	9.3827419E+000	1.044067975676444E+002
-1.255530899235996E+002	-1.1676993E+000	-1.1677659E+000	9.3004427E+000	1.046067975625920E+002
-1.293625134372928E+002	-1.1697601E+000	-1.1697658E+000	9.0424967E+000	1.048067975575395E+002
-1.320347703741254E+002	-1.1717238E+000	-1.1717658E+000	8.8743582E+000	1.050067975524871E+002
-1.343043818722504E+002	-1.1737150E+000	-1.1737658E+000	8.7392159E+000	1.052067975474347E+002
-1.369804736578544E+002	-1.1757350E+000	-1.1757659E+000	8.5832310E+000	1.054067975423823E+002
-1.396422624523138E+002	-1.1777557E+000	-1.1777658E+000	8.4340925E+000	1.056067975373298E+002
-1.427402384600136E+002	-1.1797001E+000	-1.1797658E+000	8.2646646E+000	1.058067975322774E+002
-1.455790400256373E+002	-1.1817189E+000	-1.1817658E+000	8.1173697E+000	1.060067975272250E+002
-1.483021853278282E+002	-1.1837206E+000	-1.1837658E+000	7.9818149E+000	1.062067975221726E+002
-1.495430020723754E+002	-1.1857535E+000	-1.1857659E+000	7.9291806E+000	1.064067975171201E+002
-1.524041937181471E+002	-1.1876718E+000	-1.1877658E+000	7.7929072E+000	1.066067975120677E+002
-1.567737993912897E+002	-1.1897411E+000	-1.1897658E+000	7.5889030E+000	1.068067975070153E+002
-1.588758500860386E+002	-1.1916863E+000	-1.1917658E+000	7.5007391E+000	1.070067975019629E+002
-1.609841644509852E+002	-1.1936992E+000	-1.1937658E+000	7.4150105E+000	1.072067974969104E+002
-1.641313737655169E+002	-1.1957240E+000	-1.1957659E+000	7.2851644E+000	1.074067974918580E+002
-1.670319168151368E+002	-1.1977518E+000	-1.1977658E+000	7.1707959E+000	1.076067974868056E+002
-1.723651590401353E+002	-1.1997374E+000	-1.1997658E+000	6.9604406E+000	1.078067974817532E+002
-1.769449495166327E+002	-1.2017184E+000	-1.2017658E+000	6.7914820E+000	1.080067974767007E+002
-1.798162756095944E+002	-1.2037754E+000	-1.2037659E+000	6.6944742E+000	1.082067974716483E+002
-1.833181088289703E+002	-1.2056962E+000	-1.2057658E+000	6.5770712E+000	1.084067974665959E+002
-1.891800054682089E+002	-1.2077137E+000	-1.2077658E+000	6.3839397E+000	1.086067974615435E+002
-1.921404373672817E+002	-1.2097328E+000	-1.2097658E+000	6.2960863E+000	1.088067974564910E+002
-1.961516347212582E+002	-1.2117333E+000	-1.2117656E+000	6.1775336E+000	1.090067974514386E+002
-1.975009980461214E+002	-1.2137274E+000	-1.2137657E+000	6.1454239E+000	1.092067974463862E+002
-2.009811312011570E+002	-1.2157177E+000	-1.2157658E+000	6.0489144E+000	1.094067974413338E+002
-2.071169952989430E+002	-1.2177434E+000	-1.2177659E+000	5.8794951E+000	1.096067974362813E+002
-2.104586214705657E+002	-1.2197310E+000	-1.2197658E+000	5.7955856E+000	1.098067974312289E+002
-2.129710627337436E+002	-1.2217427E+000	-1.2217658E+000	5.7366610E+000	1.100067974261765E+002
-2.156456386323957E+002	-1.2237500E+000	-1.2237659E+000	5.6748190E+000	1.102067974211241E+002
-2.188107292192589E+002	-1.2257519E+000	-1.2257658E+000	5.6018820E+000	1.104067974160716E+002
-2.256108463378182E+002	-1.2277827E+000	-1.2277657E+000	5.4420376E+000	1.106067974110192E+002
-2.313317345988994E+002	-1.2297784E+000	-1.2297658E+000	5.3160815E+000	1.108067974059668E+002
-2.347837699859865E+002	-1.2317679E+000	-1.2317657E+000	5.2463927E+000	1.110067974009144E+002
-2.385843865617335E+002	-1.2338072E+000	-1.2337657E+000	5.1713662E+000	1.112067973958619E+002
-2.417182842198408E+002	-1.2357591E+000	-1.2357658E+000	5.1123943E+000	1.114067973908095E+002
-2.488048227184752E+002	-1.2377883E+000	-1.2377658E+000	4.9749370E+000	1.116067973857571E+002
-2.553351830073761E+002	-1.2397943E+000	-1.2397658E+000	4.8555560E+000	1.118067973807047E+002
-2.609292026139174E+002	-1.2417825E+000	-1.2417657E+000	4.7590785E+000	1.120067973756522E+002
-2.627984353993224E+002	-1.2437855E+000	-1.2437658E+000	4.7328496E+000	1.122067973705998E+002
-2.701904811078211E+002	-1.2458260E+000	-1.2457666E+000	4.6109176E+000	1.124068973655449E+002
-2.743310453516260E+002	-1.2478237E+000	-1.2477688E+000	4.5486054E+000	1.126070973604874E+002
-2.762466693002543E+002	-1.2498380E+000	-1.2497706E+000	4.5243549E+000	1.128072973554299E+002
-2.779515896398270E+002	-1.2517931E+000	-1.2517725E+000	4.5036373E+000	1.130074973503724E+002
-2.794771650589828E+002	-1.2538059E+000	-1.2537761E+000	4.4862552E+000	1.132078973453099E+002
-2.822061122459550E+002	-1.2557912E+000	-1.2557806E+000	4.4499078E+000	1.134082973402474E+002
-2.860390992371244E+002	-1.2578472E+000	-1.2577833E+000	4.3974657E+000	1.136085973351874E+002
-2.884786744673670E+002	-1.2598497E+000	-1.2597886E+000	4.3672194E+000	1.138090973301223E+002
-2.883228056217968E+002	-1.2617865E+000	-1.2617906E+000	4.3762980E+000	1.140092973250648E+002
-2.886501708513260E+002	-1.2638285E+000	-1.2637926E+000	4.3784089E+000	1.142094973200074E+002
-2.903106617440976E+002	-1.2658198E+000	-1.2657938E+000	4.3602247E+000	1.144095973149524E+002
-3.008140634850515E+002	-1.2678457E+000	-1.2677946E+000	4.2147155E+000	1.146096973098975E+002
-3.070107188656884E+002	-1.2698388E+000	-1.2697967E+000	4.1361384E+000	1.148098973048400E+002
-3.097643762415919E+002	-1.2718498E+000	-1.2717987E+000	4.1058621E+000	1.150100972997825E+002
-3.186724478210558E+002	-1.2738672E+000	-1.2738025E+000	3.9974189E+000	1.152104972947200E+002
-3.296781306731727E+002	-1.2758708E+000	-1.2758038E+000	3.8700500E+000	1.154105972896650E+002
-3.314642856350647E+002	-1.2778391E+000	-1.2778062E+000	3.8551335E+000	1.156108972846050E+002
-3.338326191080960E+002	-1.2798367E+000	-1.2798086E+000	3.8337674E+000	1.158110972795475E+002
-3.380011034081504E+002	-1.2818873E+000	-1.2818103E+000	3.7925537E+000	1.160112972744901E+002
-3.412753882126524E+002	-1.2838572E+000	-1.2838134E+000	3.7619390E+000	1.162115972694301E+002
-3.427351470463445E+002	-1.2859170E+000	-1.2858157E+000	3.7519264E+000	1.164117972643726E+002
-3.450875337090638E+002	-1.2878963E+000	-1.2878166E+000	3.7320857E+000	1.166118972593176E+002
-3.472772776966553E+002	-1.2898701E+000	-1.2898194E+000	3.7142370E+000	1.168121972542576E+002
-3.566294774117605E+002	-1.2919136E+000	-1.2918226E+000	3.6225655E+000	1.170124972491976E+002
-3.601729056476370E+002	-1.2938527E+000	-1.2938243E+000	3.5923100E+000	1.172126972441401E+002
-3.593849666052138E+002	-1.2958784E+000	-1.2958266E+000	3.6058226E+000	1.174128972390827E+002
-3.625976481711759E+002	-1.2979165E+000	-1.2978294E+000	3.5794952E+000	1.176131972340227E+002
-3.633071157568756E+002	-1.2998865E+000	-1.2998333E+000	3.5779274E+000	1.178135972289601E+002
-3.617198295645157E+002	-1.3019366E+000	-1.3018357E+000	3.5992956E+000	1.180137972239027E+002
-3.648649021527460E+002	-1.3038481E+000	-1.3038385E+000	3.5735095E+000	1.182140972188427E+002
-3.761873458896911E+002	-1.3058877E+000	-1.3058398E+000	3.4713759E+000	1.184141972137877E+002
-3.891082201270460E+002	-1.3079196E+000	-1.3078415E+000	3.3613262E+000	1.186143972087302E+002
-3.975606772550000E+002	-1.3099496E+000	-1.3098452E+000	3.2949679E+000	1.188147972036677E+002
-3.994378036809267E+002	-1.3119442E+000	-1.3118492E+000	3.2844770E+000	1.190151971986052E+002
-4.033050041294573E+002	-1.3139137E+000	-1.3138534E+000	3.2578661E+000	1.192155971935426E+002
-4.083046321079933E+002	-1.3159697E+000	-1.3158581E+000	3.2230096E+000	1.194160971884776E+002
-4.127934976045781E+002	-1.3179945E+000	-1.3178618E+000	3.1928663E+000	1.196163971834176E+002
-4.236419106417375E+002	-1.3199978E+000	-1.3198626E+000	3.1158338E+000	1.198164971783626E+002
-4.252610402747687E+002	-1.3220099E+000	-1.3218665E+000	3.1087022E+000	1.200168971733001E+002
-4.233106590063389E+002	-1.3239584E+000	-1.3238678E+000	3.1276283E+000	1.202169971682451E+002
-4.224308319947877E+002	-1.3260137E+000	-1.3258721E+000	3.1390078E+000	1.204174971631801E+002
-4.233026204444395E+002	-1.3279730E+000	-1.3278759E+000	3.1371717E+000	1.206177971581201E+002
-4.334382127377903E+002	-1.3300021E+000	-1.3298775E+000	3.0684929E+000	1.208179971530626E+002
-4.392923995663468E+002	-1.3320317E+000	-1.3318807E+000	3.0322213E+000	1.210182971480026E+002
-4.380337645825430E+002	-1.3340302E+000	-1.3338826E+000	3.0454962E+000	1.212184971429451E+002
-4.319370836435201E+002	-1.3360249E+000	-1.3358836E+000	3.0931005E+000	1.214185971378902E+002
-4.347147637197813E+002	-1.3380158E+000	-1.3378853E+000	3.0779166E+000	1.216187971328327E+002
-4.439863743629357E+002	-1.3400384E+000	-1.3398893E+000	3.0181971E+000	1.218191971277702E+002
-4.455432027867273E+002	-1.3420118E+000	-1.3418951E+000	3.0120802E+000	1.220197971227026E+002
-4.600605457288611E+002	-1.3440313E+000	-1.3438976E+000	2.9214227E+000	1.222199971176451E+002
-4.575851631251062E+002	-1.3459796E+000	-1.3458976E+000	2.9414842E+000	1.224199971125927E+002
-4.559934862400696E+002	-1.3479905E+000	-1.3478975E+000	2.9561617E+000	1.226199971075403E+002
-4.564208387560866E+002	-1.3499899E+000	-1.3498975E+000	2.9577744E+000	1.228199971024878E+002
-4.542684195295733E+002	-1.3520006E+000	-1.3518976E+000	2.9762151E+000	1.230199970974354E+002
-4.547865115271688E+002	-1.3540100E+000	-1.3538976E+000	2.9772429E+000	1.232199970923830E+002
-4.599242308783141E+002	-1.3560003E+000	-1.3558975E+000	2.9483123E+000	1.234199970873306E+002
-4.587469880067292E+002	-1.3580325E+000	-1.3578976E+000	2.9603081E+000	1.236199970822781E+002
-4.562786778257532E+002	-1.3600106E+000	-1.3598976E+000	2.9806578E+000	1.238199970772257E+002
-4.587543008332891E+002	-1.3620249E+000	-1.3618976E+000	2.9689639E+000	1.240199970721733E+002
-4.735191789960099E+002	-1.3640409E+000	-1.3638976E+000	2.8806455E+000	1.242199970671209E+002
-4.882739728551296E+002	-1.3660669E+000	-1.3658977E+000	2.7977467E+000	1.244199970620684E+002
-4.892383380293022E+002	-1.3680264E+000	-1.3678976E+000	2.7962370E+000	1.246199970570160E+002
-4.858044618187050E+002	-1.3700861E+000	-1.3698976E+000	2.8202419E+000	1.248199970519636E+002
-4.861971176822176E+002	-1.3720554E+000	-1.3718976E+000	2.8220148E+000	1.250199970469112E+002
-4.874058141643482E+002	-1.3740602E+000	-1.3738977E+000	2.8191297E+000	1.252199970418587E+002
-4.909843341282412E+002	-1.3760641E+000	-1.3758976E+000	2.8026638E+000	1.254199970368063E+002
-5.125400422154657E+002	-1.3780437E+000	-1.3778976E+000	2.6886556E+000	1.256199970317539E+002
-5.238458800326671E+002	-1.3800745E+000	-1.3798976E+000	2.6345048E+000	1.258199970267015E+002
-5.265132866943786E+002	-1.3820372E+000	-1.3818976E+000	2.6248856E+000	1.260199970216490E+002
-5.376273089168835E+002	-1.3840818E+000	-1.3838975E+000	2.5744262E+000	1.262199970165966E+002
-5.477329781417693E+002	-1.3860493E+000	-1.3858976E+000	2.5305200E+000	1.264199970115442E+002
-5.502776468800309E+002	-1.3880843E+000	-1.3878975E+000	2.5225163E+000	1.266199970064918E+002
-5.610320598360086E+002	-1.3905482E+000	-1.3898977E+000	2.4785540E+000	1.268199970014393E+002
-5.617809309451222E+002	-1.3926091E+000	-1.3918976E+000	2.4789186E+000	1.270199969963869E+002
-5.535074265495150E+002	-1.3945572E+000	-1.3938977E+000	2.5194914E+000	1.272199969913345E+002
-5.536744526713856E+002	-1.3966162E+000	-1.3958977E+000	2.5224502E+000	1.274199969862821E+002
-5.579945277129718E+002	-1.3982954E+000	-1.3975976E+000	2.5059304E+000	1.275899969819875E+002
-5.574346923828125E+002	-1.3990630E+000	-1.3983973E+000	2.5098240E+000	1.276503969804617E+002