EC-Lab ASCII FILE
Nb header lines : 63                          

Linear Sweep Voltammetry

Run on channel : 1 (SN 1340)
User : 
Electrode connection : standard
Potential control : Ewe
Ewe ctrl range : min = -5.00 V, max = 5.00 V
Ewe,I filtering : <None>
Safety Limits :
	Do not start on E overload
Channel : Floating
Acquisition started on : 02/12/2026 12:05:14.449
Technique started on : 02/12/2026 12:05:17.287
Loaded Setting File :  C:\Users\volt\Documents\Platalytix\PtPdCoNiCr_2_11_polished_01_ZIR_C01.mpr
Saved on :
	File : X18_75_polished_2-12_02_LSV_C01.mpr
	Directory : C:\Users\volt\Documents\Platalytix\
	Host : 127.0.0.1
Device : SP-200 (SN 0262)
Address : USB
EC-LAB for windows v11.60 (software)
Internet server v11.60 (firmware)
Command interpretor v11.60 (firmware)
Electrode material : Pt18.75Pd18.75Ni18.75Co18.75Cr25
Initial state : 
Electrolyte : KOH (1M)
Comments : before polishing
Cable : standard
Reference electrode : Hg/HgO (0.140 V)
Electrode surface area : 1.000 cm˛
Characteristic mass : 0.001 g
Equivalent Weight : 0.000 g/eq.
Density : 0.000 g/cm3
Volume (V) : 0.001 cmł
Cycle Definition : Charge/Discharge alternance
tR (h:m:s)          0:00:5.0000         
dER/dt (mV/h)       0.0                 
dER (mV)            0                   
dtR (s)             0.0000              
dE/dt               10.000              
dE/dt unit          mV/s                
Ei (V)              -0.200              
vs.                 Ref                 
EL (V)              -2.500              
vs.                 Ref                 
record              <I>                 
dI                  0.000               
unit dI             µA                  
tI (s)              0.0000              
step percent        50                  
N                   10                  
E range min (V)     -5.000              
E range max (V)     5.000               
I Range             Auto                
I Range min         Unset               
I Range max         Unset               
I Range init        Unset               
Bandwidth           8                   

Rwe/Ohm	time/s	Ewe/V	<I>/mA	Pwe/W	control/V	error	
0.0000000E+000	2.838400134787662E+000	-1.4976832E-001	0.000000000000000E+000	0.0000000E+000	0.0000000E+000	0
0.0000000E+000	7.838200008482090E+000	-4.0394347E-002	0.000000000000000E+000	0.0000000E+000	-1.9981328E-001	0
5.5123428E+003	8.038200003429665E+000	-2.0156498E-001	3.656612051243424E-002	-7.3704496E-006	-2.0171306E-001	0
2.2032708E+003	8.158200000398210E+000	-2.0274681E-001	-9.202083550935258E-002	1.8656930E-005	-2.0291311E-001	0
2.0681658E+003	8.368199995093164E+000	-2.0482226E-001	-9.903571129799771E-002	2.0284719E-005	-2.0501311E-001	0
2.2163455E+003	8.568199990040739E+000	-2.0683825E-001	-9.332401154968317E-002	1.9302975E-005	-2.0701312E-001	0
2.3714541E+003	8.768199984988314E+000	-2.0884468E-001	-8.806608383471981E-002	1.8392133E-005	-2.0901312E-001	0
2.5170459E+003	8.968199979935889E+000	-2.1084563E-001	-8.376709892902379E-002	1.7661927E-005	-2.1101311E-001	0
2.6532236E+003	9.168199974883464E+000	-2.1284272E-001	-8.022041818023573E-002	1.7074331E-005	-2.1301313E-001	0
2.7815127E+003	9.368199969831039E+000	-2.1489291E-001	-7.725757196104244E-002	1.6602104E-005	-2.1501310E-001	0
2.9011021E+003	9.568199964778614E+000	-2.1681322E-001	-7.473477801939465E-002	1.6203488E-005	-2.1701311E-001	0
3.0163962E+003	9.768199959726189E+000	-2.1888544E-001	-7.256521422853124E-002	1.5883468E-005	-2.1901312E-001	0
3.1256018E+003	9.968199954673764E+000	-2.2082718E-001	-7.065108963108857E-002	1.5601681E-005	-2.2101311E-001	0
3.2321575E+003	1.016819994962134E+001	-2.2282515E-001	-6.894006565648193E-002	1.5361580E-005	-2.2301312E-001	0
3.3357659E+003	1.036819994456891E+001	-2.2483180E-001	-6.740035710417047E-002	1.5153744E-005	-2.2501312E-001	0
3.4328804E+003	1.056819993951649E+001	-2.2684927E-001	-6.608132207913997E-002	1.4990500E-005	-2.2701311E-001	0
3.5325027E+003	1.076819993446406E+001	-2.2885360E-001	-6.478511775440476E-002	1.4826307E-005	-2.2901312E-001	0
3.6256360E+003	1.096819992941164E+001	-2.3082931E-001	-6.366588242875743E-002	1.4695952E-005	-2.3101312E-001	0
3.7170034E+003	1.116819992435921E+001	-2.3287354E-001	-6.265088295048782E-002	1.4589733E-005	-2.3301312E-001	0
3.8114644E+003	1.136819991930679E+001	-2.3484838E-001	-6.161631222617914E-002	1.4470491E-005	-2.3501310E-001	0
3.8981326E+003	1.156819991425436E+001	-2.3683976E-001	-6.075723554681389E-002	1.4389729E-005	-2.3701313E-001	0
3.9893254E+003	1.176819990920194E+001	-2.3883432E-001	-5.986834606662600E-002	1.4298615E-005	-2.3901309E-001	0
4.0761643E+003	1.196819990414951E+001	-2.4084204E-001	-5.908546173499435E-002	1.4230263E-005	-2.4101309E-001	0
4.1611528E+003	1.216819989909709E+001	-2.4284150E-001	-5.835918906723436E-002	1.4172033E-005	-2.4301313E-001	0
4.2485850E+003	1.236819989404466E+001	-2.4486341E-001	-5.763411136711555E-002	1.4112485E-005	-2.4501309E-001	0
4.3312852E+003	1.256819988899224E+001	-2.4683104E-001	-5.698794450467237E-002	1.4066394E-005	-2.4701311E-001	0
4.4181333E+003	1.276819988393981E+001	-2.4883348E-001	-5.632095160638584E-002	1.4014538E-005	-2.4901311E-001	0
4.4992754E+003	1.296819987888739E+001	-2.5083721E-001	-5.575058025269974E-002	1.3984320E-005	-2.5101310E-001	0
4.5818018E+003	1.316819987383496E+001	-2.5285488E-001	-5.518678248418571E-002	1.3954247E-005	-2.5301310E-001	0
4.6677207E+003	1.336819986878254E+001	-2.5485879E-001	-5.460026593775369E-002	1.3915358E-005	-2.5501311E-001	0
4.7460352E+003	1.356819986373011E+001	-2.5683022E-001	-5.411469039893713E-002	1.3898288E-005	-2.5701311E-001	0
4.8258130E+003	1.376819985867769E+001	-2.5880608E-001	-5.362953037253737E-002	1.3879649E-005	-2.5901312E-001	0
4.9110688E+003	1.396819985362527E+001	-2.6083121E-001	-5.311088301209727E-002	1.3852976E-005	-2.6101312E-001	0
4.9890659E+003	1.416819984857284E+001	-2.6283088E-001	-5.268138329986316E-002	1.3846295E-005	-2.6301309E-001	0
5.0695469E+003	1.436819984352042E+001	-2.6484010E-001	-5.224137631394910E-002	1.3835611E-005	-2.6501313E-001	0
5.1526875E+003	1.456819983846799E+001	-2.6683697E-001	-5.178597944053699E-002	1.3818414E-005	-2.6701310E-001	0
5.2331328E+003	1.476819983341557E+001	-2.6881903E-001	-5.136866501348745E-002	1.3808875E-005	-2.6901311E-001	0
5.3080708E+003	1.496819982836314E+001	-2.7082783E-001	-5.102189595107792E-002	1.3818149E-005	-2.7101311E-001	0
5.3903647E+003	1.516819982331072E+001	-2.7279419E-001	-5.060774083682187E-002	1.3805497E-005	-2.7301311E-001	0
5.4738276E+003	1.536819981825829E+001	-2.7487597E-001	-5.021640833503138E-002	1.3803284E-005	-2.7501312E-001	0
5.5502109E+003	1.556819981320587E+001	-2.7683449E-001	-4.987819157456330E-002	1.3808004E-005	-2.7701312E-001	0
5.6283662E+003	1.576819980815344E+001	-2.7884898E-001	-4.954350330389570E-002	1.3815155E-005	-2.7901310E-001	0
5.7127124E+003	1.596819980310102E+001	-2.8088412E-001	-4.916825976387490E-002	1.3810583E-005	-2.8101310E-001	0
5.7878164E+003	1.616819979804859E+001	-2.8280523E-001	-4.886216307275389E-002	1.3818475E-005	-2.8301311E-001	0
5.8659487E+003	1.636819979299617E+001	-2.8482506E-001	-4.855566651902488E-002	1.3829870E-005	-2.8501311E-001	0
5.9472197E+003	1.656819978794374E+001	-2.8685099E-001	-4.823278902149242E-002	1.3835624E-005	-2.8701308E-001	0
6.0244512E+003	1.676819978289132E+001	-2.8882799E-001	-4.794262200588684E-002	1.3847171E-005	-2.8901309E-001	0
6.1062285E+003	1.696819977783889E+001	-2.9085758E-001	-4.763293496276044E-002	1.3854400E-005	-2.9101312E-001	0
6.1864668E+003	1.716819977278647E+001	-2.9283768E-001	-4.733520483993037E-002	1.3861531E-005	-2.9301310E-001	0
6.2625293E+003	1.736819976773404E+001	-2.9482338E-001	-4.707736458551220E-002	1.3879508E-005	-2.9501310E-001	0
6.3437925E+003	1.756819976268162E+001	-2.9686525E-001	-4.679618074712835E-002	1.3892160E-005	-2.9701310E-001	0
6.4220420E+003	1.776819975762919E+001	-2.9881653E-001	-4.652983080511253E-002	1.3903883E-005	-2.9901311E-001	0
6.5002319E+003	1.796819975257677E+001	-3.0080876E-001	-4.627661939389394E-002	1.3920412E-005	-3.0101311E-001	0
6.5776870E+003	1.816819974752434E+001	-3.0283388E-001	-4.603956891287164E-002	1.3942342E-005	-3.0301315E-001	0
6.6614883E+003	1.836819974247192E+001	-3.0481318E-001	-4.575751914538218E-002	1.3947495E-005	-3.0501309E-001	0
6.7371938E+003	1.856819973741949E+001	-3.0684274E-001	-4.554459299890090E-002	1.3975028E-005	-3.0701309E-001	0
6.8140889E+003	1.876819973236707E+001	-3.0882883E-001	-4.532210233245393E-002	1.3996771E-005	-3.0901310E-001	0
6.9379731E+003	1.900819972630416E+001	-3.1123364E-001	-4.485944820955046E-002	1.3961770E-005	-3.1141311E-001	0
7.0207495E+003	1.920819972125173E+001	-3.1319150E-001	-4.460941013471431E-002	1.3971288E-005	-3.1341311E-001	0
7.0963789E+003	1.940819971619931E+001	-3.1518754E-001	-4.441526516123157E-002	1.3999138E-005	-3.1541309E-001	0
7.1766704E+003	1.960819971114688E+001	-3.1721580E-001	-4.420097058115191E-002	1.4021246E-005	-3.1741309E-001	0
7.2586494E+003	1.980819970609446E+001	-3.1922719E-001	-4.397886749114122E-002	1.4039250E-005	-3.1941313E-001	0
7.3323574E+003	2.000819970104203E+001	-3.2121027E-001	-4.380722835347384E-002	1.4071332E-005	-3.2141310E-001	0
7.4157739E+003	2.020819969598961E+001	-3.2325405E-001	-4.359006121820105E-002	1.4090664E-005	-3.2341310E-001	0
7.4946475E+003	2.040819969093718E+001	-3.2521933E-001	-4.339354570697396E-002	1.4112420E-005	-3.2541311E-001	0
7.5693413E+003	2.060819968588476E+001	-3.2721052E-001	-4.322839970964432E-002	1.4144787E-005	-3.2741308E-001	0
7.6516670E+003	2.080819968083233E+001	-3.2924902E-001	-4.302971189088767E-002	1.4167491E-005	-3.2941312E-001	0
7.7300762E+003	2.100819967577991E+001	-3.3120200E-001	-4.284588987052082E-002	1.4190645E-005	-3.3141309E-001	0
7.8104678E+003	2.120819967072748E+001	-3.3320060E-001	-4.266077339228941E-002	1.4214595E-005	-3.3341312E-001	0
7.8915322E+003	2.140819966567506E+001	-3.3523887E-001	-4.248083361066547E-002	1.4241226E-005	-3.3541310E-001	0
7.9711553E+003	2.160819966062263E+001	-3.3722711E-001	-4.230592512898379E-002	1.4266705E-005	-3.3741313E-001	0
8.0476836E+003	2.180819965557021E+001	-3.3925667E-001	-4.215581785695299E-002	1.4301642E-005	-3.3941311E-001	0
8.1214692E+003	2.200819965051778E+001	-3.4123552E-001	-4.201647546485515E-002	1.4337514E-005	-3.4141311E-001	0
8.2058711E+003	2.220819964546536E+001	-3.4326914E-001	-4.183213720377948E-002	1.4359682E-005	-3.4341311E-001	0
8.2853662E+003	2.240819964041293E+001	-3.4524143E-001	-4.166881763798669E-002	1.4385802E-005	-3.4541312E-001	0
8.3659609E+003	2.260819963536051E+001	-3.4723553E-001	-4.150575449291077E-002	1.4412272E-005	-3.4741312E-001	0
8.4446221E+003	2.280819963030808E+001	-3.4924227E-001	-4.135676882891798E-002	1.4443532E-005	-3.4941313E-001	0
8.5254404E+003	2.300819962525566E+001	-3.5122347E-001	-4.119710611071759E-002	1.4469390E-005	-3.5141313E-001	0
8.5991904E+003	2.320819962020323E+001	-3.5321084E-001	-4.107489435175371E-002	1.4508098E-005	-3.5341311E-001	0
8.6835986E+003	2.340819961515081E+001	-3.5521451E-001	-4.090636993585212E-002	1.4530536E-005	-3.5541314E-001	0
8.7612969E+003	2.360819961009838E+001	-3.5720950E-001	-4.077130466458834E-002	1.4563898E-005	-3.5741311E-001	0
8.8420391E+003	2.380819960504596E+001	-3.5923314E-001	-4.062786316335449E-002	1.4594875E-005	-3.5941309E-001	0
8.9204570E+003	2.400819959999353E+001	-3.6122409E-001	-4.049389915199753E-002	1.4627371E-005	-3.6141312E-001	0
8.9976807E+003	2.420819959494111E+001	-3.6321825E-001	-4.036798405877035E-002	1.4662389E-005	-3.6341313E-001	0
9.0794775E+003	2.440819958988868E+001	-3.6522344E-001	-4.022515949934642E-002	1.4691171E-005	-3.6541310E-001	0
9.1625244E+003	2.460819958483626E+001	-3.6722881E-001	-4.007943388778953E-002	1.4718323E-005	-3.6741313E-001	0
9.2384287E+003	2.480819957978383E+001	-3.6918983E-001	-3.996240594181411E-002	1.4753714E-005	-3.6941311E-001	0
9.3177734E+003	2.500819957473141E+001	-3.7120903E-001	-3.983881034045700E-002	1.4788526E-005	-3.7141314E-001	0
9.3891416E+003	2.520819956967898E+001	-3.7320527E-001	-3.974860423543358E-002	1.4834389E-005	-3.7341312E-001	0
9.4738584E+003	2.540819956462656E+001	-3.7521726E-001	-3.960554002807448E-002	1.4860682E-005	-3.7541315E-001	0
9.5464355E+003	2.560819955957413E+001	-3.7720630E-001	-3.951278989427121E-002	1.4904473E-005	-3.7741312E-001	0
9.6302139E+003	2.580819955452171E+001	-3.7922928E-001	-3.937911222342506E-002	1.4933712E-005	-3.7941310E-001	0
9.7116357E+003	2.600819954946928E+001	-3.8126102E-001	-3.925816645627195E-002	1.4967609E-005	-3.8141310E-001	0
9.7931807E+003	2.620819954441686E+001	-3.8325095E-001	-3.913447006696369E-002	1.4998323E-005	-3.8341311E-001	0
9.8659756E+003	2.640819953936443E+001	-3.8520560E-001	-3.904384410150286E-002	1.5039907E-005	-3.8541314E-001	0
9.9482041E+003	2.660819953431201E+001	-3.8722607E-001	-3.892421988213901E-002	1.5072473E-005	-3.8741314E-001	0
1.0024110E+004	2.680819952925958E+001	-3.8925412E-001	-3.883178584972441E-002	1.5115433E-005	-3.8941312E-001	0
1.0100577E+004	2.700819952420716E+001	-3.9122245E-001	-3.873268097703475E-002	1.5153094E-005	-3.9141309E-001	0
1.0181804E+004	2.720819951915473E+001	-3.9321294E-001	-3.861918177982571E-002	1.5185562E-005	-3.9341316E-001	0
1.0259324E+004	2.740819951410231E+001	-3.9517018E-001	-3.851814907996606E-002	1.5221224E-005	-3.9541316E-001	0
1.0354954E+004	2.760819950904988E+001	-3.9723077E-001	-3.836142258426119E-002	1.5238337E-005	-3.9741313E-001	0
1.0445308E+004	2.780819950399746E+001	-3.9926949E-001	-3.822477137941277E-002	1.5261985E-005	-3.9941311E-001	0
1.0520835E+004	2.800819949894503E+001	-4.0115684E-001	-3.812975329484225E-002	1.5296011E-005	-4.0141314E-001	0
1.0606886E+004	2.820819949389261E+001	-4.0323085E-001	-3.801594955831877E-002	1.5329204E-005	-4.0341312E-001	0
1.0682925E+004	2.840819948884018E+001	-4.0525445E-001	-3.793478446332599E-002	1.5373240E-005	-4.0541312E-001	0
1.0761953E+004	2.860819948378776E+001	-4.0722814E-001	-3.783961278154113E-002	1.5409356E-005	-4.0741313E-001	0
1.0850993E+004	2.880819947873533E+001	-4.0922636E-001	-3.771326375693346E-002	1.5433261E-005	-4.0941316E-001	0
1.0914328E+004	2.900819947368291E+001	-4.1120249E-001	-3.767547322423437E-002	1.5492249E-005	-4.1141310E-001	0
1.0995926E+004	2.920819946863048E+001	-4.1327342E-001	-3.758423335036121E-002	1.5532565E-005	-4.1341314E-001	0
1.1073060E+004	2.940819946357806E+001	-4.1526186E-001	-3.750199882911270E-002	1.5573150E-005	-4.1541317E-001	0
1.1163412E+004	2.960819945852563E+001	-4.1728041E-001	-3.737929001869744E-002	1.5597645E-005	-4.1741315E-001	0
1.1230711E+004	2.980819945347321E+001	-4.1929322E-001	-3.733452122348047E-002	1.5654112E-005	-4.1941312E-001	0
1.1324882E+004	3.000819944842078E+001	-4.2124709E-001	-3.719659809755949E-002	1.5668958E-005	-4.2141315E-001	0
1.1396324E+004	3.020819944336836E+001	-4.2327473E-001	-3.714133769272701E-002	1.5720989E-005	-4.2341313E-001	0
1.1482082E+004	3.040819943831593E+001	-4.2526084E-001	-3.703690936858617E-002	1.5750347E-005	-4.2541313E-001	0
1.1561255E+004	3.060819943326351E+001	-4.2728934E-001	-3.695873426280849E-002	1.5792073E-005	-4.2741314E-001	0
1.1635828E+004	3.080819942821108E+001	-4.2926103E-001	-3.689131881543294E-002	1.5836005E-005	-4.2941314E-001	0
1.1706756E+004	3.100819942315866E+001	-4.3127188E-001	-3.683957349785649E-002	1.5887872E-005	-4.3141311E-001	0
1.1797127E+004	3.120819941810623E+001	-4.3328297E-001	-3.672783875514823E-002	1.5913547E-005	-4.3341315E-001	0
1.1872250E+004	3.140819941305381E+001	-4.3527269E-001	-3.666303284854844E-002	1.5958418E-005	-4.3541312E-001	0
1.1950385E+004	3.160819940800138E+001	-4.3729845E-001	-3.659283384984850E-002	1.6001990E-005	-4.3741316E-001	0
1.2029637E+004	3.180819940294896E+001	-4.3930006E-001	-3.651814881364790E-002	1.6042424E-005	-4.3941313E-001	0
1.2106063E+004	3.200819939789653E+001	-4.4128525E-001	-3.645159196622805E-002	1.6085551E-005	-4.4141310E-001	0
1.2198769E+004	3.220819939284411E+001	-4.4324163E-001	-3.633494711535931E-002	1.6105161E-005	-4.4341314E-001	0
1.2272379E+004	3.240819938779168E+001	-4.4526893E-001	-3.628220054602926E-002	1.6155336E-005	-4.4541314E-001	0
1.2356578E+004	3.260819938273926E+001	-4.4727746E-001	-3.619751780449099E-002	1.6190334E-005	-4.4741315E-001	0
1.2423758E+004	3.280819937768683E+001	-4.4933674E-001	-3.616753973456437E-002	1.6251404E-005	-4.4941315E-001	0
1.2506676E+004	3.300819937263441E+001	-4.5127276E-001	-3.608255135212202E-002	1.6283073E-005	-4.5141315E-001	0
1.2590106E+004	3.320819936758198E+001	-4.5332888E-001	-3.600675579928117E-002	1.6322902E-005	-4.5341310E-001	0
1.2673455E+004	3.340819936252956E+001	-4.5525977E-001	-3.592230856541112E-002	1.6353983E-005	-4.5541313E-001	0
1.2741504E+004	3.360819935747713E+001	-4.5725098E-001	-3.588673475361066E-002	1.6409245E-005	-4.5741317E-001	0
1.2826661E+004	3.380819935242471E+001	-4.5930916E-001	-3.580894261966028E-002	1.6447375E-005	-4.5941314E-001	0
1.2897473E+004	3.400819934737228E+001	-4.6131092E-001	-3.576754464618992E-002	1.6499958E-005	-4.6141312E-001	0
1.2974012E+004	3.420819934231986E+001	-4.6326435E-001	-3.570710169705787E-002	1.6541828E-005	-4.6341315E-001	0
1.3059624E+004	3.440819933726743E+001	-4.6525195E-001	-3.562521858007778E-002	1.6574702E-005	-4.6541312E-001	0
1.3128494E+004	3.460819933221501E+001	-4.6725711E-001	-3.559106716631699E-002	1.6630180E-005	-4.6741313E-001	0
1.3202718E+004	3.480819932716258E+001	-4.6926099E-001	-3.554275675223764E-002	1.6678829E-005	-4.6941316E-001	0
1.3279903E+004	3.500819932211016E+001	-4.7127256E-001	-3.548764897079587E-002	1.6724354E-005	-4.7141317E-001	0
1.3355679E+004	3.520819931705773E+001	-4.7327200E-001	-3.543601283310460E-002	1.6770873E-005	-4.7341311E-001	0
1.3430331E+004	3.540819931200531E+001	-4.7528076E-001	-3.538861074785815E-002	1.6819526E-005	-4.7541314E-001	0
1.3517053E+004	3.560819930695288E+001	-4.7725672E-001	-3.530774900479583E-002	1.6850860E-005	-4.7741318E-001	0
1.3577315E+004	3.580819930190046E+001	-4.7927204E-001	-3.529946917595128E-002	1.6918049E-005	-4.7941312E-001	0
1.3658810E+004	3.600819929684803E+001	-4.8127317E-001	-3.523536732255597E-002	1.6957838E-005	-4.8141313E-001	0
1.3733803E+004	3.620819929179561E+001	-4.8323190E-001	-3.518558569150088E-002	1.7002798E-005	-4.8341316E-001	0
1.3804439E+004	3.640819928674318E+001	-4.8527911E-001	-3.515384307811176E-002	1.7059427E-005	-4.8541319E-001	0
1.3871780E+004	3.660819928169076E+001	-4.8724544E-001	-3.512493847413178E-002	1.7114466E-005	-4.8741314E-001	0
1.3921324E+004	3.680819927663833E+001	-4.8924172E-001	-3.514333113963589E-002	1.7193584E-005	-4.8941311E-001	0
1.4019099E+004	3.700819927158591E+001	-4.9127448E-001	-3.504322826135864E-002	1.7215843E-005	-4.9141315E-001	0
1.4086047E+004	3.720819926653348E+001	-4.9325901E-001	-3.501756176776982E-002	1.7272729E-005	-4.9341312E-001	0
1.4164041E+004	3.740819926148106E+001	-4.9530649E-001	-3.496929189446857E-002	1.7320517E-005	-4.9541309E-001	0
1.4240594E+004	3.760819925642863E+001	-4.9724185E-001	-3.491721407071080E-002	1.7362301E-005	-4.9741319E-001	0
1.4310880E+004	3.780819925137621E+001	-4.9923894E-001	-3.488527258642672E-002	1.7416087E-005	-4.9941313E-001	0
1.4378555E+004	3.800819924632378E+001	-5.0129807E-001	-3.486428895881821E-002	1.7477401E-005	-5.0141311E-001	0
1.4466974E+004	3.820819924127136E+001	-5.0327694E-001	-3.478799005384325E-002	1.7507993E-005	-5.0341314E-001	0
1.4528266E+004	3.840819923621893E+001	-5.0522012E-001	-3.477497717319167E-002	1.7569018E-005	-5.0541312E-001	0
1.4610738E+004	3.860819923116651E+001	-5.0729305E-001	-3.472056316160083E-002	1.7613500E-005	-5.0741315E-001	0
1.4673982E+004	3.880819922611408E+001	-5.0928754E-001	-3.470683908654920E-002	1.7675760E-005	-5.0941312E-001	0
1.4675251E+004	3.900819922106166E+001	-5.1126730E-001	-3.483874416358934E-002	1.7811912E-005	-5.1141316E-001	0
1.4807938E+004	3.920819921600923E+001	-5.1324958E-001	-3.466043304947625E-002	1.7789453E-005	-5.1341313E-001	0
1.4877075E+004	3.940819921095681E+001	-5.1527387E-001	-3.463542880569603E-002	1.7846731E-005	-5.1541311E-001	0
1.4943958E+004	3.960819920590438E+001	-5.1727712E-001	-3.461446484990094E-002	1.7905271E-005	-5.1741314E-001	0
1.5032620E+004	3.980819920085196E+001	-5.1928163E-001	-3.454365301164514E-002	1.7937884E-005	-5.1941311E-001	0
1.5118049E+004	4.000819919579953E+001	-5.2130699E-001	-3.448242591688722E-002	1.7975930E-005	-5.2141315E-001	0
1.5188504E+004	4.020819919074711E+001	-5.2322984E-001	-3.444907002894387E-002	1.8024781E-005	-5.2341318E-001	0
1.5281847E+004	4.040819918569468E+001	-5.2526373E-001	-3.437174490891618E-002	1.8054230E-005	-5.2541316E-001	0
1.5365789E+004	4.060819918064226E+001	-5.2731997E-001	-3.431779252314560E-002	1.8096458E-005	-5.2741325E-001	0
1.5434104E+004	4.080819917558983E+001	-5.2924961E-001	-3.429091808464302E-002	1.8148456E-005	-5.2941310E-001	0
1.5523034E+004	4.100819917053741E+001	-5.3126073E-001	-3.422402622428442E-002	1.8181881E-005	-5.3141314E-001	0
1.5605104E+004	4.120819916548498E+001	-5.3328478E-001	-3.417374319217426E-002	1.8224337E-005	-5.3341317E-001	0
1.5668129E+004	4.140819916043256E+001	-5.3528124E-001	-3.416369889193371E-002	1.8287186E-005	-5.3541309E-001	0
1.5741512E+004	4.160819915538013E+001	-5.3723234E-001	-3.412838321593076E-002	1.8334871E-005	-5.3741318E-001	0
1.5830771E+004	4.180819915032771E+001	-5.3925073E-001	-3.406345497926611E-002	1.8368743E-005	-5.3941321E-001	0
1.5906950E+004	4.200819914527528E+001	-5.4128045E-001	-3.402792213985140E-002	1.8418648E-005	-5.4141319E-001	0
1.5993583E+004	4.220819914022286E+001	-5.4328221E-001	-3.396876274408511E-002	1.8454624E-005	-5.4341310E-001	0
1.6060742E+004	4.240819913517043E+001	-5.4528660E-001	-3.395151815618969E-002	1.8513309E-005	-5.4541314E-001	0
1.6145255E+004	4.260819913011801E+001	-5.4733104E-001	-3.390042730126641E-002	1.8554756E-005	-5.4741323E-001	0
1.6230924E+004	4.280819912506558E+001	-5.4931313E-001	-3.384361379302589E-002	1.8590741E-005	-5.4941308E-001	0
1.6297588E+004	4.300819912001316E+001	-5.5130488E-001	-3.382739137547724E-002	1.8649205E-005	-5.5141312E-001	0
1.6378942E+004	4.320819911496073E+001	-5.5330008E-001	-3.378118550966672E-002	1.8691133E-005	-5.5341321E-001	0
1.6447205E+004	4.340819910990831E+001	-5.5525434E-001	-3.375979947784691E-002	1.8745275E-005	-5.5541313E-001	0
1.6535512E+004	4.360819910485588E+001	-5.5730534E-001	-3.370354347202363E-002	1.8783165E-005	-5.5741316E-001	0
1.6601074E+004	4.380819909980346E+001	-5.5926317E-001	-3.368837041109837E-002	1.8840665E-005	-5.5941314E-001	0
1.6678188E+004	4.400819909475103E+001	-5.6128836E-001	-3.365403884766272E-002	1.8889621E-005	-5.6141323E-001	0
1.6773232E+004	4.420819908969861E+001	-5.6327802E-001	-3.358196179369838E-002	1.8915980E-005	-5.6341314E-001	0
1.6835271E+004	4.440819908464618E+001	-5.6524140E-001	-3.357483081909238E-002	1.8977884E-005	-5.6541312E-001	0
1.6909979E+004	4.460819907959376E+001	-5.6729752E-001	-3.354809083131120E-002	1.9031748E-005	-5.6741321E-001	0
1.6978557E+004	4.480819907454134E+001	-5.6926191E-001	-3.352828634651506E-002	1.9086376E-005	-5.6941307E-001	0
1.7060717E+004	4.500819906948891E+001	-5.7125336E-001	-3.348354974977011E-002	1.9127590E-005	-5.7141316E-001	0
1.7129186E+004	4.520819906443649E+001	-5.7329035E-001	-3.346862984518148E-002	1.9187242E-005	-5.7341319E-001	0
1.7215295E+004	4.540819905938406E+001	-5.7524198E-001	-3.341458671881509E-002	1.9221474E-005	-5.7541317E-001	0
1.7272461E+004	4.560819905433164E+001	-5.7726657E-001	-3.342121180918822E-002	1.9292949E-005	-5.7741314E-001	0
1.7370877E+004	4.580819904927921E+001	-5.7924348E-001	-3.334566675044204E-002	1.9315261E-005	-5.7941312E-001	0
1.7432037E+004	4.600819904422679E+001	-5.8123928E-001	-3.334316637556023E-002	1.9380359E-005	-5.8141321E-001	0
1.7512121E+004	4.620819903917436E+001	-5.8326805E-001	-3.330653281687068E-002	1.9426636E-005	-5.8341306E-001	0
1.7572260E+004	4.640819903412194E+001	-5.8527792E-001	-3.330692367220622E-002	1.9493807E-005	-5.8541310E-001	0
1.7657303E+004	4.660819902906951E+001	-5.8725721E-001	-3.325860210997425E-002	1.9531353E-005	-5.8741319E-001	0
1.7724281E+004	4.680819902401709E+001	-5.8925623E-001	-3.324570547648895E-002	1.9590239E-005	-5.8941311E-001	0
1.7791438E+004	4.700819901896466E+001	-5.9125233E-001	-3.323240852423748E-002	1.9648738E-005	-5.9141314E-001	0
1.7868588E+004	4.720819901391224E+001	-5.9323901E-001	-3.320010426737235E-002	1.9695597E-005	-5.9341311E-001	0
1.7940893E+004	4.740819900885981E+001	-5.9525758E-001	-3.317881474913431E-002	1.9749941E-005	-5.9541315E-001	0
1.8010324E+004	4.760819900380739E+001	-5.9726018E-001	-3.316210180097579E-002	1.9806403E-005	-5.9741312E-001	0
1.8082023E+004	4.780819899875496E+001	-5.9925729E-001	-3.314105405069913E-002	1.9860017E-005	-5.9941316E-001	0
1.8144035E+004	4.800819899370254E+001	-6.0127115E-001	-3.313877835448467E-002	1.9925392E-005	-6.0141319E-001	0
1.8212178E+004	4.820819898865011E+001	-6.0326833E-001	-3.312444783057666E-002	1.9982930E-005	-6.0341311E-001	0
1.8305910E+004	4.840819898359769E+001	-6.0523611E-001	-3.306233382476564E-002	2.0010519E-005	-6.0541314E-001	0
1.8372660E+004	4.860819897854526E+001	-6.0731494E-001	-3.305536119321188E-002	2.0075015E-005	-6.0741317E-001	0
1.8432066E+004	4.880819897349284E+001	-6.0930926E-001	-3.305702247839562E-002	2.0141950E-005	-6.0941315E-001	0
1.8517637E+004	4.900819896844041E+001	-6.1130327E-001	-3.301195019925784E-002	2.0180312E-005	-6.1141318E-001	0
1.8579703E+004	4.920819896338799E+001	-6.1326593E-001	-3.300730540267199E-002	2.0242256E-005	-6.1341316E-001	0
1.8629193E+004	4.940819895833556E+001	-6.1528003E-001	-3.302773464547123E-002	2.0321306E-005	-6.1541319E-001	0
1.8712729E+004	4.960819895328314E+001	-6.1723346E-001	-3.298468526733662E-002	2.0359252E-005	-6.1741310E-001	0
1.8773135E+004	4.980819894823071E+001	-6.1929399E-001	-3.298830984333471E-002	2.0429461E-005	-6.1941308E-001	0
1.8841477E+004	5.000819894317829E+001	-6.2129724E-001	-3.297497750240921E-002	2.0487263E-005	-6.2141317E-001	0
1.8903906E+004	5.020819893812586E+001	-6.2329036E-001	-3.297151233805577E-002	2.0550826E-005	-6.2341315E-001	0
1.8962002E+004	5.040819893307344E+001	-6.2523323E-001	-3.297295550712287E-002	2.0615787E-005	-6.2541312E-001	0
1.9038637E+004	5.060819892802101E+001	-6.2735504E-001	-3.295168025174156E-002	2.0672403E-005	-6.2741315E-001	0
1.9103744E+004	5.080819892296859E+001	-6.2926859E-001	-3.293954085953565E-002	2.0727819E-005	-6.2941325E-001	0
1.9176197E+004	5.100819891791616E+001	-6.3123763E-001	-3.291776743421837E-002	2.0778933E-005	-6.3141316E-001	0
1.9237287E+004	5.120819891286374E+001	-6.3324368E-001	-3.291751564345224E-002	2.0844809E-005	-6.3341314E-001	0
1.9311105E+004	5.140819890781131E+001	-6.3524842E-001	-3.289549816779934E-002	2.0896814E-005	-6.3541317E-001	0
1.9364170E+004	5.160819890275889E+001	-6.3726521E-001	-3.290950380531799E-002	2.0972082E-005	-6.3741314E-001	0
1.9436102E+004	5.180819889770646E+001	-6.3929653E-001	-3.289222092285349E-002	2.1027883E-005	-6.3941312E-001	0
1.9500504E+004	5.200819889265404E+001	-6.4128780E-001	-3.288570364600335E-002	2.1089201E-005	-6.4141315E-001	0
1.9547236E+004	5.220819888760161E+001	-6.4325470E-001	-3.290770687015054E-002	2.1168036E-005	-6.4341319E-001	0
1.9628727E+004	5.240819888254919E+001	-6.4527327E-001	-3.287392412840284E-002	2.1212665E-005	-6.4541310E-001	0
1.9671355E+004	5.260819887749676E+001	-6.4731687E-001	-3.290657223890747E-002	2.1300979E-005	-6.4741313E-001	0
1.9729975E+004	5.280819887244434E+001	-6.4927959E-001	-3.290828208749486E-002	2.1366675E-005	-6.4941317E-001	0
1.9803168E+004	5.300819886739191E+001	-6.5129071E-001	-3.288820880632048E-002	2.1419784E-005	-6.5141320E-001	0
1.9857270E+004	5.320819886233949E+001	-6.5327275E-001	-3.289841743246302E-002	2.1491640E-005	-6.5341312E-001	0
1.9910092E+004	5.340819885728706E+001	-6.5529150E-001	-3.291252909398196E-002	2.1567301E-005	-6.5541315E-001	0
1.9990920E+004	5.360819885223464E+001	-6.5727949E-001	-3.287890138470961E-002	2.1610627E-005	-6.5741318E-001	0
2.0049754E+004	5.380819884718221E+001	-6.5927958E-001	-3.288217995087712E-002	2.1678550E-005	-6.5941310E-001	0
2.0106180E+004	5.400819884212979E+001	-6.6128927E-001	-3.288985164667102E-002	2.1749705E-005	-6.6141313E-001	0
2.0162033E+004	5.420819883707736E+001	-6.6329211E-001	-3.289807533323680E-002	2.1821033E-005	-6.6341323E-001	0
2.0229494E+004	5.440819883202494E+001	-6.6531640E-001	-3.288843553743476E-002	2.1881217E-005	-6.6541314E-001	0
2.0282357E+004	5.460819882697251E+001	-6.6731966E-001	-3.290148419111566E-002	2.1955808E-005	-6.6741312E-001	0
2.0341684E+004	5.480819882192009E+001	-6.6929173E-001	-3.290247551219378E-002	2.2021355E-005	-6.6941315E-001	0
2.0396764E+004	5.500819881686766E+001	-6.7131901E-001	-3.291301557539728E-002	2.2095133E-005	-6.7141318E-001	0
2.0441645E+004	5.520819881181524E+001	-6.7327446E-001	-3.293641380276191E-002	2.2175245E-005	-6.7341310E-001	0
2.0508467E+004	5.540819880676281E+001	-6.7529118E-001	-3.292743429961836E-002	2.2235607E-005	-6.7541313E-001	0
2.0562709E+004	5.560819880171039E+001	-6.7728651E-001	-3.293761138301632E-002	2.2308199E-005	-6.7741323E-001	0
2.0607592E+004	5.580819879665796E+001	-6.7926621E-001	-3.296194135479608E-002	2.2389933E-005	-6.7941314E-001	0
2.0660166E+004	5.600819879160554E+001	-6.8128204E-001	-3.297563302679130E-002	2.2465707E-005	-6.8141317E-001	0
2.0726479E+004	5.620819878655311E+001	-6.8328965E-001	-3.296699044252407E-002	2.2526003E-005	-6.8341315E-001	0
2.0782275E+004	5.640819878150069E+001	-6.8525404E-001	-3.297300314738749E-002	2.2594884E-005	-6.8541318E-001	0
2.0839033E+004	5.660819877644826E+001	-6.8729484E-001	-3.298112783420515E-002	2.2667758E-005	-6.8741316E-001	0
2.0908666E+004	5.680819877139584E+001	-6.8925965E-001	-3.296526114703444E-002	2.2721624E-005	-6.8941313E-001	0
2.0945988E+004	5.700819876634341E+001	-6.9127989E-001	-3.300297217150039E-002	2.2814291E-005	-6.9141322E-001	0
2.1003816E+004	5.720819876129099E+001	-6.9328165E-001	-3.300741212754010E-002	2.2883432E-005	-6.9341314E-001	0
2.1037850E+004	5.740819875623856E+001	-6.9526738E-001	-3.304840517182805E-002	2.2977478E-005	-6.9541317E-001	0
2.1106047E+004	5.760819875118614E+001	-6.9727725E-001	-3.303684795733619E-002	2.3035842E-005	-6.9741321E-001	0
2.1124607E+004	5.780819874613371E+001	-6.9929641E-001	-3.310340554601265E-002	2.3149092E-005	-6.9941312E-001	0
2.1215984E+004	5.800819874108129E+001	-7.0131177E-001	-3.305582012062536E-002	2.3182436E-005	-7.0141321E-001	0
2.1259994E+004	5.820819873602886E+001	-7.0328784E-001	-3.308034058641285E-002	2.3265002E-005	-7.0341319E-001	0
2.1289480E+004	5.840819873097644E+001	-7.0527476E-001	-3.312785115622008E-002	2.3364237E-005	-7.0541328E-001	0
2.1366449E+004	5.860819872592401E+001	-7.0729923E-001	-3.310326424922561E-002	2.3413913E-005	-7.0741314E-001	0
2.1404301E+004	5.880819872087159E+001	-7.0926505E-001	-3.313656767609552E-002	2.3502609E-005	-7.0941311E-001	0
2.1447980E+004	5.900819871581916E+001	-7.1125305E-001	-3.316177138261489E-002	2.3586412E-005	-7.1141320E-001	0
2.1501910E+004	5.920819871076674E+001	-7.1326792E-001	-3.317230487877998E-002	2.3660741E-005	-7.1341318E-001	0
2.1557605E+004	5.940819870571431E+001	-7.1525288E-001	-3.317867865196744E-002	2.3731145E-005	-7.1541315E-001	0
2.1584248E+004	5.960819870066189E+001	-7.1726704E-001	-3.323104234661509E-002	2.3835531E-005	-7.1741319E-001	0
2.1627051E+004	5.980819869560946E+001	-7.1931189E-001	-3.325982470078021E-002	2.3924187E-005	-7.1941322E-001	0
2.1691320E+004	6.000819869055704E+001	-7.2130841E-001	-3.325332053160912E-002	2.3985900E-005	-7.2141314E-001	0
2.1740328E+004	6.020819868550461E+001	-7.2329897E-001	-3.326991836850823E-002	2.4064098E-005	-7.2341317E-001	0
2.1770652E+004	6.040819868045219E+001	-7.2525275E-001	-3.331332170703327E-002	2.4160578E-005	-7.2541326E-001	0
2.1821600E+004	6.060819867539976E+001	-7.2728699E-001	-3.332876665686624E-002	2.4239578E-005	-7.2741318E-001	0
2.1864588E+004	6.080819867034734E+001	-7.2925568E-001	-3.335327740210631E-002	2.4323066E-005	-7.2941315E-001	0
2.1889926E+004	6.100819866529491E+001	-7.3127574E-001	-3.340695316976139E-002	2.4429693E-005	-7.3141319E-001	0
2.1956168E+004	6.120819866024249E+001	-7.3331422E-001	-3.339900809673867E-002	2.4491967E-005	-7.3341322E-001	0
2.1962500E+004	6.140819865519006E+001	-7.3532790E-001	-3.348106644781579E-002	2.4619561E-005	-7.3541319E-001	0
2.2020129E+004	6.160819865013764E+001	-7.3725116E-001	-3.348078275265159E-002	2.4683746E-005	-7.3741317E-001	0
2.2052861E+004	6.180819864508521E+001	-7.3934823E-001	-3.352618136505475E-002	2.4787523E-005	-7.3941326E-001	0
2.2084982E+004	6.200819864003279E+001	-7.4128401E-001	-3.356507157325095E-002	2.4881250E-005	-7.4141324E-001	0
2.2142254E+004	6.220819863498036E+001	-7.4320042E-001	-3.356480476517199E-002	2.4945377E-005	-7.4341309E-001	0
2.2173199E+004	6.240819862992794E+001	-7.4531776E-001	-3.361345132413723E-002	2.5052703E-005	-7.4541318E-001	0
2.2213318E+004	6.260819862487551E+001	-7.4734068E-001	-3.364381129492305E-002	2.5143388E-005	-7.4741316E-001	0
2.2239076E+004	6.280819861982309E+001	-7.4925995E-001	-3.369114503276030E-002	2.5243426E-005	-7.4941313E-001	0
2.2295852E+004	6.300819861477066E+001	-7.5131220E-001	-3.369739903253222E-002	2.5317268E-005	-7.5141317E-001	0
2.2350734E+004	6.320819860971824E+001	-7.5335991E-001	-3.370627114108948E-002	2.5392954E-005	-7.5341320E-001	0
2.2382307E+004	6.340819860466581E+001	-7.5528646E-001	-3.374479965453581E-002	2.5486990E-005	-7.5541317E-001	0
2.2396352E+004	6.360819859961339E+001	-7.5727856E-001	-3.381258671281773E-002	2.5605546E-005	-7.5741315E-001	0
2.2440771E+004	6.380819859456096E+001	-7.5933462E-001	-3.383727865124697E-002	2.5693816E-005	-7.5941324E-001	0
2.2467135E+004	6.400819858950854E+001	-7.6129800E-001	-3.388496125570991E-002	2.5796553E-005	-7.6141316E-001	0
2.2521795E+004	6.420819858445611E+001	-7.6329315E-001	-3.389130985335814E-002	2.5869005E-005	-7.6341313E-001	0
2.2529707E+004	6.440819857940369E+001	-7.6529771E-001	-3.396838412951675E-002	2.5995927E-005	-7.6541322E-001	0
2.2553486E+004	6.460819857435126E+001	-7.6731169E-001	-3.402186564830822E-002	2.6105376E-005	-7.6741320E-001	0
2.2600707E+004	6.480819856929884E+001	-7.6933229E-001	-3.404018780968388E-002	2.6188216E-005	-7.6941317E-001	0
2.2639588E+004	6.500819856424641E+001	-7.7127421E-001	-3.406750128705843E-002	2.6275386E-005	-7.7141315E-001	0
2.2654270E+004	6.520819855919399E+001	-7.7326465E-001	-3.413328502217397E-002	2.6394062E-005	-7.7341324E-001	0
2.2666480E+004	6.540819855414156E+001	-7.7532405E-001	-3.420575456709618E-002	2.6520544E-005	-7.7541322E-001	0
2.2684494E+004	6.560819854908914E+001	-7.7727681E-001	-3.426467617942006E-002	2.6633139E-005	-7.7741313E-001	0
2.2745201E+004	6.580819854403671E+001	-7.7931005E-001	-3.426261262491967E-002	2.6701198E-005	-7.7941316E-001	0
2.2758660E+004	6.600819853898429E+001	-7.8130710E-001	-3.433009990978804E-002	2.6822350E-005	-7.8141326E-001	0
2.2774342E+004	6.620819853393186E+001	-7.8327602E-001	-3.439291688965229E-002	2.6939148E-005	-7.8341311E-001	0
2.2783053E+004	6.640819852887944E+001	-7.8527719E-001	-3.446760280833883E-002	2.7066622E-005	-7.8541321E-001	0
2.2820348E+004	6.660819852382701E+001	-7.8727955E-001	-3.449901514380432E-002	2.7160369E-005	-7.8741330E-001	0
2.2871748E+004	6.680819851877459E+001	-7.8931576E-001	-3.451051297222740E-002	2.7239692E-005	-7.8941315E-001	0
2.2859848E+004	6.700819851372216E+001	-7.9130018E-001	-3.461528658447682E-002	2.7391083E-005	-7.9141325E-001	0
2.2906082E+004	6.720819850866974E+001	-7.9327160E-001	-3.463148366889016E-002	2.7472173E-005	-7.9341322E-001	0
2.2900971E+004	6.740819850361731E+001	-7.9529566E-001	-3.472759558364132E-002	2.7618706E-005	-7.9541320E-001	0
2.2913154E+004	6.760819849856489E+001	-7.9732013E-001	-3.479748541888383E-002	2.7744736E-005	-7.9741317E-001	0
2.2909152E+004	6.780819849351246E+001	-7.9931343E-001	-3.489057076123481E-002	2.7888502E-005	-7.9941320E-001	0
2.2935576E+004	6.800819848846004E+001	-8.0129617E-001	-3.493682316017642E-002	2.7994744E-005	-8.0141324E-001	0
2.2930180E+004	6.820819848340761E+001	-8.0332595E-001	-3.503356426225679E-002	2.8143371E-005	-8.0341321E-001	0
2.2976383E+004	6.840819847835519E+001	-8.0527419E-001	-3.504790997638430E-002	2.8223178E-005	-8.0541313E-001	0
2.2960016E+004	6.860819847330276E+001	-8.0729556E-001	-3.516093356895961E-002	2.8385266E-005	-8.0741328E-001	0
2.3017748E+004	6.880819846825034E+001	-8.0935723E-001	-3.516231184902396E-002	2.8458871E-005	-8.0941325E-001	0
2.2959547E+004	6.900819846319791E+001	-8.1130695E-001	-3.533636752828581E-002	2.8668641E-005	-8.1141317E-001	0
2.2989066E+004	6.920819845814549E+001	-8.1329268E-001	-3.537736857592916E-002	2.8772154E-005	-8.1341320E-001	0
2.3044559E+004	6.940819845309306E+001	-8.1533843E-001	-3.538095330673785E-002	2.8847451E-005	-8.1541324E-001	0
2.3012600E+004	6.960819844804064E+001	-8.1729090E-001	-3.551493280819590E-002	2.9026032E-005	-8.1741321E-001	0
2.3042963E+004	6.980819844298821E+001	-8.1930500E-001	-3.555554086859847E-002	2.9130833E-005	-8.1941319E-001	0
2.3000275E+004	7.000819843793579E+001	-8.2131100E-001	-3.570874654682654E-002	2.9327986E-005	-8.2141328E-001	0
2.2983443E+004	7.020819843288336E+001	-8.2328373E-001	-3.582073022535405E-002	2.9490624E-005	-8.2341313E-001	0
2.2957090E+004	7.040819842783094E+001	-8.2527661E-001	-3.594866107231698E-002	2.9667590E-005	-8.2541323E-001	0
2.2980953E+004	7.060819842277851E+001	-8.2734442E-001	-3.600130859834216E-002	2.9785482E-005	-8.2741320E-001	0
2.2923945E+004	7.080819841772609E+001	-8.2931942E-001	-3.617699422093215E-002	3.0002284E-005	-8.2941318E-001	0
2.2952467E+004	7.100819841267366E+001	-8.3132255E-001	-3.621931024589488E-002	3.0109930E-005	-8.3141327E-001	0
2.2873367E+004	7.120819840762124E+001	-8.3331257E-001	-3.643156682740889E-002	3.0358882E-005	-8.3341318E-001	0
2.2852092E+004	7.140819840256881E+001	-8.3529657E-001	-3.655230146600463E-002	3.0532014E-005	-8.3541334E-001	0
2.2853578E+004	7.160819839751639E+001	-8.3730537E-001	-3.663782405407251E-002	3.0677045E-005	-8.3741319E-001	0
2.2697648E+004	7.180819839246396E+001	-8.3929604E-001	-3.697722298230410E-002	3.1034837E-005	-8.3941311E-001	0
2.2732756E+004	7.200819838741154E+001	-8.4130979E-001	-3.700870233445364E-002	3.1135784E-005	-8.4141326E-001	0
2.2610070E+004	7.220819838235911E+001	-8.4323817E-001	-3.729480557970460E-002	3.1448402E-005	-8.4341323E-001	0
2.2536875E+004	7.240819837730669E+001	-8.4531432E-001	-3.750805296225579E-002	3.1706095E-005	-8.4541321E-001	0
2.2400572E+004	7.260819837225426E+001	-8.4731674E-001	-3.782567499990008E-002	3.2050328E-005	-8.4741324E-001	0
2.2274676E+004	7.280819836720184E+001	-8.4927529E-001	-3.812739210754454E-002	3.2380653E-005	-8.4941322E-001	0
2.2084205E+004	7.300819836214941E+001	-8.5135233E-001	-3.855028249827042E-002	3.2819873E-005	-8.5141319E-001	0
2.1817486E+004	7.320819835709699E+001	-8.5331148E-001	-3.911135715507439E-002	3.3374170E-005	-8.5341316E-001	0
2.1637740E+004	7.340819835204456E+001	-8.5537058E-001	-3.953141767068091E-002	3.3814013E-005	-8.5541326E-001	0
2.1329016E+004	7.360819834699214E+001	-8.5726291E-001	-4.019233529443278E-002	3.4455399E-005	-8.5741323E-001	0
2.0897139E+004	7.380819834193971E+001	-8.5925955E-001	-4.111852607390964E-002	3.5331486E-005	-8.5941321E-001	0
2.0427756E+004	7.400819833688729E+001	-8.6133695E-001	-4.216502906935166E-002	3.6318299E-005	-8.6141318E-001	0
1.9906738E+004	7.420819833183486E+001	-8.6335349E-001	-4.336991177158019E-002	3.7443566E-005	-8.6341316E-001	0
1.9204600E+004	7.440819832678244E+001	-8.6528528E-001	-4.505614738102559E-002	3.8986422E-005	-8.6541325E-001	0
1.8417568E+004	7.460819832173001E+001	-8.6733145E-001	-4.709261381743135E-002	4.0844905E-005	-8.6741316E-001	0
1.7545025E+004	7.480819831667759E+001	-8.6935377E-001	-4.954987307118203E-002	4.3076368E-005	-8.6941332E-001	0
1.6527064E+004	7.500819831162516E+001	-8.7129456E-001	-5.271925719279602E-002	4.5934001E-005	-8.7141329E-001	0
1.5518134E+004	7.520819830657274E+001	-8.7328166E-001	-5.627491412253488E-002	4.9143851E-005	-8.7341309E-001	0
1.4538421E+004	7.540819830152032E+001	-8.7525654E-001	-6.020299739799868E-002	5.2693067E-005	-8.7541324E-001	0
1.3551445E+004	7.560819829646789E+001	-8.7727183E-001	-6.473640152126503E-002	5.6791421E-005	-8.7741321E-001	0
1.2578057E+004	7.580819829141547E+001	-8.7931216E-001	-6.990842512268089E-002	6.1471328E-005	-8.7941319E-001	0
1.1684317E+004	7.600819828636304E+001	-8.8130873E-001	-7.542663728902760E-002	6.6474153E-005	-8.8141322E-001	0
1.0783143E+004	7.621819828105799E+001	-8.8341129E-001	-8.192521787007867E-002	7.2373659E-005	-8.8351321E-001	0
9.8281279E+003	7.642819827575295E+001	-8.8546550E-001	-9.009503236921113E-002	7.9776044E-005	-8.8561326E-001	0
9.2346592E+003	7.662819827070052E+001	-8.8747299E-001	-9.610241163857802E-002	8.5288295E-005	-8.8761318E-001	0
8.7295313E+003	7.682819826564810E+001	-8.8948119E-001	-1.018933464304170E-001	9.0632217E-005	-8.8961333E-001	0
8.3195625E+003	7.702819826059567E+001	-8.9147556E-001	-1.071541407472898E-001	9.5525298E-005	-8.9161319E-001	0
7.9963926E+003	7.722819825554325E+001	-8.9345384E-001	-1.117321109988403E-001	9.9827485E-005	-8.9361316E-001	0
7.7324658E+003	7.742819825049082E+001	-8.9547700E-001	-1.158074289729263E-001	1.0370289E-004	-8.9561325E-001	0
7.5220747E+003	7.762819824543840E+001	-8.9749020E-001	-1.193141814283267E-001	1.0708331E-004	-8.9761323E-001	0
7.3340347E+003	7.782819824038597E+001	-8.9947420E-001	-1.226438457049137E-001	1.1031498E-004	-8.9961320E-001	0
7.1326260E+003	7.802819823533355E+001	-9.0146852E-001	-1.263866241537708E-001	1.1393357E-004	-9.0161324E-001	0
6.9118799E+003	7.822819823028112E+001	-9.0347826E-001	-1.307138228850218E-001	1.1809710E-004	-9.0361327E-001	0
6.5870942E+003	7.842819822522870E+001	-9.0548509E-001	-1.374635121578141E-001	1.2447116E-004	-9.0561324E-001	0
6.2163975E+003	7.862819822017627E+001	-9.0747559E-001	-1.459809419236520E-001	1.3247415E-004	-9.0761316E-001	0
5.8802778E+003	7.882819821512385E+001	-9.0949196E-001	-1.546681951076769E-001	1.4066948E-004	-9.0961325E-001	0
5.4960913E+003	7.902819821007142E+001	-9.1147125E-001	-1.658398961730704E-001	1.5115830E-004	-9.1161323E-001	0
5.0777773E+003	7.922819820501900E+001	-9.1344583E-001	-1.798908735410039E-001	1.6432056E-004	-9.1361320E-001	0
4.6541865E+003	7.942819819996657E+001	-9.1549200E-001	-1.967028943460658E-001	1.8007992E-004	-9.1561329E-001	0
4.2262007E+003	7.962819819491415E+001	-9.1746897E-001	-2.170907320843294E-001	1.9917401E-004	-9.1761315E-001	0
3.8210574E+003	7.982819818986172E+001	-9.1948974E-001	-2.406375148711635E-001	2.2126372E-004	-9.1961324E-001	0
3.4344653E+003	8.002819818480930E+001	-9.2149311E-001	-2.683075928633980E-001	2.4724359E-004	-9.2161322E-001	0
3.0448025E+003	8.022819817975687E+001	-9.2348558E-001	-3.032990187478353E-001	2.8009227E-004	-9.2361331E-001	0
2.6907666E+003	8.042819817470445E+001	-9.2549545E-001	-3.439523184824047E-001	3.1832632E-004	-9.2561328E-001	0
2.4160669E+003	8.062819816965202E+001	-9.2749107E-001	-3.838846891941072E-001	3.5604963E-004	-9.2761320E-001	0
2.1586890E+003	8.082819816459960E+001	-9.2947739E-001	-4.305749408765571E-001	4.0020968E-004	-9.2961323E-001	0
1.8921410E+003	8.102819815954717E+001	-9.3145633E-001	-4.922763873398495E-001	4.5853396E-004	-9.3161333E-001	0
1.6859929E+003	8.122819815449475E+001	-9.3350244E-001	-5.536810930928144E-001	5.1686267E-004	-9.3361318E-001	0
1.5005476E+003	8.142819814944232E+001	-9.3549979E-001	-6.234389460706860E-001	5.8322703E-004	-9.3561321E-001	0
1.3230270E+003	8.162819814438990E+001	-9.3753213E-001	-7.086265889712351E-001	6.6436018E-004	-9.3761325E-001	0
1.1817405E+003	8.182819813933747E+001	-9.3950081E-001	-7.950144743128700E-001	7.4691675E-004	-9.3961322E-001	0
1.0493896E+003	8.202819813428505E+001	-9.4150454E-001	-8.971925014017508E-001	8.4471080E-004	-9.4161320E-001	0
9.3227765E+002	8.222819812923262E+001	-9.4350320E-001	-1.012040977313472E+000	9.5486391E-004	-9.4361323E-001	0
8.2776508E+002	8.244819812367496E+001	-9.4565970E-001	-1.142425188101862E+000	1.0803455E-003	-9.4581330E-001	0
7.4005524E+002	8.264819811862253E+001	-9.4766688E-001	-1.280535326430109E+000	1.2135209E-003	-9.4781321E-001	0
6.6172925E+002	8.284819811357011E+001	-9.4964975E-001	-1.435103141168419E+000	1.3628453E-003	-9.4981325E-001	0
5.9459924E+002	8.304819810851768E+001	-9.5168716E-001	-1.600552184570606E+000	1.5232250E-003	-9.5181322E-001	0
5.3501569E+002	8.324819810346526E+001	-9.5368344E-001	-1.782533580939926E+000	1.6999728E-003	-9.5381320E-001	0
4.8266779E+002	8.344819809841283E+001	-9.5566899E-001	-1.979972529370762E+000	1.8921983E-003	-9.5581323E-001	0
4.3795520E+002	8.364819809336041E+001	-9.5763290E-001	-2.186600167160670E+000	2.0939603E-003	-9.5781326E-001	0
3.9635236E+002	8.384819808830798E+001	-9.5969296E-001	-2.421312515663988E+000	2.3237166E-003	-9.5981324E-001	0
3.6110873E+002	8.404819808325556E+001	-9.6167183E-001	-2.663108747342683E+000	2.5610367E-003	-9.6181315E-001	0
3.2885861E+002	8.424819807820313E+001	-9.6363646E-001	-2.930245538738447E+000	2.8236913E-003	-9.6381325E-001	0
3.0134286E+002	8.444819807315071E+001	-9.6568811E-001	-3.204615929634961E+000	3.0946594E-003	-9.6581322E-001	0
2.7660181E+002	8.464819806809828E+001	-9.6767735E-001	-3.498449278763086E+000	3.3853701E-003	-9.6781319E-001	0
2.5394891E+002	8.484819806304586E+001	-9.6965098E-001	-3.818291525823199E+000	3.7024100E-003	-9.6981329E-001	0
2.3427538E+002	8.504819805799343E+001	-9.7164446E-001	-4.147446078710828E+000	4.0298430E-003	-9.7181326E-001	0
2.1665929E+002	8.524819805294101E+001	-9.7368729E-001	-4.494094506784634E+000	4.3758429E-003	-9.7381324E-001	0
2.0071935E+002	8.544819804788858E+001	-9.7564262E-001	-4.860730514910202E+000	4.7423360E-003	-9.7581321E-001	0
1.8658833E+002	8.564819804283616E+001	-9.7769463E-001	-5.239848557749855E+000	5.1229717E-003	-9.7781330E-001	0
1.7359190E+002	8.584819803778373E+001	-9.7965455E-001	-5.643434338220942E+000	5.5286163E-003	-9.7981328E-001	0
1.6199532E+002	8.604819803273131E+001	-9.8165166E-001	-6.059753631856182E+000	5.9485673E-003	-9.8181325E-001	0
1.5154073E+002	8.624819802767888E+001	-9.8366588E-001	-6.491099305163690E+000	6.3850731E-003	-9.8381323E-001	0
1.4194536E+002	8.644819802262646E+001	-9.8570156E-001	-6.944232695429804E+000	6.8449411E-003	-9.8581332E-001	0
1.3338750E+002	8.664819801757403E+001	-9.8768449E-001	-7.404626021917693E+000	7.3134340E-003	-9.8781317E-001	0
1.2552306E+002	8.684819801252161E+001	-9.8966867E-001	-7.884357674389491E+000	7.8029018E-003	-9.8981321E-001	0
1.1819206E+002	8.704819800746918E+001	-9.9168080E-001	-8.390418029966801E+000	8.3206166E-003	-9.9181324E-001	0
1.1165473E+002	8.724819800241676E+001	-9.9366456E-001	-8.899439565516388E+000	8.8430578E-003	-9.9381316E-001	0
1.0562267E+002	8.744819799736433E+001	-9.9572206E-001	-9.427161992474723E+000	9.3868328E-003	-9.9581313E-001	0
1.0017084E+002	8.764819799231191E+001	-9.9769878E-001	-9.959972483838769E+000	9.9370526E-003	-9.9781322E-001	0
9.5061287E+001	8.784819798725948E+001	-9.9969804E-001	-1.051635334247092E+001	1.0513178E-002	-9.9981320E-001	0
8.9792931E+001	8.805819798195444E+001	-1.0017810E+000	-1.115656830358253E+001	1.1176438E-002	-1.0019133E+000	0
8.5277809E+001	8.826819797664939E+001	-1.0038729E+000	-1.177179492330876E+001	1.1817385E-002	-1.0040132E+000	0
8.1255264E+001	8.846839797159191E+001	-1.0059272E+000	-1.237983992464195E+001	1.2453218E-002	-1.0060147E+000	0
7.7570282E+001	8.866869796653191E+001	-1.0079280E+000	-1.299373883818333E+001	1.3096754E-002	-1.0080180E+000	0
7.4071945E+001	8.886889796147443E+001	-1.0099258E+000	-1.363439039125680E+001	1.3769723E-002	-1.0100200E+000	0
7.0827492E+001	8.906909795641695E+001	-1.0119270E+000	-1.428720701939804E+001	1.4457610E-002	-1.0120220E+000	0
6.7825386E+001	8.926919795136200E+001	-1.0139122E+000	-1.494885967472516E+001	1.5156832E-002	-1.0140232E+000	0
6.5021812E+001	8.946929794630705E+001	-1.0159124E+000	-1.562417856860179E+001	1.5872797E-002	-1.0160240E+000	0
6.2350372E+001	8.966949794124957E+001	-1.0178915E+000	-1.632534787508860E+001	1.6617434E-002	-1.0180260E+000	0
5.9891380E+001	8.986969793619210E+001	-1.0199089E+000	-1.702931070412984E+001	1.7368346E-002	-1.0200280E+000	0
5.7555737E+001	9.006979793113715E+001	-1.0219320E+000	-1.775551973786754E+001	1.8144934E-002	-1.0220292E+000	0
5.5380775E+001	9.026989792608219E+001	-1.0239327E+000	-1.848895606956302E+001	1.8931447E-002	-1.0240300E+000	0
5.3332890E+001	9.047009792102472E+001	-1.0259199E+000	-1.923615803077612E+001	1.9734757E-002	-1.0260320E+000	0
5.1389938E+001	9.067019791596977E+001	-1.0279578E+000	-2.000309433053138E+001	2.0562338E-002	-1.0280333E+000	0
4.9588974E+001	9.087019791091734E+001	-1.0299248E+000	-2.076922816754470E+001	2.1390742E-002	-1.0300332E+000	0
4.7867336E+001	9.107029790586239E+001	-1.0319259E+000	-2.155803931797982E+001	2.2246299E-002	-1.0320340E+000	0
4.6256062E+001	9.127039790080744E+001	-1.0339168E+000	-2.235202911435334E+001	2.3110138E-002	-1.0340352E+000	0
4.4708260E+001	9.147079789574491E+001	-1.0359337E+000	-2.317096905294572E+001	2.4003588E-002	-1.0360388E+000	0
4.3256474E+001	9.167099789068743E+001	-1.0379463E+000	-2.399516754328795E+001	2.4905697E-002	-1.0380411E+000	0
4.1861809E+001	9.187119788562995E+001	-1.0399495E+000	-2.484244169913917E+001	2.5834886E-002	-1.0400428E+000	0
4.0559677E+001	9.207139788057248E+001	-1.0419731E+000	-2.568987778579299E+001	2.6768163E-002	-1.0420452E+000	0
3.9315960E+001	9.227139787552005E+001	-1.0439646E+000	-2.655320271450933E+001	2.7720604E-002	-1.0440452E+000	0
3.8112106E+001	9.247139787046763E+001	-1.0459076E+000	-2.744292478307310E+001	2.8702764E-002	-1.0460453E+000	0
3.6984715E+001	9.267139786541520E+001	-1.0479639E+000	-2.833505274108740E+001	2.9694112E-002	-1.0480453E+000	0
3.5888325E+001	9.287139786036278E+001	-1.0499109E+000	-2.925494199031609E+001	3.0715082E-002	-1.0500453E+000	0
3.4845863E+001	9.307139785531035E+001	-1.0519396E+000	-3.018836317797650E+001	3.1756334E-002	-1.0520452E+000	0
3.3837215E+001	9.327139785025793E+001	-1.0539420E+000	-3.114741967702923E+001	3.2827571E-002	-1.0540452E+000	0
3.2918049E+001	9.347149784520298E+001	-1.0559219E+000	-3.207729291336108E+001	3.3871118E-002	-1.0560460E+000	0
3.2021790E+001	9.367159784014802E+001	-1.0579555E+000	-3.303861169047366E+001	3.4953382E-002	-1.0580473E+000	0
3.1129610E+001	9.387169783509307E+001	-1.0598998E+000	-3.404796233846064E+001	3.6087427E-002	-1.0600481E+000	0
3.0297697E+001	9.407179783003812E+001	-1.0619572E+000	-3.505075763034171E+001	3.7222404E-002	-1.0620492E+000	0
2.9519024E+001	9.427179782498570E+001	-1.0639250E+000	-3.604201145128872E+001	3.8345996E-002	-1.0640492E+000	0
2.8761063E+001	9.447179781993327E+001	-1.0659701E+000	-3.706295817076767E+001	3.9508004E-002	-1.0660493E+000	0
2.8021582E+001	9.467179781488085E+001	-1.0679288E+000	-3.811093838712247E+001	4.0699769E-002	-1.0680492E+000	0
2.7351992E+001	9.487179780982842E+001	-1.0699439E+000	-3.911758697195125E+001	4.1853625E-002	-1.0700493E+000	0
2.6722683E+001	9.507179780477600E+001	-1.0719174E+000	-4.011264300995140E+001	4.2997442E-002	-1.0720493E+000	0
2.6106432E+001	9.527199779971852E+001	-1.0739896E+000	-4.113888897831279E+001	4.4182740E-002	-1.0740507E+000	0
2.5510504E+001	9.547219779466104E+001	-1.0759088E+000	-4.217512938846522E+001	4.5376591E-002	-1.0760533E+000	0
2.4932989E+001	9.567229778960609E+001	-1.0779696E+000	-4.323466927090851E+001	4.6605658E-002	-1.0780543E+000	0
2.4342457E+001	9.587239778455114E+001	-1.0799901E+000	-4.436652301066033E+001	4.7915407E-002	-1.0800554E+000	0
2.3818926E+001	9.607239777949872E+001	-1.0819759E+000	-4.542505068032915E+001	4.9148813E-002	-1.0820552E+000	0
2.3324606E+001	9.627239777444629E+001	-1.0839719E+000	-4.647332032981097E+001	5.0375771E-002	-1.0840552E+000	0
2.2852478E+001	9.647249776939134E+001	-1.0859591E+000	-4.752040599004908E+001	5.1605217E-002	-1.0860560E+000	0
2.2341179E+001	9.667279776433134E+001	-1.0879915E+000	-4.869892757608500E+001	5.2984018E-002	-1.0880587E+000	0
2.1856121E+001	9.687309775927133E+001	-1.0899565E+000	-4.986962356132847E+001	5.4355722E-002	-1.0900620E+000	0
2.1356176E+001	9.707319775421638E+001	-1.0919753E+000	-5.113159359393467E+001	5.5834439E-002	-1.0920632E+000	0
2.0846928E+001	9.727319774916396E+001	-1.0939796E+000	-5.247677807634909E+001	5.7408523E-002	-1.0940633E+000	0
2.0490097E+001	9.747329774410900E+001	-1.0959793E+000	-5.348824464486552E+001	5.8622010E-002	-1.0960641E+000	0
2.0080399E+001	9.767349773905153E+001	-1.0979972E+000	-5.468005025598592E+001	6.0038541E-002	-1.0980660E+000	0
1.9668032E+001	9.787369773399405E+001	-1.1000155E+000	-5.592911002918163E+001	6.1522890E-002	-1.1000681E+000	0
1.9215956E+001	9.807389772893657E+001	-1.1019635E+000	-5.734627950104829E+001	6.3193507E-002	-1.1020701E+000	0
1.8863178E+001	9.827409772387909E+001	-1.1039543E+000	-5.852430153083549E+001	6.4608157E-002	-1.1040721E+000	0
1.8563379E+001	9.847419771882414E+001	-1.1060050E+000	-5.957993741803168E+001	6.5895706E-002	-1.1060731E+000	0
1.8234163E+001	9.867419771377172E+001	-1.1079913E+000	-6.076458208144652E+001	6.7326628E-002	-1.1080732E+000	0
1.7885265E+001	9.887429770871677E+001	-1.1100371E+000	-6.206433675756273E+001	6.8893716E-002	-1.1100742E+000	0
1.7466803E+001	9.907439770366182E+001	-1.1120043E+000	-6.366387322105788E+001	7.0794500E-002	-1.1120752E+000	0
1.7005522E+001	9.927479769859929E+001	-1.1139964E+000	-6.550791803603033E+001	7.2975583E-002	-1.1140786E+000	0
1.6493719E+001	9.947499769354181E+001	-1.1159865E+000	-6.766130002772178E+001	7.5509094E-002	-1.1160812E+000	0
1.6095736E+001	9.967519768848433E+001	-1.1180015E+000	-6.945947965311217E+001	7.7655800E-002	-1.1180828E+000	0
1.5841109E+001	9.987549768342433E+001	-1.1200029E+000	-7.070229992292263E+001	7.9186782E-002	-1.1200860E+000	0
1.5496507E+001	1.000755976783694E+002	-1.1219996E+000	-7.240339008047999E+001	8.1236579E-002	-1.1220872E+000	0
1.5225975E+001	1.002755976733170E+002	-1.1240315E+000	-7.382328693342299E+001	8.2979701E-002	-1.1240872E+000	0
1.5005337E+001	1.004755976682645E+002	-1.1260192E+000	-7.504125053001326E+001	8.4497891E-002	-1.1260872E+000	0
1.4641361E+001	1.006756976632096E+002	-1.1279684E+000	-7.703986262374713E+001	8.6898535E-002	-1.1280881E+000	0
1.4384041E+001	1.008758976581521E+002	-1.1300025E+000	-7.855946141198092E+001	8.8772386E-002	-1.1300900E+000	0
1.4075029E+001	1.010759976530971E+002	-1.1320456E+000	-8.042936070003225E+001	9.1049708E-002	-1.1320913E+000	0
1.3781655E+001	1.012759976480447E+002	-1.1340796E+000	-8.228906899028368E+001	9.3322352E-002	-1.1340913E+000	0
1.3550475E+001	1.014760976429898E+002	-1.1360716E+000	-8.383997860759519E+001	9.5248215E-002	-1.1360921E+000	0
1.3183290E+001	1.016762976379323E+002	-1.1380866E+000	-8.632796496585981E+001	9.8248698E-002	-1.1380939E+000	0
1.2917748E+001	1.018765976328723E+002	-1.1400703E+000	-8.825612026611498E+001	1.0061818E-001	-1.1400968E+000	0
1.2684756E+001	1.020768976278123E+002	-1.1421238E+000	-9.003908563330194E+001	1.0283578E-001	-1.1421000E+000	0
1.2448829E+001	1.022769976227573E+002	-1.1440837E+000	-9.190292073215187E+001	1.0514463E-001	-1.1441013E+000	0
1.2239862E+001	1.024769976177049E+002	-1.1460954E+000	-9.363629846724234E+001	1.0731613E-001	-1.1461012E+000	0
1.1976666E+001	1.026771976126474E+002	-1.1481123E+000	-9.586242649775403E+001	1.1006083E-001	-1.1481028E+000	0
1.1814169E+001	1.028775976075849E+002	-1.1500543E+000	-9.734534393924145E+001	1.1195243E-001	-1.1501067E+000	0
1.1644232E+001	1.030778976025249E+002	-1.1521002E+000	-9.894170725739878E+001	1.1399076E-001	-1.1521100E+000	0
1.1418257E+001	1.032780975974674E+002	-1.1540847E+000	-1.010736340186868E+002	1.1664753E-001	-1.1541120E+000	0
1.1215923E+001	1.034781975924125E+002	-1.1560981E+000	-1.030765019047024E+002	1.1916655E-001	-1.1561133E+000	0
1.1051083E+001	1.036781975873600E+002	-1.1580757E+000	-1.047929596219745E+002	1.2135818E-001	-1.1581132E+000	0
1.0931675E+001	1.038782975823051E+002	-1.1600938E+000	-1.061222376971613E+002	1.2311175E-001	-1.1601140E+000	0
1.0791421E+001	1.040783975772501E+002	-1.1621151E+000	-1.076887923822378E+002	1.2514678E-001	-1.1621152E+000	0
1.0637984E+001	1.042783975721977E+002	-1.1640718E+000	-1.094259759163367E+002	1.2737969E-001	-1.1641152E+000	0
1.0432017E+001	1.044884975668901E+002	-1.1661760E+000	-1.117881503566987E+002	1.3036466E-001	-1.1662161E+000	0
1.0120519E+001	1.046988975615750E+002	-1.1682441E+000	-1.154332241363877E+002	1.3485418E-001	-1.1683199E+000	0
9.9571075E+000	1.048989975565200E+002	-1.1702673E+000	-1.175308565606874E+002	1.3754252E-001	-1.1703213E+000	0
9.8773861E+000	1.050992975514600E+002	-1.1722575E+000	-1.186809480107689E+002	1.3912463E-001	-1.1723239E+000	0
9.6999912E+000	1.052994975464026E+002	-1.1743559E+000	-1.210677210882045E+002	1.4217658E-001	-1.1743261E+000	0
9.5210915E+000	1.054996975413451E+002	-1.1762617E+000	-1.235427388884189E+002	1.4531858E-001	-1.1763279E+000	0
9.3389301E+000	1.056998975362876E+002	-1.1783025E+000	-1.261710405824174E+002	1.4866766E-001	-1.1783302E+000	0
9.1669102E+000	1.058999975312327E+002	-1.1803282E+000	-1.287596638251325E+002	1.5197867E-001	-1.1803312E+000	0
9.0386791E+000	1.061000975261777E+002	-1.1822672E+000	-1.308008832861588E+002	1.5464160E-001	-1.1823322E+000	0
8.8402634E+000	1.063001975211228E+002	-1.1843023E+000	-1.339668565239758E+002	1.5865727E-001	-1.1843333E+000	0
8.6395645E+000	1.065003975160653E+002	-1.1862469E+000	-1.373040187415711E+002	1.6287646E-001	-1.1863347E+000	0
8.4419737E+000	1.067006975110053E+002	-1.1882719E+000	-1.407575870262458E+002	1.6725828E-001	-1.1883380E+000	0
8.3282061E+000	1.069007975059503E+002	-1.1903007E+000	-1.429240212332361E+002	1.7012256E-001	-1.1903392E+000	0
8.1334305E+000	1.071007975008979E+002	-1.1923320E+000	-1.465964560843922E+002	1.7479165E-001	-1.1923393E+000	0
8.0825148E+000	1.073007974958455E+002	-1.1942525E+000	-1.477575335243118E+002	1.7645980E-001	-1.1943393E+000	0
8.0285110E+000	1.075008974907905E+002	-1.1963269E+000	-1.490098106551623E+002	1.7826444E-001	-1.1963401E+000	0
7.9201341E+000	1.077009974857356E+002	-1.1983236E+000	-1.513009234447877E+002	1.8130746E-001	-1.1983413E+000	0
7.8182893E+000	1.079009974806831E+002	-1.2002649E+000	-1.535201528867087E+002	1.8426485E-001	-1.2003412E+000	0
7.7705617E+000	1.081009974756307E+002	-1.2023045E+000	-1.547255599298719E+002	1.8602723E-001	-1.2023413E+000	0
7.7231631E+000	1.083010974705758E+002	-1.2042904E+000	-1.559322702461795E+002	1.8778774E-001	-1.2043420E+000	0
7.6775713E+000	1.085012974655183E+002	-1.2062738E+000	-1.571165887369009E+002	1.8952562E-001	-1.2063440E+000	0
7.5407505E+000	1.087014974604608E+002	-1.2082802E+000	-1.602334104240185E+002	1.9360685E-001	-1.2083460E+000	0
7.3983641E+000	1.089016974554033E+002	-1.2103263E+000	-1.635937758289733E+002	1.9800185E-001	-1.2103480E+000	0
7.2502770E+000	1.091018974503459E+002	-1.2122910E+000	-1.672061588975155E+002	2.0270252E-001	-1.2123500E+000	0
7.1052794E+000	1.093021974452859E+002	-1.2143059E+000	-1.709019189675596E+002	2.0752721E-001	-1.2143527E+000	0
7.0299864E+000	1.095024974402259E+002	-1.2162932E+000	-1.730150143408332E+002	2.1043698E-001	-1.2163559E+000	0
6.9096737E+000	1.097025974351709E+002	-1.2182891E+000	-1.763164522685704E+002	2.1480443E-001	-1.2183572E+000	0
6.8450356E+000	1.099025974301185E+002	-1.2203594E+000	-1.782838773413853E+002	2.1757041E-001	-1.2203572E+000	0
6.7295184E+000	1.101025974250661E+002	-1.2223148E+000	-1.816348195908558E+002	2.2201493E-001	-1.2223573E+000	0
6.6062646E+000	1.103026974200111E+002	-1.2243001E+000	-1.853241172908456E+002	2.2689234E-001	-1.2243581E+000	0
6.5047979E+000	1.105028974149536E+002	-1.2263438E+000	-1.885291125762055E+002	2.3120150E-001	-1.2263602E+000	0
6.3793492E+000	1.107029974098987E+002	-1.2283534E+000	-1.925515249148516E+002	2.3652132E-001	-1.2283612E+000	0
6.2916751E+000	1.109030974048437E+002	-1.2303284E+000	-1.955486349418443E+002	2.4058905E-001	-1.2303619E+000	0
6.1840987E+000	1.111033973997837E+002	-1.2323191E+000	-1.992722184213188E+002	2.4556696E-001	-1.2323648E+000	0
6.1141400E+000	1.113036973947237E+002	-1.2343689E+000	-2.018875819661180E+002	2.4920376E-001	-1.2343682E+000	0
6.0084581E+000	1.115037973896688E+002	-1.2363651E+000	-2.057707719370364E+002	2.5440779E-001	-1.2363693E+000	0
5.9753518E+000	1.117038973846138E+002	-1.2383794E+000	-2.072479485289687E+002	2.5665158E-001	-1.2383701E+000	0
5.8779278E+000	1.119039973795589E+002	-1.2403213E+000	-2.110133610485373E+002	2.6172435E-001	-1.2403712E+000	0
5.8354030E+000	1.121041973745014E+002	-1.2423350E+000	-2.128961696595206E+002	2.6448837E-001	-1.2423728E+000	0
5.7818656E+000	1.123044973694414E+002	-1.2443469E+000	-2.152154626246347E+002	2.6780269E-001	-1.2443759E+000	0
5.7291169E+000	1.125047973643814E+002	-1.2463385E+000	-2.175446083477850E+002	2.7113423E-001	-1.2463787E+000	0
5.6558223E+000	1.127050973593214E+002	-1.2483596E+000	-2.207211376481259E+002	2.7553934E-001	-1.2483820E+000	0
5.5589657E+000	1.129051973542664E+002	-1.2503811E+000	-2.249305262122286E+002	2.8124887E-001	-1.2503833E+000	0
5.4941878E+000	1.131051973492140E+002	-1.2523470E+000	-2.279403319542639E+002	2.8546038E-001	-1.2523832E+000	0
5.4372740E+000	1.133054973441540E+002	-1.2543713E+000	-2.306985678554702E+002	2.8938165E-001	-1.2543856E+000	0
5.3639250E+000	1.135059973390889E+002	-1.2563581E+000	-2.342236543632835E+002	2.9426879E-001	-1.2563907E+000	0
5.3113990E+000	1.137062973340289E+002	-1.2583976E+000	-2.369239463380345E+002	2.9814452E-001	-1.2583940E+000	0
5.2904482E+000	1.139063973289740E+002	-1.2603892E+000	-2.382386422687105E+002	3.0027342E-001	-1.2603952E+000	0
5.2150965E+000	1.141063973239216E+002	-1.2623804E+000	-2.420626943808834E+002	3.0557519E-001	-1.2623953E+000	0
5.1128511E+000	1.143064973188666E+002	-1.2644352E+000	-2.473052982147854E+002	3.1270152E-001	-1.2643961E+000	0
5.0735078E+000	1.145065973138117E+002	-1.2663599E+000	-2.496024402371863E+002	3.1608653E-001	-1.2663974E+000	0
5.0331745E+000	1.147066973087567E+002	-1.2683973E+000	-2.520074234234953E+002	3.1964555E-001	-1.2683979E+000	0
4.9869823E+000	1.149067973037018E+002	-1.2704266E+000	-2.547485801000430E+002	3.2363939E-001	-1.2703992E+000	0
4.9036274E+000	1.151067972986493E+002	-1.2724144E+000	-2.594843365199986E+002	3.3017161E-001	-1.2723993E+000	0
4.8540869E+000	1.153071972935868E+002	-1.2744019E+000	-2.625420524060129E+002	3.3458409E-001	-1.2744025E+000	0
4.7565608E+000	1.155076972885217E+002	-1.2763898E+000	-2.683430162093790E+002	3.4251031E-001	-1.2764081E+000	0
4.7128634E+000	1.157078972834643E+002	-1.2784543E+000	-2.712691272326874E+002	3.4680519E-001	-1.2784101E+000	0
4.6449652E+000	1.159080972784068E+002	-1.2804004E+000	-2.756533903345753E+002	3.5294670E-001	-1.2804120E+000	0
4.5906777E+000	1.161081972733518E+002	-1.2824446E+000	-2.793584523998748E+002	3.5826173E-001	-1.2824131E+000	0
4.5696840E+000	1.163081972682994E+002	-1.2844337E+000	-2.810771482104342E+002	3.6102498E-001	-1.2844132E+000	0
4.5548840E+000	1.165081972632470E+002	-1.2863975E+000	-2.824215792441855E+002	3.6330640E-001	-1.2864132E+000	0
4.5031157E+000	1.167082972581920E+002	-1.2884930E+000	-2.861336874988738E+002	3.6868125E-001	-1.2884140E+000	0
4.4595051E+000	1.168985972533847E+002	-1.2903914E+000	-2.893575335373889E+002	3.7338448E-001	-1.2903168E+000	0
4.3861771E+000	1.170392972498303E+002	-1.2917680E+000	-2.945088440978252E+002	3.8043708E-001	-1.2917229E+000	0
4.2831521E+000	1.171699972465285E+002	-1.2930635E+000	-3.018953204594482E+002	3.9036983E-001	-1.2930306E+000	0
4.2424231E+000	1.173305972424714E+002	-1.2946973E+000	-3.051787175441918E+002	3.9511406E-001	-1.2946365E+000	0
4.2179093E+000	1.174714972389120E+002	-1.2961245E+000	-3.072907332812920E+002	3.9828703E-001	-1.2960446E+000	0
4.2054868E+000	1.176023972356052E+002	-1.2974347E+000	-3.085100022620945E+002	4.0027156E-001	-1.2973543E+000	0
4.1628456E+000	1.177527972318057E+002	-1.2989117E+000	-3.120249346687892E+002	4.0529284E-001	-1.2988579E+000	0
4.1196475E+000	1.178733972287591E+002	-1.3001211E+000	-3.155903566334405E+002	4.1030568E-001	-1.3000643E+000	0
4.1227765E+000	1.180338972247046E+002	-1.3017251E+000	-3.157399244965400E+002	4.1100660E-001	-1.3016690E+000	0
4.1164837E+000	1.181844972209001E+002	-1.3032672E+000	-3.165972003435865E+002	4.1261077E-001	-1.3031752E+000	0
4.1066222E+000	1.183448972168480E+002	-1.3048328E+000	-3.177387074742491E+002	4.1459590E-001	-1.3047794E+000	0
4.0845394E+000	1.184654972138014E+002	-1.3060324E+000	-3.197502362450832E+002	4.1760418E-001	-1.3059852E+000	0
4.0691733E+000	1.186159972099995E+002	-1.3074970E+000	-3.213176213423708E+002	4.2012185E-001	-1.3074902E+000	0
4.0535569E+000	1.187568972064400E+002	-1.3089205E+000	-3.229066595627673E+002	4.2265916E-001	-1.3088988E+000	0
4.0348930E+000	1.188874972031408E+002	-1.3102638E+000	-3.247332050076029E+002	4.2548615E-001	-1.3102055E+000	0
4.0254984E+000	1.190379971993389E+002	-1.3117485E+000	-3.258599010397638E+002	4.2744625E-001	-1.3117105E+000	0
4.0123792E+000	1.191585971962922E+002	-1.3129435E+000	-3.272231799029610E+002	4.2962554E-001	-1.3129157E+000	0
4.0033498E+000	1.192990971927429E+002	-1.3144084E+000	-3.283271519058731E+002	4.3155599E-001	-1.3143213E+000	0
3.9919696E+000	1.194298971894386E+002	-1.3157086E+000	-3.295888436253922E+002	4.3364289E-001	-1.3156285E+000	0
3.9926987E+000	1.195703971858893E+002	-1.3170929E+000	-3.298753576946856E+002	4.3447649E-001	-1.3170342E+000	0
3.9866283E+000	1.197108971823400E+002	-1.3185133E+000	-3.307339293892310E+002	4.3607709E-001	-1.3184395E+000	0
3.9851406E+000	1.198514971787881E+002	-1.3199261E+000	-3.312119354756760E+002	4.3717530E-001	-1.3198458E+000	0
3.9621956E+000	1.199818971754939E+002	-1.3212049E+000	-3.334527135180169E+002	4.4055936E-001	-1.3211493E+000	0
3.9246087E+000	1.201023971724499E+002	-1.3224279E+000	-3.369578838918553E+002	4.4560251E-001	-1.3223535E+000	0
3.8855042E+000	1.202231971693982E+002	-1.3236369E+000	-3.406602548308415E+002	4.5091048E-001	-1.3235623E+000	0
3.8593345E+000	1.203638971658438E+002	-1.3250377E+000	-3.433332171555885E+002	4.5492947E-001	-1.3249687E+000	0
3.8379230E+000	1.205144971620393E+002	-1.3265631E+000	-3.456460896578035E+002	4.5852137E-001	-1.3264750E+000	0
3.8152261E+000	1.206549971584900E+002	-1.3279085E+000	-3.480550070956406E+002	4.6218520E-001	-1.3278801E+000	0
3.8023546E+000	1.207856971551882E+002	-1.3292633E+000	-3.495895146003586E+002	4.6469653E-001	-1.3291873E+000	0
3.7978728E+000	1.209462971511311E+002	-1.3308367E+000	-3.504163274787779E+002	4.6634689E-001	-1.3307939E+000	0
3.7960360E+000	1.210968971473267E+002	-1.3323883E+000	-3.509946369520012E+002	4.6766114E-001	-1.3322992E+000	0
3.7709365E+000	1.212075971445302E+002	-1.3335056E+000	-3.536271822547296E+002	4.7156385E-001	-1.3334062E+000	0
3.7580729E+000	1.212883971424890E+002	-1.3342818E+000	-3.550441585641892E+002	4.7372895E-001	-1.3342142E+000	0
3.7346098E+000	1.213989971396950E+002	-1.3354124E+000	-3.575774919096875E+002	4.7751340E-001	-1.3353198E+000	0
3.7102208E+000	1.215394971361457E+002	-1.3367770E+000	-3.602958072582080E+002	4.8163512E-001	-1.3367255E+000	0
3.7061286E+000	1.216897971323488E+002	-1.3383362E+000	-3.611143585528280E+002	4.8329243E-001	-1.3382287E+000	0
3.6985462E+000	1.218202971290521E+002	-1.3396052E+000	-3.621977797303389E+002	4.8520204E-001	-1.3395329E+000	0
3.6917322E+000	1.219510971257478E+002	-1.3409092E+000	-3.632195440597412E+002	4.8704445E-001	-1.3408407E+000	0
3.6791344E+000	1.220617971229512E+002	-1.3419747E+000	-3.647528535925039E+002	4.8948911E-001	-1.3419483E+000	0
3.6629374E+000	1.222019971194095E+002	-1.3434944E+000	-3.667806129614032E+002	4.9276769E-001	-1.3433501E+000	0
3.5824544E+000	1.223328971161027E+002	-1.3448009E+000	-3.753853576410411E+002	5.0481856E-001	-1.3446587E+000	0
3.5698402E+000	1.224633971128060E+002	-1.3460213E+000	-3.770536464070740E+002	5.0752223E-001	-1.3459642E+000	0
3.5575080E+000	1.226137971090066E+002	-1.3475512E+000	-3.787907911701641E+002	5.1043999E-001	-1.3474685E+000	0
3.5644634E+000	1.227743971049495E+002	-1.3491766E+000	-3.785076497821146E+002	5.1067370E-001	-1.3490745E+000	0
3.5509615E+000	1.229051971016452E+002	-1.3504604E+000	-3.803083740887650E+002	5.1359141E-001	-1.3503816E+000	0
3.5246966E+000	1.230459970980883E+002	-1.3518753E+000	-3.835437331140142E+002	5.1850331E-001	-1.3517900E+000	0
3.5238683E+000	1.232162970937861E+002	-1.3535571E+000	-3.841111549097932E+002	5.1991636E-001	-1.3534938E+000	0
3.5190279E+000	1.233865970894840E+002	-1.3552750E+000	-3.851276675777517E+002	5.2195394E-001	-1.3551960E+000	0
3.5080347E+000	1.234971970866900E+002	-1.3563460E+000	-3.866398522743348E+002	5.2441740E-001	-1.3563018E+000	0
3.4875660E+000	1.236273970834009E+002	-1.3577020E+000	-3.892978755981399E+002	5.2855051E-001	-1.3576043E+000	0
3.4684670E+000	1.237479970803543E+002	-1.3589052E+000	-3.917884068971562E+002	5.3240329E-001	-1.3588101E+000	0
3.4503613E+000	1.238784970770575E+002	-1.3602068E+000	-3.942215827653486E+002	5.3622288E-001	-1.3601151E+000	0
3.4344862E+000	1.240091970737558E+002	-1.3615441E+000	-3.964331377854661E+002	5.3976119E-001	-1.3614221E+000	0
3.4261274E+000	1.241795970694511E+002	-1.3632177E+000	-3.978887988382876E+002	5.4240906E-001	-1.3631265E+000	0
3.3745291E+000	1.243403970653890E+002	-1.3648376E+000	-4.044527610831799E+002	5.5201238E-001	-1.3647343E+000	0
3.3332491E+000	1.244711970620847E+002	-1.3661237E+000	-4.098474640287923E+002	5.5990231E-001	-1.3660419E+000	0
3.3107648E+000	1.245917970590381E+002	-1.3673447E+000	-4.129996651966821E+002	5.6471294E-001	-1.3672482E+000	0
3.2963419E+000	1.247422970552361E+002	-1.3688298E+000	-4.152572555136267E+002	5.6841654E-001	-1.3687532E+000	0
3.2896965E+000	1.248729970519344E+002	-1.3702118E+000	-4.165161874056976E+002	5.7071543E-001	-1.3700600E+000	0
3.2662621E+000	1.250036970486326E+002	-1.3714948E+000	-4.198973589326433E+002	5.7588702E-001	-1.3713665E+000	0
3.2620842E+000	1.251048970460761E+002	-1.3725260E+000	-4.207512658958585E+002	5.7749206E-001	-1.3723786E+000	0
3.2684827E+000	1.252354970427768E+002	-1.3737907E+000	-4.203145121772250E+002	5.7742417E-001	-1.3736849E+000	0
3.2528920E+000	1.253561970397277E+002	-1.3750062E+000	-4.227026803459075E+002	5.8121878E-001	-1.3748920E+000	0
3.2380900E+000	1.254866970364310E+002	-1.3762970E+000	-4.250335901220669E+002	5.8497244E-001	-1.3761967E+000	0
3.2389038E+000	1.256073970333819E+002	-1.3775343E+000	-4.253087845180917E+002	5.8587742E-001	-1.3774041E+000	0
3.2200749E+000	1.257579970295774E+002	-1.3790257E+000	-4.282588811675153E+002	5.9057999E-001	-1.3789102E+000	0
3.1929502E+000	1.258985970260255E+002	-1.3804725E+000	-4.323501723675772E+002	5.9684753E-001	-1.3803165E+000	0
3.1857612E+000	1.260289970227313E+002	-1.3817499E+000	-4.337267531377847E+002	5.9930187E-001	-1.3816200E+000	0
3.1772301E+000	1.261495970196847E+002	-1.3829869E+000	-4.352807007173784E+002	6.0198748E-001	-1.3828256E+000	0
3.1505826E+000	1.262803970163804E+002	-1.3842447E+000	-4.393614993722922E+002	6.0818380E-001	-1.3841344E+000	0
3.1208713E+000	1.264209970128286E+002	-1.3856667E+000	-4.439999538906604E+002	6.1523598E-001	-1.3855400E+000	0
3.1059740E+000	1.265614970092793E+002	-1.3870732E+000	-4.465823424224882E+002	6.1944240E-001	-1.3869454E+000	0
3.0756099E+000	1.267317970049771E+002	-1.3887978E+000	-4.515519961910745E+002	6.2711442E-001	-1.3886486E+000	0
3.0668437E+000	1.268623970016779E+002	-1.3900987E+000	-4.532668713408170E+002	6.3008571E-001	-1.3899540E+000	0
3.0562136E+000	1.269730969988814E+002	-1.3911541E+000	-4.551887364563199E+002	6.3323766E-001	-1.3910609E+000	0
3.0539205E+000	1.270836969960874E+002	-1.3923320E+000	-4.559162458536330E+002	6.3478678E-001	-1.3921672E+000	0
3.0438521E+000	1.272340969922880E+002	-1.3938242E+000	-4.579145772864103E+002	6.3825244E-001	-1.3936713E+000	0
3.0338418E+000	1.273945969882334E+002	-1.3954049E+000	-4.599464988763139E+002	6.4181161E-001	-1.3952762E+000	0
3.0360258E+000	1.275650969839262E+002	-1.3971398E+000	-4.601870576787678E+002	6.4294565E-001	-1.3969816E+000	0
3.0502782E+000	1.277257969798666E+002	-1.3986964E+000	-4.585471619407026E+002	6.4136827E-001	-1.3985882E+000	0
3.0416834E+000	1.278464969768174E+002	-1.3999139E+000	-4.602431141454435E+002	6.4430076E-001	-1.3997953E+000	0
3.0374334E+000	1.279867969732732E+002	-1.4013563E+000	-4.613620064363131E+002	6.4653260E-001	-1.4011981E+000	0
3.0217953E+000	1.281073969702265E+002	-1.4025067E+000	-4.641302737562187E+002	6.5094584E-001	-1.4024038E+000	0
3.0252237E+000	1.282378969669298E+002	-1.4038363E+000	-4.640437765882225E+002	6.5144145E-001	-1.4037093E+000	0
3.0318832E+000	1.283683969636331E+002	-1.4051758E+000	-4.634663274279683E+002	6.5125167E-001	-1.4050142E+000	0
3.0252664E+000	1.285087969600863E+002	-1.4065635E+000	-4.649387363008282E+002	6.5396589E-001	-1.4064186E+000	0
3.0204775E+000	1.286595969562768E+002	-1.4080582E+000	-4.661707009419079E+002	6.5639544E-001	-1.4079262E+000	0
3.0167291E+000	1.288003969527199E+002	-1.4094642E+000	-4.672160252403264E+002	6.5852427E-001	-1.4093344E+000	0
3.0067220E+000	1.289510969489129E+002	-1.4109607E+000	-4.692687400236887E+002	6.6211975E-001	-1.4108413E+000	0
2.9892666E+000	1.290917969453585E+002	-1.4124256E+000	-4.724990652241931E+002	6.6736978E-001	-1.4122478E+000	0
2.9867580E+000	1.292122969423144E+002	-1.4136056E+000	-4.732909775160583E+002	6.6904676E-001	-1.4134526E+000	0
2.9944630E+000	1.293330969392628E+002	-1.4147955E+000	-4.724705407321462E+002	6.6844922E-001	-1.4146606E+000	0
2.9674327E+000	1.294540969362060E+002	-1.4160314E+000	-4.771907097033213E+002	6.7571700E-001	-1.4158704E+000	0
2.9657176E+000	1.295848969329018E+002	-1.4173365E+000	-4.779067515540955E+002	6.7735469E-001	-1.4171790E+000	0
2.9490051E+000	1.297351969291049E+002	-1.4188659E+000	-4.811337632106156E+002	6.8266428E-001	-1.4186823E+000	0
2.9408879E+000	1.299054969248027E+002	-1.4204677E+000	-4.830064017449085E+002	6.8609500E-001	-1.4203854E+000	0
2.9360294E+000	1.300557969210058E+002	-1.4219934E+000	-4.843252943878288E+002	6.8870735E-001	-1.4218885E+000	0
2.9296823E+000	1.302160969169563E+002	-1.4236188E+000	-4.859294272125480E+002	6.9177824E-001	-1.4234911E+000	0
2.9215605E+000	1.303663969131594E+002	-1.4251420E+000	-4.878016527859509E+002	6.9518667E-001	-1.4249945E+000	0
2.9165430E+000	1.305263969091175E+002	-1.4267609E+000	-4.891959073935777E+002	6.9796562E-001	-1.4265947E+000	0
2.9145026E+000	1.306963969048229E+002	-1.4284111E+000	-4.901046026853692E+002	7.0007086E-001	-1.4282949E+000	0
2.9162827E+000	1.308763969002757E+002	-1.4302436E+000	-4.904338291383574E+002	7.0143986E-001	-1.4300947E+000	0
2.9086432E+000	1.310265968964814E+002	-1.4317647E+000	-4.922448861426947E+002	7.0477885E-001	-1.4315960E+000	0
2.9042673E+000	1.311865968924394E+002	-1.4333221E+000	-4.935227605916298E+002	7.0737708E-001	-1.4331969E+000	0
2.8982210E+000	1.313567968881398E+002	-1.4350307E+000	-4.951419165235875E+002	7.1054387E-001	-1.4348984E+000	0
2.8812237E+000	1.315169968840928E+002	-1.4366264E+000	-4.986167837450776E+002	7.1632606E-001	-1.4365004E+000	0
2.8729804E+000	1.316770968800483E+002	-1.4382359E+000	-5.006076335221335E+002	7.1999186E-001	-1.4381019E+000	0
2.8466203E+000	1.318270968762590E+002	-1.4397749E+000	-5.057839705007427E+002	7.2821504E-001	-1.4396014E+000	0
2.7793868E+000	1.319773968724621E+002	-1.4412597E+000	-5.185531587392818E+002	7.4736977E-001	-1.4411045E+000	0
2.7060325E+000	1.321174968689229E+002	-1.4426993E+000	-5.331419017276999E+002	7.6916343E-001	-1.4425051E+000	0
2.7068529E+000	1.322674968651336E+002	-1.4441751E+000	-5.335255345071510E+002	7.7050430E-001	-1.4440058E+000	0
2.6960926E+000	1.324079968615843E+002	-1.4455740E+000	-5.361737153057220E+002	7.7507883E-001	-1.4454101E+000	0
2.6711426E+000	1.325185968587903E+002	-1.4466670E+000	-5.415910763093252E+002	7.8350192E-001	-1.4465164E+000	0
2.6516247E+000	1.326686968549984E+002	-1.4481325E+000	-5.461302723361441E+002	7.9086900E-001	-1.4480174E+000	0
2.6530588E+000	1.328190968511990E+002	-1.4497073E+000	-5.464286194527522E+002	7.9216152E-001	-1.4495212E+000	0
2.6591659E+000	1.329694968473996E+002	-1.4512234E+000	-5.457438152690029E+002	7.9199618E-001	-1.4510257E+000	0
2.6662619E+000	1.331393968431075E+002	-1.4528726E+000	-5.449099573365966E+002	7.9168475E-001	-1.4527249E+000	0
2.6722713E+000	1.332995968390605E+002	-1.4544795E+000	-5.442858524083349E+002	7.9165262E-001	-1.4543263E+000	0
2.6232367E+000	1.334298968357689E+002	-1.4557827E+000	-5.549566451608080E+002	8.0789626E-001	-1.4556296E+000	0
2.6129777E+000	1.335898968317269E+002	-1.4574422E+000	-5.577706247597448E+002	8.1291842E-001	-1.4572300E+000	0
2.6217558E+000	1.337600968274273E+002	-1.4590968E+000	-5.565342172509991E+002	8.1203729E-001	-1.4589314E+000	0
2.6268208E+000	1.339201968233829E+002	-1.4607050E+000	-5.560733316761434E+002	8.1225914E-001	-1.4605325E+000	0
2.6184268E+000	1.340702968195910E+002	-1.4622186E+000	-5.584340413359369E+002	8.1655264E-001	-1.4620339E+000	0
2.5902102E+000	1.342204968157967E+002	-1.4637438E+000	-5.651061916360504E+002	8.2717067E-001	-1.4635357E+000	0
2.5959022E+000	1.343106968135180E+002	-1.4647002E+000	-5.642355390202729E+002	8.2643592E-001	-1.4644372E+000	0
2.6023853E+000	1.343601968122675E+002	-1.4652691E+000	-5.630484697057846E+002	8.2501751E-001	-1.4649367E+000	1