EC-Lab ASCII FILE
Nb header lines : 63                          

Linear Sweep Voltammetry

Run on channel : 1 (SN 1340)
User : 
Electrode connection : standard
Potential control : Ewe
Ewe ctrl range : min = -5.00 V, max = 5.00 V
Ewe,I filtering : <None>
Safety Limits :
	Do not start on E overload
Channel : Floating
Acquisition started on : 11/03/2025 09:57:13.647
Technique started on : 11/03/2025 09:57:13.647
Loaded Setting File :  NONE
Saved on :
	File : PtPdCoNi_Test3_C01.mpr
	Directory : C:\Users\volt\Documents\Platalytix\
	Host : 127.0.0.1
Device : SP-200 (SN 0262)
Address : USB
EC-LAB for windows v11.60 (software)
Internet server v11.60 (firmware)
Command interpretor v11.60 (firmware)
Electrode material : PtPdCoNi
Initial state : 
Electrolyte : KOH (1M)
Comments : 
Cable : standard
Reference electrode : Hg/HgO (0.140 V)
Electrode surface area : 1.000 cm˛
Characteristic mass : 0.001 g
Equivalent Weight : 0.000 g/eq.
Density : 0.000 g/cm3
Volume (V) : 0.001 cmł
Cycle Definition : Charge/Discharge alternance
tR (h:m:s)          0:00:5.0000         
dER/dt (mV/h)       0.0                 
dER (mV)            0                   
dtR (s)             0.0000              
dE/dt               10.000              
dE/dt unit          mV/s                
Ei (V)              -0.200              
vs.                 Ref                 
EL (V)              -2.100              
vs.                 Ref                 
record              <I>                 
dI                  0.000               
unit dI             µA                  
tI (s)              0.0000              
step percent        50                  
N                   10                  
E range min (V)     -5.000              
E range max (V)     5.000               
I Range             Auto                
I Range min         Unset               
I Range max         Unset               
I Range init        Unset               
Bandwidth           8                   

<I>/mA	Ewe/V	control/V	Rwe/Ohm	time/s	
0.000000000000000E+000	-9.1145295E-001	0.0000000E+000	0.0000000E+000	0.000000000000000E+000
0.000000000000000E+000	-9.1155225E-001	-1.9984485E-001	0.0000000E+000	4.999799873694428E+000
2.727688829898831E+000	-2.0203787E-001	-2.0174459E-001	7.4069252E+001	5.199799868642003E+000
1.308002968367331E+000	-2.0314899E-001	-2.0284460E-001	1.5531233E+002	5.309799865863170E+000
8.629567008845660E-001	-2.0522049E-001	-2.0484452E-001	2.3781088E+002	5.509799860810745E+000
7.029273311423765E-001	-2.0720075E-001	-2.0684446E-001	2.9476837E+002	5.709799855758320E+000
6.067557523529690E-001	-2.0921515E-001	-2.0884441E-001	3.4480951E+002	5.909799850705895E+000
5.399433510703231E-001	-2.1119756E-001	-2.1084432E-001	3.9114761E+002	6.109799845653470E+000
4.903220380117901E-001	-2.1320432E-001	-2.1284427E-001	4.3482510E+002	6.309799840601045E+000
4.488132156941225E-001	-2.1528947E-001	-2.1494421E-001	4.7968613E+002	6.519799835295998E+000
4.183301020776869E-001	-2.1737576E-001	-2.1704414E-001	5.1962732E+002	6.729799829990952E+000
3.915003293390291E-001	-2.1942689E-001	-2.1904406E-001	5.6047687E+002	6.929799824938527E+000
3.681983285437833E-001	-2.2141838E-001	-2.2104400E-001	6.0135626E+002	7.129799819886102E+000
3.464225477870557E-001	-2.2337340E-001	-2.2304395E-001	6.4480042E+002	7.329799814833677E+000
3.265116174014757E-001	-2.2534621E-001	-2.2504388E-001	6.9016290E+002	7.529799809781252E+000
3.094416595573062E-001	-2.2738886E-001	-2.2704382E-001	7.3483594E+002	7.729799804728827E+000
2.946854899288955E-001	-2.2941875E-001	-2.2904377E-001	7.7852069E+002	7.929799799676402E+000
2.812401426706863E-001	-2.3144101E-001	-2.3104370E-001	8.2293018E+002	8.129799794623978E+000
2.688401912100384E-001	-2.3341340E-001	-2.3304363E-001	8.6822357E+002	8.329799789571553E+000
2.576115643436649E-001	-2.3532239E-001	-2.3504357E-001	9.1347760E+002	8.529799784519128E+000
2.474052336704735E-001	-2.3735715E-001	-2.3704351E-001	9.5938617E+002	8.729799779466703E+000
2.382944866111019E-001	-2.3941913E-001	-2.3904346E-001	1.0047195E+003	8.929799774414278E+000
2.284290589573805E-001	-2.4143904E-001	-2.4104337E-001	1.0569541E+003	9.129799769361853E+000
2.200712956078430E-001	-2.4338982E-001	-2.4304330E-001	1.1059590E+003	9.329799764309428E+000
2.120727546884771E-001	-2.4529663E-001	-2.4504325E-001	1.1566626E+003	9.529799759257003E+000
2.048015547092685E-001	-2.4735309E-001	-2.4704318E-001	1.2077697E+003	9.729799754204578E+000
1.978535023507351E-001	-2.4948546E-001	-2.4904312E-001	1.2609606E+003	9.929799749152153E+000
1.914468795523616E-001	-2.5144321E-001	-2.5104305E-001	1.3133837E+003	1.012979974409973E+001
1.852270624729182E-001	-2.5334349E-001	-2.5304300E-001	1.3677456E+003	1.032979973904730E+001
1.795053936450271E-001	-2.5529087E-001	-2.5504294E-001	1.4221906E+003	1.052979973399488E+001
1.740004918073623E-001	-2.5741297E-001	-2.5704378E-001	1.4793807E+003	1.072969972894498E+001
1.691974137525365E-001	-2.5942683E-001	-2.5904280E-001	1.5332789E+003	1.092959972389508E+001
1.643458798426352E-001	-2.6138356E-001	-2.6104274E-001	1.5904479E+003	1.112959971884266E+001
1.592665350438434E-001	-2.6332456E-001	-2.6304269E-001	1.6533578E+003	1.132959971379023E+001
1.552296437232286E-001	-2.6540837E-001	-2.6504263E-001	1.7097789E+003	1.152959970873781E+001
1.511440415710398E-001	-2.6748618E-001	-2.6704255E-001	1.7697435E+003	1.172959970368538E+001
1.474666913777021E-001	-2.6942828E-001	-2.6904249E-001	1.8270450E+003	1.192959969863296E+001
1.436595803162597E-001	-2.7132982E-001	-2.7104244E-001	1.8886998E+003	1.212959969358053E+001
1.403753056894148E-001	-2.7335098E-001	-2.7304235E-001	1.9472869E+003	1.232959968852811E+001
1.376481397191478E-001	-2.7541485E-001	-2.7504230E-001	2.0008615E+003	1.252959968347568E+001
1.347623951817587E-001	-2.7744371E-001	-2.7704224E-001	2.0587620E+003	1.272959967842326E+001
1.321110699701715E-001	-2.7938384E-001	-2.7904218E-001	2.1147649E+003	1.292959967337083E+001
1.294238737260593E-001	-2.8132695E-001	-2.8104213E-001	2.1736868E+003	1.312959966831841E+001
1.265787286282669E-001	-2.8338999E-001	-2.8304207E-001	2.2388438E+003	1.332959966326598E+001
1.240765054387096E-001	-2.8545448E-001	-2.8504199E-001	2.3006328E+003	1.352959965821356E+001
1.216920566029192E-001	-2.8742436E-001	-2.8704193E-001	2.3618992E+003	1.372959965316113E+001
1.193345656001821E-001	-2.8936577E-001	-2.8904185E-001	2.4248279E+003	1.392959964810871E+001
1.169403400652262E-001	-2.9139608E-001	-2.9104182E-001	2.4918354E+003	1.412959964305628E+001
1.146368418171868E-001	-2.9342005E-001	-2.9304174E-001	2.5595615E+003	1.432959963800386E+001
1.125118488302270E-001	-2.9540032E-001	-2.9504165E-001	2.6255042E+003	1.452959963295143E+001
1.103850281216601E-001	-2.9740307E-001	-2.9704159E-001	2.6942336E+003	1.472959962789901E+001
1.082871066271212E-001	-2.9937568E-001	-2.9904157E-001	2.7646475E+003	1.492959962284658E+001
1.064740245783797E-001	-3.0137885E-001	-3.0104148E-001	2.8305386E+003	1.512959961779416E+001
1.045967689134568E-001	-3.0338013E-001	-3.0304143E-001	2.9004731E+003	1.532959961274173E+001
1.029638055703541E-001	-3.0542400E-001	-3.0504134E-001	2.9663240E+003	1.552959960768931E+001
1.013198011932799E-001	-3.0742124E-001	-3.0704126E-001	3.0341675E+003	1.572959960263688E+001
9.983194902615278E-002	-3.0938643E-001	-3.0904123E-001	3.0990723E+003	1.592959959758446E+001
9.819423117729809E-002	-3.1139600E-001	-3.1104115E-001	3.1712251E+003	1.612959959253203E+001
9.635658272755343E-002	-3.1336012E-001	-3.1304109E-001	3.2520884E+003	1.632959958747961E+001
9.432767827619171E-002	-3.1541038E-001	-3.1504104E-001	3.3437734E+003	1.652959958242718E+001
9.263125441064579E-002	-3.1746423E-001	-3.1704098E-001	3.4271826E+003	1.672959957737476E+001
9.118723950478358E-002	-3.1945130E-001	-3.1904069E-001	3.5032456E+003	1.692949957232486E+001
8.948018923327905E-002	-3.2135409E-001	-3.2104084E-001	3.5913435E+003	1.712939956727496E+001
8.793983802034644E-002	-3.2331038E-001	-3.2304078E-001	3.6764951E+003	1.732939956222253E+001
8.659033508456049E-002	-3.2542408E-001	-3.2504073E-001	3.7582031E+003	1.752939955717011E+001
8.517245052787825E-002	-3.2749259E-001	-3.2704067E-001	3.8450530E+003	1.772939955211768E+001
8.399218290330443E-002	-3.2941386E-001	-3.2904059E-001	3.9219585E+003	1.792939954706526E+001
8.243566803378644E-002	-3.3134553E-001	-3.3104053E-001	4.0194436E+003	1.812939954201283E+001
8.106347035654660E-002	-3.3330157E-001	-3.3304048E-001	4.1116123E+003	1.832939953696041E+001
8.005390252047934E-002	-3.3543441E-001	-3.3504039E-001	4.1901069E+003	1.852939953190798E+001
7.878462034552158E-002	-3.3748534E-001	-3.3704033E-001	4.2836450E+003	1.872939952685556E+001
7.752607644919940E-002	-3.3943605E-001	-3.3904025E-001	4.3783467E+003	1.892939952180313E+001
7.608602930899377E-002	-3.4138069E-001	-3.4104019E-001	4.4867725E+003	1.912939951675071E+001
7.511626084202072E-002	-3.4336856E-001	-3.4304017E-001	4.5711616E+003	1.932939951169828E+001
7.428270490056560E-002	-3.4539890E-001	-3.4504011E-001	4.6497891E+003	1.952939950664586E+001
7.315056909682427E-002	-3.4739381E-001	-3.4704003E-001	4.7490239E+003	1.972939950159343E+001
7.220128037314211E-002	-3.4943137E-001	-3.4903994E-001	4.8396836E+003	1.992939949654101E+001
7.122242662848688E-002	-3.5139444E-001	-3.5103995E-001	4.9337612E+003	2.012939949148858E+001
7.009508599877767E-002	-3.5339823E-001	-3.5303983E-001	5.0416978E+003	2.032939948643616E+001
6.911487699393382E-002	-3.5541496E-001	-3.5503978E-001	5.1423799E+003	2.052939948138373E+001
6.825086618499099E-002	-3.5739332E-001	-3.5703972E-001	5.2364658E+003	2.072939947633131E+001
6.726090424818709E-002	-3.5940984E-001	-3.5903963E-001	5.3435176E+003	2.092939947127888E+001
6.637378912968139E-002	-3.6137971E-001	-3.6103955E-001	5.4446147E+003	2.112939946622646E+001
6.549286120201656E-002	-3.6343977E-001	-3.6303949E-001	5.5493037E+003	2.132939946117403E+001
6.463221364703153E-002	-3.6542514E-001	-3.6503944E-001	5.6539165E+003	2.152939945612161E+001
6.367011393458386E-002	-3.6738631E-001	-3.6703938E-001	5.7701533E+003	2.172939945106918E+001
6.276311580875238E-002	-3.6938757E-001	-3.6903930E-001	5.8854243E+003	2.192939944601676E+001
6.195832522060118E-002	-3.7137499E-001	-3.7103927E-001	5.9939482E+003	2.212939944096433E+001
6.116299906190137E-002	-3.7343886E-001	-3.7303922E-001	6.1056338E+003	2.232939943591191E+001
6.026952575824640E-002	-3.7540510E-001	-3.7503913E-001	6.2287715E+003	2.252939943085948E+001
5.956585856593866E-002	-3.7740320E-001	-3.7703907E-001	6.3358979E+003	2.272939942580706E+001
5.878118446303726E-002	-3.7937617E-001	-3.7903902E-001	6.4540410E+003	2.292939942075463E+001
5.791622254408280E-002	-3.8135669E-001	-3.8103896E-001	6.5846265E+003	2.312939941570221E+001
5.712359554026614E-002	-3.8339514E-001	-3.8303977E-001	6.7116772E+003	2.332929941065231E+001
5.631979943945793E-002	-3.8540697E-001	-3.8503882E-001	6.8431880E+003	2.352919940560241E+001
5.562259677571596E-002	-3.8736793E-001	-3.8703874E-001	6.9642188E+003	2.372919940054999E+001
5.476414690548082E-002	-3.8936085E-001	-3.8903868E-001	7.1097764E+003	2.392919939549756E+001
5.397008598387187E-002	-3.9132732E-001	-3.9103863E-001	7.2508188E+003	2.412919939044514E+001
5.325879689829738E-002	-3.9337441E-001	-3.9303857E-001	7.3860928E+003	2.432919938539271E+001
5.256361308478019E-002	-3.9540330E-001	-3.9503852E-001	7.5223765E+003	2.452919938034029E+001
5.176252323411867E-002	-3.9736527E-001	-3.9703849E-001	7.6766982E+003	2.472919937528786E+001
5.097366280403937E-002	-3.9935189E-001	-3.9903840E-001	7.8344751E+003	2.492919937023544E+001
5.022470462410511E-002	-4.0136078E-001	-4.0103835E-001	7.9913018E+003	2.512919936518301E+001
4.942515255226565E-002	-4.0345713E-001	-4.0303823E-001	8.1629922E+003	2.532919936013059E+001
4.879172646695051E-002	-4.0542382E-001	-4.0503818E-001	8.3092734E+003	2.552919935507816E+001
4.810676166772976E-002	-4.0740305E-001	-4.0703812E-001	8.4687275E+003	2.572919935002574E+001
4.728259555963790E-002	-4.0935802E-001	-4.0903807E-001	8.6576895E+003	2.592919934497331E+001
4.652387059115248E-002	-4.1139001E-001	-4.1103798E-001	8.8425576E+003	2.612919933992089E+001
4.592586158512924E-002	-4.1340250E-001	-4.1303796E-001	9.0015186E+003	2.632919933486846E+001
4.523392304590129E-002	-4.1546512E-001	-4.1503784E-001	9.1848125E+003	2.652919932981604E+001
4.466023178171363E-002	-4.1744730E-001	-4.1703779E-001	9.3471816E+003	2.672919932476361E+001
4.388527330243430E-002	-4.1941395E-001	-4.1903773E-001	9.5570547E+003	2.692919931971119E+001
4.327688642720484E-002	-4.2143178E-001	-4.2103767E-001	9.7380342E+003	2.712919931465876E+001
4.276056855187338E-002	-4.2342877E-001	-4.2303762E-001	9.9023184E+003	2.732919930960634E+001
4.204684038632805E-002	-4.2541859E-001	-4.2503756E-001	1.0117730E+004	2.752919930455391E+001
4.148618499283778E-002	-4.2738777E-001	-4.2703751E-001	1.0301930E+004	2.772919929950149E+001
4.081830826969163E-002	-4.2939627E-001	-4.2903742E-001	1.0519698E+004	2.792919929444906E+001
4.027458202741102E-002	-4.3143684E-001	-4.3103740E-001	1.0712385E+004	2.812919928939664E+001
3.971604917086502E-002	-4.3342659E-001	-4.3303725E-001	1.0913135E+004	2.832919928434421E+001
3.912711100966432E-002	-4.3542066E-001	-4.3503726E-001	1.1128362E+004	2.852919927929179E+001
3.849281044439332E-002	-4.3739584E-001	-4.3703714E-001	1.1363053E+004	2.872919927423936E+001
3.791170854669462E-002	-4.3941894E-001	-4.3903708E-001	1.1590587E+004	2.892919926918694E+001
3.744236846447058E-002	-4.4143784E-001	-4.4103703E-001	1.1789795E+004	2.912919926413451E+001
3.689402302562403E-002	-4.4342822E-001	-4.4303700E-001	1.2018972E+004	2.932919925908209E+001
3.636438700048306E-002	-4.4542485E-001	-4.4503623E-001	1.2248931E+004	2.952909925403219E+001
3.579289438451114E-002	-4.4746891E-001	-4.4703686E-001	1.2501613E+004	2.972899924898229E+001
3.530032581822909E-002	-4.4940528E-001	-4.4903684E-001	1.2730910E+004	2.992899924392987E+001
3.471849117979260E-002	-4.5148528E-001	-4.5103669E-001	1.3004173E+004	3.012899923887744E+001
3.426981248624628E-002	-4.5347697E-001	-4.5303670E-001	1.3232549E+004	3.032899923382502E+001
3.374735707635718E-002	-4.5542923E-001	-4.5503658E-001	1.3495256E+004	3.052899922877259E+001
3.318140287450642E-002	-4.5740715E-001	-4.5703658E-001	1.3785046E+004	3.072899922372017E+001
3.267970968533052E-002	-4.5939142E-001	-4.5903647E-001	1.4057390E+004	3.092899921866774E+001
3.219192949875493E-002	-4.6145552E-001	-4.6103647E-001	1.4334510E+004	3.112899921361532E+001
3.182398500380287E-002	-4.6350986E-001	-4.6303633E-001	1.4564796E+004	3.132899920856289E+001
3.136171368183036E-002	-4.6548900E-001	-4.6503630E-001	1.4842588E+004	3.152899920351047E+001
3.088537314848638E-002	-4.6740431E-001	-4.6703616E-001	1.5133517E+004	3.172899919845804E+001
3.047267595953324E-002	-4.6936309E-001	-4.6903616E-001	1.5402753E+004	3.192899919340562E+001
2.996280774592407E-002	-4.7144082E-001	-4.7103608E-001	1.5734200E+004	3.212899918835319E+001
2.958358017423623E-002	-4.7340044E-001	-4.7303602E-001	1.6002135E+004	3.232899918330077E+001
2.918293810229905E-002	-4.7548786E-001	-4.7503603E-001	1.6293352E+004	3.252899917824834E+001
2.879688525551297E-002	-4.7748491E-001	-4.7703591E-001	1.6581131E+004	3.272899917319592E+001
2.837442409230278E-002	-4.7941947E-001	-4.7903585E-001	1.6896184E+004	3.292899916814349E+001
2.788972813380525E-002	-4.8136288E-001	-4.8103577E-001	1.7259504E+004	3.312899916309107E+001
2.753076183107056E-002	-4.8335758E-001	-4.8303574E-001	1.7557000E+004	3.332899915803864E+001
2.717145237688368E-002	-4.8545724E-001	-4.8503560E-001	1.7866445E+004	3.352899915298622E+001
2.682890093572804E-002	-4.8749629E-001	-4.8703563E-001	1.8170564E+004	3.372899914793379E+001
2.653074423125740E-002	-4.8950326E-001	-4.8903549E-001	1.8450416E+004	3.392899914288137E+001
2.612172848177560E-002	-4.9142346E-001	-4.9103549E-001	1.8812822E+004	3.412899913782894E+001
2.566692778336988E-002	-4.9336043E-001	-4.9303544E-001	1.9221639E+004	3.432899913277652E+001
2.533093348985993E-002	-4.9535173E-001	-4.9503535E-001	1.9555211E+004	3.452899912772409E+001
2.500026057238841E-002	-4.9743974E-001	-4.9703526E-001	1.9897383E+004	3.472899912267167E+001
2.473859413254542E-002	-4.9942127E-001	-4.9903521E-001	2.0187941E+004	3.492899911761924E+001
2.435588830637964E-002	-5.0144273E-001	-5.0103515E-001	2.0588152E+004	3.512899911256682E+001
2.405193594839769E-002	-5.0340980E-001	-5.0303507E-001	2.0930115E+004	3.532899910751439E+001
2.367024220470249E-002	-5.0547093E-001	-5.0503504E-001	2.1354701E+004	3.552899910246197E+001
2.344966938195403E-002	-5.0743991E-001	-5.0703496E-001	2.1639533E+004	3.572899909740954E+001
2.320442968631486E-002	-5.0942385E-001	-5.0903493E-001	2.1953732E+004	3.592889909235964E+001
2.285964667317708E-002	-5.1139045E-001	-5.1103485E-001	2.2370881E+004	3.612879908730974E+001
2.246004413911551E-002	-5.1338750E-001	-5.1303476E-001	2.2857814E+004	3.632879908225732E+001
2.222626574974740E-002	-5.1542205E-001	-5.1503468E-001	2.3189773E+004	3.652879907720489E+001
2.188193656716919E-002	-5.1743567E-001	-5.1703465E-001	2.3646703E+004	3.672879907215247E+001
2.164618264146720E-002	-5.1949209E-001	-5.1903456E-001	2.3999248E+004	3.692879906710004E+001
2.140647398287851E-002	-5.2147722E-001	-5.2103454E-001	2.4360725E+004	3.712879906204762E+001
2.119844442559726E-002	-5.2344501E-001	-5.2303445E-001	2.4692613E+004	3.732879905699519E+001
2.082990909912869E-002	-5.2539188E-001	-5.2503443E-001	2.5222955E+004	3.752879905194277E+001
2.058113532329861E-002	-5.2736831E-001	-5.2703434E-001	2.5623869E+004	3.772879904689034E+001
2.032316690247488E-002	-5.2940208E-001	-5.2903426E-001	2.6049191E+004	3.792879904183792E+001
2.012819014428935E-002	-5.3143555E-001	-5.3103423E-001	2.6402551E+004	3.812879903678549E+001
1.987049354532259E-002	-5.3346103E-001	-5.3303409E-001	2.6846895E+004	3.832879903173307E+001
1.974790521024658E-002	-5.3546739E-001	-5.3503412E-001	2.7115148E+004	3.852879902668064E+001
1.944602461180135E-002	-5.3745800E-001	-5.3703403E-001	2.7638451E+004	3.872879902162822E+001
1.921681919894896E-002	-5.3941280E-001	-5.3903395E-001	2.8069828E+004	3.892879901657579E+001
1.890466922417377E-002	-5.4138350E-001	-5.4103380E-001	2.8637555E+004	3.912879901152337E+001
1.878083171058967E-002	-5.4342782E-001	-5.4303384E-001	2.8935238E+004	3.932879900647094E+001
1.851595518147037E-002	-5.4544884E-001	-5.4503375E-001	2.9458314E+004	3.952879900141852E+001
1.834814002380497E-002	-5.4748380E-001	-5.4703367E-001	2.9838654E+004	3.972879899636609E+001
1.817600831086910E-002	-5.4946709E-001	-5.4903364E-001	3.0230350E+004	3.992879899131367E+001
1.798271037473999E-002	-5.5143249E-001	-5.5103356E-001	3.0664592E+004	4.012879898626124E+001
1.771309806267339E-002	-5.5339295E-001	-5.5303353E-001	3.1242020E+004	4.032879898120882E+001
1.753253288342152E-002	-5.5538833E-001	-5.5503345E-001	3.1677586E+004	4.052879897615639E+001
1.736408980210064E-002	-5.5743498E-001	-5.5703342E-001	3.2102746E+004	4.072879897110397E+001
1.727714144245696E-002	-5.5950201E-001	-5.5903327E-001	3.2383945E+004	4.092879896605155E+001
1.713264304175743E-002	-5.6147546E-001	-5.6103331E-001	3.2772262E+004	4.112879896099912E+001
1.704680713544583E-002	-5.6347740E-001	-5.6303316E-001	3.3054719E+004	4.132879895594670E+001
1.669326969559676E-002	-5.6541455E-001	-5.6503314E-001	3.3870809E+004	4.152879895089427E+001
1.640635668608947E-002	-5.6730866E-001	-5.6703305E-001	3.4578590E+004	4.172879894584185E+001
1.632486294034777E-002	-5.6936830E-001	-5.6903303E-001	3.4877371E+004	4.192879894078942E+001
1.622751377250430E-002	-5.7142562E-001	-5.7103318E-001	3.5213379E+004	4.212879893573700E+001
1.603102280577673E-002	-5.7343864E-001	-5.7303286E-001	3.5770559E+004	4.232859893068962E+001
1.601951334006713E-002	-5.7548136E-001	-5.7503283E-001	3.5923773E+004	4.252859892563720E+001
1.591046740891749E-002	-5.7744128E-001	-5.7703269E-001	3.6293168E+004	4.272859892058477E+001
1.552211029823057E-002	-5.7937855E-001	-5.7903272E-001	3.7326016E+004	4.292859891553235E+001
1.531235464714470E-002	-5.8134317E-001	-5.8103257E-001	3.7965629E+004	4.312859891047992E+001
1.524333831420707E-002	-5.8336794E-001	-5.8303261E-001	3.8270352E+004	4.332859890542750E+001
1.522880182361286E-002	-5.8541656E-001	-5.8503246E-001	3.8441406E+004	4.352859890037507E+001
1.503059776793408E-002	-5.8745795E-001	-5.8703244E-001	3.9084137E+004	4.372859889532265E+001
1.498508405364318E-002	-5.8944005E-001	-5.8903229E-001	3.9335117E+004	4.392859889027022E+001
1.475272496067759E-002	-5.9139615E-001	-5.9103233E-001	4.0087250E+004	4.412859888521780E+001
1.446710166689268E-002	-5.9336936E-001	-5.9303218E-001	4.1015082E+004	4.432859888016537E+001
1.435928470286169E-002	-5.9537148E-001	-5.9503216E-001	4.1462477E+004	4.452859887511295E+001
1.432604205996840E-002	-5.9742492E-001	-5.9703207E-001	4.1702023E+004	4.472859887006052E+001
1.414118094811667E-002	-5.9940457E-001	-5.9903204E-001	4.2387164E+004	4.492859886500810E+001
1.400662993916149E-002	-6.0143954E-001	-6.0103202E-001	4.2939633E+004	4.512859885995567E+001
1.394976405524532E-002	-6.0345018E-001	-6.0303193E-001	4.3258809E+004	4.532859885490325E+001
1.373370149058806E-002	-6.0543615E-001	-6.0503191E-001	4.4083973E+004	4.552859884985082E+001
1.354661312858654E-002	-6.0737401E-001	-6.0703176E-001	4.4835855E+004	4.572859884479840E+001
1.349742806045644E-002	-6.0940319E-001	-6.0903174E-001	4.5149578E+004	4.592859883974597E+001
1.322606943501266E-002	-6.1138284E-001	-6.1103165E-001	4.6225590E+004	4.612859883469355E+001
1.307873379783869E-002	-6.1341172E-001	-6.1303163E-001	4.6901461E+004	4.632859882964112E+001
1.297774605224411E-002	-6.1541617E-001	-6.1503148E-001	4.7420883E+004	4.652859882458870E+001
1.285369660100288E-002	-6.1744523E-001	-6.1703146E-001	4.8036395E+004	4.672859881953627E+001
1.272248459518982E-002	-6.1946303E-001	-6.1903137E-001	4.8690414E+004	4.692859881448385E+001
1.266311340035589E-002	-6.2145662E-001	-6.2103134E-001	4.9076133E+004	4.712859880943142E+001
1.245739343423025E-002	-6.2343454E-001	-6.2303132E-001	5.0045344E+004	4.732859880437900E+001
1.231977503821716E-002	-6.2541503E-001	-6.2503123E-001	5.0765133E+004	4.752859879932657E+001
1.216153223895100E-002	-6.2742585E-001	-6.2703115E-001	5.1591020E+004	4.772859879427415E+001
1.198751892701275E-002	-6.2946165E-001	-6.2903112E-001	5.2509754E+004	4.792859878922172E+001
1.188046712716861E-002	-6.3147312E-001	-6.3103110E-001	5.3152215E+004	4.812859878416930E+001
1.174786298668018E-002	-6.3344538E-001	-6.3303095E-001	5.3920051E+004	4.832859877911687E+001
1.162540951550434E-002	-6.3542116E-001	-6.3503116E-001	5.4657961E+004	4.852849877406697E+001
1.134388188223290E-002	-6.3738942E-001	-6.3703078E-001	5.6187945E+004	4.872839876901708E+001
1.125068494543495E-002	-6.3936692E-001	-6.3903081E-001	5.6829156E+004	4.892839876396465E+001
1.111460283246583E-002	-6.4139837E-001	-6.4103067E-001	5.7707719E+004	4.912839875891223E+001
1.093027424098941E-002	-6.4343804E-001	-6.4303064E-001	5.8867512E+004	4.932839875385980E+001
1.083030712112623E-002	-6.4547896E-001	-6.4503056E-001	5.9599320E+004	4.952839874880738E+001
1.068489556702368E-002	-6.4749634E-001	-6.4703053E-001	6.0599219E+004	4.972839874375495E+001
1.052591671677231E-002	-6.4942437E-001	-6.4903051E-001	6.1697656E+004	4.992839873870253E+001
1.034455551640995E-002	-6.5143365E-001	-6.5103036E-001	6.2973574E+004	5.012839873365010E+001
1.015754046220576E-002	-6.5336829E-001	-6.5303034E-001	6.4323473E+004	5.032839872859768E+001
9.931725343674043E-003	-6.5539205E-001	-6.5503025E-001	6.5989750E+004	5.052839872354525E+001
9.834704234366692E-003	-6.5744966E-001	-6.5703028E-001	6.6849969E+004	5.072839871849283E+001
9.725515915531252E-003	-6.5945536E-001	-6.5903014E-001	6.7806719E+004	5.092839871344040E+001
9.583690476813955E-003	-6.6151786E-001	-6.6103011E-001	6.9025375E+004	5.112839870838798E+001
9.408077193477429E-003	-6.6352868E-001	-6.6302997E-001	7.0527555E+004	5.132839870333555E+001
9.396602445117856E-003	-6.6547894E-001	-6.6503000E-001	7.0821227E+004	5.152839869828313E+001
9.077507185830495E-003	-6.6741961E-001	-6.6702992E-001	7.3524547E+004	5.172839869323070E+001
8.853084089188529E-003	-6.6942167E-001	-6.6902983E-001	7.5614516E+004	5.192839868817828E+001
8.636909425023695E-003	-6.7133957E-001	-6.7102975E-001	7.7729141E+004	5.212839868312585E+001
8.606313622665909E-003	-6.7342824E-001	-6.7302966E-001	7.8248164E+004	5.232839867807343E+001
8.496425224783881E-003	-6.7549467E-001	-6.7502964E-001	7.9503398E+004	5.252839867302100E+001
8.300232468502908E-003	-6.7752707E-001	-6.7702955E-001	8.1627484E+004	5.272839866796858E+001
8.235558771893657E-003	-6.7947489E-001	-6.7902952E-001	8.2505016E+004	5.292839866291615E+001
8.252876755755610E-003	-6.8148637E-001	-6.8102938E-001	8.2575617E+004	5.312839865786373E+001
7.796722152568658E-003	-6.8338579E-001	-6.8302935E-001	8.7650398E+004	5.332839865281130E+001
7.470390661471780E-003	-6.8535841E-001	-6.8502927E-001	9.1743313E+004	5.352839864775888E+001
7.387875778470748E-003	-6.8735600E-001	-6.8702930E-001	9.3038383E+004	5.372839864270645E+001
7.380310797513716E-003	-6.8941700E-001	-6.8902916E-001	9.3413008E+004	5.392839863765403E+001
7.134016463783824E-003	-6.9148397E-001	-6.9102913E-001	9.6927727E+004	5.412839863260160E+001
7.036173039143931E-003	-6.9352978E-001	-6.9302905E-001	9.8566336E+004	5.432839862754918E+001
6.887578705255512E-003	-6.9550538E-001	-6.9502902E-001	1.0097966E+005	5.452839862249675E+001
6.737046449961998E-003	-6.9744694E-001	-6.9702947E-001	1.0352414E+005	5.472839861744433E+001
6.381219337126209E-003	-6.9939995E-001	-6.9902885E-001	1.0960287E+005	5.492819861239695E+001
6.191871754015754E-003	-7.0135957E-001	-7.0102876E-001	1.1327101E+005	5.512819860734453E+001
6.093284581681509E-003	-7.0339751E-001	-7.0302874E-001	1.1543815E+005	5.532819860229210E+001
6.143763349656800E-003	-7.0544231E-001	-7.0502871E-001	1.1482251E+005	5.552819859723968E+001
5.840255580600945E-003	-7.0743799E-001	-7.0702863E-001	1.2113134E+005	5.572819859218725E+001
5.605586975244825E-003	-7.0945352E-001	-7.0902860E-001	1.2656186E+005	5.592819858713483E+001
5.502657341931033E-003	-7.1146220E-001	-7.1102852E-001	1.2929430E+005	5.612819858208240E+001
5.265056104376824E-003	-7.1345013E-001	-7.1302849E-001	1.3550666E+005	5.632819857702998E+001
5.074758527039144E-003	-7.1544778E-001	-7.1502841E-001	1.4098164E+005	5.652819857197755E+001
4.901216954997012E-003	-7.1744603E-001	-7.1702838E-001	1.4638120E+005	5.672819856692513E+001
4.726455169596924E-003	-7.1945876E-001	-7.1902817E-001	1.5221953E+005	5.692819856187270E+001
4.514977938893924E-003	-7.2146237E-001	-7.2102821E-001	1.5979311E+005	5.712819855682028E+001
4.375189397284221E-003	-7.2343075E-001	-7.2302806E-001	1.6534844E+005	5.732819855176786E+001
4.211098323527313E-003	-7.2542709E-001	-7.2502804E-001	1.7226553E+005	5.752819854671543E+001
3.923316459550814E-003	-7.2741741E-001	-7.2702795E-001	1.8540880E+005	5.772819854166301E+001
3.832938665929330E-003	-7.2946018E-001	-7.2902793E-001	1.9031355E+005	5.792819853661058E+001
3.629986026398309E-003	-7.3144275E-001	-7.3102784E-001	2.0150016E+005	5.812819853155816E+001
3.435951740813042E-003	-7.3345304E-001	-7.3302782E-001	2.1346430E+005	5.832819852650573E+001
3.277772981539494E-003	-7.3549622E-001	-7.3502773E-001	2.2438900E+005	5.852819852145331E+001
3.040690715877856E-003	-7.3744380E-001	-7.3702765E-001	2.4252509E+005	5.872819851640088E+001
2.833309191008673E-003	-7.3942804E-001	-7.3902762E-001	2.6097683E+005	5.892819851134846E+001
2.636761806599441E-003	-7.4141610E-001	-7.4102753E-001	2.8118431E+005	5.912819850629603E+001
2.481463605697483E-003	-7.4341679E-001	-7.4302751E-001	2.9958803E+005	5.932819850124361E+001
2.160940714107135E-003	-7.4544793E-001	-7.4502742E-001	3.4496453E+005	5.952819849619118E+001
2.009297191994538E-003	-7.4742121E-001	-7.4702740E-001	3.7198141E+005	5.972819849113876E+001
1.794744582201142E-003	-7.4945033E-001	-7.4902731E-001	4.1758050E+005	5.992819848608633E+001
1.571554647169262E-003	-7.5148398E-001	-7.5102729E-001	4.7817872E+005	6.012819848103391E+001
1.330808868330769E-003	-7.5342721E-001	-7.5302720E-001	5.6614231E+005	6.032819847598148E+001
1.149767313700791E-003	-7.5545961E-001	-7.5502706E-001	6.5705431E+005	6.052819847092906E+001
8.851555873520944E-004	-7.5747102E-001	-7.5702709E-001	8.5574900E+005	6.072819846587663E+001
6.838464812777842E-004	-7.5943434E-001	-7.5902694E-001	1.1105334E+006	6.092819846082421E+001
4.111179846390933E-004	-7.6141894E-001	-7.6102626E-001	1.8520691E+006	6.112799845577683E+001
1.353674310303646E-004	-7.6340598E-001	-7.6302683E-001	5.6395100E+006	6.132799845072441E+001
-3.214939636254205E-005	-7.6543218E-001	-7.6502687E-001	2.3808602E+007	6.152799844567198E+001
-2.198732750801967E-004	-7.6744515E-001	-7.6702666E-001	3.4903975E+006	6.172799844061956E+001
-5.124990195003189E-004	-7.6948798E-001	-7.6902664E-001	1.5014429E+006	6.192799843556713E+001
-6.763178447440452E-004	-7.7144635E-001	-7.7102655E-001	1.1406565E+006	6.212799843051471E+001
-9.755134911610171E-004	-7.7345330E-001	-7.7302653E-001	7.9286788E+005	6.232799842546228E+001
-1.296404031859927E-003	-7.7543044E-001	-7.7502644E-001	5.9813950E+005	6.252799842040986E+001
-1.461248002196835E-003	-7.7742195E-001	-7.7702641E-001	5.3202600E+005	6.272799841535743E+001
-1.784037140420556E-003	-7.7937418E-001	-7.7902639E-001	4.3685984E+005	6.292799841030501E+001
-2.151237095664065E-003	-7.8138566E-001	-7.8102624E-001	3.6322619E+005	6.312799840525258E+001
-2.376182986525376E-003	-7.8342354E-001	-7.8302628E-001	3.2969831E+005	6.332799840020016E+001
-2.587253899329870E-003	-7.8544903E-001	-7.8502619E-001	3.0358406E+005	6.352799839514773E+001
-2.828808462592747E-003	-7.8749019E-001	-7.8702611E-001	2.7838228E+005	6.372799839009531E+001
-3.175584947848323E-003	-7.8949779E-001	-7.8902608E-001	2.4861492E+005	6.392799838504288E+001
-3.436295449824309E-003	-7.9143882E-001	-7.9102606E-001	2.3031745E+005	6.412799837999046E+001
-3.877377190766810E-003	-7.9345286E-001	-7.9302585E-001	2.0463648E+005	6.432799837493803E+001
-4.240347095448392E-003	-7.9534948E-001	-7.9502589E-001	1.8756706E+005	6.452799836988561E+001
-4.528773014860080E-003	-7.9736567E-001	-7.9702586E-001	1.7606659E+005	6.472799836483318E+001
-4.877240821450437E-003	-7.9938447E-001	-7.9902577E-001	1.6390097E+005	6.492799835978076E+001
-5.122752443231581E-003	-8.0142516E-001	-8.0102563E-001	1.5644425E+005	6.512799835472833E+001
-5.339156471318510E-003	-8.0349690E-001	-8.0302560E-001	1.5049136E+005	6.532799834967591E+001
-5.784654350478285E-003	-8.0542809E-001	-8.0502552E-001	1.3923530E+005	6.552799834462348E+001
-6.093529363638245E-003	-8.0747885E-001	-8.0702543E-001	1.3251414E+005	6.572799833957106E+001
-6.554455221303296E-003	-8.0941707E-001	-8.0902541E-001	1.2349113E+005	6.592799833451863E+001
-6.954529970623499E-003	-8.1136018E-001	-8.1102532E-001	1.1666643E+005	6.612799832946621E+001
-7.272501198137715E-003	-8.1336713E-001	-8.1302530E-001	1.1184145E+005	6.632799832441378E+001
-7.575061704299287E-003	-8.1537008E-001	-8.1502521E-001	1.0763873E+005	6.652799831936136E+001
-8.006326039255725E-003	-8.1742758E-001	-8.1702518E-001	1.0209771E+005	6.672799831430893E+001
-8.388864576480512E-003	-8.1967878E-001	-8.1922507E-001	9.7710336E+004	6.694799830875127E+001
-8.831651063064140E-003	-8.2186550E-001	-8.2142508E-001	9.3059102E+004	6.716799830319360E+001
-9.253865256778807E-003	-8.2387614E-001	-8.2342494E-001	8.9030492E+004	6.736799829814117E+001
-9.544634403587451E-003	-8.2582331E-001	-8.2542467E-001	8.6522258E+004	6.756779829309380E+001
-1.002968266288763E-002	-8.2779336E-001	-8.2742488E-001	8.2534352E+004	6.776779828804138E+001
-1.044680339074644E-002	-8.2983798E-001	-8.2942480E-001	7.9434633E+004	6.796779828298895E+001
-1.085173953026258E-002	-8.3187628E-001	-8.3142465E-001	7.6658336E+004	6.816779827793653E+001
-1.129684954623761E-002	-8.3385170E-001	-8.3342469E-001	7.3812766E+004	6.836779827288410E+001
-1.171315067888307E-002	-8.3588302E-001	-8.3542454E-001	7.1362781E+004	6.856779826783168E+001
-1.214756929259400E-002	-8.3782214E-001	-8.3742458E-001	6.8970352E+004	6.876779826277925E+001
-1.268709124020528E-002	-8.3978462E-001	-8.3942443E-001	6.6192055E+004	6.896779825772683E+001
-1.313255212701064E-002	-8.4178466E-001	-8.4142447E-001	6.4099090E+004	6.916779825267440E+001
-1.360277479642250E-002	-8.4378099E-001	-8.4342432E-001	6.2030063E+004	6.936779824762198E+001
-1.421744028626898E-002	-8.4580541E-001	-8.4542423E-001	5.9490695E+004	6.956779824256955E+001
-1.473441872945852E-002	-8.4782970E-001	-8.4742421E-001	5.7540762E+004	6.976779823751713E+001
-1.521473078246173E-002	-8.4989631E-001	-8.4942412E-001	5.5860094E+004	6.996779823246470E+001
-1.581248494175044E-002	-8.5191864E-001	-8.5142410E-001	5.3876328E+004	7.016779822741228E+001
-1.643360530917448E-002	-8.5389233E-001	-8.5342401E-001	5.1960133E+004	7.036779822235985E+001
-1.691504360663400E-002	-8.5581923E-001	-8.5542393E-001	5.0595152E+004	7.056779821730743E+001
-1.766341971589852E-002	-8.5784578E-001	-8.5742390E-001	4.8566234E+004	7.076779821225500E+001
-1.819801195672466E-002	-8.5976601E-001	-8.5942388E-001	4.7245051E+004	7.096779820720258E+001
-1.908641514688302E-002	-8.6181378E-001	-8.6142367E-001	4.5153254E+004	7.116779820215015E+001
-1.982860496020061E-002	-8.6380690E-001	-8.6342371E-001	4.3563676E+004	7.136779819709773E+001
-2.070851955518474E-002	-8.6586452E-001	-8.6542368E-001	4.1811996E+004	7.156779819204530E+001
-2.181520113877769E-002	-8.6785316E-001	-8.6742359E-001	3.9782039E+004	7.176779818699288E+001
-2.281577545804206E-002	-8.6987156E-001	-8.6942345E-001	3.8125883E+004	7.196779818194045E+001
-2.411251024199468E-002	-8.7185335E-001	-8.7142348E-001	3.6157719E+004	7.216779817688803E+001
-2.534788184616577E-002	-8.7382835E-001	-8.7342334E-001	3.4473426E+004	7.236779817183560E+001
-2.703131808922576E-002	-8.7580854E-001	-8.7542325E-001	3.2399771E+004	7.256779816678318E+001
-2.865494171774141E-002	-8.7775826E-001	-8.7742323E-001	3.0632004E+004	7.276779816173075E+001
-3.069877179308905E-002	-8.7981957E-001	-8.7942314E-001	2.8659764E+004	7.296779815667833E+001
-3.291256828714051E-002	-8.8178504E-001	-8.8142312E-001	2.6791742E+004	7.316779815162590E+001
-3.525806695582945E-002	-8.8385963E-001	-8.8342303E-001	2.5068295E+004	7.336779814657348E+001
-3.826051262891567E-002	-8.8584590E-001	-8.8542300E-001	2.3153006E+004	7.356779814152105E+001
-4.136595968461299E-002	-8.8786715E-001	-8.8742274E-001	2.1463715E+004	7.376769813647115E+001
-4.496528371817965E-002	-8.8982183E-001	-8.8942289E-001	1.9789086E+004	7.396759813142126E+001
-4.908499631015995E-002	-8.9183456E-001	-8.9142269E-001	1.8169189E+004	7.416759812636883E+001
-5.356542149541765E-002	-8.9384788E-001	-8.9342278E-001	1.6687031E+004	7.436759812131641E+001
-5.872536083216649E-002	-8.9578348E-001	-8.9542270E-001	1.5253775E+004	7.456759811626398E+001
-6.459782376532741E-002	-8.9782608E-001	-8.9742261E-001	1.3898705E+004	7.476759811121156E+001
-7.101335426710137E-002	-8.9980966E-001	-8.9942259E-001	1.2670992E+004	7.496759810615913E+001
-7.824900840586502E-002	-9.0185797E-001	-9.0142250E-001	1.1525487E+004	7.516759810110671E+001
-8.628837321665639E-002	-9.0396041E-001	-9.0352249E-001	1.0476039E+004	7.537759809580166E+001
-9.552891091433047E-002	-9.0608108E-001	-9.0562236E-001	9.4848887E+003	7.558759809049661E+001
-1.056138172961110E-001	-9.0807128E-001	-9.0762228E-001	8.5980352E+003	7.578759808544419E+001
-1.165225025986543E-001	-9.1008061E-001	-9.0962225E-001	7.8103423E+003	7.598759808039176E+001
-1.285113556544952E-001	-9.1203201E-001	-9.1162217E-001	7.0968984E+003	7.618759807533934E+001
-1.416674449959618E-001	-9.1401815E-001	-9.1362208E-001	6.4518574E+003	7.638759807028691E+001
-1.557781255197905E-001	-9.1597462E-001	-9.1562212E-001	5.8799951E+003	7.658759806523449E+001
-1.715158965953902E-001	-9.1797739E-001	-9.1762197E-001	5.3521416E+003	7.678759806018206E+001
-1.881797436588870E-001	-9.2000431E-001	-9.1962194E-001	4.8889658E+003	7.698759805512964E+001
-2.060309010188250E-001	-9.2205614E-001	-9.2162180E-001	4.4753296E+003	7.718759805007721E+001
-2.253801755062268E-001	-9.2404169E-001	-9.2362183E-001	4.0999243E+003	7.738759804502479E+001
-2.457202520229908E-001	-9.2610276E-001	-9.2562169E-001	3.7689314E+003	7.758759803997236E+001
-2.673182547675297E-001	-9.2809826E-001	-9.2762172E-001	3.4718850E+003	7.778759803491994E+001
-2.905236728185279E-001	-9.3008471E-001	-9.2962158E-001	3.2014077E+003	7.798759802986751E+001
-3.147250774470653E-001	-9.3206728E-001	-9.3162161E-001	2.9615286E+003	7.818759802481509E+001
-3.404519471367324E-001	-9.3405074E-001	-9.3362147E-001	2.7435613E+003	7.838759801976266E+001
-3.674431591148997E-001	-9.3600243E-001	-9.3562138E-001	2.5473394E+003	7.858759801471024E+001
-3.953720927914257E-001	-9.3798554E-001	-9.3762130E-001	2.3724121E+003	7.878759800965781E+001
-4.247936652065203E-001	-9.3999553E-001	-9.3962127E-001	2.2128286E+003	7.898759800460539E+001
-4.553676376841498E-001	-9.4201547E-001	-9.4162118E-001	2.0686921E+003	7.918759799955296E+001
-4.872896778196640E-001	-9.4398576E-001	-9.4362110E-001	1.9372168E+003	7.938759799450054E+001
-5.205154216335117E-001	-9.4605488E-001	-9.4562113E-001	1.8175348E+003	7.958759798944811E+001
-5.546737462408906E-001	-9.4810498E-001	-9.4762105E-001	1.7093020E+003	7.978759798439569E+001
-5.899641504508889E-001	-9.5007080E-001	-9.4962025E-001	1.6103873E+003	7.998749797934579E+001
-6.265091106886089E-001	-9.5205194E-001	-9.5162183E-001	1.5196139E+003	8.018749797429336E+001
-6.637304953157970E-001	-9.5408946E-001	-9.5362085E-001	1.4374652E+003	8.038739796924347E+001
-7.024831003688963E-001	-9.5603812E-001	-9.5562071E-001	1.3609410E+003	8.058739796419104E+001
-7.420357757938589E-001	-9.5798761E-001	-9.5762074E-001	1.2910261E+003	8.078739795913862E+001
-7.827609812971754E-001	-9.5996523E-001	-9.5962059E-001	1.2263835E+003	8.098739795408619E+001
-8.244604104348454E-001	-9.6200860E-001	-9.6162063E-001	1.1668342E+003	8.118739794903377E+001
-8.672109959212007E-001	-9.6402746E-001	-9.6362048E-001	1.1116412E+003	8.138739794398134E+001
-9.109782059666394E-001	-9.6604437E-001	-9.6562040E-001	1.0604473E+003	8.158739793892892E+001
-9.557511022487599E-001	-9.6806180E-001	-9.6762037E-001	1.0128807E+003	8.178739793387649E+001
-1.001482021654881E+000	-9.7010094E-001	-9.6962029E-001	9.6866534E+002	8.198739792882407E+001
-1.050862082595401E+000	-9.7212887E-001	-9.7172028E-001	9.2507751E+002	8.219739792351902E+001
-1.101760492134252E+000	-9.7423029E-001	-9.7382021E-001	8.8424872E+002	8.240739791821397E+001
-1.150708324472313E+000	-9.7622085E-001	-9.7582018E-001	8.4836517E+002	8.260739791316155E+001
-1.200789128681500E+000	-9.7823274E-001	-9.7782010E-001	8.1465820E+002	8.280739790810912E+001
-1.251765705391664E+000	-9.8023844E-001	-9.7982007E-001	7.8308459E+002	8.300739790305670E+001
-1.303964284559092E+000	-9.8221427E-001	-9.8181993E-001	7.5325244E+002	8.320739789800427E+001
-1.357117861078500E+000	-9.8422599E-001	-9.8381996E-001	7.2523248E+002	8.340739789295185E+001
-1.411433021472497E+000	-9.8622757E-001	-9.8581976E-001	6.9874200E+002	8.360739788789942E+001
-1.467181338415460E+000	-9.8822397E-001	-9.8781985E-001	6.7355273E+002	8.380739788284700E+001
-1.524202045889531E+000	-9.9020708E-001	-9.8981965E-001	6.4965607E+002	8.400739787779457E+001
-1.582352455409751E+000	-9.9221367E-001	-9.9181962E-001	6.2704974E+002	8.420739787274215E+001
-1.641504696369708E+000	-9.9422526E-001	-9.9381953E-001	6.0567920E+002	8.440739786768972E+001
-1.701544962890974E+000	-9.9621224E-001	-9.9581951E-001	5.8547510E+002	8.460739786263730E+001
-1.763255278201868E+000	-9.9818587E-001	-9.9781942E-001	5.6610400E+002	8.480739785758487E+001
-1.826494144389830E+000	-1.0001838E+000	-9.9981934E-001	5.4759760E+002	8.500739785253245E+001
-1.891539760677315E+000	-1.0022171E+000	-1.0018194E+000	5.2984192E+002	8.520739784748002E+001
-1.957089242024885E+000	-1.0042185E+000	-1.0038192E+000	5.1311841E+002	8.540739784242760E+001
-2.024072916886844E+000	-1.0062193E+000	-1.0058191E+000	4.9712601E+002	8.560739783737517E+001
-2.092818432586796E+000	-1.0082570E+000	-1.0078192E+000	4.8176996E+002	8.580739783232275E+001
-2.162962240097475E+000	-1.0102400E+000	-1.0098182E+000	4.6706314E+002	8.600729782727285E+001
-2.234886854657017E+000	-1.0122074E+000	-1.0118183E+000	4.5291214E+002	8.620729782222043E+001
-2.309049065202728E+000	-1.0142412E+000	-1.0138185E+000	4.3924628E+002	8.640719781717053E+001
-2.384176510413626E+000	-1.0162102E+000	-1.0158188E+000	4.2623111E+002	8.660719781211810E+001
-2.460254694599140E+000	-1.0181862E+000	-1.0178188E+000	4.1385397E+002	8.680719780706568E+001
-2.539163369203902E+000	-1.0202056E+000	-1.0198187E+000	4.0178809E+002	8.700719780201325E+001
-2.619672580674926E+000	-1.0221852E+000	-1.0218186E+000	3.9019580E+002	8.720719779696083E+001
-2.702806202310420E+000	-1.0242195E+000	-1.0238186E+000	3.7894672E+002	8.740719779190840E+001
-2.788060835480280E+000	-1.0262191E+000	-1.0258185E+000	3.6807629E+002	8.760719778685598E+001
-2.875816002015100E+000	-1.0282401E+000	-1.0278184E+000	3.5754724E+002	8.780719778180355E+001
-2.964030816846957E+000	-1.0302581E+000	-1.0298184E+000	3.4758682E+002	8.800719777675113E+001
-3.054726331530638E+000	-1.0322665E+000	-1.0318184E+000	3.3792438E+002	8.820719777169870E+001
-3.148193953867143E+000	-1.0342447E+000	-1.0338184E+000	3.2851999E+002	8.840719776664628E+001
-3.244079512702385E+000	-1.0362747E+000	-1.0358182E+000	3.1943567E+002	8.860719776159385E+001
-3.342204725863979E+000	-1.0382987E+000	-1.0378182E+000	3.1066281E+002	8.880719775654143E+001
-3.442601760633949E+000	-1.0402571E+000	-1.0398182E+000	3.0217178E+002	8.900719775148900E+001
-3.545721306822461E+000	-1.0422406E+000	-1.0418179E+000	2.9394318E+002	8.920719774643658E+001
-3.652088237525113E+000	-1.0442159E+000	-1.0438180E+000	2.8592297E+002	8.940719774138415E+001
-3.761533372053485E+000	-1.0462393E+000	-1.0458179E+000	2.7814169E+002	8.960719773633173E+001
-3.873094713167561E+000	-1.0482200E+000	-1.0478178E+000	2.7064148E+002	8.980719773127930E+001
-3.988021007876291E+000	-1.0502350E+000	-1.0498178E+000	2.6334741E+002	9.000719772622688E+001
-4.108403710754002E+000	-1.0522349E+000	-1.0518177E+000	2.5611771E+002	9.020719772117445E+001
-4.231664595420121E+000	-1.0542465E+000	-1.0538176E+000	2.4913283E+002	9.040719771612203E+001
-4.356914531921047E+000	-1.0562705E+000	-1.0558176E+000	2.4243544E+002	9.060719771106960E+001
-4.485377381819738E+000	-1.0582812E+000	-1.0578176E+000	2.3594028E+002	9.080719770601718E+001
-4.616855028670365E+000	-1.0602838E+000	-1.0598174E+000	2.2965498E+002	9.100719770096475E+001
-4.753225845544502E+000	-1.0622957E+000	-1.0618174E+000	2.2348941E+002	9.120719769591233E+001
-4.893277764117649E+000	-1.0643135E+000	-1.0638174E+000	2.1750523E+002	9.140719769085990E+001
-5.040157889394010E+000	-1.0662683E+000	-1.0658172E+000	2.1155455E+002	9.160719768580748E+001
-5.189468446333407E+000	-1.0682548E+000	-1.0678172E+000	2.0585052E+002	9.180719768075505E+001
-5.343649439260250E+000	-1.0702331E+000	-1.0698172E+000	2.0028131E+002	9.200719767570263E+001
-5.500332778442193E+000	-1.0722544E+000	-1.0718169E+000	1.9494356E+002	9.220719767065020E+001
-5.662731343532215E+000	-1.0742440E+000	-1.0738163E+000	1.8970422E+002	9.240709766560030E+001
-5.829697635074988E+000	-1.0762713E+000	-1.0758172E+000	1.8461871E+002	9.260709766054788E+001
-6.002174169163055E+000	-1.0782323E+000	-1.0778168E+000	1.7964029E+002	9.280699765549798E+001
-6.181346141866271E+000	-1.0802457E+000	-1.0798169E+000	1.7475897E+002	9.300699765044556E+001
-6.364041245578363E+000	-1.0822539E+000	-1.0818168E+000	1.7005766E+002	9.320699764539313E+001
-6.548451141029815E+000	-1.0843085E+000	-1.0838168E+000	1.6558244E+002	9.340699764034071E+001
-6.736302967312120E+000	-1.0863334E+000	-1.0858166E+000	1.6126552E+002	9.360699763528828E+001
-6.933612719144406E+000	-1.0883160E+000	-1.0878166E+000	1.5696233E+002	9.380699763023586E+001
-7.138998325922557E+000	-1.0903096E+000	-1.0898166E+000	1.5272586E+002	9.400699762518343E+001
-7.346565231444332E+000	-1.0922768E+000	-1.0918164E+000	1.4867857E+002	9.420699762013101E+001
-7.558753520250313E+000	-1.0942408E+000	-1.0938164E+000	1.4476471E+002	9.440699761507858E+001
-7.778197091588041E+000	-1.0962368E+000	-1.0958163E+000	1.4093713E+002	9.460699761002616E+001
-8.004695142139937E+000	-1.0982642E+000	-1.0978162E+000	1.3720250E+002	9.480699760497373E+001
-8.232849031213703E+000	-1.1002274E+000	-1.0998162E+000	1.3363872E+002	9.500699759992131E+001
-8.469346936327533E+000	-1.1022420E+000	-1.1018161E+000	1.3014487E+002	9.520699759486888E+001
-8.711234072641425E+000	-1.1041974E+000	-1.1038162E+000	1.2675556E+002	9.540699758981646E+001
-8.952691364855951E+000	-1.1062180E+000	-1.1058160E+000	1.2356261E+002	9.560699758476403E+001
-9.200670148239659E+000	-1.1082911E+000	-1.1078159E+000	1.2045766E+002	9.580699757971161E+001
-9.458144373566682E+000	-1.1103806E+000	-1.1098160E+000	1.1739942E+002	9.600699757465918E+001
-9.717043705808322E+000	-1.1124051E+000	-1.1118158E+000	1.1447978E+002	9.620699756960676E+001
-9.986194293515211E+000	-1.1143931E+000	-1.1138158E+000	1.1159338E+002	9.640699756455433E+001
-1.026800933115334E+001	-1.1163086E+000	-1.1158156E+000	1.0871713E+002	9.660699755950191E+001
-1.055767162167837E+001	-1.1182506E+000	-1.1178156E+000	1.0591830E+002	9.680699755444948E+001
-1.086773267649872E+001	-1.1202428E+000	-1.1199156E+000	1.0307972E+002	9.701699754914443E+001
-1.119918831304356E+001	-1.1224020E+000	-1.1220155E+000	1.0022173E+002	9.722699754383939E+001
-1.150107056666121E+001	-1.1244210E+000	-1.1240155E+000	9.7766640E+001	9.742699753878696E+001
-1.180872255070411E+001	-1.1264288E+000	-1.1260154E+000	9.5389557E+001	9.762699753373454E+001
-1.211998929566533E+001	-1.1284281E+000	-1.1280152E+000	9.3104713E+001	9.782699752868211E+001
-1.243398411629420E+001	-1.1303960E+000	-1.1300153E+000	9.0911812E+001	9.802699752362969E+001
-1.275420802047734E+001	-1.1324670E+000	-1.1320152E+000	8.8791641E+001	9.822699751857726E+001
-1.308363007363823E+001	-1.1345868E+000	-1.1340151E+000	8.6718040E+001	9.842699751352484E+001
-1.341038258165952E+001	-1.1365957E+000	-1.1360154E+000	8.4754906E+001	9.862699750847241E+001
-1.375092533690946E+001	-1.1385357E+000	-1.1380155E+000	8.2797028E+001	9.882689750342252E+001
-1.410067455879411E+001	-1.1404694E+000	-1.1400149E+000	8.0880486E+001	9.902679749837262E+001
-1.444850448807893E+001	-1.1423935E+000	-1.1420149E+000	7.9066551E+001	9.922679749332019E+001
-1.479730194739469E+001	-1.1443833E+000	-1.1440148E+000	7.7337296E+001	9.942679748826777E+001
-1.515805875187289E+001	-1.1463455E+000	-1.1460147E+000	7.5626144E+001	9.962679748321534E+001
-1.552983441077120E+001	-1.1483866E+000	-1.1480147E+000	7.3947121E+001	9.982679747816292E+001
-1.590296163796838E+001	-1.1504837E+000	-1.1500146E+000	7.2343994E+001	1.000267974731105E+002
-1.628616537271984E+001	-1.1524770E+000	-1.1520145E+000	7.0764175E+001	1.002267974680581E+002
-1.666825673058462E+001	-1.1544807E+000	-1.1540145E+000	6.9262238E+001	1.004267974630056E+002
-1.706609860312648E+001	-1.1564831E+000	-1.1560144E+000	6.7764931E+001	1.006267974579532E+002
-1.746747381076248E+001	-1.1584489E+000	-1.1580142E+000	6.6320351E+001	1.008267974529008E+002
-1.788105402309073E+001	-1.1604391E+000	-1.1600143E+000	6.4897690E+001	1.010267974478484E+002
-1.830098279574014E+001	-1.1624585E+000	-1.1620142E+000	6.3518913E+001	1.012267974427959E+002
-1.872646764346536E+001	-1.1644683E+000	-1.1640141E+000	6.2183018E+001	1.014267974377435E+002
-1.916727669628298E+001	-1.1664913E+000	-1.1660142E+000	6.0858479E+001	1.016267974326911E+002
-1.961558384946693E+001	-1.1684914E+000	-1.1680140E+000	5.9569542E+001	1.018267974276387E+002
-2.008591587905715E+001	-1.1704714E+000	-1.1700140E+000	5.8273243E+001	1.020267974225862E+002
-2.055443974795519E+001	-1.1724423E+000	-1.1720139E+000	5.7040833E+001	1.022267974175338E+002
-2.101655071649418E+001	-1.1744380E+000	-1.1740139E+000	5.5881577E+001	1.024267974124814E+002
-2.149832510231852E+001	-1.1764250E+000	-1.1760138E+000	5.4721703E+001	1.026267974074290E+002
-2.197251298881707E+001	-1.1784317E+000	-1.1780137E+000	5.3632088E+001	1.028267974023765E+002
-2.244596750084781E+001	-1.1804357E+000	-1.1800137E+000	5.2590099E+001	1.030267973973241E+002
-2.293923508431629E+001	-1.1824136E+000	-1.1820135E+000	5.1545467E+001	1.032267973922717E+002
-2.343131410670111E+001	-1.1844412E+000	-1.1840135E+000	5.0549500E+001	1.034267973872193E+002
-2.394834394722579E+001	-1.1864358E+000	-1.1860135E+000	4.9541454E+001	1.036267973821668E+002
-2.445899127643406E+001	-1.1884245E+000	-1.1880133E+000	4.8588451E+001	1.038267973771144E+002
-2.497926687572544E+001	-1.1904318E+000	-1.1900133E+000	4.7656796E+001	1.040267973720620E+002
-2.551525686225107E+001	-1.1924311E+000	-1.1920133E+000	4.6734043E+001	1.042267973670096E+002
-2.604659808141568E+001	-1.1944591E+000	-1.1940131E+000	4.5858543E+001	1.044267973619571E+002
-2.657065290253183E+001	-1.1964256E+000	-1.1960132E+000	4.5028084E+001	1.046267973569047E+002
-2.711641701116591E+001	-1.1984293E+000	-1.1980131E+000	4.4195713E+001	1.048267973518523E+002
-2.765328079870960E+001	-1.2004631E+000	-1.2000134E+000	4.3411236E+001	1.050267973467999E+002
-2.819583600700702E+001	-1.2024244E+000	-1.2020136E+000	4.2645462E+001	1.052266973417500E+002
-2.874973555162649E+001	-1.2044356E+000	-1.2040129E+000	4.1893799E+001	1.054265973367001E+002
-2.932177579132622E+001	-1.2064435E+000	-1.2060128E+000	4.1144970E+001	1.056265973316476E+002
-2.987765763351985E+001	-1.2084652E+000	-1.2080127E+000	4.0447121E+001	1.058265973265952E+002
-3.045858116620275E+001	-1.2104536E+000	-1.2100127E+000	3.9740971E+001	1.060265973215428E+002
-3.104657654237843E+001	-1.2124459E+000	-1.2120126E+000	3.9052483E+001	1.062265973164904E+002
-3.162621619587844E+001	-1.2144500E+000	-1.2140125E+000	3.8400105E+001	1.064265973114379E+002
-3.224155338767423E+001	-1.2164211E+000	-1.2160125E+000	3.7728367E+001	1.066265973063855E+002
-3.283891666368019E+001	-1.2184603E+000	-1.2180125E+000	3.7104156E+001	1.068265973013331E+002
-3.344913889707624E+001	-1.2204752E+000	-1.2200123E+000	3.6487492E+001	1.070265972962807E+002
-3.408810122050920E+001	-1.2224617E+000	-1.2220123E+000	3.5861832E+001	1.072265972912282E+002
-3.471059897183829E+001	-1.2244735E+000	-1.2240123E+000	3.5276646E+001	1.074265972861758E+002
-3.534351418375144E+001	-1.2264599E+000	-1.2260122E+000	3.4701130E+001	1.076265972811234E+002
-3.598623987606578E+001	-1.2284814E+000	-1.2280121E+000	3.4137531E+001	1.078265972760710E+002
-3.663422727449688E+001	-1.2304434E+000	-1.2300121E+000	3.3587261E+001	1.080265972710185E+002
-3.730315474912425E+001	-1.2324860E+000	-1.2320120E+000	3.3039726E+001	1.082265972659661E+002
-3.796689245003408E+001	-1.2344791E+000	-1.2340119E+000	3.2514618E+001	1.084265972609137E+002
-3.862809242088508E+001	-1.2364595E+000	-1.2360119E+000	3.2009335E+001	1.086265972558613E+002
-3.928756979560660E+001	-1.2384841E+000	-1.2380117E+000	3.1523561E+001	1.088265972508088E+002
-3.997543238458195E+001	-1.2404644E+000	-1.2400117E+000	3.1030670E+001	1.090265972457564E+002
-4.065818874527804E+001	-1.2424692E+000	-1.2420117E+000	3.0558891E+001	1.092265972407040E+002
-4.133973734800509E+001	-1.2444885E+000	-1.2440115E+000	3.0103928E+001	1.094265972356516E+002
-4.207221561873041E+001	-1.2464832E+000	-1.2460115E+000	2.9627230E+001	1.096265972305991E+002
-4.277226221561403E+001	-1.2484642E+000	-1.2480115E+000	2.9188641E+001	1.098265972255467E+002
-4.346927274084412E+001	-1.2505054E+000	-1.2500114E+000	2.8767572E+001	1.100265972204943E+002
-4.420018747928707E+001	-1.2524927E+000	-1.2520115E+000	2.8336819E+001	1.102265972154419E+002
-4.491820679311036E+001	-1.2545118E+000	-1.2540113E+000	2.7928804E+001	1.104265972103894E+002
-4.564162952072775E+001	-1.2565200E+000	-1.2560112E+000	2.7530130E+001	1.106265972053370E+002
-4.637623206504080E+001	-1.2585353E+000	-1.2580112E+000	2.7137506E+001	1.108265972002846E+002
-4.712545205379047E+001	-1.2605219E+000	-1.2600112E+000	2.6748219E+001	1.110265971952322E+002
-4.786580121392126E+001	-1.2625102E+000	-1.2620115E+000	2.6376038E+001	1.112265971901797E+002
-4.863228245086060E+001	-1.2645073E+000	-1.2640114E+000	2.6001398E+001	1.114264971851298E+002
-4.938067072021727E+001	-1.2665117E+000	-1.2660110E+000	2.5647924E+001	1.116263971800799E+002
-5.017400836160687E+001	-1.2684869E+000	-1.2680109E+000	2.5281752E+001	1.118263971750275E+002
-5.094892271035371E+001	-1.2704872E+000	-1.2700108E+000	2.4936487E+001	1.120263971699751E+002
-5.172849446521582E+001	-1.2725066E+000	-1.2720108E+000	2.4599722E+001	1.122263971649227E+002
-5.248170430968403E+001	-1.2745134E+000	-1.2740107E+000	2.4284908E+001	1.124263971598702E+002
-5.330831427314649E+001	-1.2765207E+000	-1.2760105E+000	2.3945997E+001	1.126263971548178E+002
-5.409801933878958E+001	-1.2785316E+000	-1.2780105E+000	2.3633612E+001	1.128263971497654E+002
-5.489126035631921E+001	-1.2805260E+000	-1.2800105E+000	2.3328413E+001	1.130263971447130E+002
-5.571518303747887E+001	-1.2825142E+000	-1.2820106E+000	2.3019115E+001	1.132263971396605E+002
-5.652499192588198E+001	-1.2844872E+000	-1.2840103E+000	2.2724236E+001	1.134263971346081E+002
-5.735793916276270E+001	-1.2864922E+000	-1.2860103E+000	2.2429192E+001	1.136263971295557E+002
-5.822746251283590E+001	-1.2885013E+000	-1.2880102E+000	2.2128756E+001	1.138263971245033E+002
-5.904929573411573E+001	-1.2905605E+000	-1.2900102E+000	2.1855646E+001	1.140263971194508E+002
-5.985380679463583E+001	-1.2925419E+000	-1.2920101E+000	2.1594982E+001	1.142263971143984E+002
-6.067078614829643E+001	-1.2945515E+000	-1.2940100E+000	2.1337313E+001	1.144263971093460E+002
-6.149378057077661E+001	-1.2965387E+000	-1.2960099E+000	2.1084063E+001	1.146263971042936E+002
-6.237840837361841E+001	-1.2984716E+000	-1.2980100E+000	2.0816042E+001	1.148263970992411E+002
-6.320625049781347E+001	-1.3004522E+000	-1.3000098E+000	2.0574741E+001	1.150263970941887E+002
-6.409634961076335E+001	-1.3024718E+000	-1.3020098E+000	2.0320530E+001	1.152263970891363E+002
-6.491644397830771E+001	-1.3044487E+000	-1.3040097E+000	2.0094273E+001	1.154263970840839E+002
-6.578592115897459E+001	-1.3064669E+000	-1.3060095E+000	1.9859369E+001	1.156263970790314E+002
-6.667050674010306E+001	-1.3085374E+000	-1.3080095E+000	1.9626930E+001	1.158263970739790E+002
-6.750290708585101E+001	-1.3105284E+000	-1.3100095E+000	1.9414400E+001	1.160263970689266E+002
-6.842630980723038E+001	-1.3125468E+000	-1.3120095E+000	1.9181904E+001	1.162263970638742E+002
-6.927188150033933E+001	-1.3144923E+000	-1.3140093E+000	1.8975843E+001	1.164263970588217E+002
-7.015335066951047E+001	-1.3164915E+000	-1.3160093E+000	1.8765911E+001	1.166263970537693E+002
-7.106808377285392E+001	-1.3184216E+000	-1.3180094E+000	1.8551529E+001	1.168263970487169E+002
-7.194474617640117E+001	-1.3204165E+000	-1.3200092E+000	1.8353203E+001	1.170263970436645E+002
-7.284612171990511E+001	-1.3224856E+000	-1.3220091E+000	1.8154509E+001	1.172263970386120E+002
-7.374694247364710E+001	-1.3245201E+000	-1.3240091E+000	1.7960339E+001	1.174263970335596E+002
-7.467915922076952E+001	-1.3265516E+000	-1.3260087E+000	1.7763344E+001	1.176262970285097E+002
-7.554839071497895E+001	-1.3285266E+000	-1.3280096E+000	1.7585108E+001	1.178262970234573E+002
-7.647431117498945E+001	-1.3306469E+000	-1.3300089E+000	1.7399920E+001	1.180261970184074E+002
-7.736951541305939E+001	-1.3325882E+000	-1.3320088E+000	1.7223686E+001	1.182261970133550E+002
-7.830571062710828E+001	-1.3345485E+000	-1.3340088E+000	1.7042799E+001	1.184261970083026E+002
-7.923770773329670E+001	-1.3365320E+000	-1.3360087E+000	1.6867373E+001	1.186261970032501E+002
-8.012496449347282E+001	-1.3384675E+000	-1.3380086E+000	1.6704750E+001	1.188261969981977E+002
-8.104274764082621E+001	-1.3404330E+000	-1.3400086E+000	1.6539827E+001	1.190261969931453E+002
-8.192050782839442E+001	-1.3423955E+000	-1.3420086E+000	1.6386562E+001	1.192261969880929E+002
-8.287873077014139E+001	-1.3444235E+000	-1.3440084E+000	1.6221575E+001	1.194261969830404E+002
-8.384507810393723E+001	-1.3464423E+000	-1.3460083E+000	1.6058693E+001	1.196261969779880E+002
-8.485889294466438E+001	-1.3484850E+000	-1.3480084E+000	1.5890909E+001	1.198261969729356E+002
-8.576698164712798E+001	-1.3504866E+000	-1.3500082E+000	1.5745997E+001	1.200261969678832E+002
-8.668431131964067E+001	-1.3524653E+000	-1.3520081E+000	1.5602192E+001	1.202261969628307E+002
-8.765688825086113E+001	-1.3544644E+000	-1.3540081E+000	1.5451888E+001	1.204261969577783E+002
-8.856839988074898E+001	-1.3564467E+000	-1.3560081E+000	1.5315245E+001	1.206261969527259E+002
-8.957325542594867E+001	-1.3585018E+000	-1.3580080E+000	1.5166377E+001	1.208261969476735E+002
-9.053313533032588E+001	-1.3604933E+000	-1.3600079E+000	1.5027573E+001	1.210261969426210E+002
-9.151818407690212E+001	-1.3625351E+000	-1.3620079E+000	1.4888135E+001	1.212261969375686E+002
-9.248947449984735E+001	-1.3645595E+000	-1.3640078E+000	1.4753674E+001	1.214261969325162E+002
-9.344829280089857E+001	-1.3666028E+000	-1.3660077E+000	1.4624160E+001	1.216261969274638E+002
-9.436773321363626E+001	-1.3686037E+000	-1.3680077E+000	1.4502878E+001	1.218261969224113E+002
-9.532836246760780E+001	-1.3705388E+000	-1.3700076E+000	1.4377031E+001	1.220261969173589E+002
-9.629172039086075E+001	-1.3725384E+000	-1.3720076E+000	1.4253962E+001	1.222261969123065E+002
-9.739432895210621E+001	-1.3745306E+000	-1.3740075E+000	1.4113045E+001	1.224261969072541E+002
-9.847489125982682E+001	-1.3764596E+000	-1.3760074E+000	1.3977772E+001	1.226261969022016E+002
-9.942152634607692E+001	-1.3784279E+000	-1.3780074E+000	1.3864481E+001	1.228261968971492E+002
-1.004879501995858E+002	-1.3804250E+000	-1.3800074E+000	1.3737219E+001	1.230261968920968E+002
-1.014126414149800E+002	-1.3823986E+000	-1.3820071E+000	1.3631423E+001	1.232261968870444E+002
-1.024397949934548E+002	-1.3844054E+000	-1.3840072E+000	1.3514332E+001	1.234261968819919E+002
-1.034651934987023E+002	-1.3864347E+000	-1.3860071E+000	1.3400010E+001	1.236261968769395E+002
-1.045794901940732E+002	-1.3884827E+000	-1.3880075E+000	1.3276816E+001	1.238261968718871E+002
-1.057053256861300E+002	-1.3904634E+000	-1.3900076E+000	1.3154146E+001	1.240260968668372E+002
-1.065776700941074E+002	-1.3924774E+000	-1.3920069E+000	1.3065376E+001	1.242259968617873E+002
-1.076010010756065E+002	-1.3944839E+000	-1.3940068E+000	1.2959767E+001	1.244259968567349E+002
-1.086349340761062E+002	-1.3964936E+000	-1.3960068E+000	1.2854921E+001	1.246259968516824E+002
-1.097354705168275E+002	-1.3985840E+000	-1.3981068E+000	1.2745049E+001	1.248359968463774E+002
-1.109671536638079E+002	-1.4006923E+000	-1.4002066E+000	1.2622585E+001	1.250459968410723E+002
-1.119750286802954E+002	-1.4026681E+000	-1.4022065E+000	1.2526615E+001	1.252459968360199E+002
-1.129966922984904E+002	-1.4046704E+000	-1.4042066E+000	1.2431075E+001	1.254459968309675E+002
-1.140178463832051E+002	-1.4067022E+000	-1.4062065E+000	1.2337562E+001	1.256459968259151E+002
-1.150230791682283E+002	-1.4087138E+000	-1.4082063E+000	1.2247228E+001	1.258459968208626E+002
-1.161446734188376E+002	-1.4107122E+000	-1.4102063E+000	1.2146164E+001	1.260459968158102E+002
-1.172549344947275E+002	-1.4127176E+000	-1.4122062E+000	1.2048257E+001	1.262459968107578E+002
-1.183578258090550E+002	-1.4147013E+000	-1.4142063E+000	1.1952748E+001	1.264459968057054E+002
-1.195640774659831E+002	-1.4167030E+000	-1.4162061E+000	1.1848902E+001	1.266459968006529E+002
-1.206099812654679E+002	-1.4186957E+000	-1.4182061E+000	1.1762672E+001	1.268459967956005E+002
-1.216443964943051E+002	-1.4207126E+000	-1.4202061E+000	1.1679228E+001	1.270459967905481E+002
-1.226914891872276E+002	-1.4226867E+000	-1.4222060E+000	1.1595643E+001	1.272459967854957E+002
-1.237566415739170E+002	-1.4246783E+000	-1.4242059E+000	1.1511934E+001	1.274459967804432E+002
-1.247242037282241E+002	-1.4267050E+000	-1.4262059E+000	1.1438878E+001	1.276459967753908E+002
-1.257852215983157E+002	-1.4286692E+000	-1.4282058E+000	1.1358006E+001	1.278459967703384E+002
-1.267842755069000E+002	-1.4306743E+000	-1.4302058E+000	1.1284320E+001	1.280459967652860E+002
-1.277999385068206E+002	-1.4326670E+000	-1.4322056E+000	1.1210233E+001	1.282459967602335E+002
-1.288264802632150E+002	-1.4346553E+000	-1.4342057E+000	1.1136338E+001	1.284459967551811E+002
-1.299183809968082E+002	-1.4366714E+000	-1.4362055E+000	1.1058261E+001	1.286459967501287E+002
-1.309544972778721E+002	-1.4386995E+000	-1.4382054E+000	1.0986255E+001	1.288459967450763E+002
-1.321648388795559E+002	-1.4406724E+000	-1.4402055E+000	1.0900573E+001	1.290459967400238E+002
-1.334429314098660E+002	-1.4427172E+000	-1.4422054E+000	1.0811492E+001	1.292459967349714E+002
-1.345948800500017E+002	-1.4446894E+000	-1.4442053E+000	1.0733613E+001	1.294459967299190E+002
-1.356511365313107E+002	-1.4467155E+000	-1.4462051E+000	1.0664971E+001	1.296459967248666E+002
-1.366946418939538E+002	-1.4487118E+000	-1.4482051E+000	1.0598161E+001	1.298459967198141E+002
-1.378034510709803E+002	-1.4506944E+000	-1.4502051E+000	1.0527272E+001	1.300459967147617E+002
-1.389838085088218E+002	-1.4527153E+000	-1.4522060E+000	1.0452407E+001	1.302459967097093E+002
-1.401453098482411E+002	-1.4547354E+000	-1.4542048E+000	1.0380194E+001	1.304457967046619E+002
-1.411807815514990E+002	-1.4567177E+000	-1.4562049E+000	1.0318102E+001	1.306457966996095E+002
-1.422165540513538E+002	-1.4586955E+000	-1.4582049E+000	1.0256862E+001	1.308457966945571E+002
-1.431776092998566E+002	-1.4606737E+000	-1.4602048E+000	1.0201831E+001	1.310457966895046E+002
-1.442494816412458E+002	-1.4627143E+000	-1.4622047E+000	1.0140170E+001	1.312457966844522E+002
-1.455023675537977E+002	-1.4647063E+000	-1.4642047E+000	1.0066546E+001	1.314457966793998E+002
-1.466636974330389E+002	-1.4667236E+000	-1.4662046E+000	1.0000590E+001	1.316457966743474E+002
-1.477078983789131E+002	-1.4687159E+000	-1.4682044E+000	9.9433813E+000	1.318457966692949E+002
-1.488033577536239E+002	-1.4707133E+000	-1.4702045E+000	9.8836031E+000	1.320457966642425E+002
-1.498962696793402E+002	-1.4727005E+000	-1.4722044E+000	9.8247976E+000	1.322457966591901E+002
-1.509223660168464E+002	-1.4747213E+000	-1.4742043E+000	9.7713900E+000	1.324457966541377E+002
-1.520455052847224E+002	-1.4767392E+000	-1.4762042E+000	9.7124815E+000	1.326457966490852E+002
-1.531607693793278E+002	-1.4787133E+000	-1.4782041E+000	9.6546478E+000	1.328457966440328E+002
-1.543200402043574E+002	-1.4807435E+000	-1.4802041E+000	9.5952768E+000	1.330457966389804E+002
-1.552691188377588E+002	-1.4827265E+000	-1.4822041E+000	9.5493965E+000	1.332457966339280E+002
-1.563764343359032E+002	-1.4847326E+000	-1.4842039E+000	9.4946060E+000	1.334457966288755E+002
-1.573728135426836E+002	-1.4867038E+000	-1.4862040E+000	9.4470177E+000	1.336457966238231E+002
-1.583113733700341E+002	-1.4886968E+000	-1.4882039E+000	9.4035997E+000	1.338457966187707E+002
-1.593742043188095E+002	-1.4907449E+000	-1.4902039E+000	9.3537407E+000	1.340457966137183E+002
-1.605422692006950E+002	-1.4927168E+000	-1.4922037E+000	9.2979670E+000	1.342457966086658E+002
-1.617616445591118E+002	-1.4947176E+000	-1.4942037E+000	9.2402477E+000	1.344457966036134E+002
-1.629660150815564E+002	-1.4967169E+000	-1.4962037E+000	9.1842270E+000	1.346457965985610E+002
-1.637521868822528E+002	-1.4987030E+000	-1.4982034E+000	9.1522627E+000	1.348457965935086E+002
-1.656331135907676E+002	-1.5007079E+000	-1.5002035E+000	9.0604334E+000	1.350457965884561E+002
-1.665119435543911E+002	-1.5027218E+000	-1.5022035E+000	9.0247087E+000	1.352457965834037E+002
-1.675376477252325E+002	-1.5047032E+000	-1.5042033E+000	8.9812841E+000	1.354457965783513E+002
-1.689221756236625E+002	-1.5066987E+000	-1.5062034E+000	8.9194841E+000	1.356457965732989E+002
-1.700368080517605E+002	-1.5087334E+000	-1.5082033E+000	8.8729811E+000	1.358457965682464E+002
-1.711133168505980E+002	-1.5106990E+000	-1.5102031E+000	8.8286467E+000	1.360457965631940E+002
-1.722207044744165E+002	-1.5127128E+000	-1.5122031E+000	8.7835712E+000	1.362457965581416E+002
-1.734844470057901E+002	-1.5147305E+000	-1.5142037E+000	8.7312174E+000	1.364457965530892E+002
-1.745724792293659E+002	-1.5167199E+000	-1.5162029E+000	8.6881962E+000	1.366455965480418E+002
-1.754386104618332E+002	-1.5187694E+000	-1.5182029E+000	8.6569843E+000	1.368455965429894E+002
-1.764893032752999E+002	-1.5207497E+000	-1.5202029E+000	8.6166677E+000	1.370455965379369E+002
-1.774908796773207E+002	-1.5227349E+000	-1.5222027E+000	8.5792284E+000	1.372455965328845E+002
-1.785140003606566E+002	-1.5247270E+000	-1.5242027E+000	8.5412178E+000	1.374455965278321E+002
-1.796721987583746E+002	-1.5267317E+000	-1.5262027E+000	8.4973173E+000	1.376455965227797E+002
-1.806995982680453E+002	-1.5287575E+000	-1.5282027E+000	8.4602146E+000	1.378455965177272E+002
-1.817833684955863E+002	-1.5307388E+000	-1.5302025E+000	8.4206762E+000	1.380455965126748E+002
-1.829701045181205E+002	-1.5327647E+000	-1.5322026E+000	8.3771315E+000	1.382455965076224E+002
-1.845958202258253E+002	-1.5347389E+000	-1.5342023E+000	8.3140497E+000	1.384455965025700E+002
-1.856325100500842E+002	-1.5367224E+000	-1.5362024E+000	8.2783041E+000	1.386455964975175E+002
-1.867444776796700E+002	-1.5387605E+000	-1.5382023E+000	8.2399254E+000	1.388455964924651E+002
-1.878623507925709E+002	-1.5407503E+000	-1.5402023E+000	8.2014847E+000	1.390455964874127E+002
-1.889940093725995E+002	-1.5427508E+000	-1.5422021E+000	8.1629620E+000	1.392455964823603E+002
-1.906894755201274E+002	-1.5447346E+000	-1.5442020E+000	8.1007862E+000	1.394455964773078E+002
-1.917223289580570E+002	-1.5467305E+000	-1.5462021E+000	8.0675554E+000	1.396455964722554E+002
-1.928016242591705E+002	-1.5487330E+000	-1.5482019E+000	8.0327797E+000	1.398455964672030E+002
-1.937205256756197E+002	-1.5507226E+000	-1.5502019E+000	8.0049477E+000	1.400455964621506E+002
-1.949142665776540E+002	-1.5527420E+000	-1.5522020E+000	7.9662819E+000	1.402455964570981E+002
-1.959321383478423E+002	-1.5547166E+000	-1.5542018E+000	7.9349747E+000	1.404455964520457E+002
-1.971409002658732E+002	-1.5567316E+000	-1.5562017E+000	7.8965430E+000	1.406455964469933E+002
-1.981254711172747E+002	-1.5587130E+000	-1.5582017E+000	7.8673024E+000	1.408455964419409E+002
-1.990388794637317E+002	-1.5607636E+000	-1.5602015E+000	7.8415012E+000	1.410455964368884E+002
-2.002996149938936E+002	-1.5627705E+000	-1.5622016E+000	7.8021641E+000	1.412455964318360E+002
-2.018112226083977E+002	-1.5647660E+000	-1.5642015E+000	7.7536125E+000	1.414455964267836E+002
-2.029261636193369E+002	-1.5667707E+000	-1.5662014E+000	7.7208905E+000	1.416455964217312E+002
-2.038681705219683E+002	-1.5687469E+000	-1.5682013E+000	7.6949086E+000	1.418455964166787E+002
-2.050113140179724E+002	-1.5707660E+000	-1.5702013E+000	7.6618500E+000	1.420455964116263E+002
-2.062658213401326E+002	-1.5727487E+000	-1.5722013E+000	7.6248631E+000	1.422455964065739E+002
-2.070069488127483E+002	-1.5747552E+000	-1.5742012E+000	7.6072578E+000	1.424455964015215E+002
-2.080552473779640E+002	-1.5767713E+000	-1.5762018E+000	7.5786180E+000	1.426455963964690E+002
-2.091502157417667E+002	-1.5787368E+000	-1.5782007E+000	7.5483394E+000	1.428453963914217E+002
-2.102703567643288E+002	-1.5807830E+000	-1.5802009E+000	7.5178595E+000	1.430453963863692E+002
-2.115490940747077E+002	-1.5827538E+000	-1.5822010E+000	7.4817328E+000	1.432453963813168E+002
-2.127332547527308E+002	-1.5847600E+000	-1.5842009E+000	7.4495168E+000	1.434453963762644E+002
-2.140658803169954E+002	-1.5867592E+000	-1.5862007E+000	7.4124808E+000	1.436453963712120E+002
-2.153396809939090E+002	-1.5887532E+000	-1.5882007E+000	7.3778934E+000	1.438453963661595E+002
-2.168356843848892E+002	-1.5907857E+000	-1.5902008E+000	7.3363652E+000	1.440453963611071E+002
-2.181505677510822E+002	-1.5927618E+000	-1.5922006E+000	7.3012037E+000	1.442453963560547E+002
-2.192800358752816E+002	-1.5947431E+000	-1.5942005E+000	7.2726326E+000	1.444453963510023E+002
-2.207622310871984E+002	-1.5967516E+000	-1.5962005E+000	7.2329021E+000	1.446453963459498E+002
-2.219280629190448E+002	-1.5987877E+000	-1.5982003E+000	7.2040806E+000	1.448453963408974E+002
-2.228013292840276E+002	-1.6007470E+000	-1.6002003E+000	7.1846385E+000	1.450453963358450E+002
-2.239068333480909E+002	-1.6028005E+000	-1.6022003E+000	7.1583366E+000	1.452453963307926E+002
-2.249489081657402E+002	-1.6047640E+000	-1.6042004E+000	7.1339045E+000	1.454453963257401E+002
-2.258004905523354E+002	-1.6068000E+000	-1.6062001E+000	7.1160164E+000	1.456453963206877E+002
-2.265834989872103E+002	-1.6087768E+000	-1.6082002E+000	7.1001501E+000	1.458453963156353E+002
-2.278397836490558E+002	-1.6107678E+000	-1.6102000E+000	7.0697393E+000	1.460453963105829E+002
-2.286202064371430E+002	-1.6127865E+000	-1.6122000E+000	7.0544357E+000	1.462453963055304E+002
-2.302526642978860E+002	-1.6148087E+000	-1.6141999E+000	7.0132031E+000	1.464453963004780E+002
-2.316684759620105E+002	-1.6167727E+000	-1.6161997E+000	6.9788203E+000	1.466453962954256E+002
-2.326461750082412E+002	-1.6188257E+000	-1.6181998E+000	6.9583163E+000	1.468453962903732E+002
-2.336780931576573E+002	-1.6207918E+000	-1.6201998E+000	6.9360023E+000	1.470453962853207E+002
-2.351602997790669E+002	-1.6227977E+000	-1.6221997E+000	6.9008150E+000	1.472453962802683E+002
-2.369061332646420E+002	-1.6247988E+000	-1.6241995E+000	6.8584075E+000	1.474453962752159E+002
-2.379367915151324E+002	-1.6267638E+000	-1.6261995E+000	6.8369579E+000	1.476453962701635E+002
-2.393829909473857E+002	-1.6287566E+000	-1.6281993E+000	6.8039780E+000	1.478453962651110E+002
-2.407114797341310E+002	-1.6307782E+000	-1.6301993E+000	6.7748251E+000	1.480453962600586E+002
-2.417689597655312E+002	-1.6327571E+000	-1.6321993E+000	6.7533774E+000	1.482453962550062E+002
-2.428080961287956E+002	-1.6347499E+000	-1.6341994E+000	6.7326827E+000	1.484453962499538E+002
-2.442854093132100E+002	-1.6367279E+000	-1.6361992E+000	6.7000642E+000	1.486453962449013E+002
-2.455995440796655E+002	-1.6387151E+000	-1.6381992E+000	6.6723051E+000	1.488453962398489E+002
-2.463724279746875E+002	-1.6407349E+000	-1.6401998E+000	6.6595721E+000	1.490453962347965E+002
-2.475184205918370E+002	-1.6427691E+000	-1.6421987E+000	6.6369572E+000	1.492452962297466E+002
-2.485806942960762E+002	-1.6446873E+000	-1.6441997E+000	6.6163116E+000	1.494452962246942E+002
-2.494998062938253E+002	-1.6467210E+000	-1.6461987E+000	6.6000896E+000	1.496451962196443E+002
-2.506494502091364E+002	-1.6486897E+000	-1.6481988E+000	6.5776715E+000	1.498451962145919E+002
-2.516529000600190E+002	-1.6507707E+000	-1.6501988E+000	6.5597124E+000	1.500451962095394E+002
-2.525888204423208E+002	-1.6527160E+000	-1.6521987E+000	6.5431085E+000	1.502451962044870E+002
-2.537433790544255E+002	-1.6547637E+000	-1.6541988E+000	6.5214062E+000	1.504451961994346E+002
-2.547559110377651E+002	-1.6567413E+000	-1.6561985E+000	6.5032496E+000	1.506451961943822E+002
-2.560579498706213E+002	-1.6587461E+000	-1.6581986E+000	6.4780107E+000	1.508451961893297E+002
-2.572332072074169E+002	-1.6607751E+000	-1.6601985E+000	6.4563012E+000	1.510451961842773E+002
-2.581674528230071E+002	-1.6627662E+000	-1.6621983E+000	6.4406500E+000	1.512451961792249E+002
-2.590808622161267E+002	-1.6648775E+000	-1.6641984E+000	6.4260921E+000	1.514451961741725E+002
-2.601541394235869E+002	-1.6668154E+000	-1.6661983E+000	6.4070301E+000	1.516451961691200E+002
-2.610639987370316E+002	-1.6688724E+000	-1.6681982E+000	6.3925796E+000	1.518451961640676E+002
-2.624548382596904E+002	-1.6708561E+000	-1.6701981E+000	6.3662615E+000	1.520451961590152E+002
-2.635557237331019E+002	-1.6728313E+000	-1.6721981E+000	6.3471637E+000	1.522451961539628E+002
-2.650429917744227E+002	-1.6749185E+000	-1.6741979E+000	6.3194222E+000	1.524451961489103E+002
-2.661195169976509E+002	-1.6769124E+000	-1.6761978E+000	6.3013506E+000	1.526451961438579E+002
-2.669808693234891E+002	-1.6788471E+000	-1.6781979E+000	6.2882671E+000	1.528451961388055E+002
-2.684283378367518E+002	-1.6809038E+000	-1.6801980E+000	6.2620206E+000	1.530451961337531E+002
-2.697633675144918E+002	-1.6829249E+000	-1.6821977E+000	6.2385225E+000	1.532451961287006E+002
-2.714675680882801E+002	-1.6848665E+000	-1.6841978E+000	6.2065115E+000	1.534451961236482E+002
-2.725418114240479E+002	-1.6869214E+000	-1.6861976E+000	6.1895876E+000	1.536451961185958E+002
-2.735532017273154E+002	-1.6888416E+000	-1.6881976E+000	6.1737227E+000	1.538451961135434E+002
-2.747755946399411E+002	-1.6908113E+000	-1.6901975E+000	6.1534262E+000	1.540451961084909E+002
-2.761288207415287E+002	-1.6927898E+000	-1.6921973E+000	6.1304350E+000	1.542451961034385E+002
-2.774572486142176E+002	-1.6948169E+000	-1.6941974E+000	6.1083894E+000	1.544451960983861E+002
-2.786979307944525E+002	-1.6968157E+000	-1.6961974E+000	6.0883684E+000	1.546451960933337E+002
-2.793986466358033E+002	-1.6988024E+000	-1.6981972E+000	6.0802097E+000	1.548451960882812E+002
-2.808313560485826E+002	-1.7007966E+000	-1.7001971E+000	6.0562916E+000	1.550451960832288E+002
-2.819036003380943E+002	-1.7027633E+000	-1.7021971E+000	6.0402327E+000	1.552451960781764E+002
-2.831245776866303E+002	-1.7047862E+000	-1.7041969E+000	6.0213289E+000	1.554451960731240E+002
-2.840883172750561E+002	-1.7067889E+000	-1.7061967E+000	6.0079517E+000	1.556450960680741E+002
-2.851732730998679E+002	-1.7088085E+000	-1.7081978E+000	5.9921765E+000	1.558450960630216E+002
-2.861604024861135E+002	-1.7108191E+000	-1.7101970E+000	5.9785318E+000	1.560449960579717E+002
-2.874727840488449E+002	-1.7127774E+000	-1.7121967E+000	5.9580507E+000	1.562449960529193E+002
-2.886524921469131E+002	-1.7147907E+000	-1.7141968E+000	5.9406753E+000	1.564449960478669E+002
-2.897952289581310E+002	-1.7167858E+000	-1.7161967E+000	5.9241343E+000	1.566449960428145E+002
-2.910569489148197E+002	-1.7187959E+000	-1.7181966E+000	5.9053593E+000	1.568449960377620E+002
-2.921230193330591E+002	-1.7207829E+000	-1.7201965E+000	5.8906102E+000	1.570449960327096E+002
-2.934960580574952E+002	-1.7227722E+000	-1.7221963E+000	5.8698311E+000	1.572449960276572E+002
-2.942741333254326E+002	-1.7247920E+000	-1.7241964E+000	5.8611746E+000	1.574449960226048E+002
-2.957724537860231E+002	-1.7267878E+000	-1.7261964E+000	5.8382306E+000	1.576449960175523E+002
-2.971667274488082E+002	-1.7287737E+000	-1.7281963E+000	5.8175211E+000	1.578449960124999E+002
-2.980838088362125E+002	-1.7307645E+000	-1.7301964E+000	5.8063016E+000	1.580449960074475E+002
-2.988423052007101E+002	-1.7327152E+000	-1.7321961E+000	5.7980924E+000	1.582449960023951E+002
-3.000713419427684E+002	-1.7347809E+000	-1.7341959E+000	5.7812281E+000	1.584449959973426E+002
-3.013086949951803E+002	-1.7367905E+000	-1.7361960E+000	5.7641568E+000	1.586449959922902E+002
-3.024015452218432E+002	-1.7387916E+000	-1.7381959E+000	5.7499428E+000	1.588449959872378E+002
-3.035418924301393E+002	-1.7407904E+000	-1.7401960E+000	5.7349262E+000	1.590449959821854E+002
-3.054804141894479E+002	-1.7427613E+000	-1.7421958E+000	5.7049851E+000	1.592449959771329E+002
-3.061259967258993E+002	-1.7447722E+000	-1.7441958E+000	5.6995230E+000	1.594449959720805E+002
-3.068780470629667E+002	-1.7467505E+000	-1.7461957E+000	5.6920018E+000	1.596449959670281E+002
-3.080785471360423E+002	-1.7488079E+000	-1.7481956E+000	5.6765003E+000	1.598449959619757E+002
-3.095403525315714E+002	-1.7508066E+000	-1.7501955E+000	5.6561499E+000	1.600449959569232E+002
-3.111362006431806E+002	-1.7528253E+000	-1.7521954E+000	5.6336269E+000	1.602449959518708E+002
-3.125958162792140E+002	-1.7547400E+000	-1.7541955E+000	5.6134467E+000	1.604449959468184E+002
-3.132975402235179E+002	-1.7568562E+000	-1.7561954E+000	5.6076283E+000	1.606449959417660E+002
-3.139289584084177E+002	-1.7588147E+000	-1.7581953E+000	5.6025882E+000	1.608449959367135E+002
-3.152222276739515E+002	-1.7607890E+000	-1.7601954E+000	5.5858655E+000	1.610449959316611E+002
-3.166251551331850E+002	-1.7627912E+000	-1.7621951E+000	5.5674386E+000	1.612449959266087E+002
-3.180418631235752E+002	-1.7648169E+000	-1.7641950E+000	5.5490079E+000	1.614449959215563E+002
-3.191400960740584E+002	-1.7668449E+000	-1.7661951E+000	5.5362673E+000	1.616449959165038E+002
-3.200788965751244E+002	-1.7688531E+000	-1.7681950E+000	5.5263033E+000	1.618448959114539E+002
-3.209630452619776E+002	-1.7708473E+000	-1.7701958E+000	5.5172935E+000	1.620448959064015E+002
-3.220043735525787E+002	-1.7728153E+000	-1.7721949E+000	5.5055628E+000	1.622447959013516E+002
-3.228492197633600E+002	-1.7748331E+000	-1.7741948E+000	5.4974055E+000	1.624447958962992E+002
-3.244439960683017E+002	-1.7768574E+000	-1.7761947E+000	5.4766226E+000	1.626447958912468E+002
-3.257282758980919E+002	-1.7788652E+000	-1.7781947E+000	5.4611936E+000	1.628447958861943E+002
-3.267304299585949E+002	-1.7808480E+000	-1.7801946E+000	5.4505115E+000	1.630447958811419E+002
-3.277002186980649E+002	-1.7828749E+000	-1.7821946E+000	5.4405670E+000	1.632447958760895E+002
-3.290607984785047E+002	-1.7848589E+000	-1.7841945E+000	5.4241009E+000	1.634447958710371E+002
-3.303589824624614E+002	-1.7868835E+000	-1.7861946E+000	5.4089146E+000	1.636447958659846E+002
-3.316986012664242E+002	-1.7888430E+000	-1.7881944E+000	5.3929772E+000	1.638447958609322E+002
-3.334267921901896E+002	-1.7909013E+000	-1.7901944E+000	5.3711982E+000	1.640447958558798E+002
-3.349502058050821E+002	-1.7928679E+000	-1.7921942E+000	5.3526402E+000	1.642447958508274E+002
-3.358148743657575E+002	-1.7948663E+000	-1.7941940E+000	5.3448091E+000	1.644447958457749E+002
-3.369057971539137E+002	-1.7969037E+000	-1.7961941E+000	5.3335495E+000	1.646447958407225E+002
-3.379608148912180E+002	-1.7989309E+000	-1.7981942E+000	5.3228979E+000	1.648447958356701E+002
-3.391050744975773E+002	-1.8008363E+000	-1.8001941E+000	5.3105555E+000	1.650447958306177E+002
-3.406149209448549E+002	-1.8028885E+000	-1.8021941E+000	5.2930403E+000	1.652447958255652E+002
-3.417379115703691E+002	-1.8048730E+000	-1.8041940E+000	5.2814536E+000	1.654447958205128E+002
-3.436272039326946E+002	-1.8068613E+000	-1.8061939E+000	5.2582021E+000	1.656447958154604E+002
-3.436871541060009E+002	-1.8088745E+000	-1.8081937E+000	5.2631426E+000	1.658447958104080E+002
-3.446386792340791E+002	-1.8108184E+000	-1.8101935E+000	5.2542520E+000	1.660447958053555E+002
-3.460349416927426E+002	-1.8128940E+000	-1.8121938E+000	5.2390490E+000	1.662447958003031E+002
-3.468217681011110E+002	-1.8148214E+000	-1.8141935E+000	5.2327204E+000	1.664447957952507E+002
-3.482865674284840E+002	-1.8169110E+000	-1.8161936E+000	5.2167130E+000	1.666447957901983E+002
-3.500908509187412E+002	-1.8188273E+000	-1.8181937E+000	5.1953006E+000	1.668447957851458E+002
-3.519851790188122E+002	-1.8208343E+000	-1.8201934E+000	5.1730423E+000	1.670447957800934E+002
-3.529095716368306E+002	-1.8228945E+000	-1.8221933E+000	5.1653299E+000	1.672447957750410E+002
-3.543587362609492E+002	-1.8248379E+000	-1.8241932E+000	5.1496906E+000	1.674447957699886E+002
-3.551913462679931E+002	-1.8269036E+000	-1.8261932E+000	5.1434350E+000	1.676447957649361E+002
-3.565743525174184E+002	-1.8288625E+000	-1.8281932E+000	5.1289797E+000	1.678447957598837E+002
-3.576691875652388E+002	-1.8308396E+000	-1.8301932E+000	5.1188073E+000	1.680447957548313E+002
-3.589139131724965E+002	-1.8327992E+000	-1.8321931E+000	5.1065149E+000	1.682446957497814E+002
-3.600594911327626E+002	-1.8348105E+000	-1.8341939E+000	5.0958538E+000	1.684446957447290E+002
-3.609379094982360E+002	-1.8368599E+000	-1.8361930E+000	5.0891299E+000	1.686445957396791E+002
-3.619783570166346E+002	-1.8388079E+000	-1.8381927E+000	5.0798836E+000	1.688445957346266E+002
-3.630365692320320E+002	-1.8408091E+000	-1.8401926E+000	5.0705886E+000	1.690445957295742E+002
-3.640230218169345E+002	-1.8428326E+000	-1.8421928E+000	5.0624065E+000	1.692445957245218E+002
-3.644866379610271E+002	-1.8448361E+000	-1.8441925E+000	5.0614643E+000	1.694445957194694E+002
-3.657819100745437E+002	-1.8468660E+000	-1.8461926E+000	5.0490904E+000	1.696445957144169E+002
-3.672343980049595E+002	-1.8488283E+000	-1.8481927E+000	5.0344639E+000	1.698445957093645E+002
-3.679859689920122E+002	-1.8508525E+000	-1.8501924E+000	5.0296822E+000	1.700445957043121E+002
-3.691663693430219E+002	-1.8528044E+000	-1.8521923E+000	5.0188875E+000	1.702445956992597E+002
-3.708259695684555E+002	-1.8548443E+000	-1.8541923E+000	5.0019269E+000	1.704445956942072E+002
-3.718998454498337E+002	-1.8568541E+000	-1.8561922E+000	4.9928875E+000	1.706445956891548E+002
-3.734394730267331E+002	-1.8588476E+000	-1.8581922E+000	4.9776411E+000	1.708445956841024E+002
-3.749837136409187E+002	-1.8608493E+000	-1.8601922E+000	4.9624801E+000	1.710445956790500E+002
-3.758483316892934E+002	-1.8628463E+000	-1.8621922E+000	4.9563775E+000	1.712445956739975E+002
-3.764538383008148E+002	-1.8648386E+000	-1.8641920E+000	4.9536982E+000	1.714445956689451E+002
-3.776769446937408E+002	-1.8668295E+000	-1.8661920E+000	4.9429269E+000	1.716445956638927E+002
-3.786207752638657E+002	-1.8687963E+000	-1.8681918E+000	4.9357996E+000	1.718445956588403E+002
-3.804874432903289E+002	-1.8708268E+000	-1.8701916E+000	4.9169211E+000	1.720445956537878E+002
-3.816844815126619E+002	-1.8728443E+000	-1.8721918E+000	4.9067869E+000	1.722445956487354E+002
-3.824303866016617E+002	-1.8748542E+000	-1.8741918E+000	4.9024720E+000	1.724445956436830E+002
-3.839744695633181E+002	-1.8768420E+000	-1.8761916E+000	4.8879342E+000	1.726445956386306E+002
-3.853717514673881E+002	-1.8788062E+000	-1.8781917E+000	4.8753085E+000	1.728445956335781E+002
-3.863412288916625E+002	-1.8808600E+000	-1.8801914E+000	4.8683906E+000	1.730445956285257E+002
-3.871014529485556E+002	-1.8828613E+000	-1.8821913E+000	4.8639994E+000	1.732445956234733E+002
-3.879052312660651E+002	-1.8848493E+000	-1.8841913E+000	4.8590460E+000	1.734445956184209E+002
-3.893732668493885E+002	-1.8868448E+000	-1.8861912E+000	4.8458509E+000	1.736445956133684E+002
-3.909810939581221E+002	-1.8888065E+000	-1.8881912E+000	4.8309407E+000	1.738445956083160E+002
-3.924279649306336E+002	-1.8908370E+000	-1.8901912E+000	4.8183031E+000	1.740445956032636E+002
-3.932966099996402E+002	-1.8928472E+000	-1.8921912E+000	4.8127728E+000	1.742445955982112E+002
-3.950080815407987E+002	-1.8948402E+000	-1.8941910E+000	4.7969656E+000	1.744444955931613E+002
-3.957637806847451E+002	-1.8968338E+000	-1.8961917E+000	4.7928433E+000	1.746444955881088E+002
-3.962803618913340E+002	-1.8988117E+000	-1.8981909E+000	4.7915869E+000	1.748443955830589E+002
-3.976365009705783E+002	-1.9008293E+000	-1.9001907E+000	4.7803192E+000	1.750443955780065E+002
-4.000026207056719E+002	-1.9028252E+000	-1.9021908E+000	4.7570319E+000	1.752443955729541E+002
-4.009879437184929E+002	-1.9048717E+000	-1.9041909E+000	4.7504463E+000	1.754443955679017E+002
-4.010367431294628E+002	-1.9068509E+000	-1.9061906E+000	4.7548037E+000	1.756443955628492E+002
-4.031213324497066E+002	-1.9088345E+000	-1.9081907E+000	4.7351365E+000	1.758443955577968E+002
-4.038704075067217E+002	-1.9108224E+000	-1.9101905E+000	4.7312760E+000	1.760443955527444E+002
-4.048446729750854E+002	-1.9128591E+000	-1.9121903E+000	4.7249207E+000	1.762443955476920E+002
-4.057362675396486E+002	-1.9148307E+000	-1.9141903E+000	4.7193975E+000	1.764443955426395E+002
-4.067432777854583E+002	-1.9168332E+000	-1.9161903E+000	4.7126365E+000	1.766443955375871E+002
-4.076021015573824E+002	-1.9188383E+000	-1.9181902E+000	4.7076259E+000	1.768443955325347E+002
-4.086760146212400E+002	-1.9208103E+000	-1.9201902E+000	4.7000809E+000	1.770443955274823E+002
-4.091946431590322E+002	-1.9228697E+000	-1.9221902E+000	4.6991568E+000	1.772443955224298E+002
-4.102403807650876E+002	-1.9248757E+000	-1.9241900E+000	4.6920681E+000	1.774443955173774E+002
-4.110943817951784E+002	-1.9268543E+000	-1.9261900E+000	4.6871333E+000	1.776443955123250E+002
-4.124104371060043E+002	-1.9288341E+000	-1.9281899E+000	4.6769767E+000	1.778443955072726E+002
-4.145090507325649E+002	-1.9308453E+000	-1.9301897E+000	4.6581497E+000	1.780443955022201E+002
-4.167239676711239E+002	-1.9328293E+000	-1.9321898E+000	4.6381526E+000	1.782443954971677E+002
-4.184919070202745E+002	-1.9348540E+000	-1.9341899E+000	4.6233964E+000	1.784443954921153E+002
-4.190801875791331E+002	-1.9368497E+000	-1.9361898E+000	4.6216683E+000	1.786443954870629E+002
-4.209224080758322E+002	-1.9388182E+000	-1.9381897E+000	4.6061177E+000	1.788443954820104E+002
-4.217539724449457E+002	-1.9408265E+000	-1.9401896E+000	4.6017981E+000	1.790443954769580E+002
-4.222812915075374E+002	-1.9428446E+000	-1.9421893E+000	4.6008306E+000	1.792443954719056E+002
-4.234310430582937E+002	-1.9448482E+000	-1.9441894E+000	4.5930696E+000	1.794443954668532E+002
-4.257437798852561E+002	-1.9468453E+000	-1.9461893E+000	4.5728097E+000	1.796443954618007E+002
-4.271296179548681E+002	-1.9488477E+000	-1.9481894E+000	4.5626612E+000	1.798443954567483E+002
-4.286651877708191E+002	-1.9508451E+000	-1.9501894E+000	4.5509763E+000	1.800443954516959E+002
-4.300507676736570E+002	-1.9528381E+000	-1.9521892E+000	4.5409479E+000	1.802443954466435E+002
-4.305928390096374E+002	-1.9548309E+000	-1.9541891E+000	4.5398593E+000	1.804443954415910E+002
-4.327080487312141E+002	-1.9568439E+000	-1.9561882E+000	4.5223188E+000	1.806442954365411E+002
-4.337832691634708E+002	-1.9588299E+000	-1.9581890E+000	4.5156879E+000	1.808442954314887E+002
-4.357525499529020E+002	-1.9608320E+000	-1.9601898E+000	4.4998751E+000	1.810442954264363E+002
-4.363864424655767E+002	-1.9628440E+000	-1.9621888E+000	4.4979491E+000	1.812441954213864E+002
-4.375168651053136E+002	-1.9648160E+000	-1.9641889E+000	4.4908347E+000	1.814441954163340E+002
-4.382784484724889E+002	-1.9668405E+000	-1.9661888E+000	4.4876504E+000	1.816441954112815E+002
-4.403433902636680E+002	-1.9688095E+000	-1.9681888E+000	4.4710774E+000	1.818441954062291E+002
-4.414893336004116E+002	-1.9708443E+000	-1.9701886E+000	4.4640813E+000	1.820441954011767E+002
-4.423769249256484E+002	-1.9728320E+000	-1.9721884E+000	4.4596176E+000	1.822441953961243E+002
-4.428837429877067E+002	-1.9748389E+000	-1.9741884E+000	4.4590459E+000	1.824441953910718E+002
-4.440755018679744E+002	-1.9768486E+000	-1.9761883E+000	4.4516048E+000	1.826441953860194E+002
-4.457677917480482E+002	-1.9787775E+000	-1.9781884E+000	4.4390321E+000	1.828441953809670E+002
-4.468178581402126E+002	-1.9808215E+000	-1.9801885E+000	4.4331746E+000	1.830441953759146E+002
-4.471725604517924E+002	-1.9828788E+000	-1.9821883E+000	4.4342585E+000	1.832441953708621E+002
-4.480669968274160E+002	-1.9848386E+000	-1.9841883E+000	4.4297810E+000	1.834441953658097E+002
-4.494937288323208E+002	-1.9868685E+000	-1.9861881E+000	4.4202361E+000	1.836441953607573E+002
-4.516365920778326E+002	-1.9888725E+000	-1.9881879E+000	4.4037008E+000	1.838441953557049E+002
-4.523564202617904E+002	-1.9908836E+000	-1.9901880E+000	4.4011393E+000	1.840441953506524E+002
-4.534557891335344E+002	-1.9928495E+000	-1.9921879E+000	4.3948045E+000	1.842441953456000E+002
-4.539276063534139E+002	-1.9948312E+000	-1.9941880E+000	4.3946023E+000	1.844441953405476E+002
-4.557670997091982E+002	-1.9968735E+000	-1.9961878E+000	4.3813462E+000	1.846441953354952E+002
-4.574201780349513E+002	-1.9988898E+000	-1.9981878E+000	4.3699203E+000	1.848441953304427E+002
-4.589253685490621E+002	-2.0008683E+000	-2.0001876E+000	4.3598990E+000	1.850441953253903E+002
-4.594565139389891E+002	-2.0029395E+000	-2.0021875E+000	4.3593669E+000	1.852441953203379E+002
-4.614114892920661E+002	-2.0048385E+000	-2.0041876E+000	4.3450122E+000	1.854441953152855E+002
-4.632907590455252E+002	-2.0069263E+000	-2.0061877E+000	4.3318934E+000	1.856441953102330E+002
-4.647113550882495E+002	-2.0088773E+000	-2.0081878E+000	4.3228498E+000	1.858441953051806E+002
-4.665727727505073E+002	-2.0108590E+000	-2.0101874E+000	4.3098507E+000	1.860441953001282E+002
-4.672324652379866E+002	-2.0128820E+000	-2.0121872E+000	4.3080955E+000	1.862441952950758E+002
-4.679206057740994E+002	-2.0148730E+000	-2.0141873E+000	4.3060145E+000	1.864441952900233E+002
-4.688476101708793E+002	-2.0168860E+000	-2.0161872E+000	4.3017945E+000	1.866441952849709E+002
-4.698962547535793E+002	-2.0188336E+000	-2.0181870E+000	4.2963390E+000	1.868441952799185E+002
-4.713954844760997E+002	-2.0208862E+000	-2.0201867E+000	4.2870293E+000	1.870440952748686E+002
-4.720891354937999E+002	-2.0228829E+000	-2.0221877E+000	4.2849598E+000	1.872441952698136E+002
-4.732085633658212E+002	-2.0249164E+000	-2.0241866E+000	4.2791204E+000	1.874439952647663E+002
-4.740489950504443E+002	-2.0269327E+000	-2.0261872E+000	4.2757874E+000	1.876439952597138E+002
-4.743739716839082E+002	-2.0289295E+000	-2.0281868E+000	4.2770677E+000	1.878439952546614E+002
-4.750923266940626E+002	-2.0309398E+000	-2.0301867E+000	4.2748318E+000	1.880439952496090E+002
-4.769463594484223E+002	-2.0329218E+000	-2.0321867E+000	4.2623696E+000	1.882439952445566E+002
-4.782591028624383E+002	-2.0348887E+000	-2.0341866E+000	4.2547832E+000	1.884439952395041E+002
-4.791600747746406E+002	-2.0369532E+000	-2.0361867E+000	4.2510915E+000	1.886439952344517E+002
-4.798448228944185E+002	-2.0389259E+000	-2.0381868E+000	4.2491360E+000	1.888439952293993E+002
-4.815552673642592E+002	-2.0409465E+000	-2.0401866E+000	4.2382393E+000	1.890439952243469E+002
-4.834318329428343E+002	-2.0429232E+000	-2.0421865E+000	4.2258763E+000	1.892439952192944E+002
-4.843302964537047E+002	-2.0449367E+000	-2.0441864E+000	4.2221942E+000	1.894439952142420E+002
-4.856136960183139E+002	-2.0469673E+000	-2.0461862E+000	4.2152171E+000	1.896439952091896E+002
-4.865022031476983E+002	-2.0489101E+000	-2.0481861E+000	4.2115126E+000	1.898439952041372E+002
-4.889960462306353E+002	-2.0509481E+000	-2.0501862E+000	4.1942019E+000	1.900439951990847E+002
-4.894016825444560E+002	-2.0530276E+000	-2.0521860E+000	4.1949744E+000	1.902439951940323E+002
-4.904469132672102E+002	-2.0549989E+000	-2.0541861E+000	4.1900535E+000	1.904439951889799E+002
-4.916522356020369E+002	-2.0569935E+000	-2.0561862E+000	4.1838384E+000	1.906439951839275E+002
-4.923931790436218E+002	-2.0589831E+000	-2.0581858E+000	4.1815834E+000	1.908439951788750E+002
-4.928596307144671E+002	-2.0610123E+000	-2.0601857E+000	4.1817431E+000	1.910439951738226E+002
-4.955854431982752E+002	-2.0629754E+000	-2.0621858E+000	4.1627040E+000	1.912439951687702E+002
-4.970922488906767E+002	-2.0650132E+000	-2.0641856E+000	4.1541848E+000	1.914439951637178E+002
-4.979857608639486E+002	-2.0669546E+000	-2.0661857E+000	4.1506300E+000	1.916439951586653E+002
-4.991185075798812E+002	-2.0689821E+000	-2.0681858E+000	4.1452723E+000	1.918439951536129E+002
-4.998238085100184E+002	-2.0709319E+000	-2.0701857E+000	4.1433239E+000	1.920439951485605E+002
-5.005689410817326E+002	-2.0729499E+000	-2.0721855E+000	4.1411877E+000	1.922439951435081E+002
-5.021666508110188E+002	-2.0750358E+000	-2.0741851E+000	4.1321659E+000	1.924439951384556E+002
-5.023994090411120E+002	-2.0769947E+000	-2.0761852E+000	4.1341505E+000	1.926439951334032E+002
-5.041985832828505E+002	-2.0789931E+000	-2.0781851E+000	4.1233616E+000	1.928439951283508E+002
-5.043866884746241E+002	-2.0809784E+000	-2.0801852E+000	4.1257601E+000	1.930439951232984E+002
-5.060382271503113E+002	-2.0829866E+000	-2.0821853E+000	4.1162634E+000	1.932439951182459E+002
-5.072924573016157E+002	-2.0849938E+000	-2.0841851E+000	4.1100430E+000	1.934438951131960E+002
-5.073771561955691E+002	-2.0869927E+000	-2.0861852E+000	4.1132965E+000	1.936438951081436E+002
-5.098075766567836E+002	-2.0889797E+000	-2.0881848E+000	4.0975847E+000	1.938437951030937E+002
-5.118800803290469E+002	-2.0909505E+000	-2.0901849E+000	4.0848446E+000	1.940437950980413E+002
-5.126152174078143E+002	-2.0929844E+000	-2.0921848E+000	4.0829539E+000	1.942437950929889E+002
-5.133352092388282E+002	-2.0949545E+000	-2.0941846E+000	4.0810652E+000	1.944437950879365E+002
-5.148184608753563E+002	-2.0969670E+000	-2.0961847E+000	4.0732164E+000	1.946437950828840E+002
-5.156024316800731E+002	-2.0989547E+000	-2.0981848E+000	4.0708780E+000	1.948437950778316E+002
-5.170419198250283E+002	-2.1003280E+000	-2.0995843E+000	4.0622005E+000	1.949837950742949E+002
-5.170497894287109E+002	-2.1008813E+000	-2.1000841E+000	4.0632091E+000	1.950153950734966E+002