EC-Lab ASCII FILE
Nb header lines : 63                          

Linear Sweep Voltammetry

Run on channel : 1 (SN 1340)
User : 
Electrode connection : standard
Potential control : Ewe
Ewe ctrl range : min = -5.00 V, max = 5.00 V
Ewe,I filtering : <None>
Safety Limits :
	Do not start on E overload
Channel : Floating
Acquisition started on : 02/11/2026 18:53:22.342
Technique started on : 02/11/2026 18:53:25.024
Loaded Setting File :  NONE
Saved on :
	File : Ni_2_11_02_LSV_C01.mpr
	Directory : C:\Users\volt\Documents\Platalytix\
	Host : 127.0.0.1
Device : SP-200 (SN 0262)
Address : USB
EC-LAB for windows v11.60 (software)
Internet server v11.60 (firmware)
Command interpretor v11.60 (firmware)
Electrode material : Ni
Initial state : 
Electrolyte : KOH (1M)
Comments : 
Cable : standard
Reference electrode : Hg/HgO (0.140 V)
Electrode surface area : 1.000 cm˛
Characteristic mass : 0.001 g
Equivalent Weight : 0.000 g/eq.
Density : 0.000 g/cm3
Volume (V) : 0.001 cmł
Cycle Definition : Charge/Discharge alternance
tR (h:m:s)          0:00:5.0000         
dER/dt (mV/h)       0.0                 
dER (mV)            0                   
dtR (s)             0.0000              
dE/dt               10.000              
dE/dt unit          mV/s                
Ei (V)              -0.200              
vs.                 Ref                 
EL (V)              -2.500              
vs.                 Ref                 
record              <I>                 
dI                  0.000               
unit dI             µA                  
tI (s)              0.0000              
step percent        50                  
N                   10                  
E range min (V)     -5.000              
E range max (V)     5.000               
I Range             Auto                
I Range min         Unset               
I Range max         Unset               
I Range init        Unset               
Bandwidth           8                   

Rwe/Ohm	time/s	Ewe/V	<I>/mA	Pwe/W	control/V	error	
0.0000000E+000	2.682400127378060E+000	-2.1830687E-001	0.000000000000000E+000	0.0000000E+000	0.0000000E+000	0
0.0000000E+000	7.682200001072488E+000	-3.4924507E-001	0.000000000000000E+000	0.0000000E+000	-1.9993804E-001	0
6.7965393E+002	7.882199996020063E+000	-2.0165929E-001	2.967087930440903E-001	-5.9834085E-005	-2.0183782E-001	0
1.9020592E+003	8.002199992988608E+000	-2.0286350E-001	1.066546706715794E-001	-2.1636341E-005	-2.0303787E-001	0
4.1435527E+003	8.232199987178319E+000	-2.0521292E-001	4.952583518976433E-002	-1.0163341E-005	-2.0533784E-001	0
6.0075166E+003	8.452199981620652E+000	-2.0738778E-001	3.452138131924709E-002	-7.1593126E-006	-2.0753789E-001	0
7.6430972E+003	8.652199976568227E+000	-2.0944157E-001	2.740270943014483E-002	-5.7392667E-006	-2.0953786E-001	0
9.2756543E+003	8.852199971515802E+000	-2.1146010E-001	2.279732476425178E-002	-4.8207244E-006	-2.1153785E-001	0
1.0936712E+004	9.052199966463377E+000	-2.1338420E-001	1.951081836184318E-002	-4.1633002E-006	-2.1353789E-001	0
1.2625229E+004	9.252199961410952E+000	-2.1539533E-001	1.706070794611469E-002	-3.6747967E-006	-2.1553786E-001	0
1.4365604E+004	9.452199956358527E+000	-2.1743213E-001	1.513560550525478E-002	-3.2909668E-006	-2.1753787E-001	0
1.6152667E+004	9.652199951306102E+000	-2.1940523E-001	1.358322036091472E-002	-2.9802297E-006	-2.1953787E-001	0
1.8026043E+004	9.852199946253677E+000	-2.2135249E-001	1.227959381954166E-002	-2.7181186E-006	-2.2153787E-001	0
1.9973430E+004	1.005219994120125E+001	-2.2348820E-001	1.118927483523191E-002	-2.5006709E-006	-2.2353786E-001	0
2.2045490E+004	1.025219993614883E+001	-2.2540084E-001	1.022435101464525E-002	-2.3045773E-006	-2.2553787E-001	0
2.4226600E+004	1.045219993109640E+001	-2.2747730E-001	9.389567865038223E-003	-2.1359135E-006	-2.2753790E-001	0
2.6434602E+004	1.065219992604398E+001	-2.2939759E-001	8.677928952543545E-003	-1.9906961E-006	-2.2953786E-001	0
2.8803176E+004	1.085219992099155E+001	-2.3142739E-001	8.034787042519954E-003	-1.8594698E-006	-2.3153788E-001	0
3.1341129E+004	1.105219991593913E+001	-2.3338631E-001	7.446646545575433E-003	-1.7379454E-006	-2.3353788E-001	0
3.3843934E+004	1.125219991088670E+001	-2.3539484E-001	6.955303404455937E-003	-1.6372425E-006	-2.3553787E-001	0
3.6731270E+004	1.145219990583428E+001	-2.3743059E-001	6.463990796884325E-003	-1.5347491E-006	-2.3753788E-001	0
3.9760973E+004	1.165219990078185E+001	-2.3941116E-001	6.021260441615647E-003	-1.4415569E-006	-2.3953788E-001	0
4.2770586E+004	1.185219989572943E+001	-2.4142925E-001	5.644749496136102E-003	-1.3628077E-006	-2.4153787E-001	0
4.6101750E+004	1.205219989067700E+001	-2.4349067E-001	5.281592582053088E-003	-1.2860185E-006	-2.4353787E-001	0
4.9631813E+004	1.225219988562458E+001	-2.4540375E-001	4.944485149753116E-003	-1.2133952E-006	-2.4553789E-001	0
5.3377094E+004	1.245219988057215E+001	-2.4742186E-001	4.635356710567723E-003	-1.1468886E-006	-2.4753787E-001	0
5.7435984E+004	1.265219987551973E+001	-2.4937142E-001	4.341728152550683E-003	-1.0827030E-006	-2.4953787E-001	0
6.1514145E+004	1.285219987046730E+001	-2.5139380E-001	4.086764116284211E-003	-1.0273872E-006	-2.5153789E-001	0
6.6198836E+004	1.305219986541488E+001	-2.5339133E-001	3.827730631380546E-003	-9.6991369E-007	-2.5353786E-001	0
7.1352789E+004	1.325219986036245E+001	-2.5544849E-001	3.580077128672782E-003	-9.1452529E-007	-2.5553790E-001	0
7.6412203E+004	1.345219985531003E+001	-2.5741971E-001	3.368829608011339E-003	-8.6720314E-007	-2.5753784E-001	0
8.2035164E+004	1.365219985025760E+001	-2.5949085E-001	3.163165974362364E-003	-8.2081260E-007	-2.5953785E-001	0
8.8290641E+004	1.385219984520518E+001	-2.6146510E-001	2.961413613612296E-003	-7.7430633E-007	-2.6153788E-001	0
9.5933133E+004	1.405219984015275E+001	-2.6347142E-001	2.746407066643725E-003	-7.2359978E-007	-2.6353785E-001	0
1.0194906E+005	1.425219983510033E+001	-2.6543453E-001	2.603599504632216E-003	-6.9108523E-007	-2.6553786E-001	0
1.1045387E+005	1.445219983004790E+001	-2.6739538E-001	2.420878308076677E-003	-6.4733166E-007	-2.6753786E-001	0
1.1925308E+005	1.465219982499548E+001	-2.6942050E-001	2.259233089477647E-003	-6.0868371E-007	-2.6953790E-001	0
1.2854326E+005	1.485219981994305E+001	-2.7139872E-001	2.111341504110034E-003	-5.7301537E-007	-2.7153787E-001	0
1.4041308E+005	1.505219981489063E+001	-2.7342004E-001	1.947254788182813E-003	-5.3241848E-007	-2.7353790E-001	0
1.5267834E+005	1.525219980983820E+001	-2.7540717E-001	1.803839016354605E-003	-4.9679016E-007	-2.7553788E-001	0
1.6321922E+005	1.545219980478578E+001	-2.7739707E-001	1.699536826789782E-003	-4.7144653E-007	-2.7753785E-001	0
1.8128114E+005	1.565219979973335E+001	-2.7940223E-001	1.541264773771658E-003	-4.3063281E-007	-2.7953786E-001	0
1.9529164E+005	1.585219979468093E+001	-2.8139341E-001	1.440888159204056E-003	-4.0545643E-007	-2.8153786E-001	0
2.1729359E+005	1.605219978962850E+001	-2.8345206E-001	1.304465833091706E-003	-3.6975354E-007	-2.8353786E-001	0
2.3749225E+005	1.625219978457608E+001	-2.8542539E-001	1.201830353223153E-003	-3.4303289E-007	-2.8553787E-001	0
2.6512544E+005	1.645219977952365E+001	-2.8743991E-001	1.084165775401682E-003	-3.1163250E-007	-2.8753787E-001	0
2.9415803E+005	1.665219977447123E+001	-2.8938439E-001	9.837718751095088E-004	-2.8468824E-007	-2.8953788E-001	0
3.3161291E+005	1.685219976941880E+001	-2.9147527E-001	8.789624073420460E-004	-2.5619579E-007	-2.9153788E-001	0
3.7966006E+005	1.705219976436638E+001	-2.9339686E-001	7.727883474108067E-004	-2.2673368E-007	-2.9353788E-001	0
4.2746472E+005	1.725219975931395E+001	-2.9542980E-001	6.911209098795336E-004	-2.0417771E-007	-2.9553786E-001	0
4.8670025E+005	1.745219975426153E+001	-2.9744264E-001	6.111413350252688E-004	-1.8177950E-007	-2.9753786E-001	0
5.9635650E+005	1.765219974920910E+001	-2.9937416E-001	5.020053890287357E-004	-1.5028745E-007	-2.9953787E-001	0
7.4169713E+005	1.785219974415668E+001	-3.0138126E-001	4.063400597807132E-004	-1.2246328E-007	-3.0153787E-001	0
8.9523200E+005	1.805219973910425E+001	-3.0342314E-001	3.389324127655791E-004	-1.0283993E-007	-3.0353788E-001	0
1.2595075E+006	1.825219973405183E+001	-3.0549812E-001	2.425536452089769E-004	-7.4099681E-008	-3.0553788E-001	0
1.7632756E+006	1.845219972899940E+001	-3.0744219E-001	1.743585541621670E-004	-5.3605177E-008	-3.0753788E-001	0
4.1329633E+006	1.865219972394698E+001	-3.0945393E-001	7.487458937095878E-005	-2.3170236E-008	-3.0953789E-001	0
4.0255604E+007	1.885219971889455E+001	-3.1144083E-001	-7.736582752441377E-006	2.4094877E-009	-3.1153786E-001	0
3.6963123E+006	1.905219971384213E+001	-3.1340933E-001	-8.478973552144718E-005	2.6573893E-008	-3.1353787E-001	0
2.0290546E+006	1.925219970878970E+001	-3.1546885E-001	-1.554757760354146E-004	4.9047763E-008	-3.1553790E-001	0
1.4489155E+006	1.945219970373728E+001	-3.1748477E-001	-2.191189034817975E-004	6.9566916E-008	-3.1753787E-001	0
1.1056059E+006	1.965219969868485E+001	-3.1946856E-001	-2.889533970678272E-004	9.2311524E-008	-3.1953788E-001	0
8.5500700E+005	1.985219969363243E+001	-3.2138205E-001	-3.758823626167380E-004	1.2080184E-007	-3.2153788E-001	0
6.8975775E+005	2.005219968858000E+001	-3.2346001E-001	-4.689472583248408E-004	1.5168568E-007	-3.2353789E-001	0
6.1202750E+005	2.025219968352758E+001	-3.2539538E-001	-5.316679134980597E-004	1.7300228E-007	-3.2553789E-001	0
5.5677413E+005	2.045219967847515E+001	-3.2742113E-001	-5.880681639409925E-004	1.9254594E-007	-3.2753789E-001	0
4.9128300E+005	2.065219967342273E+001	-3.2938427E-001	-6.704572776075838E-004	2.2083807E-007	-3.2953787E-001	0
4.3999063E+005	2.085219966837030E+001	-3.3141679E-001	-7.532360015753599E-004	2.4963506E-007	-3.3153787E-001	0
4.1149556E+005	2.105219966331788E+001	-3.3347186E-001	-8.103899179025559E-004	2.7024223E-007	-3.3353791E-001	0
3.7736878E+005	2.125219965826545E+001	-3.3541867E-001	-8.888352635640188E-004	2.9813194E-007	-3.3553788E-001	0
3.6026797E+005	2.145219965321303E+001	-3.3742806E-001	-9.366030264269867E-004	3.1603614E-007	-3.3753785E-001	0
3.3445419E+005	2.165219964816060E+001	-3.3947951E-001	-1.015025421139945E-003	3.4458031E-007	-3.3953786E-001	0
3.1537847E+005	2.185219964310818E+001	-3.4136137E-001	-1.082386376365402E-003	3.6948489E-007	-3.4153786E-001	0
2.9826103E+005	2.205219963805575E+001	-3.4344953E-001	-1.151506548861593E-003	3.9548439E-007	-3.4353787E-001	0
2.8336091E+005	2.225219963300333E+001	-3.4538895E-001	-1.218901216906671E-003	4.2099501E-007	-3.4553787E-001	0
2.6941734E+005	2.245219962795090E+001	-3.4743485E-001	-1.289578581607349E-003	4.4804455E-007	-3.4753788E-001	0
2.5632309E+005	2.265219962289848E+001	-3.4945595E-001	-1.363341668470068E-003	4.7642786E-007	-3.4953791E-001	0
2.4936242E+005	2.285219961784605E+001	-3.5144392E-001	-1.409370030152839E-003	4.9531451E-007	-3.5153788E-001	0
2.3918789E+005	2.305219961279363E+001	-3.5337779E-001	-1.477406656516581E-003	5.2208270E-007	-3.5353792E-001	0
2.2842308E+005	2.325219960774120E+001	-3.5541308E-001	-1.555942096577686E-003	5.5300217E-007	-3.5553789E-001	0
2.1954148E+005	2.345219960268878E+001	-3.5746220E-001	-1.628221669276168E-003	5.8202772E-007	-3.5753793E-001	0
2.1277905E+005	2.365219959763635E+001	-3.5938185E-001	-1.688990808458198E-003	6.0699267E-007	-3.5953787E-001	0
2.0591106E+005	2.385219959258393E+001	-3.6145133E-001	-1.755375918382755E-003	6.3448294E-007	-3.6153787E-001	0
2.0039080E+005	2.405219958753150E+001	-3.6342275E-001	-1.813570050452197E-003	6.5909262E-007	-3.6353791E-001	0
1.9319914E+005	2.425219958247908E+001	-3.6543640E-001	-1.891501193238922E-003	6.9122342E-007	-3.6553788E-001	0
1.8484023E+005	2.445219957742665E+001	-3.6738983E-001	-1.987607455251599E-003	7.3022676E-007	-3.6753789E-001	0
1.8207797E+005	2.465219957237423E+001	-3.6947078E-001	-2.029189855337026E-003	7.4972633E-007	-3.6953789E-001	0
1.7721133E+005	2.485219956732180E+001	-3.7142709E-001	-2.095955730450669E-003	7.7849472E-007	-3.7153789E-001	0
1.7049714E+005	2.505219956226938E+001	-3.7342909E-001	-2.190236663774488E-003	8.1789807E-007	-3.7353787E-001	0
1.6698036E+005	2.525219955721695E+001	-3.7545401E-001	-2.248492042183362E-003	8.4420537E-007	-3.7553790E-001	0
1.6258641E+005	2.545219955216453E+001	-3.7742481E-001	-2.321379802203233E-003	8.7614632E-007	-3.7753788E-001	0
1.5713439E+005	2.565219954711210E+001	-3.7941194E-001	-2.414569709040301E-003	9.1611656E-007	-3.7953785E-001	0
1.5448278E+005	2.585219954205968E+001	-3.8139716E-001	-2.468865066178723E-003	9.4161811E-007	-3.8153788E-001	0
1.5075988E+005	2.605219953700725E+001	-3.8343924E-001	-2.543377271410425E-003	9.7523071E-007	-3.8353789E-001	0
1.4798156E+005	2.625219953195483E+001	-3.8546121E-001	-2.604792199930830E-003	1.0040463E-006	-3.8553786E-001	0
1.4418141E+005	2.645219952690240E+001	-3.8743556E-001	-2.687139650459630E-003	1.0410935E-006	-3.8753790E-001	0
1.4023594E+005	2.665219952184998E+001	-3.8940784E-001	-2.776804975740940E-003	1.0813096E-006	-3.8953787E-001	0
1.3738867E+005	2.685219951679755E+001	-3.9147776E-001	-2.849417919179000E-003	1.1154838E-006	-3.9153790E-001	0
1.3410027E+005	2.705219951174513E+001	-3.9339387E-001	-2.933580293022486E-003	1.1540525E-006	-3.9353791E-001	0
1.3135473E+005	2.725219950669270E+001	-3.9543015E-001	-3.010398803811785E-003	1.1904025E-006	-3.9553794E-001	0
1.2884807E+005	2.745219950164028E+001	-3.9745742E-001	-3.084698337389072E-003	1.2260363E-006	-3.9753789E-001	0
1.2621373E+005	2.765219949658785E+001	-3.9943099E-001	-3.164718970066385E-003	1.2640868E-006	-3.9953792E-001	0
1.2366950E+005	2.785219949153543E+001	-4.0143359E-001	-3.246019302607074E-003	1.3030611E-006	-4.0153790E-001	0
1.2086199E+005	2.805219948648300E+001	-4.0344301E-001	-3.338047066073050E-003	1.3467118E-006	-4.0353787E-001	0
1.1817380E+005	2.825219948143058E+001	-4.0542126E-001	-3.430720518377200E-003	1.3908871E-006	-4.0553790E-001	0
1.1625084E+005	2.845219947637815E+001	-4.0742472E-001	-3.504703436646057E-003	1.4279028E-006	-4.0753791E-001	0
1.1378445E+005	2.865219947132573E+001	-4.0938997E-001	-3.597942905854528E-003	1.4729618E-006	-4.0953791E-001	0
1.1122363E+005	2.885219946627331E+001	-4.1139242E-001	-3.698786351589017E-003	1.5216526E-006	-4.1153792E-001	0
1.0997480E+005	2.905219946122088E+001	-4.1346678E-001	-3.759650362928982E-003	1.5544905E-006	-4.1353792E-001	0
1.0792645E+005	2.925219945616846E+001	-4.1548571E-001	-3.849711621652985E-003	1.5995001E-006	-4.1553792E-001	0
1.0590901E+005	2.945219945111603E+001	-4.1742644E-001	-3.941368673560618E-003	1.6452315E-006	-4.1753790E-001	0
1.0389685E+005	2.965219944606361E+001	-4.1954148E-001	-4.038057642893299E-003	1.6941327E-006	-4.1953787E-001	0
1.0190195E+005	2.985219944101118E+001	-4.2152882E-001	-4.136611733411654E-003	1.7437011E-006	-4.2153791E-001	0
1.0072255E+005	3.005219943595876E+001	-4.2341027E-001	-4.203728381461203E-003	1.7799017E-006	-4.2353794E-001	0
9.8494648E+004	3.025219943090633E+001	-4.2546198E-001	-4.319645546551197E-003	1.8378449E-006	-4.2553791E-001	0
9.6220609E+004	3.045219942585391E+001	-4.2755964E-001	-4.443535039213527E-003	1.8998762E-006	-4.2753789E-001	0
9.5158594E+004	3.065219942080148E+001	-4.2949414E-001	-4.513456052742833E-003	1.9385029E-006	-4.2953792E-001	0
9.3297398E+004	3.085219941574906E+001	-4.3152356E-001	-4.625247390225386E-003	1.9959032E-006	-4.3153787E-001	0
9.2229188E+004	3.105219941069663E+001	-4.3344948E-001	-4.699699699526522E-003	2.0370824E-006	-4.3353790E-001	0
9.0309281E+004	3.125219940564421E+001	-4.3536115E-001	-4.820779765150413E-003	2.0987802E-006	-4.3553793E-001	0
8.9182406E+004	3.145219940059178E+001	-4.3740276E-001	-4.904585498032202E-003	2.1452793E-006	-4.3753791E-001	0
8.7371414E+004	3.165219939553936E+001	-4.3943784E-001	-5.029537829156300E-003	2.2101692E-006	-4.3953788E-001	0
8.6180773E+004	3.185219939048693E+001	-4.4146425E-001	-5.122537717546283E-003	2.2614172E-006	-4.4153792E-001	0
8.4609953E+004	3.205219938543451E+001	-4.4347432E-001	-5.241396478517187E-003	2.3244247E-006	-4.4353795E-001	0
8.3088828E+004	3.225219938038208E+001	-4.4546020E-001	-5.361252549652674E-003	2.3882246E-006	-4.4553789E-001	0
8.2006664E+004	3.245219937532966E+001	-4.4750848E-001	-5.456976977622034E-003	2.4420435E-006	-4.4753790E-001	0
8.0754453E+004	3.265219937027723E+001	-4.4948098E-001	-5.566021028472937E-003	2.5018205E-006	-4.4953793E-001	0
7.9669555E+004	3.285219936522481E+001	-4.5152116E-001	-5.667424064543791E-003	2.5589618E-006	-4.5153788E-001	0
7.8270344E+004	3.305219936017238E+001	-4.5346940E-001	-5.793629708107770E-003	2.6272337E-006	-4.5353791E-001	0
7.6951586E+004	3.325219935511996E+001	-4.5550457E-001	-5.919365601659239E-003	2.6962980E-006	-4.5553795E-001	0
7.5904789E+004	3.345219935006753E+001	-4.5742926E-001	-6.026355416020063E-003	2.7566314E-006	-4.5753792E-001	0
7.4741109E+004	3.365219934501511E+001	-4.5948368E-001	-6.147669938868339E-003	2.8247541E-006	-4.5953789E-001	0
7.3787891E+004	3.385219933996268E+001	-4.6149814E-001	-6.254388429601965E-003	2.8863885E-006	-4.6153790E-001	0
7.2565156E+004	3.405219933491026E+001	-4.6345794E-001	-6.386783207033370E-003	2.9600053E-006	-4.6353796E-001	0
7.1403617E+004	3.425219932985783E+001	-4.6549770E-001	-6.519245717855615E-003	3.0346939E-006	-4.6553791E-001	0
7.0544320E+004	3.445219932480541E+001	-4.6746126E-001	-6.626490032608689E-003	3.0976273E-006	-4.6753791E-001	0
6.9651453E+004	3.465219931975298E+001	-4.6948534E-001	-6.740495798221863E-003	3.1645641E-006	-4.6953791E-001	0
6.8343789E+004	3.485219931470056E+001	-4.7145912E-001	-6.898346153056761E-003	3.2522883E-006	-4.7153792E-001	0
6.7454797E+004	3.505219930964813E+001	-4.7350758E-001	-7.019628028138769E-003	3.3238471E-006	-4.7353786E-001	0
6.6671031E+004	3.525219930459571E+001	-4.7554693E-001	-7.132736669564016E-003	3.3919509E-006	-4.7553790E-001	0
6.5524895E+004	3.545219929954328E+001	-4.7739360E-001	-7.285682937431756E-003	3.4781383E-006	-4.7753793E-001	0
6.4891629E+004	3.565219929449086E+001	-4.7937581E-001	-7.387329098652889E-003	3.5413068E-006	-4.7953790E-001	0
6.3876754E+004	3.585219928943843E+001	-4.8148176E-001	-7.537668079872720E-003	3.6292497E-006	-4.8153788E-001	0
6.2954863E+004	3.605219928438601E+001	-4.8341399E-001	-7.678739582872116E-003	3.7120101E-006	-4.8353791E-001	0
6.2205910E+004	3.625219927933358E+001	-4.8539957E-001	-7.803110184983253E-003	3.7876264E-006	-4.8553789E-001	0
6.1426113E+004	3.645219927428116E+001	-4.8749435E-001	-7.936271884314398E-003	3.8688877E-006	-4.8753789E-001	0
6.0351305E+004	3.665219926922873E+001	-4.8945963E-001	-8.110174679505172E-003	3.9696033E-006	-4.8953792E-001	0
5.9527855E+004	3.685219926417631E+001	-4.9144804E-001	-8.255766028558931E-003	4.0572800E-006	-4.9153793E-001	0
5.8828754E+004	3.705219925912388E+001	-4.9342290E-001	-8.387444243880382E-003	4.1385570E-006	-4.9353787E-001	0
5.7937566E+004	3.725219925407146E+001	-4.9545732E-001	-8.551573142453667E-003	4.2369397E-006	-4.9553791E-001	0
5.7069637E+004	3.745219924901903E+001	-4.9752805E-001	-8.717911491841590E-003	4.3374057E-006	-4.9753794E-001	0
5.6534059E+004	3.765219924396661E+001	-4.9941441E-001	-8.833867752879171E-003	4.4117610E-006	-4.9953789E-001	0
5.5761492E+004	3.785219923891418E+001	-5.0142592E-001	-8.992333242050982E-003	4.5089892E-006	-5.0153792E-001	0
5.5045129E+004	3.805219923386176E+001	-5.0348526E-001	-9.146772333948238E-003	4.6052651E-006	-5.0353789E-001	0
5.4302113E+004	3.825219922880933E+001	-5.0545925E-001	-9.308279813687037E-003	4.7049562E-006	-5.0553799E-001	0
5.3747914E+004	3.845219922375691E+001	-5.0745291E-001	-9.441350729987710E-003	4.7910407E-006	-5.0753784E-001	0
5.3025309E+004	3.865219921870448E+001	-5.0953329E-001	-9.609246905061597E-003	4.8962311E-006	-5.0953788E-001	0
5.2364391E+004	3.885219921365206E+001	-5.1146829E-001	-9.767483050241728E-003	4.9957580E-006	-5.1153791E-001	0
5.1731160E+004	3.905219920859963E+001	-5.1344764E-001	-9.925306670139647E-003	5.0961253E-006	-5.1353788E-001	0
5.1034824E+004	3.925219920354721E+001	-5.1544172E-001	-1.009980373189082E-002	5.2058604E-006	-5.1553792E-001	0
5.0311926E+004	3.945219919849478E+001	-5.1749724E-001	-1.028577678779069E-002	5.3228609E-006	-5.1753789E-001	0
4.9685051E+004	3.965219919344236E+001	-5.1942533E-001	-1.045435880875226E-002	5.4302586E-006	-5.1953793E-001	0
4.9131836E+004	3.985219918838993E+001	-5.2145666E-001	-1.061341661373588E-002	5.5344367E-006	-5.2153790E-001	0
4.8598988E+004	4.005219918333751E+001	-5.2346098E-001	-1.077102651674927E-002	5.6382123E-006	-5.2353793E-001	0
4.8050508E+004	4.025219917828508E+001	-5.2540773E-001	-1.093448849477804E-002	5.7450648E-006	-5.2553797E-001	0
4.7362270E+004	4.045219917323266E+001	-5.2743053E-001	-1.113609054250972E-002	5.8735141E-006	-5.2753788E-001	0
4.6848816E+004	4.065219916818023E+001	-5.2944702E-001	-1.130118270441866E-002	5.9833774E-006	-5.2953792E-001	0
4.6350477E+004	4.085219916312781E+001	-5.3146684E-001	-1.146626504777737E-002	6.0939396E-006	-5.3153795E-001	0
4.5773898E+004	4.105219915807538E+001	-5.3344101E-001	-1.165382526391245E-002	6.2166282E-006	-5.3353792E-001	0
4.5232043E+004	4.125219915302296E+001	-5.3540987E-001	-1.183695935175910E-002	6.3376247E-006	-5.3553790E-001	0
4.4764699E+004	4.145219914797053E+001	-5.3752100E-001	-1.200769806845384E-002	6.4543901E-006	-5.3753793E-001	0
4.4250617E+004	4.165219914291811E+001	-5.3952807E-001	-1.219255434524202E-002	6.5782251E-006	-5.3953797E-001	0
4.3678059E+004	4.185219913786568E+001	-5.4151154E-001	-1.239779268408850E-002	6.7135479E-006	-5.4153788E-001	0
4.3211891E+004	4.205219913281326E+001	-5.4349720E-001	-1.257749144428744E-002	6.8358313E-006	-5.4353786E-001	0
4.2831539E+004	4.225219912776083E+001	-5.4545724E-001	-1.273494352184798E-002	6.9463672E-006	-5.4553795E-001	0
4.2282711E+004	4.245219912270841E+001	-5.4744726E-001	-1.294730762175503E-002	7.0879682E-006	-5.4753786E-001	0
4.1887289E+004	4.265219911765598E+001	-5.4944187E-001	-1.311715086446888E-002	7.2071120E-006	-5.4953790E-001	0
4.1409266E+004	4.285219911260356E+001	-5.5144006E-001	-1.331682719106525E-002	7.3434321E-006	-5.5153787E-001	0
4.1042582E+004	4.305219910755113E+001	-5.5348992E-001	-1.348574799810204E-002	7.4642257E-006	-5.5353796E-001	0
4.0531691E+004	4.325219910249871E+001	-5.5547476E-001	-1.370470175509553E-002	7.6126157E-006	-5.5553788E-001	0
4.0080082E+004	4.345219909744628E+001	-5.5747885E-001	-1.390912429872543E-002	7.7540426E-006	-5.5753791E-001	0
3.9658613E+004	4.365219909239386E+001	-5.5946916E-001	-1.410712913281123E-002	7.8925041E-006	-5.5953795E-001	0
3.9309680E+004	4.385219908734143E+001	-5.6149983E-001	-1.428400956650205E-002	8.0204691E-006	-5.6153792E-001	0
3.8846766E+004	4.405219908228901E+001	-5.6347764E-001	-1.450513713650484E-002	8.1733206E-006	-5.6353790E-001	0
3.8461832E+004	4.425219907723658E+001	-5.6544697E-001	-1.470150922247174E-002	8.3129235E-006	-5.6553793E-001	0
3.8138719E+004	4.445219907218416E+001	-5.6747508E-001	-1.487923789423070E-002	8.4435969E-006	-5.6753796E-001	0
3.7649289E+004	4.465219906713173E+001	-5.6948000E-001	-1.512591585940881E-002	8.6139062E-006	-5.6953794E-001	0
3.7316063E+004	4.485219906207931E+001	-5.7140332E-001	-1.531253073996997E-002	8.7496310E-006	-5.7153791E-001	0
3.6950152E+004	4.505219905702688E+001	-5.7346022E-001	-1.551983297761321E-002	8.9000068E-006	-5.7353795E-001	0
3.6606012E+004	4.525219905197446E+001	-5.7547706E-001	-1.572083493207881E-002	9.0469803E-006	-5.7553792E-001	0
3.6224758E+004	4.545219904692203E+001	-5.7744551E-001	-1.594063116035840E-002	9.2048458E-006	-5.7753789E-001	0
3.5889781E+004	4.565219904186961E+001	-5.7950032E-001	-1.614666581412569E-002	9.3569979E-006	-5.7953793E-001	0
3.5488969E+004	4.585219903681718E+001	-5.8146542E-001	-1.638439909846462E-002	9.5269615E-006	-5.8153790E-001	0
3.5236879E+004	4.605219903176476E+001	-5.8346373E-001	-1.655832665289751E-002	9.6611830E-006	-5.8353788E-001	0
3.4847598E+004	4.625219902671233E+001	-5.8546942E-001	-1.680085467438106E-002	9.8363871E-006	-5.8553791E-001	0
3.4618359E+004	4.645219902165991E+001	-5.8748138E-001	-1.697022684104313E-002	9.9696927E-006	-5.8753794E-001	0
3.4266168E+004	4.665219901660748E+001	-5.8946407E-001	-1.720251003438672E-002	1.0140261E-005	-5.8953786E-001	0
3.3871930E+004	4.685219901155506E+001	-5.9148246E-001	-1.746231930099679E-002	1.0328656E-005	-5.9153789E-001	0
3.3639055E+004	4.705219900650263E+001	-5.9348398E-001	-1.764270790037958E-002	1.0470664E-005	-5.9353793E-001	0
3.3304035E+004	4.725219900145021E+001	-5.9551537E-001	-1.788117781401849E-002	1.0648516E-005	-5.9553790E-001	0
3.3043598E+004	4.745219899639778E+001	-5.9747285E-001	-1.808134998778799E-002	1.0803115E-005	-5.9753788E-001	0
3.2706686E+004	4.765219899134536E+001	-5.9944433E-001	-1.832788380624745E-002	1.0986546E-005	-5.9953791E-001	0
3.2456748E+004	4.785219898629293E+001	-6.0144311E-001	-1.853060319807481E-002	1.1145104E-005	-6.0153794E-001	0
3.2168184E+004	4.805219898124051E+001	-6.0349220E-001	-1.876053059605087E-002	1.1321834E-005	-6.0353792E-001	0
3.1927506E+004	4.825219897618808E+001	-6.0551941E-001	-1.896544675925615E-002	1.1483946E-005	-6.0553795E-001	0
3.1658625E+004	4.845219897113566E+001	-6.0744125E-001	-1.918722719799873E-002	1.1655113E-005	-6.0753793E-001	0
3.1411521E+004	4.865219896608323E+001	-6.0952628E-001	-1.940454517901904E-002	1.1827580E-005	-6.0953796E-001	0
3.1126355E+004	4.885219896103081E+001	-6.1146706E-001	-1.964467230898093E-002	1.2012070E-005	-6.1153787E-001	0
3.0874328E+004	4.905219895597838E+001	-6.1348349E-001	-1.987034326990489E-002	1.2190128E-005	-6.1353791E-001	0
3.0648322E+004	4.925219895092596E+001	-6.1545295E-001	-2.008112954741870E-002	1.2358991E-005	-6.1553794E-001	0
3.0381680E+004	4.945219894587353E+001	-6.1755151E-001	-2.032644325028368E-002	1.2552626E-005	-6.1753786E-001	0
3.0140068E+004	4.965219894082111E+001	-6.1946034E-001	-2.055271853832208E-002	1.2731594E-005	-6.1953795E-001	0
2.9894316E+004	4.985219893576868E+001	-6.2152660E-001	-2.079079511890597E-002	1.2922033E-005	-6.2153792E-001	0
2.9704699E+004	5.005219893071626E+001	-6.2354493E-001	-2.099145713812389E-002	1.3089117E-005	-6.2353790E-001	0
2.9447092E+004	5.025219892566383E+001	-6.2547439E-001	-2.124061653851969E-002	1.3285462E-005	-6.2553787E-001	0
2.9220037E+004	5.045219892061141E+001	-6.2747341E-001	-2.147408051953742E-002	1.3474415E-005	-6.2753791E-001	0
2.9019307E+004	5.065219891555898E+001	-6.2950313E-001	-2.169256234848282E-002	1.3655536E-005	-6.2953800E-001	0
2.8824018E+004	5.085219891050656E+001	-6.3147080E-001	-2.190779991141190E-002	1.3834136E-005	-6.3153791E-001	0
2.8597299E+004	5.105219890545413E+001	-6.3344556E-001	-2.215053864634357E-002	1.4031160E-005	-6.3353789E-001	0
2.8372193E+004	5.125219890040171E+001	-6.3546479E-001	-2.239745058480419E-002	1.4232791E-005	-6.3553798E-001	0
2.8205680E+004	5.145219889534928E+001	-6.3745958E-001	-2.260039690863491E-002	1.4406839E-005	-6.3753790E-001	0
2.7991600E+004	5.165219889029686E+001	-6.3940507E-001	-2.284274916938056E-002	1.4605770E-005	-6.3953793E-001	0
2.7777883E+004	5.185219888524443E+001	-6.4147282E-001	-2.309293437156779E-002	1.4813490E-005	-6.4153790E-001	0
2.7596664E+004	5.205219888019201E+001	-6.4350879E-001	-2.331835514527386E-002	1.5005567E-005	-6.4353800E-001	0
2.7420527E+004	5.225219887513958E+001	-6.4552528E-001	-2.354167939412931E-002	1.5196749E-005	-6.4553791E-001	0
2.7233754E+004	5.245219887008716E+001	-6.4749646E-001	-2.377551305292558E-002	1.5394560E-005	-6.4753789E-001	0
2.7053854E+004	5.265219886503473E+001	-6.4944625E-001	-2.400568318872692E-002	1.5590402E-005	-6.4953798E-001	0
2.6894900E+004	5.285219885998231E+001	-6.5158552E-001	-2.422710243151105E-002	1.5786029E-005	-6.5153790E-001	0
2.6715340E+004	5.305219885492988E+001	-6.5345359E-001	-2.445986491861345E-002	1.5983387E-005	-6.5353787E-001	0
2.6503469E+004	5.325219884987746E+001	-6.5551162E-001	-2.473305015853239E-002	1.6212802E-005	-6.5553796E-001	0
2.6395869E+004	5.345219884482503E+001	-6.5752125E-001	-2.491000497026295E-002	1.6378857E-005	-6.5753788E-001	0
2.6181033E+004	5.365219883977261E+001	-6.5948355E-001	-2.518936232906532E-002	1.6611970E-005	-6.5953791E-001	0
2.6042236E+004	5.385219883472018E+001	-6.6147625E-001	-2.540013345265693E-002	1.6801585E-005	-6.6153789E-001	0
2.5852121E+004	5.405219882966776E+001	-6.6345906E-001	-2.566362103387132E-002	1.7026761E-005	-6.6353798E-001	0
2.5706873E+004	5.425219882461533E+001	-6.6541463E-001	-2.588469814799554E-002	1.7224056E-005	-6.6553789E-001	0
2.5527271E+004	5.445219881956291E+001	-6.6745824E-001	-2.614686992484025E-002	1.7451945E-005	-6.6753787E-001	0
2.5373908E+004	5.465219881451048E+001	-6.6949862E-001	-2.638531754943252E-002	1.7664934E-005	-6.6953796E-001	0
2.5220693E+004	5.485219880945806E+001	-6.7147785E-001	-2.662408482594841E-002	1.7877483E-005	-6.7153788E-001	0
2.5055363E+004	5.505219880440563E+001	-6.7344850E-001	-2.687841671536931E-002	1.8101229E-005	-6.7353791E-001	0
2.4903393E+004	5.525219879935321E+001	-6.7547339E-001	-2.712375037039494E-002	1.8321372E-005	-6.7553788E-001	0
2.4765773E+004	5.545219879430078E+001	-6.7752391E-001	-2.735726733807074E-002	1.8535202E-005	-6.7753792E-001	0
2.4624270E+004	5.565219878924836E+001	-6.7945480E-001	-2.759289184834398E-002	1.8748124E-005	-6.7953795E-001	0
2.4479691E+004	5.585219878419593E+001	-6.8150026E-001	-2.783941357901276E-002	1.8972567E-005	-6.8153793E-001	0
2.4334707E+004	5.605219877914351E+001	-6.8338543E-001	-2.808274824463708E-002	1.9191340E-005	-6.8353796E-001	0
2.4198297E+004	5.625219877409108E+001	-6.8542904E-001	-2.832550827393732E-002	1.9415125E-005	-6.8553793E-001	0
2.4030885E+004	5.645219876903866E+001	-6.8744391E-001	-2.860668361875440E-002	1.9665491E-005	-6.8753785E-001	0
2.3905250E+004	5.665219876398623E+001	-6.8944585E-001	-2.884077170204835E-002	1.9884150E-005	-6.8953794E-001	0
2.3759307E+004	5.685219875893381E+001	-6.9142014E-001	-2.910102268125514E-002	2.0121033E-005	-6.9153798E-001	0
2.3605627E+004	5.705219875388138E+001	-6.9349992E-001	-2.937858546883405E-002	2.0374047E-005	-6.9353789E-001	0
2.3451295E+004	5.725219874882896E+001	-6.9542664E-001	-2.965408235882325E-002	2.0622239E-005	-6.9553792E-001	0
2.3303256E+004	5.745219874377653E+001	-6.9742161E-001	-2.992807576314549E-002	2.0872487E-005	-6.9753802E-001	0
2.3191178E+004	5.765219873872411E+001	-6.9946796E-001	-3.016094932604008E-002	2.1096617E-005	-6.9953799E-001	0
2.3039857E+004	5.785219873367168E+001	-7.0146257E-001	-3.044561208584812E-002	2.1356458E-005	-7.0153785E-001	0
2.2914852E+004	5.805219872861926E+001	-7.0348680E-001	-3.070003786963738E-002	2.1597072E-005	-7.0353794E-001	0
2.2759770E+004	5.825219872356683E+001	-7.0546526E-001	-3.099615226447994E-002	2.1866708E-005	-7.0553792E-001	0
2.2591801E+004	5.845219871851441E+001	-7.0742208E-001	-3.131322089536204E-002	2.2151664E-005	-7.0753789E-001	0
2.2472064E+004	5.865219871346198E+001	-7.0948762E-001	-3.157198315780907E-002	2.2399930E-005	-7.0953798E-001	0
2.2328027E+004	5.885219870840956E+001	-7.1146435E-001	-3.186418381683276E-002	2.2670230E-005	-7.1153796E-001	0
2.2175348E+004	5.905219870335713E+001	-7.1347111E-001	-3.217406693319091E-002	2.2955268E-005	-7.1353793E-001	0
2.2043162E+004	5.925219869830471E+001	-7.1544099E-001	-3.245636884385994E-002	2.3220617E-005	-7.1553791E-001	0
2.1930066E+004	5.945219869325229E+001	-7.1747994E-001	-3.271672519239591E-002	2.3473594E-005	-7.1753800E-001	0
2.1777475E+004	5.965219868819986E+001	-7.1947765E-001	-3.303770038886361E-002	2.3769888E-005	-7.1953797E-001	0
2.1622369E+004	5.985219868314744E+001	-7.2146410E-001	-3.336656016858325E-002	2.4072775E-005	-7.2153789E-001	0
2.1488840E+004	6.005219867809501E+001	-7.2346890E-001	-3.366719307393784E-002	2.4357167E-005	-7.2353792E-001	0
2.1332709E+004	6.025219867304259E+001	-7.2540110E-001	-3.400417112390558E-002	2.4666664E-005	-7.2553802E-001	0
2.1207512E+004	6.045219866799016E+001	-7.2746956E-001	-3.430244684337630E-002	2.4953986E-005	-7.2753793E-001	0
2.1065801E+004	6.065219866293774E+001	-7.2949880E-001	-3.462953211754444E-002	2.5262203E-005	-7.2953790E-001	0
2.0907412E+004	6.085219865788531E+001	-7.3156035E-001	-3.499047727774951E-002	2.5597647E-005	-7.3153800E-001	0
2.0760168E+004	6.105219865283289E+001	-7.3344439E-001	-3.532940649497185E-002	2.5912155E-005	-7.3353797E-001	0
2.0607539E+004	6.125219864778046E+001	-7.3544097E-001	-3.568795691677228E-002	2.6246385E-005	-7.3553795E-001	0
2.0474359E+004	6.145219864272804E+001	-7.3742914E-001	-3.601720220411439E-002	2.6560134E-005	-7.3753792E-001	0
2.0314135E+004	6.165219863767561E+001	-7.3951256E-001	-3.640384211964155E-002	2.6921098E-005	-7.3953801E-001	0
2.0161541E+004	6.185219863262319E+001	-7.4149573E-001	-3.677772978888805E-002	2.7270529E-005	-7.4153787E-001	0
2.0009781E+004	6.205219862757076E+001	-7.4348778E-001	-3.715621666690257E-002	2.7625192E-005	-7.4353796E-001	0
1.9853439E+004	6.225219862251834E+001	-7.4550009E-001	-3.755017400871277E-002	2.7993658E-005	-7.4553800E-001	0
1.9699295E+004	6.245219861746591E+001	-7.4748939E-001	-3.794498291091514E-002	2.8363473E-005	-7.4753791E-001	0
1.9543480E+004	6.265219861241349E+001	-7.4950540E-001	-3.835066058197800E-002	2.8744027E-005	-7.4953789E-001	0
1.9383629E+004	6.285219860736106E+001	-7.5145113E-001	-3.876730748146040E-002	2.9131737E-005	-7.5153798E-001	0
1.9217459E+004	6.305219860230864E+001	-7.5349873E-001	-3.920907032086818E-002	2.9543984E-005	-7.5353795E-001	0
1.9060986E+004	6.325219859725621E+001	-7.5544894E-001	-3.963325595744005E-002	2.9940900E-005	-7.5553787E-001	0
1.8895092E+004	6.345219859220379E+001	-7.5747305E-001	-4.008834885619167E-002	3.0365843E-005	-7.5753790E-001	0
1.8733416E+004	6.365219858715136E+001	-7.5944299E-001	-4.053948144322839E-002	3.0787425E-005	-7.5953799E-001	0
1.8569854E+004	6.385219858209894E+001	-7.6146853E-001	-4.100562972037758E-002	3.1224496E-005	-7.6153791E-001	0
1.8402887E+004	6.405219857704651E+001	-7.6354569E-001	-4.149053944565151E-002	3.1679923E-005	-7.6353794E-001	0
1.8238223E+004	6.425219857199409E+001	-7.6553637E-001	-4.197428375667338E-002	3.2132841E-005	-7.6553798E-001	0
1.8041174E+004	6.445219856694166E+001	-7.6745856E-001	-4.253928005814664E-002	3.2647135E-005	-7.6753795E-001	0
1.7870568E+004	6.465219856188924E+001	-7.6952374E-001	-4.306095482674879E-002	3.3136428E-005	-7.6953793E-001	0
1.7707500E+004	6.485219855683681E+001	-7.7144492E-001	-4.356599751492429E-002	3.3608769E-005	-7.7153790E-001	0
1.7526766E+004	6.505219855178439E+001	-7.7346987E-001	-4.413078172853591E-002	3.4133831E-005	-7.7353805E-001	0
1.7344969E+004	6.525219854673196E+001	-7.7546626E-001	-4.470842459968738E-002	3.4669876E-005	-7.7553785E-001	0
1.7157941E+004	6.545219854167954E+001	-7.7748799E-001	-4.531359543433600E-002	3.5230776E-005	-7.7753788E-001	0
1.6971295E+004	6.565219853662711E+001	-7.7939671E-001	-4.592441283129456E-002	3.5793335E-005	-7.7953804E-001	0
1.6779930E+004	6.585219853157469E+001	-7.8142828E-001	-4.656922260759733E-002	3.6390509E-005	-7.8153789E-001	0
1.6599691E+004	6.605219852652226E+001	-7.8348738E-001	-4.719891456217673E-002	3.6979753E-005	-7.8353798E-001	0
1.6415293E+004	6.625219852146984E+001	-7.8546840E-001	-4.784979643125942E-002	3.7584505E-005	-7.8553796E-001	0
1.6225806E+004	6.645219851641741E+001	-7.8750658E-001	-4.853420455326574E-002	3.8221006E-005	-7.8753793E-001	0
1.6024396E+004	6.665219851136499E+001	-7.8942549E-001	-4.926397770594659E-002	3.8890241E-005	-7.8953803E-001	0
1.5826349E+004	6.685219850631256E+001	-7.9145485E-001	-5.000868438776839E-002	3.9579616E-005	-7.9153794E-001	0
1.5641718E+004	6.705219850126014E+001	-7.9351908E-001	-5.073094357844096E-002	4.0255971E-005	-7.9353803E-001	0
1.5441696E+004	6.725219849620771E+001	-7.9538888E-001	-5.150916621557800E-002	4.0969819E-005	-7.9553807E-001	0
1.5242194E+004	6.745219849115529E+001	-7.9745519E-001	-5.231892155132822E-002	4.1721996E-005	-7.9753786E-001	0
1.5049275E+004	6.765219848610286E+001	-7.9948908E-001	-5.312475686377593E-002	4.2472664E-005	-7.9953802E-001	0
1.4841992E+004	6.785219848105044E+001	-8.0143088E-001	-5.399752852703349E-002	4.3275286E-005	-8.0153799E-001	0
1.4650526E+004	6.805219847599801E+001	-8.0346274E-001	-5.484190356100394E-002	4.4063425E-005	-8.0353796E-001	0
1.4450705E+004	6.825219847094559E+001	-8.0540699E-001	-5.573478971540369E-002	4.4889188E-005	-8.0553794E-001	0
1.4247723E+004	6.845219846589316E+001	-8.0745465E-001	-5.667253976525166E-002	4.5760506E-005	-8.0753797E-001	0
1.4049285E+004	6.865219846084074E+001	-8.0948824E-001	-5.761775410736261E-002	4.6640893E-005	-8.0953801E-001	0
1.3844650E+004	6.885219845578831E+001	-8.1149065E-001	-5.861402298334375E-002	4.7564732E-005	-8.1153792E-001	0
1.3647744E+004	6.905219845073589E+001	-8.1346810E-001	-5.960458102255881E-002	4.8486425E-005	-8.1353801E-001	0
1.3439440E+004	6.925219844568346E+001	-8.1541294E-001	-6.067312953997900E-002	4.9473656E-005	-8.1553799E-001	0
1.3242885E+004	6.945219844063104E+001	-8.1746376E-001	-6.172852712533428E-002	5.0460832E-005	-8.1753796E-001	0
1.3036551E+004	6.965219843557861E+001	-8.1948805E-001	-6.286080274625316E-002	5.1513678E-005	-8.1953794E-001	0
1.2839972E+004	6.985219843052619E+001	-8.2155728E-001	-6.398435122578450E-002	5.2566811E-005	-8.2153791E-001	0
1.2632673E+004	7.005219842547376E+001	-8.2343221E-001	-6.518273691534793E-002	5.3673564E-005	-8.2353801E-001	0
1.2430177E+004	7.025219842042134E+001	-8.2548672E-001	-6.640989474198300E-002	5.4820484E-005	-8.2553798E-001	0
1.2237144E+004	7.045219841536891E+001	-8.2744080E-001	-6.761715338035357E-002	5.5949193E-005	-8.2753801E-001	0
1.2038189E+004	7.065219841031649E+001	-8.2946062E-001	-6.890243986228695E-002	5.7151861E-005	-8.2953805E-001	0
1.1836289E+004	7.085219840526406E+001	-8.3143520E-001	-7.024458689718616E-002	5.8403821E-005	-8.3153790E-001	0
1.1642905E+004	7.105219840021164E+001	-8.3348739E-001	-7.158757563545226E-002	5.9667342E-005	-8.3353800E-001	0
1.1443704E+004	7.125219839515921E+001	-8.3551222E-001	-7.301064627984200E-002	6.1001287E-005	-8.3553797E-001	0
1.1247461E+004	7.145219839010679E+001	-8.3748788E-001	-7.446016926875920E-002	6.2359490E-005	-8.3753794E-001	0
1.1056213E+004	7.165219838505436E+001	-8.3954954E-001	-7.593463852319493E-002	6.3750893E-005	-8.3953798E-001	0
1.0857690E+004	7.185219838000194E+001	-8.4144002E-001	-7.749714511721173E-002	6.5209199E-005	-8.4153801E-001	0
1.0667750E+004	7.205219837494951E+001	-8.4352076E-001	-7.907204205316010E-002	6.6698907E-005	-8.4353799E-001	0
1.0479054E+004	7.225219836989709E+001	-8.4540296E-001	-8.067550252312095E-002	6.8203306E-005	-8.4553796E-001	0
1.0288064E+004	7.245219836484466E+001	-8.4742761E-001	-8.236997615115146E-002	6.9802591E-005	-8.4753799E-001	0
1.0100299E+004	7.265219835979224E+001	-8.4948558E-001	-8.410499044250530E-002	7.1445975E-005	-8.4953803E-001	0
9.9149863E+003	7.285219835473981E+001	-8.5153961E-001	-8.588409455558541E-002	7.3133706E-005	-8.5153794E-001	0
9.7291230E+003	7.305219834968739E+001	-8.5347426E-001	-8.772366038785506E-002	7.4869888E-005	-8.5353792E-001	0
9.5430732E+003	7.325219834463496E+001	-8.5547000E-001	-8.964302556487891E-002	7.6686920E-005	-8.5553801E-001	0
9.3629736E+003	7.345219833958254E+001	-8.5743755E-001	-9.157748161149892E-002	7.8521975E-005	-8.5753798E-001	0
9.1850264E+003	7.365219833453011E+001	-8.5947895E-001	-9.357392440324053E-002	8.0424819E-005	-8.5953796E-001	0
9.0064346E+003	7.385219832947769E+001	-8.6150187E-001	-9.565403721350219E-002	8.2406135E-005	-8.6153805E-001	0
8.8142070E+003	7.406219832417264E+001	-8.6358345E-001	-9.797631132633255E-002	8.4610721E-005	-8.6363804E-001	0
8.6225605E+003	7.427219831886759E+001	-8.6569953E-001	-1.003993542161677E-001	8.6915672E-005	-8.6573792E-001	0
8.4479473E+003	7.447219831381517E+001	-8.6762446E-001	-1.027023963685110E-001	8.9107110E-005	-8.6773801E-001	0
8.2775205E+003	7.467219830876275E+001	-8.6962688E-001	-1.050588613642116E-001	9.1362010E-005	-8.6973798E-001	0
8.1033198E+003	7.487219830371032E+001	-8.7165898E-001	-1.075681340553358E-001	9.3762726E-005	-8.7173796E-001	0
7.9389888E+003	7.507219829865790E+001	-8.7363976E-001	-1.100442138661015E-001	9.6139003E-005	-8.7373793E-001	0
7.7739243E+003	7.527219829360547E+001	-8.7570268E-001	-1.126461542378309E-001	9.8644538E-005	-8.7573802E-001	0
7.6065610E+003	7.547219828855305E+001	-8.7766969E-001	-1.153832417680483E-001	1.0126837E-004	-8.7773800E-001	0
7.4386323E+003	7.567219828350062E+001	-8.7962663E-001	-1.182511250874929E-001	1.0401684E-004	-8.7973791E-001	0
7.2560273E+003	7.587219827844820E+001	-8.8164914E-001	-1.215057626774199E-001	1.0712545E-004	-8.8173807E-001	0
7.0966816E+003	7.607219827339577E+001	-8.8364726E-001	-1.245155581853887E-001	1.1002783E-004	-8.8373804E-001	0
6.9394336E+003	7.627219826834335E+001	-8.8566458E-001	-1.276277921747533E-001	1.1303541E-004	-8.8573790E-001	0
6.7835728E+003	7.647219826329092E+001	-8.8769519E-001	-1.308595421776815E-001	1.1616338E-004	-8.8773799E-001	0
6.6288379E+003	7.667219825823850E+001	-8.8969553E-001	-1.342159098630893E-001	1.1941129E-004	-8.8973808E-001	0
6.4733838E+003	7.687219825318607E+001	-8.9161253E-001	-1.377351532770477E-001	1.2280639E-004	-8.9173794E-001	0
6.3264189E+003	7.707219824813365E+001	-8.9368188E-001	-1.412618853713550E-001	1.2624319E-004	-8.9373797E-001	0
6.1770337E+003	7.727219824308122E+001	-8.9566797E-001	-1.449996876169219E-001	1.2987158E-004	-8.9573801E-001	0
6.0286328E+003	7.747219823802880E+001	-8.9768231E-001	-1.489031293129548E-001	1.3366771E-004	-8.9773798E-001	0
5.8824868E+003	7.767219823297637E+001	-8.9967555E-001	-1.529413579832213E-001	1.3759760E-004	-8.9973795E-001	0
5.7379697E+003	7.787219822792395E+001	-9.0164739E-001	-1.571370075855938E-001	1.4168218E-004	-9.0173799E-001	0
5.5976738E+003	7.807219822287152E+001	-9.0360200E-001	-1.614245487199655E-001	1.4586355E-004	-9.0373802E-001	0
5.4605410E+003	7.827219821781910E+001	-9.0559262E-001	-1.658430147531726E-001	1.5018621E-004	-9.0573794E-001	0
5.3228354E+003	7.847219821276667E+001	-9.0763617E-001	-1.705174180562872E-001	1.5476778E-004	-9.0773803E-001	0
5.1890186E+003	7.867219820771425E+001	-9.0962714E-001	-1.752984877422352E-001	1.5945626E-004	-9.0973800E-001	0
5.0587656E+003	7.887219820266182E+001	-9.1166073E-001	-1.802140658704434E-001	1.6429409E-004	-9.1173798E-001	0
4.9311606E+003	7.907219819760940E+001	-9.1361231E-001	-1.852732814654132E-001	1.6926795E-004	-9.1373801E-001	0
4.8063823E+003	7.927219819255697E+001	-9.1561782E-001	-1.905004096010492E-001	1.7442557E-004	-9.1573805E-001	0
4.6847422E+003	7.947219818750455E+001	-9.1763890E-001	-1.958782013248053E-001	1.7974546E-004	-9.1773808E-001	0
4.5665435E+003	7.967219818245212E+001	-9.1964835E-001	-2.013882860697620E-001	1.8520640E-004	-9.1973799E-001	0
4.4516445E+003	7.987219817739970E+001	-9.2161894E-001	-2.070288723229070E-001	1.9080173E-004	-9.2173797E-001	0
4.3398662E+003	8.007219817234727E+001	-9.2367452E-001	-2.128347959116002E-001	1.9659007E-004	-9.2373806E-001	0
4.2314609E+003	8.027219816729485E+001	-9.2563796E-001	-2.187513799919767E-001	2.0248457E-004	-9.2573792E-001	0
4.1248237E+003	8.047219816224242E+001	-9.2758220E-001	-2.248780168698521E-001	2.0859284E-004	-9.2773795E-001	0
4.0217927E+003	8.067219815719000E+001	-9.2959857E-001	-2.311403509862968E-001	2.1486774E-004	-9.2973799E-001	0
3.9222856E+003	8.087219815213757E+001	-9.3160933E-001	-2.375169488603492E-001	2.2127300E-004	-9.3173796E-001	0
3.8258132E+003	8.107219814708515E+001	-9.3366832E-001	-2.440444010451372E-001	2.2785652E-004	-9.3373793E-001	0
3.7307583E+003	8.127219814203272E+001	-9.3563527E-001	-2.507895628695724E-001	2.3464757E-004	-9.3573797E-001	0
3.6309180E+003	8.147219813698030E+001	-9.3764383E-001	-2.582387848273582E-001	2.4213600E-004	-9.3773800E-001	0
3.5315486E+003	8.167219813192787E+001	-9.3961507E-001	-2.660631888700222E-001	2.4999699E-004	-9.3973798E-001	0
3.4434651E+003	8.187219812687545E+001	-9.4164318E-001	-2.734580287274788E-001	2.5749989E-004	-9.4173801E-001	0
3.3563098E+003	8.207219812182302E+001	-9.4364244E-001	-2.811547460292130E-001	2.6530956E-004	-9.4373804E-001	0
3.2703320E+003	8.227219811677060E+001	-9.4561511E-001	-2.891495725828426E-001	2.7342420E-004	-9.4573796E-001	0
3.1845691E+003	8.247219811171817E+001	-9.4765019E-001	-2.975756320827845E-001	2.8199761E-004	-9.4773799E-001	0
3.0987427E+003	8.267219810666575E+001	-9.4971198E-001	-3.064830085482280E-001	2.9107058E-004	-9.4973803E-001	0
3.0139485E+003	8.287219810161332E+001	-9.5168412E-001	-3.157599177380481E-001	3.0050369E-004	-9.5173806E-001	0
2.9302646E+003	8.307219809656090E+001	-9.5365518E-001	-3.254501921739292E-001	3.1036726E-004	-9.5373797E-001	0
2.8462998E+003	8.327219809150847E+001	-9.5569366E-001	-3.357670355668438E-001	3.2089042E-004	-9.5573795E-001	0
2.7632666E+003	8.347219808645605E+001	-9.5761555E-001	-3.465519830428238E-001	3.3186356E-004	-9.5773804E-001	0
2.6817263E+003	8.367219808140362E+001	-9.5969540E-001	-3.578647795321253E-001	3.4344118E-004	-9.5973802E-001	0
2.6015142E+003	8.387219807635120E+001	-9.6168685E-001	-3.696642647288275E-001	3.5550125E-004	-9.6173793E-001	0
2.5225203E+003	8.407219807129877E+001	-9.6370214E-001	-3.820393885530180E-001	3.6817219E-004	-9.6373796E-001	0
2.4449004E+003	8.427219806624635E+001	-9.6566957E-001	-3.949729522812668E-001	3.8141335E-004	-9.6573794E-001	0
2.3546611E+003	8.447219806119392E+001	-9.6766180E-001	-4.109558495830166E-001	3.9766627E-004	-9.6773803E-001	0
2.2877966E+003	8.467219805614150E+001	-9.6969038E-001	-4.238534024758200E-001	4.1100656E-004	-9.6973801E-001	0
2.2175923E+003	8.487219805108907E+001	-9.7164494E-001	-4.381530816643542E-001	4.2572923E-004	-9.7173798E-001	0
2.1498242E+003	8.507219804603665E+001	-9.7367448E-001	-4.529088798133216E-001	4.4098581E-004	-9.7373796E-001	0
2.0848728E+003	8.527219804098422E+001	-9.7568524E-001	-4.679831012348514E-001	4.5660420E-004	-9.7573799E-001	0
2.0230885E+003	8.547219803593180E+001	-9.7764844E-001	-4.832454973540341E-001	4.7244420E-004	-9.7773802E-001	0
1.9642332E+003	8.567219803087937E+001	-9.7964561E-001	-4.987420347643816E-001	4.8859045E-004	-9.7973800E-001	0
1.9075402E+003	8.587219802582695E+001	-9.8166144E-001	-5.146216287313550E-001	5.0518423E-004	-9.8173791E-001	0
1.8535084E+003	8.607219802077452E+001	-9.8366654E-001	-5.307051969434422E-001	5.2203692E-004	-9.8373801E-001	0
1.7953368E+003	8.627219801572210E+001	-9.8564160E-001	-5.490009623776082E-001	5.4111821E-004	-9.8573804E-001	0
1.7462780E+003	8.647219801066967E+001	-9.8764342E-001	-5.655705893576939E-001	5.5858208E-004	-9.8773795E-001	0
1.7000159E+003	8.667219800561725E+001	-9.8966920E-001	-5.821529133308720E-001	5.7613879E-004	-9.8973793E-001	0
1.6561689E+003	8.687219800056482E+001	-9.9167228E-001	-5.987748365950614E-001	5.9378840E-004	-9.9173802E-001	0
1.6140668E+003	8.707219799551240E+001	-9.9365968E-001	-6.156249014563571E-001	6.1172165E-004	-9.9373800E-001	0
1.5741027E+003	8.727219799045997E+001	-9.9568349E-001	-6.325403559665750E-001	6.2980998E-004	-9.9573791E-001	0
1.5364611E+003	8.747219798540755E+001	-9.9770039E-001	-6.493496333255260E-001	6.4785639E-004	-9.9773806E-001	0
1.5005066E+003	8.767219798035512E+001	-9.9966544E-001	-6.662186434589623E-001	6.6599576E-004	-9.9973792E-001	0
1.4632477E+003	8.787219797530270E+001	-1.0016755E+000	-6.845563446845251E-001	6.8570330E-004	-1.0017380E+000	0
1.4289493E+003	8.807219797025027E+001	-1.0036936E+000	-7.023996755759554E-001	7.0499402E-004	-1.0037379E+000	0
1.3982053E+003	8.827219796519785E+001	-1.0056466E+000	-7.192410038290014E-001	7.2330225E-004	-1.0057380E+000	0
1.3690856E+003	8.847219796014542E+001	-1.0076306E+000	-7.359880137631070E-001	7.4160402E-004	-1.0077380E+000	0
1.3410001E+003	8.867219795509300E+001	-1.0096689E+000	-7.529223349046781E-001	7.6020230E-004	-1.0097380E+000	0
1.3142566E+003	8.887219795004057E+001	-1.0116439E+000	-7.697461059701336E-001	7.7870896E-004	-1.0117379E+000	0
1.2887373E+003	8.907219794498815E+001	-1.0136793E+000	-7.865677887020528E-001	7.9732743E-004	-1.0137379E+000	0
1.2642290E+003	8.927219793993572E+001	-1.0157138E+000	-8.034255159026245E-001	8.1605039E-004	-1.0157379E+000	0
1.2397937E+003	8.947219793488330E+001	-1.0176806E+000	-8.208467639526571E-001	8.3535985E-004	-1.0177380E+000	0
1.2145042E+003	8.967219792983087E+001	-1.0196775E+000	-8.395833717975911E-001	8.5610431E-004	-1.0197381E+000	0
1.1929219E+003	8.987219792477845E+001	-1.0216752E+000	-8.564477057413651E-001	8.7501138E-004	-1.0217379E+000	0
1.1725264E+003	9.007219791972602E+001	-1.0237072E+000	-8.730781625052435E-001	8.9377636E-004	-1.0237379E+000	0
1.1523148E+003	9.027219791467360E+001	-1.0256830E+000	-8.901065698995891E-001	9.1296720E-004	-1.0257380E+000	0
1.1333544E+003	9.047219790962117E+001	-1.0276865E+000	-9.067653349248026E-001	9.3187048E-004	-1.0277380E+000	0
1.1151362E+003	9.067219790456875E+001	-1.0296756E+000	-9.233630875256464E-001	9.5076446E-004	-1.0297379E+000	0
1.0978199E+003	9.087219789951632E+001	-1.0317398E+000	-9.398079138511015E-001	9.6963724E-004	-1.0317379E+000	0
1.0804807E+003	9.107219789446390E+001	-1.0336951E+000	-9.566993055751127E-001	9.8893535E-004	-1.0337379E+000	0
1.0614669E+003	9.127219788941147E+001	-1.0356252E+000	-9.756547642318427E-001	1.0104127E-003	-1.0357380E+000	0
1.0456036E+003	9.147219788435905E+001	-1.0376862E+000	-9.924279151742006E-001	1.0298288E-003	-1.0377380E+000	0
1.0301598E+003	9.167219787930662E+001	-1.0396808E+000	-1.009242267818815E+000	1.0492898E-003	-1.0397381E+000	0
1.0153628E+003	9.187219787425420E+001	-1.0416992E+000	-1.025937917146011E+000	1.0687187E-003	-1.0417379E+000	0
1.0007189E+003	9.207219786920177E+001	-1.0436518E+000	-1.042902070944468E+000	1.0884267E-003	-1.0437380E+000	0
9.8618756E+002	9.227219786414935E+001	-1.0457410E+000	-1.060387472565074E+000	1.1088906E-003	-1.0457380E+000	0
9.6558618E+002	9.249219785859168E+001	-1.0478693E+000	-1.085215710370409E+000	1.1371643E-003	-1.0479380E+000	0
9.5179492E+002	9.269219785353926E+001	-1.0498446E+000	-1.103015548593946E+000	1.1579950E-003	-1.0499380E+000	0
9.3845099E+002	9.289219784848683E+001	-1.0518870E+000	-1.120875864241130E+000	1.1790348E-003	-1.0519379E+000	0
9.2548926E+002	9.309219784343441E+001	-1.0538279E+000	-1.138671125515515E+000	1.1999634E-003	-1.0539379E+000	0
9.1264551E+002	9.329219783838198E+001	-1.0558628E+000	-1.156925452750622E+000	1.2215546E-003	-1.0559380E+000	0
8.9998132E+002	9.349219783332956E+001	-1.0579003E+000	-1.175469167665700E+000	1.2435291E-003	-1.0579380E+000	0
8.8752509E+002	9.369219782827713E+001	-1.0599117E+000	-1.194232966987389E+000	1.2657816E-003	-1.0599380E+000	0
8.7517639E+002	9.389219782322471E+001	-1.0618483E+000	-1.213296328246798E+000	1.2883366E-003	-1.0619379E+000	0
8.6313171E+002	9.409219781817228E+001	-1.0638697E+000	-1.232569338394807E+000	1.3112932E-003	-1.0639380E+000	0
8.4886267E+002	9.429219781311986E+001	-1.0659000E+000	-1.255680087548332E+000	1.3384294E-003	-1.0659380E+000	0
8.3713123E+002	9.449219780806743E+001	-1.0678632E+000	-1.275622231526777E+000	1.3621901E-003	-1.0679381E+000	0
8.2503491E+002	9.469219780301501E+001	-1.0698605E+000	-1.296745690586821E+000	1.3873370E-003	-1.0699381E+000	0
8.1324890E+002	9.489219779796258E+001	-1.0718542E+000	-1.317990340706377E+000	1.4126935E-003	-1.0719380E+000	0
8.0124628E+002	9.509219779291016E+001	-1.0738912E+000	-1.340275989021777E+000	1.4393105E-003	-1.0739380E+000	0
7.8949353E+002	9.529219778785773E+001	-1.0758733E+000	-1.362738496862570E+000	1.4661339E-003	-1.0759380E+000	0
7.7665344E+002	9.549219778280531E+001	-1.0778852E+000	-1.387858595420305E+000	1.4959521E-003	-1.0779381E+000	0
7.6457019E+002	9.569219777775288E+001	-1.0798391E+000	-1.412347874623187E+000	1.5251085E-003	-1.0799381E+000	0
7.5363770E+002	9.589219777270046E+001	-1.0818990E+000	-1.435569226057559E+000	1.5531409E-003	-1.0819380E+000	0
7.4280011E+002	9.609219776764803E+001	-1.0838709E+000	-1.459169050091521E+000	1.5815508E-003	-1.0839380E+000	0
7.3192975E+002	9.629219776259561E+001	-1.0858824E+000	-1.483588312801107E+000	1.6110025E-003	-1.0859380E+000	0
7.2065833E+002	9.649219775754318E+001	-1.0878675E+000	-1.509546850797410E+000	1.6421870E-003	-1.0879381E+000	0
7.0779840E+002	9.669219775249076E+001	-1.0898643E+000	-1.539794695502371E+000	1.6781671E-003	-1.0899380E+000	0
6.9720129E+002	9.689219774743833E+001	-1.0918342E+000	-1.566024340190786E+000	1.7098389E-003	-1.0919380E+000	0
6.8672095E+002	9.709219774238591E+001	-1.0938622E+000	-1.592877267709936E+000	1.7423882E-003	-1.0939380E+000	0
6.7618323E+002	9.729219773733348E+001	-1.0958499E+000	-1.620640466374056E+000	1.7759786E-003	-1.0959381E+000	0
6.6514783E+002	9.749219773228106E+001	-1.0978019E+000	-1.650463031043142E+000	1.8118814E-003	-1.0979381E+000	0
6.5223450E+002	9.769219772722863E+001	-1.0998440E+000	-1.686270776874217E+000	1.8546347E-003	-1.0999380E+000	0
6.4118591E+002	9.789219772217621E+001	-1.1018419E+000	-1.718443811277687E+000	1.8934534E-003	-1.1019380E+000	0
6.3076630E+002	9.809219771712378E+001	-1.1038340E+000	-1.749988915968916E+000	1.9316974E-003	-1.1039379E+000	0
6.2030334E+002	9.829219771207136E+001	-1.1058511E+000	-1.782758403611695E+000	1.9714653E-003	-1.1059381E+000	0
6.0829602E+002	9.849219770701893E+001	-1.1078268E+000	-1.821196987988465E+000	2.0175709E-003	-1.1079381E+000	0
5.9676556E+002	9.869219770196651E+001	-1.1098754E+000	-1.859818101351638E+000	2.0641664E-003	-1.1099379E+000	0
5.8572144E+002	9.889219769691408E+001	-1.1118270E+000	-1.898218106030747E+000	2.1104901E-003	-1.1119380E+000	0
5.7512280E+002	9.909219769186166E+001	-1.1138723E+000	-1.936755465221111E+000	2.1572981E-003	-1.1139380E+000	0
5.6291492E+002	9.929219768680923E+001	-1.1158191E+000	-1.982216213548936E+000	2.2117947E-003	-1.1159381E+000	0
5.5277930E+002	9.949219768175681E+001	-1.1178498E+000	-2.022235346201999E+000	2.2605555E-003	-1.1179380E+000	0
5.4164911E+002	9.969219767670438E+001	-1.1198658E+000	-2.067511514673967E+000	2.3153354E-003	-1.1199379E+000	0
5.2910107E+002	9.989219767165196E+001	-1.1218575E+000	-2.120308415571444E+000	2.3786840E-003	-1.1219380E+000	0
5.1833276E+002	1.000921976665995E+002	-1.1238470E+000	-2.168196019047112E+000	2.4367205E-003	-1.1239380E+000	0
5.0692715E+002	1.002921976615471E+002	-1.1258677E+000	-2.220965567832632E+000	2.5005133E-003	-1.1259379E+000	0
4.9494568E+002	1.004921976564947E+002	-1.1278434E+000	-2.278721543903249E+000	2.5700410E-003	-1.1279380E+000	0
4.8430548E+002	1.006921976514423E+002	-1.1298459E+000	-2.332919811023199E+000	2.6358399E-003	-1.1299380E+000	0
4.7224179E+002	1.008921976463898E+002	-1.1318566E+000	-2.396773395540357E+000	2.7128037E-003	-1.1319380E+000	0
4.6068713E+002	1.010921976413374E+002	-1.1338342E+000	-2.461180644595565E+000	2.7905710E-003	-1.1339380E+000	0
4.4904056E+002	1.012921976362850E+002	-1.1358292E+000	-2.529458033372888E+000	2.8730324E-003	-1.1359380E+000	0
4.3792874E+002	1.014921976312326E+002	-1.1378605E+000	-2.598277809246191E+000	2.9564777E-003	-1.1379380E+000	0
4.2565402E+002	1.016921976261801E+002	-1.1398277E+000	-2.677826806463621E+000	3.0522612E-003	-1.1399380E+000	0
4.1481860E+002	1.018921976211277E+002	-1.1418744E+000	-2.752707795288572E+000	3.1432468E-003	-1.1419380E+000	0
4.0287766E+002	1.020921976160753E+002	-1.1438055E+000	-2.839088858745125E+000	3.2473654E-003	-1.1439379E+000	0
3.9168018E+002	1.022921976110229E+002	-1.1458027E+000	-2.925352858763841E+000	3.3518772E-003	-1.1459380E+000	0
3.8009164E+002	1.024921976059704E+002	-1.1478744E+000	-3.019993676755462E+000	3.4665733E-003	-1.1479380E+000	0
3.6842514E+002	1.026921976009180E+002	-1.1498590E+000	-3.121011139263246E+000	3.5887226E-003	-1.1499380E+000	0
3.5741187E+002	1.028921975958656E+002	-1.1518670E+000	-3.222800125509423E+000	3.7122371E-003	-1.1519380E+000	0
3.4678247E+002	1.030921975908132E+002	-1.1538289E+000	-3.327241019732270E+000	3.8390667E-003	-1.1539379E+000	0
3.3562735E+002	1.032921975857607E+002	-1.1558493E+000	-3.443847267637167E+000	3.9805686E-003	-1.1559380E+000	0
3.2474701E+002	1.034921975807083E+002	-1.1578187E+000	-3.565294429761209E+000	4.1279644E-003	-1.1579380E+000	0
3.1446924E+002	1.036921975756559E+002	-1.1598402E+000	-3.688247141856991E+000	4.2777774E-003	-1.1599380E+000	0
3.0383514E+002	1.038921975706035E+002	-1.1618514E+000	-3.823953386066718E+000	4.4428655E-003	-1.1619380E+000	0
2.9314145E+002	1.040921975655510E+002	-1.1638621E+000	-3.970308928769470E+000	4.6208920E-003	-1.1639380E+000	0
2.8290576E+002	1.042921975604986E+002	-1.1658782E+000	-4.121083242045788E+000	4.8046811E-003	-1.1659380E+000	0
2.7291241E+002	1.044921975554462E+002	-1.1678283E+000	-4.279132418317573E+000	4.9972921E-003	-1.1679380E+000	0
2.6307330E+002	1.046921975503938E+002	-1.1698364E+000	-4.446807760703052E+000	5.2020377E-003	-1.1699381E+000	0
2.5330524E+002	1.048921975453413E+002	-1.1718349E+000	-4.626177355883616E+000	5.4211165E-003	-1.1719379E+000	0
2.4351666E+002	1.050921975402889E+002	-1.1738701E+000	-4.820491839732451E+000	5.6586312E-003	-1.1739379E+000	0
2.3396936E+002	1.052921975352365E+002	-1.1758720E+000	-5.025752040534334E+000	5.9096408E-003	-1.1759380E+000	0
2.2487923E+002	1.054921975301841E+002	-1.1778504E+000	-5.237701787598546E+000	6.1692288E-003	-1.1779381E+000	0
2.1610721E+002	1.056921975251316E+002	-1.1798384E+000	-5.459505245663962E+000	6.4413343E-003	-1.1799380E+000	0
2.0769449E+002	1.058921975200792E+002	-1.1818520E+000	-5.690338568048141E+000	6.7251381E-003	-1.1819379E+000	0
1.9950081E+002	1.060921975150268E+002	-1.1838293E+000	-5.933957318836576E+000	7.0247925E-003	-1.1839380E+000	0
1.9125929E+002	1.062921975099744E+002	-1.1858143E+000	-6.200034716603724E+000	7.3520895E-003	-1.1859380E+000	0
1.8337943E+002	1.064921975049219E+002	-1.1878397E+000	-6.477497633960503E+000	7.6942290E-003	-1.1879380E+000	0
1.7549443E+002	1.066921974998695E+002	-1.1898139E+000	-6.779781462181191E+000	8.0666775E-003	-1.1899379E+000	0
1.6779482E+002	1.068921974948171E+002	-1.1918298E+000	-7.102899832857972E+000	8.4654475E-003	-1.1919379E+000	0
1.6075137E+002	1.070921974897647E+002	-1.1938506E+000	-7.426690373696403E+000	8.8663595E-003	-1.1939379E+000	0
1.5382632E+002	1.072921974847122E+002	-1.1958276E+000	-7.773881251376821E+000	9.2962217E-003	-1.1959380E+000	0
1.4732739E+002	1.074921974796598E+002	-1.1978691E+000	-8.130660888424273E+000	9.7394669E-003	-1.1979381E+000	0
1.4097809E+002	1.076921974746074E+002	-1.1998643E+000	-8.510998011446333E+000	1.0212042E-002	-1.1999379E+000	0
1.3472246E+002	1.078921974695550E+002	-1.2018480E+000	-8.920918333692626E+000	1.0721589E-002	-1.2019379E+000	0
1.2892993E+002	1.080921974645025E+002	-1.2038171E+000	-9.336987547931241E+000	1.1240026E-002	-1.2039380E+000	0
1.2299758E+002	1.082921974594501E+002	-1.2058705E+000	-9.804017893851693E+000	1.1822376E-002	-1.2059381E+000	0
1.1749297E+002	1.084921974543977E+002	-1.2078477E+000	-1.028016947557867E+001	1.2416880E-002	-1.2079380E+000	0
1.1191640E+002	1.087021974490926E+002	-1.2099960E+000	-1.081160580084040E+001	1.3081999E-002	-1.2100381E+000	0
1.0645929E+002	1.089121974437876E+002	-1.2120347E+000	-1.138495966393396E+001	1.3798966E-002	-1.2121379E+000	0
1.0172232E+002	1.091121974387352E+002	-1.2140819E+000	-1.193525565853193E+001	1.4490378E-002	-1.2141379E+000	0
9.7076004E+001	1.093121974336827E+002	-1.2161051E+000	-1.252735067130217E+001	1.5234575E-002	-1.2161380E+000	0
9.2562340E+001	1.095121974286303E+002	-1.2180992E+000	-1.315977142687012E+001	1.6029907E-002	-1.2181380E+000	0
8.8377235E+001	1.097121974235779E+002	-1.2201151E+000	-1.380576194021981E+001	1.6844619E-002	-1.2201380E+000	0
8.4546753E+001	1.099121974185255E+002	-1.2220664E+000	-1.445432705281817E+001	1.7664148E-002	-1.2221379E+000	0
8.0747917E+001	1.101121974134730E+002	-1.2240713E+000	-1.515916772926744E+001	1.8555902E-002	-1.2241380E+000	0
7.7122612E+001	1.103121974084206E+002	-1.2261449E+000	-1.589864407631819E+001	1.9494042E-002	-1.2261381E+000	0
7.3843727E+001	1.105121974033682E+002	-1.2281190E+000	-1.663132419783511E+001	2.0425245E-002	-1.2281380E+000	0
7.0607468E+001	1.107121973983158E+002	-1.2300590E+000	-1.742108939659032E+001	2.1428969E-002	-1.2301379E+000	0
6.7484024E+001	1.109121973932633E+002	-1.2321278E+000	-1.825806616966419E+001	2.2496270E-002	-1.2321380E+000	0
6.4566475E+001	1.111121973882109E+002	-1.2340676E+000	-1.911313267386691E+001	2.3586897E-002	-1.2341380E+000	0
6.1810474E+001	1.113121973831585E+002	-1.2361192E+000	-1.999853853168401E+001	2.4720576E-002	-1.2361380E+000	0
5.9255653E+001	1.115121973781061E+002	-1.2381058E+000	-2.089430661036590E+001	2.5869362E-002	-1.2381380E+000	0
5.6708603E+001	1.117121973730536E+002	-1.2400687E+000	-2.186738192413397E+001	2.7117055E-002	-1.2401381E+000	0
5.4320095E+001	1.119121973680012E+002	-1.2421527E+000	-2.286727784658507E+001	2.8404651E-002	-1.2421380E+000	0
5.2034512E+001	1.121121973629488E+002	-1.2440941E+000	-2.390901880834656E+001	2.9745070E-002	-1.2441380E+000	0
4.9948353E+001	1.123121973578964E+002	-1.2461493E+000	-2.494875719203970E+001	3.1089876E-002	-1.2461380E+000	0
4.7987148E+001	1.125121973528439E+002	-1.2480947E+000	-2.600893580075572E+001	3.2461613E-002	-1.2481381E+000	0
4.6068638E+001	1.127121973477915E+002	-1.2501318E+000	-2.713628735996429E+001	3.3923935E-002	-1.2501380E+000	0
4.4307976E+001	1.129121973427391E+002	-1.2521232E+000	-2.825954470369550E+001	3.5384431E-002	-1.2521380E+000	0
4.2554783E+001	1.131121973376867E+002	-1.2541523E+000	-2.947147700846051E+001	3.6961719E-002	-1.2541380E+000	0
4.0872566E+001	1.133121973326342E+002	-1.2561357E+000	-3.073297912166231E+001	3.8604792E-002	-1.2561381E+000	0
3.9261929E+001	1.135121973275818E+002	-1.2581078E+000	-3.204396439301454E+001	4.0314760E-002	-1.2581381E+000	0
3.7739594E+001	1.137121973225294E+002	-1.2601492E+000	-3.339064285463201E+001	4.2077195E-002	-1.2601379E+000	0
3.6423306E+001	1.139121973174770E+002	-1.2621099E+000	-3.465116418624393E+001	4.3733578E-002	-1.2621380E+000	0
3.5149212E+001	1.141121973124245E+002	-1.2641392E+000	-3.596493786208464E+001	4.5464687E-002	-1.2641381E+000	0
3.3889332E+001	1.143121973073721E+002	-1.2661154E+000	-3.736029487888834E+001	4.7302447E-002	-1.2661381E+000	0
3.2786694E+001	1.145121973023197E+002	-1.2681136E+000	-3.867769109499955E+001	4.9047705E-002	-1.2681381E+000	0
3.1615427E+001	1.147121972972673E+002	-1.2701222E+000	-4.017412614525043E+001	5.1026050E-002	-1.2701380E+000	0
3.0472614E+001	1.149121972922148E+002	-1.2720947E+000	-4.174550727570681E+001	5.3104240E-002	-1.2721380E+000	0
2.9498199E+001	1.151121972871624E+002	-1.2741171E+000	-4.319304765892707E+001	5.5033002E-002	-1.2741381E+000	0
2.8558777E+001	1.153121972821100E+002	-1.2761474E+000	-4.468494431475119E+001	5.7024576E-002	-1.2761381E+000	0
2.7616018E+001	1.155121972770576E+002	-1.2781041E+000	-4.628125763371960E+001	5.9152264E-002	-1.2781380E+000	0
2.6697924E+001	1.157121972720051E+002	-1.2800564E+000	-4.794591297773536E+001	6.1373472E-002	-1.2801380E+000	0
2.5868971E+001	1.159121972669527E+002	-1.2820977E+000	-4.956121707989769E+001	6.3542321E-002	-1.2821379E+000	0
2.5094927E+001	1.161121972619003E+002	-1.2841216E+000	-5.117056529862509E+001	6.5709233E-002	-1.2841380E+000	0
2.4314529E+001	1.163121972568479E+002	-1.2860966E+000	-5.289415849201259E+001	6.8026997E-002	-1.2861381E+000	0
2.3495487E+001	1.165121972517954E+002	-1.2881553E+000	-5.482564702650313E+001	7.0623949E-002	-1.2881379E+000	0
2.2728712E+001	1.167121972467430E+002	-1.2900912E+000	-5.676041849616439E+001	7.3226117E-002	-1.2901380E+000	0
2.2174467E+001	1.169121972416906E+002	-1.2921314E+000	-5.827113670502672E+001	7.5293966E-002	-1.2921380E+000	0
2.1548454E+001	1.171121972366382E+002	-1.2941346E+000	-6.005695656043309E+001	7.7721789E-002	-1.2941380E+000	0
2.0977947E+001	1.173121972315857E+002	-1.2960842E+000	-6.178317411902776E+001	8.0076195E-002	-1.2961380E+000	0
2.0334805E+001	1.175121972265333E+002	-1.2981160E+000	-6.383714892372268E+001	8.2868025E-002	-1.2981380E+000	0
1.9812895E+001	1.177121972214809E+002	-1.3001635E+000	-6.562208671905023E+001	8.5319445E-002	-1.3001380E+000	0
1.9305901E+001	1.179121972164285E+002	-1.3021332E+000	-6.744741955852271E+001	8.7825522E-002	-1.3021380E+000	0
1.8744482E+001	1.181121972113760E+002	-1.3041146E+000	-6.957325001098135E+001	9.0731487E-002	-1.3041379E+000	0
1.8247107E+001	1.183121972063236E+002	-1.3061144E+000	-7.157926004976378E+001	9.3490705E-002	-1.3061380E+000	0
1.7751280E+001	1.185121972012712E+002	-1.3082190E+000	-7.369716517508982E+001	9.6412025E-002	-1.3081380E+000	0
1.7284967E+001	1.187121971962188E+002	-1.3101264E+000	-7.579571475625824E+001	9.9301971E-002	-1.3101380E+000	0
1.6765944E+001	1.189121971911663E+002	-1.3121238E+000	-7.826125560704304E+001	1.0268845E-001	-1.3121380E+000	0
1.6253117E+001	1.191121971861139E+002	-1.3141360E+000	-8.085440005899278E+001	1.0625368E-001	-1.3141381E+000	0
1.5777743E+001	1.193121971810615E+002	-1.3161502E+000	-8.341815071257304E+001	1.0979082E-001	-1.3161380E+000	0
1.5313148E+001	1.195121971760091E+002	-1.3181314E+000	-8.607840924846914E+001	1.1346266E-001	-1.3181380E+000	0
1.4897265E+001	1.197121971709566E+002	-1.3201407E+000	-8.861631174314607E+001	1.1698600E-001	-1.3201380E+000	0
1.4588964E+001	1.199121971659042E+002	-1.3221524E+000	-9.062688070954664E+001	1.1982255E-001	-1.3221380E+000	0
1.4270693E+001	1.201121971608518E+002	-1.3241529E+000	-9.278827383458793E+001	1.2286586E-001	-1.3241380E+000	0
1.3989515E+001	1.203121971557994E+002	-1.3261508E+000	-9.479604554825141E+001	1.2571386E-001	-1.3261380E+000	0
1.3508424E+001	1.205121971507469E+002	-1.3281682E+000	-9.832147821331228E+001	1.3058746E-001	-1.3281381E+000	0
1.3105125E+001	1.207121971456945E+002	-1.3301798E+000	-1.015007326208273E+002	1.3501422E-001	-1.3301380E+000	0
1.2788432E+001	1.209121971406421E+002	-1.3321338E+000	-1.041670879409419E+002	1.3876450E-001	-1.3321381E+000	0
1.2584999E+001	1.211121971355897E+002	-1.3342088E+000	-1.060158047016521E+002	1.4144723E-001	-1.3341380E+000	0
1.2324924E+001	1.213221971302846E+002	-1.3362924E+000	-1.084219542477413E+002	1.4488344E-001	-1.3362381E+000	0
1.1888483E+001	1.215321971249796E+002	-1.3383651E+000	-1.125766026481747E+002	1.5066859E-001	-1.3383380E+000	0
1.1552338E+001	1.217321971199272E+002	-1.3403335E+000	-1.160227010428498E+002	1.5550911E-001	-1.3403380E+000	0
1.1244017E+001	1.219321971148747E+002	-1.3423376E+000	-1.193823907618621E+002	1.6025147E-001	-1.3423380E+000	0
1.1114730E+001	1.221321971098223E+002	-1.3443304E+000	-1.209503414495734E+002	1.6259722E-001	-1.3443381E+000	0
1.0913047E+001	1.223321971047699E+002	-1.3463429E+000	-1.233700289099124E+002	1.6609837E-001	-1.3463380E+000	0
1.0612220E+001	1.225321970997175E+002	-1.3483405E+000	-1.270554643909949E+002	1.7131403E-001	-1.3483380E+000	0
1.0371199E+001	1.227321970946650E+002	-1.3503338E+000	-1.302003608906891E+002	1.7581394E-001	-1.3503380E+000	0
1.0266422E+001	1.229321970896126E+002	-1.3523130E+000	-1.317219360572137E+002	1.7812929E-001	-1.3523381E+000	0
1.0057113E+001	1.231321970845602E+002	-1.3543229E+000	-1.346631963842310E+002	1.8237746E-001	-1.3543380E+000	0
9.9673119E+000	1.233321970795078E+002	-1.3563318E+000	-1.360779925019842E+002	1.8456692E-001	-1.3563381E+000	0
9.7184000E+000	1.235321970744553E+002	-1.3583088E+000	-1.397667036889088E+002	1.8984634E-001	-1.3583380E+000	0
9.5081472E+000	1.237321970694029E+002	-1.3603443E+000	-1.430714425424330E+002	1.9462642E-001	-1.3603380E+000	0
9.3431005E+000	1.239321970643505E+002	-1.3623065E+000	-1.458088245370219E+002	1.9863631E-001	-1.3623379E+000	0
9.1059666E+000	1.241321970592981E+002	-1.3643929E+000	-1.498350340384741E+002	2.0443386E-001	-1.3643380E+000	0
8.9192705E+000	1.243321970542456E+002	-1.3663498E+000	-1.531907535518380E+002	2.0931216E-001	-1.3663380E+000	0
8.7909689E+000	1.245321970491932E+002	-1.3683428E+000	-1.556532404795794E+002	2.1298699E-001	-1.3683380E+000	0
8.6519384E+000	1.247321970441408E+002	-1.3703002E+000	-1.583807203656148E+002	2.1702912E-001	-1.3703380E+000	0
8.5211878E+000	1.249321970390884E+002	-1.3723536E+000	-1.610519071457877E+002	2.2102016E-001	-1.3723379E+000	0
8.3560476E+000	1.251321970340359E+002	-1.3743312E+000	-1.644714539240285E+002	2.2603826E-001	-1.3743380E+000	0
8.2989998E+000	1.253321970289835E+002	-1.3763621E+000	-1.658467392499753E+002	2.2826517E-001	-1.3763381E+000	0
8.2021990E+000	1.255321970239311E+002	-1.3783313E+000	-1.680441145183281E+002	2.3162046E-001	-1.3783380E+000	0
8.0058737E+000	1.257321970188787E+002	-1.3803238E+000	-1.724138803979437E+002	2.3798698E-001	-1.3803381E+000	0
7.9977670E+000	1.259321970138262E+002	-1.3823341E+000	-1.728400134672654E+002	2.3892264E-001	-1.3823379E+000	0
7.8905826E+000	1.261321970087738E+002	-1.3843153E+000	-1.754389147034035E+002	2.4286276E-001	-1.3843380E+000	0
7.7955608E+000	1.263321970037214E+002	-1.3863192E+000	-1.778344319423586E+002	2.4653529E-001	-1.3863380E+000	0
7.6353889E+000	1.265323969986639E+002	-1.3883917E+000	-1.818364154806782E+002	2.5246018E-001	-1.3883396E+000	0
7.1087608E+000	1.267326969936039E+002	-1.3903387E+000	-1.955810158735881E+002	2.7192384E-001	-1.3903428E+000	0
6.9486241E+000	1.269328969885464E+002	-1.3923535E+000	-2.003783006493341E+002	2.7899742E-001	-1.3923448E+000	0
6.7193451E+000	1.271331969834864E+002	-1.3943487E+000	-2.075125941335400E+002	2.8934494E-001	-1.3943477E+000	0
6.6431727E+000	1.273333969784289E+002	-1.3963978E+000	-2.102004344144380E+002	2.9352343E-001	-1.3963500E+000	0
6.5423617E+000	1.275334969733740E+002	-1.3983382E+000	-2.137360022513067E+002	2.9887521E-001	-1.3983511E+000	0
6.4429216E+000	1.277334969683216E+002	-1.4003787E+000	-2.173514963658408E+002	3.0437440E-001	-1.4003507E+000	0
6.3040376E+000	1.279335969632666E+002	-1.4024000E+000	-2.224606083450717E+002	3.1197876E-001	-1.4023519E+000	0
6.3480887E+000	1.281335969582142E+002	-1.4043801E+000	-2.212288008644468E+002	3.1068933E-001	-1.4043521E+000	0
6.2302542E+000	1.283336969531592E+002	-1.4064072E+000	-2.257383366284930E+002	3.1748003E-001	-1.4063529E+000	0
6.2345500E+000	1.285338969481018E+002	-1.4084138E+000	-2.259046415641778E+002	3.1816721E-001	-1.4083549E+000	0
6.1801009E+000	1.287340969430443E+002	-1.4103353E+000	-2.282058718365365E+002	3.2184678E-001	-1.4103569E+000	0
6.0941505E+000	1.289341969379893E+002	-1.4123925E+000	-2.317619885425174E+002	3.2733890E-001	-1.4123580E+000	0
5.9354510E+000	1.291343969329319E+002	-1.4143765E+000	-2.382930070563066E+002	3.3703604E-001	-1.4143595E+000	0
5.8781610E+000	1.293346969278718E+002	-1.4164395E+000	-2.409664371758217E+002	3.4131438E-001	-1.4163628E+000	0
5.7711301E+000	1.295348969228144E+002	-1.4184186E+000	-2.457783260096421E+002	3.4861657E-001	-1.4183648E+000	0
5.6341567E+000	1.297349969177594E+002	-1.4203917E+000	-2.521036836295446E+002	3.5808596E-001	-1.4203660E+000	0
5.5747643E+000	1.299350969127045E+002	-1.4224273E+000	-2.551547038743065E+002	3.6293903E-001	-1.4223669E+000	0
5.4790020E+000	1.301352969076470E+002	-1.4244347E+000	-2.599806814694986E+002	3.7032551E-001	-1.4243691E+000	0
5.5122147E+000	1.303353969025920E+002	-1.4264209E+000	-2.587745611640607E+002	3.6912146E-001	-1.4263700E+000	0
5.4175897E+000	1.305355968975346E+002	-1.4283906E+000	-2.636579630813799E+002	3.7660655E-001	-1.4283717E+000	0
5.4479060E+000	1.307358968924746E+002	-1.4304295E+000	-2.625650033110671E+002	3.7558073E-001	-1.4303749E+000	0
5.3933415E+000	1.309359968874196E+002	-1.4324181E+000	-2.655900917312724E+002	3.8043606E-001	-1.4323760E+000	0
5.3427925E+000	1.311359968823672E+002	-1.4344172E+000	-2.684770573596575E+002	3.8510811E-001	-1.4343760E+000	0
5.3256831E+000	1.313359968773148E+002	-1.4364454E+000	-2.697204022591354E+002	3.8743863E-001	-1.4363761E+000	0
5.2403498E+000	1.315359968722623E+002	-1.4384509E+000	-2.744952070102120E+002	3.9484790E-001	-1.4383759E+000	0
5.1791420E+000	1.317360968672074E+002	-1.4404258E+000	-2.781205451816816E+002	4.0061200E-001	-1.4403768E+000	0
5.1518302E+000	1.319361968621524E+002	-1.4424154E+000	-2.799811470611303E+002	4.0384910E-001	-1.4423780E+000	0
5.0791879E+000	1.321361968571000E+002	-1.4444251E+000	-2.843811017012658E+002	4.1076720E-001	-1.4443781E+000	0
5.0208635E+000	1.323362968520451E+002	-1.4464221E+000	-2.880823323306308E+002	4.1668865E-001	-1.4463788E+000	0
5.0435328E+000	1.325364968469876E+002	-1.4484450E+000	-2.871885764453718E+002	4.1597685E-001	-1.4483809E+000	0
5.0082273E+000	1.327367968419276E+002	-1.4504168E+000	-2.896068111885012E+002	4.2005059E-001	-1.4503834E+000	0
4.9556971E+000	1.329370968368676E+002	-1.4524354E+000	-2.930839571989582E+002	4.2568550E-001	-1.4523867E+000	0
4.9511385E+000	1.331372968318101E+002	-1.4545404E+000	-2.937789586011122E+002	4.2731336E-001	-1.4543889E+000	0
4.8273668E+000	1.333374968267526E+002	-1.4564302E+000	-3.017028183849825E+002	4.3940911E-001	-1.4563910E+000	0
4.7128210E+000	1.335375968216977E+002	-1.4585236E+000	-3.094799447957084E+002	4.5138380E-001	-1.4583920E+000	0
4.5982323E+000	1.337376968166427E+002	-1.4604882E+000	-3.176194841771048E+002	4.6387950E-001	-1.4603928E+000	0
4.4368534E+000	1.339377968115878E+002	-1.4624799E+000	-3.296209768740764E+002	4.8206407E-001	-1.4623940E+000	0
4.3515096E+000	1.341377968065353E+002	-1.4644930E+000	-3.365482882588367E+002	4.9287263E-001	-1.4643940E+000	0
4.3316689E+000	1.343378968014804E+002	-1.4664776E+000	-3.385479513785594E+002	4.9647298E-001	-1.4663948E+000	0
4.2630868E+000	1.345381967964204E+002	-1.4684994E+000	-3.444685873465851E+002	5.0585192E-001	-1.4683980E+000	0
4.2161188E+000	1.347382967913654E+002	-1.4704938E+000	-3.487790119268248E+002	5.1287735E-001	-1.4703988E+000	0
4.1531959E+000	1.349384967863080E+002	-1.4725025E+000	-3.545468457685575E+002	5.2207112E-001	-1.4724008E+000	0
4.1400414E+000	1.351386967812505E+002	-1.4744653E+000	-3.561474806204778E+002	5.2512711E-001	-1.4744027E+000	0
4.1146183E+000	1.353388967761930E+002	-1.4765182E+000	-3.588469388600470E+002	5.2984405E-001	-1.4764047E+000	0
4.1092782E+000	1.355389967711380E+002	-1.4784713E+000	-3.597885633109627E+002	5.3193706E-001	-1.4784061E+000	0
4.0644593E+000	1.357389967660856E+002	-1.4804658E+000	-3.642466498718791E+002	5.3925472E-001	-1.4804060E+000	0
3.8893805E+000	1.359389967610332E+002	-1.4824946E+000	-3.811647079212607E+002	5.6507462E-001	-1.4824058E+000	0
3.9022048E+000	1.361389967559808E+002	-1.4845099E+000	-3.804285213076882E+002	5.6474990E-001	-1.4844058E+000	0
3.8702919E+000	1.363389967509283E+002	-1.4865249E+000	-3.840859953973290E+002	5.7095343E-001	-1.4864057E+000	0
3.8637455E+000	1.365389967458759E+002	-1.4884647E+000	-3.852388135862457E+002	5.7341439E-001	-1.4884057E+000	0
3.8597610E+000	1.367389967408235E+002	-1.4904900E+000	-3.861611935708523E+002	5.7556939E-001	-1.4904058E+000	0
3.7427509E+000	1.369389967357711E+002	-1.4925736E+000	-3.987905400399450E+002	5.9522426E-001	-1.4924059E+000	0
3.7029686E+000	1.371389967307186E+002	-1.4945641E+000	-4.036124099203807E+002	6.0322458E-001	-1.4944057E+000	0
3.6955278E+000	1.373389967256662E+002	-1.4965378E+000	-4.049591432342195E+002	6.0603666E-001	-1.4964057E+000	0
3.6874416E+000	1.375389967206138E+002	-1.4985163E+000	-4.063837394195352E+002	6.0897267E-001	-1.4984058E+000	0
3.7108898E+000	1.377389967155614E+002	-1.5005456E+000	-4.043627437799150E+002	6.0676473E-001	-1.5004058E+000	0
3.7226005E+000	1.379389967105089E+002	-1.5025523E+000	-4.036297528835657E+002	6.0647482E-001	-1.5024059E+000	0
3.6749547E+000	1.381389967054565E+002	-1.5045580E+000	-4.094085814287882E+002	6.1597896E-001	-1.5044059E+000	0
3.5647256E+000	1.383389967004041E+002	-1.5066011E+000	-4.226415401078128E+002	6.3675219E-001	-1.5064057E+000	0
3.4706724E+000	1.385389966953517E+002	-1.5085235E+000	-4.346487713206100E+002	6.5567786E-001	-1.5084058E+000	0
3.4105129E+000	1.387389966902992E+002	-1.5105520E+000	-4.429105339309790E+002	6.6903943E-001	-1.5104058E+000	0
3.4603546E+000	1.389389966852468E+002	-1.5125804E+000	-4.371171723925891E+002	6.6117489E-001	-1.5124059E+000	0
3.4670999E+000	1.391389966801944E+002	-1.5145191E+000	-4.368259045261379E+002	6.6158116E-001	-1.5144058E+000	0
3.4462304E+000	1.393389966751420E+002	-1.5165113E+000	-4.400493001310715E+002	6.6733974E-001	-1.5164058E+000	0
3.4164948E+000	1.395389966700895E+002	-1.5185220E+000	-4.444678289668618E+002	6.7493421E-001	-1.5184058E+000	0
3.3727777E+000	1.397389966650371E+002	-1.5205313E+000	-4.508246263646724E+002	6.8549293E-001	-1.5204059E+000	0
3.4291532E+000	1.399389966599847E+002	-1.5225203E+000	-4.439930894120771E+002	6.7598850E-001	-1.5224057E+000	0
3.4598725E+000	1.401389966549323E+002	-1.5244941E+000	-4.406214696620318E+002	6.7172480E-001	-1.5244058E+000	0
3.4874768E+000	1.403389966498798E+002	-1.5265177E+000	-4.377140777657096E+002	6.6817832E-001	-1.5264057E+000	0
3.4130034E+000	1.405389966448274E+002	-1.5285492E+000	-4.478604413160112E+002	6.8457669E-001	-1.5284058E+000	0
3.3382106E+000	1.407389966397750E+002	-1.5305321E+000	-4.584887817279014E+002	7.0173180E-001	-1.5304059E+000	0
3.2550287E+000	1.409389966347226E+002	-1.5327671E+000	-4.708920125680179E+002	7.2176778E-001	-1.5324060E+000	0
3.2500763E+000	1.411389966296701E+002	-1.5350995E+000	-4.723272242340627E+002	7.2506928E-001	-1.5344058E+000	0
3.2761159E+000	1.413389966246177E+002	-1.5370663E+000	-4.691733820000482E+002	7.2115064E-001	-1.5364057E+000	0
3.2816927E+000	1.415389966195653E+002	-1.5390922E+000	-4.689933731831652E+002	7.2182405E-001	-1.5384058E+000	0
3.3202391E+000	1.417389966145129E+002	-1.5410284E+000	-4.641317652661273E+002	7.1524024E-001	-1.5404059E+000	0
3.3236637E+000	1.419389966094604E+002	-1.5430574E+000	-4.642640186577974E+002	7.1638602E-001	-1.5424057E+000	0
3.2887738E+000	1.421389966044080E+002	-1.5450840E+000	-4.698054922108213E+002	7.2588897E-001	-1.5444058E+000	0
3.3309345E+000	1.423389965993556E+002	-1.5470611E+000	-4.644525725306296E+002	7.1853650E-001	-1.5464057E+000	0
3.2876947E+000	1.425389965943032E+002	-1.5490465E+000	-4.711649604935783E+002	7.2985643E-001	-1.5484058E+000	0
3.2708061E+000	1.427389965892507E+002	-1.5510389E+000	-4.742069132668635E+002	7.3551333E-001	-1.5504059E+000	0
3.2478769E+000	1.429389965841983E+002	-1.5530224E+000	-4.781653942532012E+002	7.4260157E-001	-1.5524057E+000	0
3.1962748E+000	1.431389965791459E+002	-1.5550700E+000	-4.865257688120091E+002	7.5658166E-001	-1.5544058E+000	0
3.2037716E+000	1.433389965740935E+002	-1.5570585E+000	-4.860079477314521E+002	7.5674278E-001	-1.5564058E+000	0
3.1797726E+000	1.435389965690410E+002	-1.5590419E+000	-4.902997883431199E+002	7.6439792E-001	-1.5584058E+000	0
3.0391111E+000	1.437389965639886E+002	-1.5610914E+000	-5.136670957249553E+002	8.0188131E-001	-1.5604059E+000	0
3.0207257E+000	1.439389965589362E+002	-1.5631630E+000	-5.174793204396201E+002	8.0890453E-001	-1.5624057E+000	0
3.0269797E+000	1.441389965538838E+002	-1.5651159E+000	-5.170553082014139E+002	8.0925149E-001	-1.5644058E+000	0
3.0109582E+000	1.443389965488313E+002	-1.5671085E+000	-5.204683724617453E+002	8.1563044E-001	-1.5664058E+000	0
3.0126891E+000	1.445389965437789E+002	-1.5690953E+000	-5.208288174324298E+002	8.1723005E-001	-1.5684057E+000	0
3.0541718E+000	1.447389965387265E+002	-1.5711211E+000	-5.144180465101381E+002	8.0821306E-001	-1.5704058E+000	0
3.0571930E+000	1.449389965336741E+002	-1.5731314E+000	-5.145672592586933E+002	8.0948192E-001	-1.5724059E+000	0
3.0245717E+000	1.451389965286216E+002	-1.5750853E+000	-5.207630745807746E+002	8.2024628E-001	-1.5744058E+000	0
3.0030332E+000	1.453389965235692E+002	-1.5771110E+000	-5.251726879586986E+002	8.2825565E-001	-1.5764058E+000	0
2.9086440E+000	1.455389965185168E+002	-1.5791107E+000	-5.429027309763715E+002	8.5730356E-001	-1.5784059E+000	0
2.9187906E+000	1.457389965134644E+002	-1.5811151E+000	-5.417021544579738E+002	8.5649347E-001	-1.5804058E+000	0
2.9137712E+000	1.459389965084119E+002	-1.5831470E+000	-5.433326851808033E+002	8.6017555E-001	-1.5824059E+000	0
2.8894472E+000	1.461389965033595E+002	-1.5851208E+000	-5.485896572839622E+002	8.6958086E-001	-1.5844060E+000	0
2.9034774E+000	1.463389964983071E+002	-1.5871733E+000	-5.466456752699232E+002	8.6762142E-001	-1.5864059E+000	0
2.8694263E+000	1.465389964932547E+002	-1.5890996E+000	-5.538039459738875E+002	8.8004965E-001	-1.5884058E+000	0
2.8453462E+000	1.467389964882022E+002	-1.5911469E+000	-5.592103110159878E+002	8.8978577E-001	-1.5904058E+000	0
2.8501060E+000	1.469389964831498E+002	-1.5931287E+000	-5.589717380930267E+002	8.9051390E-001	-1.5924059E+000	0
2.8422513E+000	1.471389964780974E+002	-1.5951610E+000	-5.612314933897933E+002	8.9525455E-001	-1.5944059E+000	0
2.8609169E+000	1.473289964732976E+002	-1.5970292E+000	-5.582228793173417E+002	8.9149827E-001	-1.5963057E+000	0
2.8667755E+000	1.474191964710190E+002	-1.5980647E+000	-5.574432396982231E+002	8.9083034E-001	-1.5973055E+000	1