EC-Lab ASCII FILE
Nb header lines : 63                          

Linear Sweep Voltammetry

Run on channel : 1 (SN 1340)
User : 
Electrode connection : standard
Potential control : Ewe
Ewe ctrl range : min = -5.00 V, max = 5.00 V
Ewe,I filtering : <None>
Safety Limits :
	Do not start on E overload
Channel : Grounded
Acquisition started on : 02/11/2026 19:17:09.827
Technique started on : 02/11/2026 19:17:12.665
Loaded Setting File :  NONE
Saved on :
	File : PtPdCoNiCr_2_11_polished_02_LSV_C01.mpr
	Directory : C:\Users\volt\Documents\Platalytix\
	Host : 127.0.0.1
Device : SP-200 (SN 0262)
Address : USB
EC-LAB for windows v11.60 (software)
Internet server v11.60 (firmware)
Command interpretor v11.60 (firmware)
Electrode material : PtPdCoNiCr
Initial state : 
Electrolyte : KOH (1M)
Comments : polished
Cable : standard
Reference electrode : Hg/HgO (0.140 V)
Electrode surface area : 1.000 cm˛
Characteristic mass : 0.001 g
Equivalent Weight : 0.000 g/eq.
Density : 0.000 g/cm3
Volume (V) : 0.001 cmł
Cycle Definition : Charge/Discharge alternance
tR (h:m:s)          0:00:5.0000         
dER/dt (mV/h)       0.0                 
dER (mV)            0                   
dtR (s)             0.0000              
dE/dt               10.000              
dE/dt unit          mV/s                
Ei (V)              -0.200              
vs.                 Ref                 
EL (V)              -2.500              
vs.                 Ref                 
record              <I>                 
dI                  0.000               
unit dI             µA                  
tI (s)              0.0000              
step percent        50                  
N                   10                  
E range min (V)     -5.000              
E range max (V)     5.000               
I Range             Auto                
I Range min         Unset               
I Range max         Unset               
I Range init        Unset               
Bandwidth           8                   

Rwe/Ohm	time/s	Ewe/V	<I>/mA	Pwe/W	control/V	error	
0.0000000E+000	2.838400134787662E+000	-1.6549048E-001	0.000000000000000E+000	0.0000000E+000	0.0000000E+000	0
0.0000000E+000	7.838200008482090E+000	-6.9101937E-002	0.000000000000000E+000	0.0000000E+000	-1.9996583E-001	0
1.2080232E+003	8.038200003429665E+000	-2.0168830E-001	1.669573080539699E-001	-3.3673336E-005	-2.0186561E-001	0
3.1502532E+003	8.158200000398210E+000	-2.0292619E-001	-6.441583508620863E-002	1.3071660E-005	-2.0306568E-001	0
2.2125625E+003	8.368199995093164E+000	-2.0499906E-001	-9.265232081113225E-002	1.8993638E-005	-2.0516565E-001	0
2.2339597E+003	8.568199990040739E+000	-2.0701784E-001	-9.266856377902105E-002	1.9184046E-005	-2.0716567E-001	0
2.2999446E+003	8.768199984988314E+000	-2.0901875E-001	-9.087990560777937E-002	1.8995604E-005	-2.0916568E-001	0
2.3724553E+003	8.968199979935889E+000	-2.1103817E-001	-8.895348249924062E-002	1.8772580E-005	-2.1116565E-001	0
2.4421680E+003	9.168199974883464E+000	-2.1300747E-001	-8.722064731211782E-002	1.8578648E-005	-2.1316569E-001	0
2.5127864E+003	9.368199969831039E+000	-2.1505190E-001	-8.558303894540567E-002	1.8404795E-005	-2.1516566E-001	0
2.5785217E+003	9.568199964778614E+000	-2.1701568E-001	-8.416282610868508E-002	1.8264653E-005	-2.1716565E-001	0
2.6438423E+003	9.768199959726189E+000	-2.1902595E-001	-8.284380343635006E-002	1.8144943E-005	-2.1916568E-001	0
2.7073596E+003	9.968199954673764E+000	-2.2104345E-001	-8.164540105267049E-002	1.8047182E-005	-2.2116566E-001	0
2.7695645E+003	1.016819994962134E+001	-2.2303653E-001	-8.053126379788411E-002	1.7961413E-005	-2.2316566E-001	0
2.8284333E+003	1.036819994456891E+001	-2.2501877E-001	-7.955597158016658E-002	1.7901586E-005	-2.2516567E-001	0
2.8890078E+003	1.056819993951649E+001	-2.2702415E-001	-7.858204784277251E-002	1.7840022E-005	-2.2716565E-001	0
2.9499790E+003	1.076819993446406E+001	-2.2900516E-001	-7.762941641969562E-002	1.7777536E-005	-2.2916566E-001	0
3.0102822E+003	1.096819992941164E+001	-2.3102793E-001	-7.674627193321593E-002	1.7730532E-005	-2.3116566E-001	0
3.0685435E+003	1.116819992435921E+001	-2.3301254E-001	-7.593587861246448E-002	1.7694012E-005	-2.3316567E-001	0
3.1286333E+003	1.136819991930679E+001	-2.3501664E-001	-7.511798802514047E-002	1.7653978E-005	-2.3516566E-001	0
3.1864670E+003	1.156819991425436E+001	-2.3703372E-001	-7.438762599650905E-002	1.7632376E-005	-2.3716567E-001	0
3.2480076E+003	1.176819990920194E+001	-2.3902574E-001	-7.359149522631725E-002	1.7590262E-005	-2.3916566E-001	0
3.3112070E+003	1.196819990414951E+001	-2.4105020E-001	-7.279828818707101E-002	1.7548042E-005	-2.4116565E-001	0
3.3691812E+003	1.216819989909709E+001	-2.4302523E-001	-7.213183618763086E-002	1.7529856E-005	-2.4316567E-001	0
3.4311443E+003	1.236819989404466E+001	-2.4499519E-001	-7.140334676518238E-002	1.7493476E-005	-2.4516568E-001	0
3.4908547E+003	1.256819988899224E+001	-2.4701586E-001	-7.076085325807754E-002	1.7479053E-005	-2.4716568E-001	0
3.5531289E+003	1.276819988393981E+001	-2.4900004E-001	-7.007909068085971E-002	1.7449696E-005	-2.4916567E-001	0
3.6167444E+003	1.296819987888739E+001	-2.5104615E-001	-6.941218857596421E-002	1.7425662E-005	-2.5116566E-001	0
3.6816921E+003	1.316819987383496E+001	-2.5304243E-001	-6.872992474446371E-002	1.7391587E-005	-2.5316566E-001	0
3.7423071E+003	1.336819986878254E+001	-2.5501215E-001	-6.814303158364293E-002	1.7377301E-005	-2.5516567E-001	0
3.8069243E+003	1.356819986373011E+001	-2.5700438E-001	-6.750971762159319E-002	1.7350294E-005	-2.5716564E-001	0
3.8704114E+003	1.376819985867769E+001	-2.5902739E-001	-6.692502675514650E-002	1.7335415E-005	-2.5916564E-001	0
3.9350525E+003	1.396819985362527E+001	-2.6102152E-001	-6.633241263338596E-002	1.7314187E-005	-2.6116568E-001	0
4.0017881E+003	1.416819984857284E+001	-2.6300168E-001	-6.572104090151021E-002	1.7284745E-005	-2.6316568E-001	0
4.0653499E+003	1.436819984352042E+001	-2.6502934E-001	-6.519225988190731E-002	1.7277862E-005	-2.6516569E-001	0
4.1352573E+003	1.456819983846799E+001	-2.6706359E-001	-6.458209303699747E-002	1.7247525E-005	-2.6716566E-001	0
4.1979756E+003	1.476819983341557E+001	-2.6905879E-001	-6.409250732190275E-002	1.7244653E-005	-2.6916566E-001	0
4.2657422E+003	1.496819982836314E+001	-2.7103573E-001	-6.353776755768081E-002	1.7221006E-005	-2.7116567E-001	0
4.3316475E+003	1.516819982331072E+001	-2.7298000E-001	-6.301990328430529E-002	1.7203174E-005	-2.7316567E-001	0
4.4037695E+003	1.536819981825829E+001	-2.7501488E-001	-6.244987892958409E-002	1.7174645E-005	-2.7516565E-001	0
4.4725234E+003	1.556819981320587E+001	-2.7700481E-001	-6.193478994468515E-002	1.7156235E-005	-2.7716565E-001	0
4.5428145E+003	1.576819980815344E+001	-2.7901420E-001	-6.141879632351022E-002	1.7136716E-005	-2.7916566E-001	0
4.6096382E+003	1.596819980310102E+001	-2.8100514E-001	-6.096034399825045E-002	1.7130171E-005	-2.8116566E-001	0
4.6822871E+003	1.616819979804859E+001	-2.8300884E-001	-6.044243767967394E-002	1.7105744E-005	-2.8316566E-001	0
4.7471128E+003	1.636819979299617E+001	-2.8500679E-001	-6.003792316688739E-002	1.7111215E-005	-2.8516567E-001	0
4.8218574E+003	1.656819978794374E+001	-2.8698951E-001	-5.951845917381871E-002	1.7081173E-005	-2.8716564E-001	0
4.8932993E+003	1.676819978289132E+001	-2.8899214E-001	-5.905874992737681E-002	1.7067514E-005	-2.8916568E-001	0
4.9638687E+003	1.696819977783889E+001	-2.9098797E-001	-5.862120667033222E-002	1.7058066E-005	-2.9116568E-001	0
5.0348599E+003	1.716819977278647E+001	-2.9300627E-001	-5.819551455957261E-002	1.7051651E-005	-2.9316565E-001	0
5.1063965E+003	1.736819976773404E+001	-2.9500425E-001	-5.777151116471961E-002	1.7042841E-005	-2.9516566E-001	0
5.1779121E+003	1.756819976268162E+001	-2.9703489E-001	-5.736576497677282E-002	1.7039634E-005	-2.9716566E-001	0
5.2482412E+003	1.776819975762919E+001	-2.9898679E-001	-5.696894973094101E-002	1.7032964E-005	-2.9916567E-001	0
5.3245347E+003	1.796819975257677E+001	-3.0098477E-001	-5.652790176185873E-002	1.7014037E-005	-3.0116567E-001	0
5.3945908E+003	1.816819974752434E+001	-3.0300605E-001	-5.616849363631582E-002	1.7019394E-005	-3.0316567E-001	0
5.4690898E+003	1.836819974247192E+001	-3.0500168E-001	-5.576826718238809E-002	1.7009415E-005	-3.0516568E-001	0
5.5441968E+003	1.856819973741949E+001	-3.0703551E-001	-5.537961918940948E-002	1.7003509E-005	-3.0716565E-001	0
5.6094741E+003	1.876819973236707E+001	-3.0902752E-001	-5.509028294125828E-002	1.7024413E-005	-3.0916569E-001	0
5.6847090E+003	1.896819972731464E+001	-3.1102040E-001	-5.471175594430616E-002	1.7016473E-005	-3.1116566E-001	0
5.7618208E+003	1.916819972226222E+001	-3.1301644E-001	-5.432595923234640E-002	1.7004919E-005	-3.1316566E-001	0
5.8374077E+003	1.936819971720979E+001	-3.1503010E-001	-5.396746609480352E-002	1.7001375E-005	-3.1516570E-001	0
5.9042251E+003	1.956819971215737E+001	-3.1698582E-001	-5.368796142785359E-002	1.7018323E-005	-3.1716567E-001	0
5.9780596E+003	1.976819970710494E+001	-3.1901962E-001	-5.336507735879512E-002	1.7024506E-005	-3.1916568E-001	0
6.0428794E+003	1.996819970205252E+001	-3.2099721E-001	-5.311991101502545E-002	1.7051343E-005	-3.2116568E-001	0
6.1200713E+003	2.016819969700009E+001	-3.2299030E-001	-5.277557772068975E-002	1.7045999E-005	-3.2316568E-001	0
6.1937959E+003	2.036819969194767E+001	-3.2502940E-001	-5.247661001587500E-002	1.7056442E-005	-3.2516569E-001	0
6.2648389E+003	2.056819968689524E+001	-3.2703799E-001	-5.220213915958424E-002	1.7072083E-005	-3.2716566E-001	0
6.3362935E+003	2.076819968184282E+001	-3.2902941E-001	-5.192774028016811E-002	1.7085753E-005	-3.2916567E-001	0
6.4058374E+003	2.096819967679039E+001	-3.3100864E-001	-5.167297079004007E-002	1.7104199E-005	-3.3116567E-001	0
6.4721816E+003	2.116819967173797E+001	-3.3298519E-001	-5.144867928943619E-002	1.7131648E-005	-3.3316565E-001	0
6.5426982E+003	2.136819966668554E+001	-3.3502665E-001	-5.120619119180880E-002	1.7155438E-005	-3.3516565E-001	0
6.6111128E+003	2.156819966163312E+001	-3.3700553E-001	-5.097561131353978E-002	1.7179063E-005	-3.3716565E-001	0
6.6795278E+003	2.176819965658069E+001	-3.3902875E-001	-5.075639568357976E-002	1.7207878E-005	-3.3916566E-001	0
6.7405347E+003	2.196819965152827E+001	-3.4102392E-001	-5.059300723713726E-002	1.7253426E-005	-3.4116566E-001	0
6.8078711E+003	2.216819964647584E+001	-3.4303334E-001	-5.038775707005816E-002	1.7284681E-005	-3.4316567E-001	0
6.8681919E+003	2.236819964142342E+001	-3.4501877E-001	-5.023429525885180E-002	1.7331775E-005	-3.4516570E-001	0
6.9379312E+003	2.256819963637099E+001	-3.4701931E-001	-5.001769365442899E-002	1.7357106E-005	-3.4716564E-001	0
7.0022397E+003	2.276819963131857E+001	-3.4904319E-001	-4.984736336868179E-002	1.7398883E-005	-3.4916571E-001	0
7.0608066E+003	2.296819962626614E+001	-3.5104236E-001	-4.971703366891767E-002	1.7452785E-005	-3.5116568E-001	0
7.1269707E+003	2.316819962121372E+001	-3.5300916E-001	-4.953144599373160E-002	1.7485054E-005	-3.5316566E-001	0
7.1858579E+003	2.336819961616129E+001	-3.5504043E-001	-4.940821865125800E-002	1.7541915E-005	-3.5516569E-001	0
7.2417373E+003	2.356819961110887E+001	-3.5701460E-001	-4.929957830646975E-002	1.7600669E-005	-3.5716566E-001	0
7.3016318E+003	2.376819960605644E+001	-3.5901728E-001	-4.916945704556741E-002	1.7652685E-005	-3.5916567E-001	0
7.3599478E+003	2.396819960100402E+001	-3.6102352E-001	-4.905245701313588E-002	1.7709090E-005	-3.6116567E-001	0
7.4227100E+003	2.416819959595159E+001	-3.6300191E-001	-4.890423070147309E-002	1.7752329E-005	-3.6316568E-001	0
7.4724277E+003	2.436819959089917E+001	-3.6499330E-001	-4.884534394035916E-002	1.7828224E-005	-3.6516568E-001	0
7.5276680E+003	2.456819958584674E+001	-3.6701480E-001	-4.875544436242174E-002	1.7893970E-005	-3.6716568E-001	0
7.5776011E+003	2.476819958079432E+001	-3.6903760E-001	-4.870111141126837E-002	1.7972541E-005	-3.6916566E-001	0
7.6282852E+003	2.496819957574189E+001	-3.7099990E-001	-4.863477257754045E-002	1.8043496E-005	-3.7116563E-001	0
7.6884453E+003	2.516819957068947E+001	-3.7300444E-001	-4.851493739355117E-002	1.8096287E-005	-3.7316567E-001	0
7.7313076E+003	2.536819956563704E+001	-3.7500262E-001	-4.850442308637962E-002	1.8189286E-005	-3.7516570E-001	0
7.7872046E+003	2.556819956058462E+001	-3.7700930E-001	-4.841394473000316E-002	1.8252507E-005	-3.7716568E-001	0
7.8354370E+003	2.576819955553219E+001	-3.7902993E-001	-4.837380920519907E-002	1.8335122E-005	-3.7916568E-001	0
7.8876558E+003	2.596819955047977E+001	-3.8098547E-001	-4.830148170782400E-002	1.8402163E-005	-3.8116568E-001	0
7.9339976E+003	2.616819954542734E+001	-3.8299021E-001	-4.827203659885598E-002	1.8487717E-005	-3.8316569E-001	0
7.9743384E+003	2.636819954037492E+001	-3.8496757E-001	-4.827580064120185E-002	1.8584617E-005	-3.8516566E-001	0
8.0178975E+003	2.656819953532249E+001	-3.8703302E-001	-4.827113619576862E-002	1.8682524E-005	-3.8716570E-001	0
8.0620425E+003	2.676819953027007E+001	-3.8896543E-001	-4.824651247381440E-002	1.8766226E-005	-3.8916567E-001	0
8.1073320E+003	2.696819952521764E+001	-3.9098713E-001	-4.822636303378913E-002	1.8855888E-005	-3.9116570E-001	0
8.1501396E+003	2.716819952016522E+001	-3.9299747E-001	-4.821972339730851E-002	1.8950230E-005	-3.9316574E-001	0
8.1914092E+003	2.736819951511279E+001	-3.9500308E-001	-4.822162731102919E-002	1.9047691E-005	-3.9516571E-001	0
8.2328281E+003	2.756819951006037E+001	-3.9701137E-001	-4.822296438534890E-002	1.9145065E-005	-3.9716569E-001	0
8.2751123E+003	2.776819950500794E+001	-3.9897177E-001	-4.821345693608159E-002	1.9235807E-005	-3.9916572E-001	0
8.3099902E+003	2.796819949995552E+001	-4.0101963E-001	-4.825753481533845E-002	1.9352219E-005	-4.0116569E-001	0
8.3505859E+003	2.816819949490309E+001	-4.0302736E-001	-4.826336454408975E-002	1.9451456E-005	-4.0316570E-001	0
8.3855508E+003	2.836819948985067E+001	-4.0502509E-001	-4.830035627075163E-002	1.9562856E-005	-4.0516570E-001	0
8.4177393E+003	2.856819948479824E+001	-4.0699694E-001	-4.834990790868821E-002	1.9678264E-005	-4.0716571E-001	0
8.4608721E+003	2.876819947974582E+001	-4.0901485E-001	-4.834192365042622E-002	1.9772564E-005	-4.0916568E-001	0
8.4942988E+003	2.896819947469339E+001	-4.1100112E-001	-4.838552788510292E-002	1.9886505E-005	-4.1116565E-001	0
8.5119941E+003	2.916819946964097E+001	-4.1302985E-001	-4.852327711979460E-002	2.0041562E-005	-4.1316569E-001	0
8.5482383E+003	2.936819946458854E+001	-4.1504398E-001	-4.855316193365711E-002	2.0151698E-005	-4.1516572E-001	0
8.5717432E+003	2.956819945953612E+001	-4.1703278E-001	-4.865204037933735E-002	2.0289495E-005	-4.1716570E-001	0
8.6088213E+003	2.976819945448369E+001	-4.1903624E-001	-4.867521467430691E-002	2.0396679E-005	-4.1916567E-001	0
8.6311572E+003	2.996819944943127E+001	-4.2103997E-001	-4.878140388657470E-002	2.0538921E-005	-4.2116570E-001	0
8.6642354E+003	3.016819944437884E+001	-4.2305854E-001	-4.882814539775937E-002	2.0657164E-005	-4.2316565E-001	0
8.6861670E+003	3.036819943932642E+001	-4.2502779E-001	-4.893157085247535E-002	2.0797277E-005	-4.2516568E-001	0
8.7193311E+003	3.056819943427399E+001	-4.2710707E-001	-4.898392523653694E-002	2.0921381E-005	-4.2716572E-001	0
8.7392490E+003	3.076819942922157E+001	-4.2907339E-001	-4.909728337586161E-002	2.1066338E-005	-4.2916572E-001	0
8.7631865E+003	3.096819942416914E+001	-4.3105289E-001	-4.918905827924280E-002	2.1203086E-005	-4.3116567E-001	0
8.7908633E+003	3.116819941911672E+001	-4.3307590E-001	-4.926432028535321E-002	2.1335190E-005	-4.3316570E-001	0
8.8103145E+003	3.136819941406429E+001	-4.3504390E-001	-4.937892768303944E-002	2.1482001E-005	-4.3516573E-001	0
8.8252275E+003	3.156819940901187E+001	-4.3705034E-001	-4.952284095908110E-002	2.1643975E-005	-4.3716568E-001	0
8.8438301E+003	3.176819940395944E+001	-4.3907359E-001	-4.964745050990943E-002	2.1798884E-005	-4.3916568E-001	0
8.8675459E+003	3.196819939890702E+001	-4.4107598E-001	-4.974047805429732E-002	2.1939330E-005	-4.4116572E-001	0
8.8790137E+003	3.216819939385459E+001	-4.4304296E-001	-4.989776646669819E-002	2.2106855E-005	-4.4316566E-001	0
8.9017109E+003	3.236819938880217E+001	-4.4502628E-001	-4.999334381179457E-002	2.2248352E-005	-4.4516569E-001	0
8.9237588E+003	3.256819938374974E+001	-4.4704488E-001	-5.009602798020174E-002	2.2395172E-005	-4.4716570E-001	0
8.9325977E+003	3.276819937869732E+001	-4.4906893E-001	-5.027304942373287E-002	2.2576065E-005	-4.4916573E-001	0
8.9542881E+003	3.296819937364489E+001	-4.5105249E-001	-5.037279263753325E-002	2.2720773E-005	-4.5116568E-001	0
8.9628154E+003	3.316819936859247E+001	-4.5305526E-001	-5.054832166198070E-002	2.2901184E-005	-4.5316571E-001	0
8.9844316E+003	3.336819936354004E+001	-4.5507169E-001	-5.065113618123057E-002	2.3049897E-005	-4.5516574E-001	0
8.9972041E+003	3.356819935848762E+001	-4.5704377E-001	-5.079842004038046E-002	2.3217101E-005	-4.5716569E-001	0
9.0080342E+003	3.376819935343519E+001	-4.5902345E-001	-5.095711712410801E-002	2.3390512E-005	-4.5916569E-001	0
9.0227422E+003	3.396819934838277E+001	-4.6106812E-001	-5.110066402238928E-002	2.3560888E-005	-4.6116570E-001	0
9.0393232E+003	3.416819934333034E+001	-4.6304041E-001	-5.122512183204939E-002	2.3719302E-005	-4.6316570E-001	0
9.0496377E+003	3.436819933827792E+001	-4.6502584E-001	-5.138612791363695E-002	2.3895878E-005	-4.6516570E-001	0
9.0644268E+003	3.456819933322549E+001	-4.6707350E-001	-5.152818704416728E-002	2.4067451E-005	-4.6716571E-001	0
9.0764961E+003	3.476819932817307E+001	-4.6903875E-001	-5.167619279710378E-002	2.4238137E-005	-4.6916571E-001	0
9.0876025E+003	3.496819932312064E+001	-4.7104368E-001	-5.183365791318084E-002	2.4415916E-005	-4.7116569E-001	0
9.1001357E+003	3.516819931806822E+001	-4.7305098E-001	-5.198284876300563E-002	2.4590538E-005	-4.7316566E-001	0
9.1133809E+003	3.536819931301579E+001	-4.7503689E-001	-5.212521093449790E-002	2.4761399E-005	-4.7516569E-001	0
9.1228086E+003	3.556819930796337E+001	-4.7705284E-001	-5.229232359261493E-002	2.4946201E-005	-4.7716573E-001	0
9.1318311E+003	3.576819930291094E+001	-4.7903511E-001	-5.245772790577680E-002	2.5129093E-005	-4.7916567E-001	0
9.1470752E+003	3.596819929785852E+001	-4.8104727E-001	-5.259028240318187E-002	2.5298412E-005	-4.8116571E-001	0
9.1525537E+003	3.616819929280609E+001	-4.8301935E-001	-5.277426846646410E-002	2.5490994E-005	-4.8316571E-001	0
9.1663809E+003	3.636819928775367E+001	-4.8501480E-001	-5.291235687943940E-002	2.5663276E-005	-4.8516566E-001	0
9.1831055E+003	3.656819928270124E+001	-4.8704883E-001	-5.303748495203098E-002	2.5831845E-005	-4.8716569E-001	0
9.1822959E+003	3.676819927764882E+001	-4.8905590E-001	-5.326074225217714E-002	2.6047481E-005	-4.8916572E-001	0
9.1922461E+003	3.696819927259639E+001	-4.9104369E-001	-5.341933869287940E-002	2.6231230E-005	-4.9116570E-001	0
9.2130459E+003	3.716819926754397E+001	-4.9300766E-001	-5.351190662271259E-002	2.6381780E-005	-4.9316567E-001	0
9.2142559E+003	3.736819926249154E+001	-4.9502113E-001	-5.372339620280298E-002	2.6594216E-005	-4.9516571E-001	0
9.2370225E+003	3.756819925743912E+001	-4.9703565E-001	-5.380907515275069E-002	2.6745029E-005	-4.9716574E-001	0
9.2514736E+003	3.776819925238669E+001	-4.9906522E-001	-5.394440566299391E-002	2.6921776E-005	-4.9916568E-001	0
9.2675537E+003	3.796819924733427E+001	-5.0102264E-001	-5.406201430100133E-002	2.7086293E-005	-5.0116569E-001	0
9.2698896E+003	3.816819924228184E+001	-5.0302231E-001	-5.426411087626848E-002	2.7296059E-005	-5.0316572E-001	0
9.2839189E+003	3.836819923722942E+001	-5.0505739E-001	-5.440131203607230E-002	2.7475784E-005	-5.0516570E-001	0
9.2981338E+003	3.856819923217699E+001	-5.0700402E-001	-5.452750405547979E-002	2.7645663E-005	-5.0716567E-001	0
9.3175498E+003	3.876819922712457E+001	-5.0904989E-001	-5.463345120016849E-002	2.7811153E-005	-5.0916576E-001	0
9.3362061E+003	3.896819922207214E+001	-5.1106721E-001	-5.474035235020491E-002	2.7975999E-005	-5.1116568E-001	0
9.3446328E+003	3.916819921701972E+001	-5.1303589E-001	-5.490166366643059E-002	2.8166523E-005	-5.1316565E-001	0
9.3615254E+003	3.936819921196729E+001	-5.1506126E-001	-5.501894626603829E-002	2.8338127E-005	-5.1516575E-001	0
9.3715010E+003	3.956819920691487E+001	-5.1701844E-001	-5.516922537262731E-002	2.8523507E-005	-5.1716572E-001	0
9.3963828E+003	3.976819920186244E+001	-5.1905602E-001	-5.523998488655169E-002	2.8672646E-005	-5.1916569E-001	0
9.3994795E+003	3.996819919681002E+001	-5.2102345E-001	-5.543109591439999E-002	2.8880901E-005	-5.2116567E-001	0
9.4253457E+003	4.016819919175759E+001	-5.2307600E-001	-5.549674380154623E-002	2.9029015E-005	-5.2316570E-001	0
9.4448643E+003	4.036819918670517E+001	-5.2505654E-001	-5.559174893603414E-002	2.9188812E-005	-5.2516574E-001	0
9.4541914E+003	4.056819918165274E+001	-5.2706599E-001	-5.574945041111545E-002	2.9383640E-005	-5.2716565E-001	0
9.4772383E+003	4.076819917660032E+001	-5.2903891E-001	-5.582205481487257E-002	2.9532039E-005	-5.2916569E-001	0
9.5014502E+003	4.096819917154789E+001	-5.3104770E-001	-5.589122701934689E-002	2.9680908E-005	-5.3116572E-001	0
9.5221670E+003	4.116819916649547E+001	-5.3304946E-001	-5.597984572226289E-002	2.9840026E-005	-5.3316569E-001	0
9.5358281E+003	4.136819916144304E+001	-5.3504485E-001	-5.610890307172254E-002	3.0020779E-005	-5.3516573E-001	0
9.5560010E+003	4.156819915639062E+001	-5.3705680E-001	-5.620100126282879E-002	3.0183130E-005	-5.3716570E-001	0
9.5867119E+003	4.176819915133819E+001	-5.3909171E-001	-5.623322011493209E-002	3.0314863E-005	-5.3916574E-001	0
9.5982236E+003	4.196819914628577E+001	-5.4110289E-001	-5.637531410775998E-002	3.0504845E-005	-5.4116571E-001	0
9.6169570E+003	4.216819914123334E+001	-5.4305983E-001	-5.646898837278591E-002	3.0666040E-005	-5.4316568E-001	0
9.6477207E+003	4.236819913618092E+001	-5.4509902E-001	-5.650029149668845E-002	3.0798252E-005	-5.4516572E-001	0
9.6639023E+003	4.256819913112849E+001	-5.4706633E-001	-5.660925667770955E-002	3.0969019E-005	-5.4716563E-001	0
9.6902529E+003	4.276819912607607E+001	-5.4908973E-001	-5.666412600493520E-002	3.1113690E-005	-5.4916573E-001	0
9.7104844E+003	4.296819912102364E+001	-5.5103219E-001	-5.674610655678790E-002	3.1268930E-005	-5.5116576E-001	0
9.7353525E+003	4.316819911597122E+001	-5.5303860E-001	-5.680725145018561E-002	3.1416603E-005	-5.5316573E-001	0
9.7623936E+003	4.336819911091879E+001	-5.5505717E-001	-5.685666879182855E-002	3.1558702E-005	-5.5516571E-001	0
9.7932578E+003	4.356819910586637E+001	-5.5705190E-001	-5.688116135014432E-002	3.1685759E-005	-5.5716568E-001	0
9.8130684E+003	4.376819910081394E+001	-5.5904686E-001	-5.696962953148144E-002	3.1848693E-005	-5.5916578E-001	0
9.8442246E+003	4.396819909576152E+001	-5.6101435E-001	-5.698918911064541E-002	3.1971755E-005	-5.6116563E-001	0
9.8713535E+003	4.416819909070909E+001	-5.6307042E-001	-5.704085246391621E-002	3.2118016E-005	-5.6316566E-001	0
9.8962061E+003	4.436819908565667E+001	-5.6504202E-001	-5.709683054492154E-002	3.2262109E-005	-5.6516576E-001	0
9.9172002E+003	4.456819908060425E+001	-5.6706780E-001	-5.718023143814310E-002	3.2425069E-005	-5.6716567E-001	0
9.9518867E+003	4.476819907555182E+001	-5.6903416E-001	-5.717852273628599E-002	3.2536533E-005	-5.6916571E-001	0
9.9825781E+003	4.496819907049940E+001	-5.7102495E-001	-5.720215147760310E-002	3.2663855E-005	-5.7116568E-001	0
1.0009224E+004	4.516819906544697E+001	-5.7305789E-001	-5.725297830416021E-002	3.2809272E-005	-5.7316577E-001	0
1.0034241E+004	4.536819906039455E+001	-5.7502717E-001	-5.730649032693386E-002	3.2952790E-005	-5.7516569E-001	0
1.0068979E+004	4.556819905534212E+001	-5.7704610E-001	-5.730929845033872E-002	3.3070108E-005	-5.7716572E-001	0
1.0095010E+004	4.576819905028970E+001	-5.7905275E-001	-5.736029350257954E-002	3.3214634E-005	-5.7916576E-001	0
1.0135891E+004	4.596819904523727E+001	-5.8105415E-001	-5.732640095504904E-002	3.3309745E-005	-5.8116567E-001	0
1.0160609E+004	4.616819904018485E+001	-5.8305806E-001	-5.738416125167900E-002	3.3458298E-005	-5.8316571E-001	0
1.0189431E+004	4.636819903513242E+001	-5.8505344E-001	-5.741767619067059E-002	3.3592409E-005	-5.8516574E-001	0
1.0216088E+004	4.656819903008000E+001	-5.8705169E-001	-5.746345211859454E-002	3.3734017E-005	-5.8716571E-001	0
1.0245857E+004	4.676819902502757E+001	-5.8901906E-001	-5.748850701623875E-002	3.3861827E-005	-5.8916569E-001	0
1.0284214E+004	4.696819901997515E+001	-5.9103274E-001	-5.746989785545781E-002	3.3966593E-005	-5.9116572E-001	0
1.0310301E+004	4.716819901492272E+001	-5.9303981E-001	-5.751915930246571E-002	3.4111152E-005	-5.9316576E-001	0
1.0337992E+004	4.736819900987030E+001	-5.9503359E-001	-5.755794566713901E-002	3.4248911E-005	-5.9516573E-001	0
1.0369505E+004	4.756819900481787E+001	-5.9705186E-001	-5.757766339110637E-002	3.4376852E-005	-5.9716564E-001	0
1.0401278E+004	4.776819899976545E+001	-5.9908080E-001	-5.759684595621484E-002	3.4505163E-005	-5.9916574E-001	0
1.0427726E+004	4.796819899471302E+001	-6.0105580E-001	-5.764016359379209E-002	3.4644956E-005	-6.0116565E-001	0
1.0458731E+004	4.816819898966060E+001	-6.0305107E-001	-5.766005819566248E-002	3.4771958E-005	-6.0316569E-001	0
1.0491918E+004	4.836819898460817E+001	-6.0506815E-001	-5.766992828314543E-002	3.4894238E-005	-6.0516572E-001	0
1.0521632E+004	4.856819897955575E+001	-6.0705203E-001	-5.769561327964312E-002	3.5024241E-005	-6.0716575E-001	0
1.0547661E+004	4.876819897450332E+001	-6.0905188E-001	-5.774283949591985E-002	3.5168385E-005	-6.0916567E-001	0
1.0576348E+004	4.896819896945090E+001	-6.1105728E-001	-5.777583352834942E-002	3.5304343E-005	-6.1116570E-001	0
1.0611156E+004	4.916819896439847E+001	-6.1306757E-001	-5.777575774646274E-002	3.5420442E-005	-6.1316574E-001	0
1.0633169E+004	4.936819895934605E+001	-6.1506170E-001	-5.784368671449391E-002	3.5577435E-005	-6.1516571E-001	0
1.0653836E+004	4.956819895429362E+001	-6.1705905E-001	-5.791895342262188E-002	3.5739413E-005	-6.1716568E-001	0
1.0692737E+004	4.976819894924120E+001	-6.1911571E-001	-5.790058221528643E-002	3.5847159E-005	-6.1916572E-001	0
1.0724792E+004	4.996819894418877E+001	-6.2107837E-001	-5.791052770505234E-002	3.5966976E-005	-6.2116575E-001	0
1.0747398E+004	5.016819893913635E+001	-6.2306076E-001	-5.797317025807081E-002	3.6120808E-005	-6.2316573E-001	0
1.0770586E+004	5.036819893408392E+001	-6.2506551E-001	-5.803449208744704E-002	3.6275360E-005	-6.2516570E-001	0
1.0796081E+004	5.056819892903150E+001	-6.2705266E-001	-5.808150797898615E-002	3.6420166E-005	-6.2716573E-001	0
1.0823869E+004	5.076819892397907E+001	-6.2903196E-001	-5.811526106360076E-002	3.6556357E-005	-6.2916571E-001	0
1.0854327E+004	5.096819891892665E+001	-6.3107735E-001	-5.814062586622304E-002	3.6691232E-005	-6.3116568E-001	0
1.0884983E+004	5.116819891387422E+001	-6.3304311E-001	-5.815747244570746E-002	3.6816185E-005	-6.3316572E-001	0
1.0911947E+004	5.136819890882180E+001	-6.3506657E-001	-5.819919826769038E-002	3.6960366E-005	-6.3516575E-001	0
1.0938783E+004	5.156819890376937E+001	-6.3705117E-001	-5.823784622642508E-002	3.7100486E-005	-6.3716567E-001	0
1.0957518E+004	5.176819889871695E+001	-6.3903362E-001	-5.831919628714953E-002	3.7267928E-005	-6.3916570E-001	0
1.0987187E+004	5.196819889366452E+001	-6.4103514E-001	-5.834388529434120E-002	3.7400481E-005	-6.4116579E-001	0
1.1007913E+004	5.216819888861210E+001	-6.4311182E-001	-5.842268315899934E-002	3.7572318E-005	-6.4316571E-001	0
1.1035443E+004	5.236819888355967E+001	-6.4506990E-001	-5.845437263605324E-002	3.7707156E-005	-6.4516568E-001	0
1.1062435E+004	5.256819887850725E+001	-6.4706451E-001	-5.849205460314888E-002	3.7848131E-005	-6.4716572E-001	0
1.1094758E+004	5.276819887345482E+001	-6.4905059E-001	-5.850065343162192E-002	3.7969883E-005	-6.4916575E-001	0
1.1109080E+004	5.296819886840240E+001	-6.5105301E-001	-5.860548229178530E-002	3.8155275E-005	-6.5116566E-001	0
1.1140345E+004	5.316819886334997E+001	-6.5309000E-001	-5.862386003844100E-002	3.8286656E-005	-6.5316570E-001	0
1.1162776E+004	5.336819885829755E+001	-6.5505803E-001	-5.868235571297253E-002	3.8440347E-005	-6.5516579E-001	0
1.1191831E+004	5.356819885324512E+001	-6.5706617E-001	-5.870944375379228E-002	3.8575989E-005	-6.5716565E-001	0
1.1207711E+004	5.376819884819270E+001	-6.5902036E-001	-5.880061961138128E-002	3.8750804E-005	-6.5916574E-001	0
1.1232627E+004	5.396819884314027E+001	-6.6109329E-001	-5.885473602818839E-002	3.8908471E-005	-6.6116571E-001	0
1.1257307E+004	5.416819883808785E+001	-6.6306919E-001	-5.890122596480696E-002	3.9055587E-005	-6.6316575E-001	0
1.1285135E+004	5.436819883303542E+001	-6.6506821E-001	-5.893312272026496E-002	3.9194547E-005	-6.6516566E-001	0
1.1304500E+004	5.456819882798300E+001	-6.6708738E-001	-5.901078052782860E-002	3.9365346E-005	-6.6716570E-001	0
1.1332742E+004	5.476819882293057E+001	-6.6904604E-001	-5.903655375182942E-002	3.9498173E-005	-6.6916579E-001	0
1.1349058E+004	5.496819881787815E+001	-6.7107528E-001	-5.913048523875220E-002	3.9681006E-005	-6.7116565E-001	0
1.1367284E+004	5.516819881282572E+001	-6.7304242E-001	-5.920872567464386E-002	3.9849983E-005	-6.7316568E-001	0
1.1400871E+004	5.536819880777330E+001	-6.7504823E-001	-5.921023249860574E-002	3.9969764E-005	-6.7516577E-001	0
1.1411229E+004	5.556819880272087E+001	-6.7706853E-001	-5.933352833394123E-002	4.0172865E-005	-6.7716569E-001	0
1.1432468E+004	5.576819879766845E+001	-6.7904288E-001	-5.939600225157875E-002	4.0332434E-005	-6.7916566E-001	0
1.1455958E+004	5.596819879261602E+001	-6.8106717E-001	-5.945091154542492E-002	4.0490064E-005	-6.8116570E-001	0
1.1470216E+004	5.616819878756360E+001	-6.8303430E-001	-5.954851176697437E-002	4.0673676E-005	-6.8316579E-001	0
1.1500538E+004	5.636819878251117E+001	-6.8500662E-001	-5.956300546715032E-002	4.0801053E-005	-6.8516570E-001	0
1.1518242E+004	5.656819877745875E+001	-6.8703049E-001	-5.964716424576322E-002	4.0979419E-005	-6.8716568E-001	0
1.1530119E+004	5.676819877240632E+001	-6.8905896E-001	-5.976165064859747E-002	4.1179301E-005	-6.8916577E-001	0
1.1545346E+004	5.696819876735390E+001	-6.9104838E-001	-5.985514841585210E-002	4.1362804E-005	-6.9116569E-001	0
1.1560543E+004	5.716819876230147E+001	-6.9306761E-001	-5.995113205253388E-002	4.1550189E-005	-6.9316572E-001	0
1.1586100E+004	5.736819875724905E+001	-6.9506305E-001	-5.999111880541974E-002	4.1697611E-005	-6.9516575E-001	0
1.1595455E+004	5.756819875219662E+001	-6.9705492E-001	-6.011449669006275E-002	4.1903106E-005	-6.9716579E-001	0
1.1614278E+004	5.776819874714420E+001	-6.9904816E-001	-6.018868857010559E-002	4.2074793E-005	-6.9916570E-001	0
1.1627340E+004	5.796819874209177E+001	-7.0103043E-001	-6.029155710976075E-002	4.2266216E-005	-7.0116568E-001	0
1.1639110E+004	5.816819873703935E+001	-7.0303494E-001	-6.040280713180249E-002	4.2465283E-005	-7.0316583E-001	0
1.1659557E+004	5.836819873198692E+001	-7.0508450E-001	-6.047266731862316E-002	4.2638341E-005	-7.0516574E-001	0
1.1662816E+004	5.856819872693450E+001	-7.0704645E-001	-6.062398861529807E-002	4.2863976E-005	-7.0716572E-001	0
1.1692659E+004	5.876819872188207E+001	-7.0905900E-001	-6.064137918747914E-002	4.2998316E-005	-7.0916575E-001	0
1.1687824E+004	5.896819871682965E+001	-7.1104032E-001	-6.083598516854016E-002	4.3256838E-005	-7.1116567E-001	0
1.1694894E+004	5.916819871177722E+001	-7.1304023E-001	-6.097021747576908E-002	4.3474218E-005	-7.1316576E-001	0
1.1716915E+004	5.936819870672480E+001	-7.1501291E-001	-6.102399072660519E-002	4.3632943E-005	-7.1516573E-001	0
1.1718216E+004	5.956819870167237E+001	-7.1699566E-001	-6.118641950584991E-002	4.3870397E-005	-7.1716583E-001	0
1.1732018E+004	5.976819869661995E+001	-7.1904701E-001	-6.128929011669415E-002	4.4069882E-005	-7.1916568E-001	0
1.1738034E+004	5.996819869156752E+001	-7.2106409E-001	-6.142971632091937E-002	4.4294764E-005	-7.2116566E-001	0
1.1744917E+004	6.016819868651510E+001	-7.2305828E-001	-6.156350918380271E-002	4.4514007E-005	-7.2316575E-001	0
1.1756415E+004	6.036819868146267E+001	-7.2507370E-001	-6.167472620302505E-002	4.4718723E-005	-7.2516572E-001	0
1.1752727E+004	6.056819867641025E+001	-7.2703296E-001	-6.186079172588582E-002	4.4974833E-005	-7.2716570E-001	0
1.1764263E+004	6.076819867135782E+001	-7.2899294E-001	-6.196673365854677E-002	4.5173310E-005	-7.2916573E-001	0
1.1758648E+004	6.096819866630540E+001	-7.3104286E-001	-6.217065602308680E-002	4.5449415E-005	-7.3116577E-001	0
1.1766261E+004	6.116819866125297E+001	-7.3307627E-001	-6.230324669635512E-002	4.5673030E-005	-7.3316568E-001	0
1.1774023E+004	6.136819865620055E+001	-7.3505068E-001	-6.242986316497018E-002	4.5889112E-005	-7.3516572E-001	0
1.1783946E+004	6.156819865114812E+001	-7.3707813E-001	-6.254934474283097E-002	4.6103753E-005	-7.3716581E-001	0
1.1803012E+004	6.176819864609570E+001	-7.3903853E-001	-6.261440345757710E-002	4.6274457E-005	-7.3916572E-001	0
1.1799749E+004	6.196819864104327E+001	-7.4102634E-001	-6.280017732072390E-002	4.6536585E-005	-7.4116570E-001	0
1.1790287E+004	6.216819863599085E+001	-7.4303299E-001	-6.302077408252804E-002	4.6826513E-005	-7.4316573E-001	0
1.1769243E+004	6.236819863093842E+001	-7.4504960E-001	-6.330480205915134E-002	4.7165217E-005	-7.4516577E-001	0
1.1791926E+004	6.256819862588600E+001	-7.4707085E-001	-6.335444064639800E-002	4.7330257E-005	-7.4716574E-001	0
1.1793650E+004	6.276819862083357E+001	-7.4907249E-001	-6.351489519548359E-002	4.7577261E-005	-7.4916571E-001	0
1.1785185E+004	6.296819861578115E+001	-7.5106496E-001	-6.372958643661830E-002	4.7865058E-005	-7.5116581E-001	0
1.1783550E+004	6.316819861072872E+001	-7.5307542E-001	-6.390904398506225E-002	4.8128331E-005	-7.5316578E-001	0
1.1780677E+004	6.336819860567630E+001	-7.5504428E-001	-6.409175944717327E-002	4.8392118E-005	-7.5516564E-001	0
1.1775836E+004	6.356819860062387E+001	-7.5705880E-001	-6.428917520679521E-002	4.8670685E-005	-7.5716573E-001	0
1.1777483E+004	6.376819859557145E+001	-7.5906342E-001	-6.445039297895461E-002	4.8921935E-005	-7.5916582E-001	0
1.1780508E+004	6.396819859051902E+001	-7.6104897E-001	-6.460239188038153E-002	4.9165585E-005	-7.6116568E-001	0
1.1762596E+004	6.416819858546660E+001	-7.6303017E-001	-6.486920035779997E-002	4.9497157E-005	-7.6316577E-001	0
1.1755468E+004	6.436819858041417E+001	-7.6503092E-001	-6.507873280204035E-002	4.9787242E-005	-7.6516575E-001	0
1.1759803E+004	6.456819857536175E+001	-7.6700830E-001	-6.522289046156060E-002	5.0026498E-005	-7.6716572E-001	0
1.1749668E+004	6.476819857030932E+001	-7.6905125E-001	-6.545302266299362E-002	5.0336730E-005	-7.6916569E-001	0
1.1742913E+004	6.496819856525690E+001	-7.7104473E-001	-6.566043060416527E-002	5.0627128E-005	-7.7116579E-001	0
1.1722709E+004	6.516819856020447E+001	-7.7305245E-001	-6.594486330908311E-002	5.0978837E-005	-7.7316576E-001	0
1.1710255E+004	6.536819855515205E+001	-7.7506334E-001	-6.618671886234322E-002	5.1298899E-005	-7.7516568E-001	0
1.1699806E+004	6.556819855009962E+001	-7.7704835E-001	-6.641549050708695E-002	5.1608047E-005	-7.7716577E-001	0
1.1720951E+004	6.576819854504720E+001	-7.7902150E-001	-6.646401943562896E-002	5.1776900E-005	-7.7916574E-001	0
1.1679046E+004	6.596819853999477E+001	-7.8103596E-001	-6.687497846621682E-002	5.2231764E-005	-7.8116560E-001	0
1.1686201E+004	6.616819853494235E+001	-7.8303981E-001	-6.700550599125066E-002	5.2467978E-005	-7.8316569E-001	0
1.1641695E+004	6.636819852988992E+001	-7.8501433E-001	-6.743127184491299E-002	5.2934516E-005	-7.8516585E-001	0
1.1660874E+004	6.656819852483750E+001	-7.8700811E-001	-6.749134759688991E-002	5.3116237E-005	-7.8716582E-001	0
1.1622372E+004	6.676819851978507E+001	-7.8902709E-001	-6.788864493256019E-002	5.3565982E-005	-7.8916574E-001	0
1.1619606E+004	6.696819851473265E+001	-7.9106486E-001	-6.808017414113898E-002	5.3855834E-005	-7.9116577E-001	0
1.1590138E+004	6.716819850968022E+001	-7.9302967E-001	-6.842280133646350E-002	5.4261312E-005	-7.9316580E-001	0
1.1573863E+004	6.736819850462780E+001	-7.9501760E-001	-6.869077177553562E-002	5.4610373E-005	-7.9516566E-001	0
1.1571757E+004	6.756819849957537E+001	-7.9704267E-001	-6.887827608248664E-002	5.4898926E-005	-7.9716575E-001	0
1.1561873E+004	6.776819849452295E+001	-7.9904860E-001	-6.911065492065205E-002	5.5222772E-005	-7.9916584E-001	0
1.1548348E+004	6.796819848947052E+001	-8.0101615E-001	-6.936196869929756E-002	5.5560056E-005	-8.0116570E-001	0
1.1519254E+004	6.816819848441810E+001	-8.0304539E-001	-6.971331899341582E-002	5.5982960E-005	-8.0316579E-001	0
1.1502071E+004	6.836819847936567E+001	-8.0503803E-001	-6.999070305100585E-002	5.6345179E-005	-8.0516577E-001	0
1.1472905E+004	6.856819847431325E+001	-8.0700624E-001	-7.034018386446839E-002	5.6764966E-005	-8.0716574E-001	0
1.1438965E+004	6.876819846926082E+001	-8.0903387E-001	-7.072614216247830E-002	5.7219844E-005	-8.0916572E-001	0
1.1417580E+004	6.896819846420840E+001	-8.1101859E-001	-7.103243984425633E-002	5.7608628E-005	-8.1116575E-001	0
1.1404190E+004	6.916819845915597E+001	-8.1305224E-001	-7.129416669784372E-002	5.7965881E-005	-8.1316584E-001	0
1.1364130E+004	6.936819845410355E+001	-8.1503594E-001	-7.172004780901042E-002	5.8454418E-005	-8.1516576E-001	0
1.1331760E+004	6.956819844905112E+001	-8.1705070E-001	-7.210271734091750E-002	5.8911577E-005	-8.1716567E-001	0
1.1315227E+004	6.976819844399870E+001	-8.1902766E-001	-7.238278666863851E-002	5.9283506E-005	-8.1916583E-001	0
1.1262995E+004	6.996819843894627E+001	-8.2109356E-001	-7.290188264990818E-002	5.9859267E-005	-8.2116580E-001	0
1.1237996E+004	7.016819843389385E+001	-8.2306880E-001	-7.323982006270469E-002	6.0281411E-005	-8.2316571E-001	0
1.1189986E+004	7.036819842884142E+001	-8.2503897E-001	-7.373011297421728E-002	6.0830218E-005	-8.2516575E-001	0
1.1161061E+004	7.056819842378900E+001	-8.2705575E-001	-7.410189691221414E-002	6.1286402E-005	-8.2716578E-001	0
1.1113588E+004	7.076819841873657E+001	-8.2905036E-001	-7.459790421525236E-002	6.1845421E-005	-8.2916576E-001	0
1.1055652E+004	7.096819841368415E+001	-8.3106166E-001	-7.517074932325263E-002	6.2471525E-005	-8.3116573E-001	0
1.1002396E+004	7.116819840863172E+001	-8.3303797E-001	-7.571423182616677E-002	6.3072832E-005	-8.3316582E-001	0
1.0946378E+004	7.136819840357930E+001	-8.3503091E-001	-7.628376721858537E-002	6.3699306E-005	-8.3516580E-001	0
1.0902705E+004	7.156819839852687E+001	-8.3702224E-001	-7.677198168367583E-002	6.4259853E-005	-8.3716577E-001	0
1.0804506E+004	7.176819839347445E+001	-8.3903801E-001	-7.765630533699097E-002	6.5156593E-005	-8.3916575E-001	0
1.0718382E+004	7.196819838842202E+001	-8.4106076E-001	-7.846900615249819E-002	6.5997199E-005	-8.4116572E-001	0
1.0612728E+004	7.216819838336960E+001	-8.4307319E-001	-7.943981893618260E-002	6.6973582E-005	-8.4316581E-001	0
1.0527613E+004	7.236819837831717E+001	-8.4506857E-001	-8.027162302344548E-002	6.7835026E-005	-8.4516573E-001	0
1.0389915E+004	7.256819837326475E+001	-8.4706885E-001	-8.152798367896508E-002	6.9059817E-005	-8.4716588E-001	0
1.0235830E+004	7.276819836821232E+001	-8.4904349E-001	-8.294817921019171E-002	7.0426613E-005	-8.4916586E-001	0
1.0089765E+004	7.296819836315990E+001	-8.5108620E-001	-8.435144473570522E-002	7.1790353E-005	-8.5116565E-001	0
9.8996699E+003	7.316819835810747E+001	-8.5305470E-001	-8.617001233565413E-002	7.3507734E-005	-8.5316581E-001	0
9.6876846E+003	7.336819835305505E+001	-8.5505164E-001	-8.826171161813878E-002	7.5468321E-005	-8.5516578E-001	0
9.4303096E+003	7.356819834800262E+001	-8.5703945E-001	-9.088137146199515E-002	7.7888923E-005	-8.5716575E-001	0
9.1690605E+003	7.376819834295020E+001	-8.5908192E-001	-9.369356188946344E-002	8.0490448E-005	-8.5916579E-001	0
8.8668350E+003	7.396819833789777E+001	-8.6106580E-001	-9.711084399391312E-002	8.3618826E-005	-8.6116576E-001	0
8.5523828E+003	7.416819833284535E+001	-8.6305487E-001	-1.009139691346452E-001	8.7094289E-005	-8.6316580E-001	0
8.2133760E+003	7.436819832779292E+001	-8.6507070E-001	-1.053246241770344E-001	9.1113245E-005	-8.6516571E-001	0
7.8680820E+003	7.456819832274050E+001	-8.6706460E-001	-1.102002452659829E-001	9.5550728E-005	-8.6716580E-001	0
7.5232002E+003	7.476819831768807E+001	-8.6905068E-001	-1.155160921847536E-001	1.0038934E-004	-8.6916578E-001	0
7.1797734E+003	7.496819831263565E+001	-8.7105650E-001	-1.213208869376268E-001	1.0567735E-004	-8.7116575E-001	0
6.8595186E+003	7.516819830758323E+001	-8.7301838E-001	-1.272710851982838E-001	1.1111000E-004	-8.7316573E-001	0
6.5440430E+003	7.536819830253080E+001	-8.7505436E-001	-1.337176967631866E-001	1.1701026E-004	-8.7516570E-001	0
6.2536113E+003	7.556819829747838E+001	-8.7704939E-001	-1.402468657133729E-001	1.2300342E-004	-8.7716579E-001	0
5.9797559E+003	7.576819829242595E+001	-8.7904322E-001	-1.470031900396837E-001	1.2922216E-004	-8.7916571E-001	0
5.7325532E+003	7.596819828737353E+001	-8.8103783E-001	-1.536903069882551E-001	1.3540697E-004	-8.8116586E-001	0
5.5092749E+003	7.616819828232110E+001	-8.8305748E-001	-1.602856035126785E-001	1.4154140E-004	-8.8316584E-001	0
5.2897920E+003	7.636819827726868E+001	-8.8502687E-001	-1.673084499743135E-001	1.4807247E-004	-8.8516569E-001	0
5.1064082E+003	7.656819827221625E+001	-8.8702631E-001	-1.737084590403319E-001	1.5408397E-004	-8.8716578E-001	0
4.9264922E+003	7.676819826716383E+001	-8.8904679E-001	-1.804624414155920E-001	1.6043955E-004	-8.8916588E-001	0
4.7547974E+003	7.696819826211140E+001	-8.9111376E-001	-1.874136090734773E-001	1.6700685E-004	-8.9116573E-001	0
4.5269824E+003	7.716819825705898E+001	-8.9306921E-001	-1.972769298178916E-001	1.7618196E-004	-8.9316577E-001	0
4.3942939E+003	7.736819825200655E+001	-8.9507228E-001	-2.036896591072646E-001	1.8231697E-004	-8.9516580E-001	0
4.2438774E+003	7.756819824695413E+001	-8.9702731E-001	-2.113697443584024E-001	1.8960443E-004	-8.9716578E-001	0
4.0849084E+003	7.776819824190170E+001	-8.9905161E-001	-2.200910014178513E-001	1.9787317E-004	-8.9916575E-001	0
3.9208191E+003	7.796819823684928E+001	-9.0105003E-001	-2.298116844628940E-001	2.0707182E-004	-9.0116578E-001	0
3.7450894E+003	7.816819823179685E+001	-9.0304685E-001	-2.411282511423774E-001	2.1775010E-004	-9.0316582E-001	0
3.5511719E+003	7.836819822674443E+001	-9.0504998E-001	-2.548595282656736E-001	2.3066060E-004	-9.0516573E-001	0
3.3422161E+003	7.856819822169200E+001	-9.0708822E-001	-2.714032191115838E-001	2.4618665E-004	-9.0716583E-001	0
3.1310005E+003	7.876819821663958E+001	-9.0905011E-001	-2.903385373833425E-001	2.6393228E-004	-9.0916580E-001	0
2.9052847E+003	7.896819821158715E+001	-9.1105688E-001	-3.135860929806253E-001	2.8569475E-004	-9.1116577E-001	0
2.6881521E+003	7.916819820653473E+001	-9.1311920E-001	-3.396828758283221E-001	3.1017096E-004	-9.1316575E-001	0
2.4743677E+003	7.936819820148230E+001	-9.1505909E-001	-3.698153325764135E-001	3.3840287E-004	-9.1516584E-001	0
2.2624924E+003	7.956819819642988E+001	-9.1705519E-001	-4.053296091968450E-001	3.7170961E-004	-9.1716588E-001	0
2.0272040E+003	7.976819819137745E+001	-9.1905445E-001	-4.533606049459014E-001	4.1666307E-004	-9.1916579E-001	0
1.8579109E+003	7.996819818632503E+001	-9.2108190E-001	-4.957621372273175E-001	4.5663753E-004	-9.2116576E-001	0
1.6904192E+003	8.016819818127260E+001	-9.2307913E-001	-5.460652195111502E-001	5.0406141E-004	-9.2316586E-001	0
1.5357728E+003	8.036819817622018E+001	-9.2506474E-001	-6.023447946296852E-001	5.5720791E-004	-9.2516571E-001	0
1.3629448E+003	8.056819817116775E+001	-9.2704809E-001	-6.801801865789483E-001	6.3055975E-004	-9.2716575E-001	0
1.2355912E+003	8.076819816611533E+001	-9.2907232E-001	-7.519253741890672E-001	6.9859304E-004	-9.2916578E-001	0
1.1199668E+003	8.096819816106290E+001	-9.3105018E-001	-8.313194229066916E-001	7.7400007E-004	-9.3116575E-001	0
9.8865350E+002	8.116819815601048E+001	-9.3302500E-001	-9.437330592584168E-001	8.8052655E-004	-9.3316573E-001	0
8.8533032E+002	8.137819815070543E+001	-9.3518174E-001	-1.056308290028538E+000	9.8784023E-004	-9.3526584E-001	0
7.9281049E+002	8.158819814540038E+001	-9.3724990E-001	-1.182186562576398E+000	1.1080042E-003	-9.3736583E-001	0
7.1432788E+002	8.178819814034796E+001	-9.3921822E-001	-1.314827918465716E+000	1.2349103E-003	-9.3936580E-001	0
6.4067578E+002	8.198819813529553E+001	-9.4124401E-001	-1.469142477055520E+000	1.3828216E-003	-9.4136578E-001	0
5.7244904E+002	8.218819813024311E+001	-9.4325930E-001	-1.647761190196082E+000	1.5542661E-003	-9.4336587E-001	0
5.1502002E+002	8.238819812519068E+001	-9.4524199E-001	-1.835350041486782E+000	1.7348499E-003	-9.4536573E-001	0
4.6328543E+002	8.258819812013826E+001	-9.4725507E-001	-2.044646802858828E+000	1.9368021E-003	-9.4736576E-001	0
4.1734534E+002	8.278819811508583E+001	-9.4921225E-001	-2.274404795684106E+000	2.1588928E-003	-9.4936579E-001	0
3.7663654E+002	8.298819811003341E+001	-9.5123369E-001	-2.525601154248187E+000	2.4024369E-003	-9.5136577E-001	0
3.4010599E+002	8.318819810498098E+001	-9.5324731E-001	-2.802794777803015E+000	2.6717565E-003	-9.5336574E-001	0
3.0720587E+002	8.338819809992856E+001	-9.5524442E-001	-3.109460172384914E+000	2.9702946E-003	-9.5536578E-001	0
2.7916898E+002	8.358819809487613E+001	-9.5725077E-001	-3.428929458332171E+000	3.2823454E-003	-9.5736575E-001	0
2.5337071E+002	8.378819808982371E+001	-9.5924455E-001	-3.785933007188390E+000	3.6316356E-003	-9.5936573E-001	0
2.3166699E+002	8.398819808477128E+001	-9.6126896E-001	-4.149356484480734E+000	3.9886474E-003	-9.6136582E-001	0
2.1134721E+002	8.418819807971886E+001	-9.6327615E-001	-4.557789750346508E+000	4.3904101E-003	-9.6336579E-001	0
1.9317294E+002	8.438819807466643E+001	-9.6526515E-001	-4.996896192499001E+000	4.8233299E-003	-9.6536577E-001	0
1.7730920E+002	8.458819806961401E+001	-9.6725100E-001	-5.455165440871333E+000	5.2765142E-003	-9.6736580E-001	0
1.6304193E+002	8.478819806456158E+001	-9.6927154E-001	-5.944921650921685E+000	5.7622432E-003	-9.6936584E-001	0
1.5053922E+002	8.498819805950916E+001	-9.7120017E-001	-6.451476417363665E+000	6.2656752E-003	-9.7136587E-001	0
1.3924402E+002	8.518819805445673E+001	-9.7325611E-001	-6.989572446565219E+000	6.8026441E-003	-9.7336578E-001	0
1.2892419E+002	8.538819804940431E+001	-9.7525477E-001	-7.564560022619041E+000	7.3773731E-003	-9.7536576E-001	0
1.1963682E+002	8.558819804435188E+001	-9.7726864E-001	-8.168627657790324E+000	7.9829432E-003	-9.7736585E-001	0
1.1140091E+002	8.578819803929946E+001	-9.7928309E-001	-8.790620527840503E+000	8.6085061E-003	-9.7936571E-001	0
1.0390180E+002	8.598819803424703E+001	-9.8126590E-001	-9.444166104539462E+000	9.2672380E-003	-9.8136574E-001	0
9.7130898E+001	8.618819802919461E+001	-9.8327041E-001	-1.012314727598306E+001	9.9537913E-003	-9.8336577E-001	0
9.0687050E+001	8.639819802388956E+001	-9.8536319E-001	-1.086553358119357E+001	1.0706496E-002	-9.8546582E-001	0
8.4734489E+001	8.660819801858452E+001	-9.8741198E-001	-1.165301152989439E+001	1.1506323E-002	-9.8756576E-001	0
7.9648422E+001	8.680819801353209E+001	-9.8941797E-001	-1.242231695107324E+001	1.2290863E-002	-9.8956585E-001	0
7.5071098E+001	8.700819800847967E+001	-9.9145710E-001	-1.320690822925701E+001	1.3094083E-002	-9.9156570E-001	0
7.0864128E+001	8.720819800342724E+001	-9.9345505E-001	-1.401915230772676E+001	1.3927397E-002	-9.9356574E-001	0
6.6935379E+001	8.740819799837482E+001	-9.9544787E-001	-1.487177476334195E+001	1.4804076E-002	-9.9556577E-001	0
6.3344582E+001	8.760819799332239E+001	-9.9745029E-001	-1.574641859044834E+001	1.5706269E-002	-9.9756569E-001	0
6.0019753E+001	8.780819798826997E+001	-9.9946052E-001	-1.665219306634942E+001	1.6643209E-002	-9.9956566E-001	0
5.7039051E+001	8.800829798321502E+001	-1.0014657E+000	-1.755754479346122E+001	1.7583279E-002	-1.0015665E+000	0
5.4212044E+001	8.820849797815754E+001	-1.0034288E+000	-1.850933417158754E+001	1.8572800E-002	-1.0035685E+000	0
5.1634380E+001	8.840869797310006E+001	-1.0054858E+000	-1.947318401771201E+001	1.9580010E-002	-1.0055705E+000	0
4.9254860E+001	8.860899796804006E+001	-1.0074713E+000	-2.045425245496428E+001	2.0607073E-002	-1.0075732E+000	0
4.6937496E+001	8.880929796298005E+001	-1.0094900E+000	-2.150711208735544E+001	2.1711215E-002	-1.0095766E+000	0
4.4849045E+001	8.900949795792258E+001	-1.0114620E+000	-2.255258756502973E+001	2.2811085E-002	-1.0115786E+000	0
4.2889359E+001	8.920979795286257E+001	-1.0135105E+000	-2.363081492748199E+001	2.3950078E-002	-1.0135813E+000	0
4.1106758E+001	8.941009794780257E+001	-1.0154736E+000	-2.470332388453465E+001	2.5085574E-002	-1.0155846E+000	0
3.9393337E+001	8.961059794273751E+001	-1.0175172E+000	-2.582967769473186E+001	2.6282141E-002	-1.0175892E+000	0
3.7772091E+001	8.981099793767498E+001	-1.0194970E+000	-2.699074826731635E+001	2.7516987E-002	-1.0195934E+000	0
3.6260513E+001	9.001129793261498E+001	-1.0215274E+000	-2.817189724960144E+001	2.8778365E-002	-1.0215966E+000	0
3.4797562E+001	9.021159792755498E+001	-1.0234984E+000	-2.941293626422004E+001	3.0104093E-002	-1.0235993E+000	0
3.3445267E+001	9.041219792248739E+001	-1.0254799E+000	-3.066143700988789E+001	3.1442687E-002	-1.0256053E+000	0
3.2124104E+001	9.061259791742486E+001	-1.0275397E+000	-3.198656341437641E+001	3.2867465E-002	-1.0276092E+000	0
3.0931532E+001	9.081299791236233E+001	-1.0295221E+000	-3.328390199307910E+001	3.4266513E-002	-1.0296133E+000	0
2.9829802E+001	9.101339790729980E+001	-1.0315551E+000	-3.458135912063699E+001	3.5672575E-002	-1.0316176E+000	0
2.8792490E+001	9.121339790224738E+001	-1.0335220E+000	-3.589554146952651E+001	3.7098832E-002	-1.0336177E+000	0
2.7775602E+001	9.141359789718990E+001	-1.0355357E+000	-3.728220428031932E+001	3.8607053E-002	-1.0356193E+000	0
2.6783390E+001	9.161399789212737E+001	-1.0375749E+000	-3.873949050591915E+001	4.0195122E-002	-1.0376236E+000	0
2.5899910E+001	9.181429788706737E+001	-1.0395057E+000	-4.013549548491221E+001	4.1721076E-002	-1.0396261E+000	0
2.5090601E+001	9.201469788200484E+001	-1.0415356E+000	-4.151098730862373E+001	4.3235172E-002	-1.0416305E+000	0
2.4273739E+001	9.221499787694484E+001	-1.0435276E+000	-4.298998151641638E+001	4.4861231E-002	-1.0436335E+000	0
2.3470757E+001	9.241539787188231E+001	-1.0455824E+000	-4.454830474436915E+001	4.6578925E-002	-1.0456372E+000	0
2.2740524E+001	9.261569786682230E+001	-1.0475737E+000	-4.606638268523744E+001	4.8257932E-002	-1.0476406E+000	0
2.2061417E+001	9.281589786176482E+001	-1.0495687E+000	-4.757485384980555E+001	4.9933076E-002	-1.0496426E+000	0
2.1395840E+001	9.301609785670735E+001	-1.0515560E+000	-4.914768415968047E+001	5.1681541E-002	-1.0516446E+000	0
2.0754326E+001	9.321639785164734E+001	-1.0535994E+000	-5.076528748907265E+001	5.3486273E-002	-1.0536474E+000	0
2.0191389E+001	9.341669784658734E+001	-1.0555824E+000	-5.227883941883178E+001	5.5184621E-002	-1.0556506E+000	0
1.9626194E+001	9.361689784152986E+001	-1.0575610E+000	-5.388518012144209E+001	5.6986868E-002	-1.0576526E+000	0
1.9076950E+001	9.381709783647239E+001	-1.0595864E+000	-5.554275566823850E+001	5.8852348E-002	-1.0596546E+000	0
1.8533909E+001	9.401739783141238E+001	-1.0615909E+000	-5.727830407406441E+001	6.0806125E-002	-1.0616575E+000	0
1.8061058E+001	9.421769782635238E+001	-1.0635920E+000	-5.888868420369778E+001	6.2633529E-002	-1.0636601E+000	0
1.7577839E+001	9.441809782128985E+001	-1.0655622E+000	-6.061963853937027E+001	6.4594001E-002	-1.0656646E+000	0
1.7087818E+001	9.461829781623237E+001	-1.0676284E+000	-6.247892052337033E+001	6.6704266E-002	-1.0676666E+000	0
1.6620516E+001	9.481839781117742E+001	-1.0695897E+000	-6.435358581737614E+001	6.8831936E-002	-1.0696678E+000	0
1.6174170E+001	9.501859780611994E+001	-1.0715866E+000	-6.625296010954668E+001	7.0995785E-002	-1.0716693E+000	0
1.5724328E+001	9.521899780105741E+001	-1.0736049E+000	-6.827668115262929E+001	7.3302180E-002	-1.0736734E+000	0
1.5329920E+001	9.541939779599488E+001	-1.0755895E+000	-7.016276478572019E+001	7.5466335E-002	-1.0756773E+000	0
1.4946416E+001	9.561999779092730E+001	-1.0776436E+000	-7.210046999150256E+001	7.7698611E-002	-1.0776833E+000	0
1.4541790E+001	9.582029778586730E+001	-1.0796732E+000	-7.424623785217244E+001	8.0161668E-002	-1.0796868E+000	0
1.4197138E+001	9.602059778080729E+001	-1.0816214E+000	-7.618587745909531E+001	8.2404278E-002	-1.0816894E+000	0
1.3877129E+001	9.622099777574476E+001	-1.0836687E+000	-7.809027120248010E+001	8.4623985E-002	-1.0836934E+000	0
1.3574534E+001	9.642159777067718E+001	-1.0856620E+000	-7.997784221110146E+001	8.6828902E-002	-1.0856992E+000	0
1.3255298E+001	9.662189776561718E+001	-1.0876716E+000	-8.205561837622389E+001	8.9249566E-002	-1.0877028E+000	0
1.2880575E+001	9.682219776055717E+001	-1.0896292E+000	-8.459475855026267E+001	9.2176914E-002	-1.0897052E+000	0
1.2599117E+001	9.702259775549464E+001	-1.0916913E+000	-8.664823040996646E+001	9.4593115E-002	-1.0917093E+000	0
1.2280661E+001	9.722329775042454E+001	-1.0936891E+000	-8.905784134785722E+001	9.7401589E-002	-1.0937160E+000	0
1.1987128E+001	9.742359774536453E+001	-1.0956739E+000	-9.140420771672393E+001	1.0014921E-001	-1.0957198E+000	0
1.1767841E+001	9.762369774030958E+001	-1.0976802E+000	-9.327795928797741E+001	1.0238937E-001	-1.0977206E+000	0
1.1558464E+001	9.782399773524958E+001	-1.0996662E+000	-9.513947584441325E+001	1.0462167E-001	-1.0997235E+000	0
1.1316047E+001	9.802429773018957E+001	-1.1016598E+000	-9.735376441079461E+001	1.0725073E-001	-1.1017267E+000	0
1.1060199E+001	9.822439772513462E+001	-1.1036894E+000	-9.978929468671731E+001	1.1013639E-001	-1.1037277E+000	0
1.0791676E+001	9.842459772007714E+001	-1.1056724E+000	-1.024560402269369E+002	1.1328281E-001	-1.1057295E+000	0
1.0530241E+001	9.862479771501967E+001	-1.1077245E+000	-1.051946005821228E+002	1.1652664E-001	-1.1077317E+000	0
1.0345297E+001	9.882489770996472E+001	-1.1097350E+000	-1.072695161487612E+002	1.1904074E-001	-1.1097326E+000	0
1.0149641E+001	9.903509770465462E+001	-1.1117913E+000	-1.095399621436313E+002	1.2178557E-001	-1.1118346E+000	0
9.9206877E+000	9.924549769933947E+001	-1.1138816E+000	-1.122786647808770E+002	1.2506513E-001	-1.1139381E+000	0
9.7281342E+000	9.944579769427946E+001	-1.1158658E+000	-1.147050154365920E+002	1.2799540E-001	-1.1159418E+000	0
9.5717716E+000	9.964579768922704E+001	-1.1178640E+000	-1.167875799905685E+002	1.3055263E-001	-1.1179417E+000	0
9.3896236E+000	9.984579768417461E+001	-1.1198421E+000	-1.192637846442847E+002	1.3355660E-001	-1.1199417E+000	0
9.2160501E+000	1.000459976791171E+002	-1.1218600E+000	-1.217289385035338E+002	1.3656282E-001	-1.1219435E+000	0
9.0620861E+000	1.002462976740571E+002	-1.1239538E+000	-1.240281553042109E+002	1.3940191E-001	-1.1239467E+000	0
8.8603096E+000	1.004465976689971E+002	-1.1259413E+000	-1.270769698711620E+002	1.4308120E-001	-1.1259493E+000	0
8.6838732E+000	1.006468976639371E+002	-1.1279092E+000	-1.298854932674253E+002	1.4649904E-001	-1.1279526E+000	0
8.4773388E+000	1.008469976588822E+002	-1.1299194E+000	-1.332870443391685E+002	1.5060362E-001	-1.1299537E+000	0
8.3450727E+000	1.010469976538297E+002	-1.1319019E+000	-1.356371417532159E+002	1.5352793E-001	-1.1319538E+000	0
8.2488079E+000	1.012469976487773E+002	-1.1339239E+000	-1.374651785610485E+002	1.5587506E-001	-1.1339538E+000	0
8.1512728E+000	1.014472976437173E+002	-1.1359217E+000	-1.393551336940905E+002	1.5829653E-001	-1.1359562E+000	0
8.0544863E+000	1.016477976386523E+002	-1.1379586E+000	-1.412825816489853E+002	1.6077374E-001	-1.1379613E+000	0
7.9242377E+000	1.018483976335847E+002	-1.1399512E+000	-1.438562639704226E+002	1.6398913E-001	-1.1399673E+000	0
7.7929940E+000	1.020487976285222E+002	-1.1419644E+000	-1.465373195896750E+002	1.6734041E-001	-1.1419713E+000	0
7.6221142E+000	1.022489976234647E+002	-1.1439779E+000	-1.500866897792771E+002	1.7169586E-001	-1.1439737E+000	0
7.5041084E+000	1.024491976184072E+002	-1.1459402E+000	-1.527083715029357E+002	1.7499466E-001	-1.1459754E+000	0
7.4301658E+000	1.026493976133497E+002	-1.1479641E+000	-1.545004709907673E+002	1.7736100E-001	-1.1479778E+000	0
7.3220520E+000	1.028494976082948E+002	-1.1499547E+000	-1.570536028272857E+002	1.8060453E-001	-1.1499788E+000	0
7.2233000E+000	1.030496976032373E+002	-1.1519672E+000	-1.594793524250811E+002	1.8371497E-001	-1.1519806E+000	0
7.1450119E+000	1.032498975981798E+002	-1.1539620E+000	-1.615059640910933E+002	1.8637174E-001	-1.1539826E+000	0
6.9906764E+000	1.034500975931223E+002	-1.1559869E+000	-1.653612378302506E+002	1.9115542E-001	-1.1559846E+000	0
6.9082088E+000	1.036503975880623E+002	-1.1579545E+000	-1.676200661735306E+002	1.9409640E-001	-1.1579874E+000	0
6.8082323E+000	1.038506975830023E+002	-1.1599835E+000	-1.703795443403403E+002	1.9763747E-001	-1.1599905E+000	0
6.6696820E+000	1.040508975779449E+002	-1.1620154E+000	-1.742235078857641E+002	2.0245041E-001	-1.1619925E+000	0
6.6033597E+000	1.042510975728874E+002	-1.1639737E+000	-1.762699245489171E+002	2.0517355E-001	-1.1639946E+000	0
6.5269461E+000	1.044512975678299E+002	-1.1659899E+000	-1.786424842061265E+002	2.0829533E-001	-1.1659966E+000	0
6.4397488E+000	1.046514975627724E+002	-1.1680260E+000	-1.813775649709830E+002	2.1185371E-001	-1.1679986E+000	0
6.3850965E+000	1.048516975577149E+002	-1.1700019E+000	-1.832394957027559E+002	2.1439055E-001	-1.1700007E+000	0
6.3265119E+000	1.050518975526575E+002	-1.1719511E+000	-1.852444250424692E+002	2.1709740E-001	-1.1720026E+000	0
6.2367144E+000	1.052521975475975E+002	-1.1739496E+000	-1.882320624435697E+002	2.2097495E-001	-1.1740054E+000	0
6.1607561E+000	1.054524975425375E+002	-1.1759869E+000	-1.908835252375929E+002	2.2447652E-001	-1.1760086E+000	0
6.0492458E+000	1.056526975374800E+002	-1.1780094E+000	-1.947365663242222E+002	2.2940150E-001	-1.1780105E+000	0
5.9346433E+000	1.058529975324200E+002	-1.1800072E+000	-1.988337169813726E+002	2.3462522E-001	-1.1800137E+000	0
5.8569989E+000	1.060530975273650E+002	-1.1819952E+000	-2.018090113684020E+002	2.3853727E-001	-1.1820146E+000	0
5.8003764E+000	1.062531975223101E+002	-1.1840189E+000	-2.041279343845081E+002	2.4169132E-001	-1.1840159E+000	0
5.7447987E+000	1.064532975172551E+002	-1.1859945E+000	-2.064466601209615E+002	2.4484460E-001	-1.1860167E+000	0
5.6982965E+000	1.066535975121951E+002	-1.1880137E+000	-2.084857569441074E+002	2.4768393E-001	-1.1880194E+000	0
5.5980935E+000	1.068538975071351E+002	-1.1900105E+000	-2.125742589057318E+002	2.5296560E-001	-1.1900226E+000	0
5.5151653E+000	1.070539975020802E+002	-1.1920241E+000	-2.161356977108110E+002	2.5763896E-001	-1.1920238E+000	0
5.4676356E+000	1.072540974970252E+002	-1.1940428E+000	-2.183837510206058E+002	2.6075953E-001	-1.1940246E+000	0
5.3992682E+000	1.074542974919677E+002	-1.1960436E+000	-2.215195706166692E+002	2.6494706E-001	-1.1960267E+000	0
5.3501105E+000	1.076546974869052E+002	-1.1980371E+000	-2.239275455533561E+002	2.6827353E-001	-1.1980305E+000	0
5.2459331E+000	1.078550974818427E+002	-1.2000276E+000	-2.287538963342240E+002	2.7451098E-001	-1.2000345E+000	0
5.1280375E+000	1.080551974767877E+002	-1.2020175E+000	-2.344010929618021E+002	2.8175423E-001	-1.2020358E+000	0
5.0898695E+000	1.082553974717302E+002	-1.2040713E+000	-2.365623158474357E+002	2.8483790E-001	-1.2040377E+000	0
5.0236664E+000	1.084553974666778E+002	-1.2060697E+000	-2.400775837909059E+002	2.8955030E-001	-1.2060376E+000	0
4.9704132E+000	1.086553974616254E+002	-1.2080786E+000	-2.430539715825278E+002	2.9362831E-001	-1.2080377E+000	0
4.9057102E+000	1.088554974565704E+002	-1.2100439E+000	-2.466602826113776E+002	2.9846978E-001	-1.2100385E+000	0
4.8653231E+000	1.090557974515104E+002	-1.2120652E+000	-2.491232851869909E+002	3.0195367E-001	-1.2120414E+000	0
4.7999334E+000	1.092563974464429E+002	-1.2140707E+000	-2.529349015594407E+002	3.0708084E-001	-1.2140473E+000	0
4.7384167E+000	1.094567974413803E+002	-1.2160864E+000	-2.566440335757088E+002	3.1210130E-001	-1.2160513E+000	0
4.7121396E+000	1.096571974363178E+002	-1.2180871E+000	-2.584997961842082E+002	3.1487527E-001	-1.2180554E+000	0
4.6819921E+000	1.098573974312603E+002	-1.2200890E+000	-2.605918365854795E+002	3.1794521E-001	-1.2200577E+000	0
4.6462731E+000	1.100574974262054E+002	-1.2221057E+000	-2.630292617456489E+002	3.2144958E-001	-1.2220585E+000	0
4.5773220E+000	1.102575974211504E+002	-1.2241070E+000	-2.674286572268229E+002	3.2736129E-001	-1.2240598E+000	0
4.5251331E+000	1.104576974160955E+002	-1.2261239E+000	-2.709586418344425E+002	3.3222887E-001	-1.2260605E+000	0
4.5122581E+000	1.106577974110405E+002	-1.2280990E+000	-2.721694890885128E+002	3.3425108E-001	-1.2280618E+000	0
4.4708591E+000	1.108578974059856E+002	-1.2301030E+000	-2.751379445933653E+002	3.3844802E-001	-1.2300626E+000	0
4.4383082E+000	1.110580974009281E+002	-1.2320882E+000	-2.776031135436338E+002	3.4203151E-001	-1.2320645E+000	0
4.4381194E+000	1.112581973958731E+002	-1.2340988E+000	-2.780679408028027E+002	3.4316331E-001	-1.2340658E+000	0
4.3586388E+000	1.114583973908157E+002	-1.2361344E+000	-2.836056122653108E+002	3.5057464E-001	-1.2360677E+000	0
4.2897663E+000	1.116585973857582E+002	-1.2380906E+000	-2.886149381430860E+002	3.5733145E-001	-1.2380698E+000	0
4.2118754E+000	1.118586973807032E+002	-1.2400978E+000	-2.944288924181865E+002	3.6512062E-001	-1.2400706E+000	0
4.1424074E+000	1.120587973756483E+002	-1.2421072E+000	-2.998515105539445E+002	3.7244770E-001	-1.2420716E+000	0
4.0962915E+000	1.122588973705933E+002	-1.2441245E+000	-3.037197169838037E+002	3.7786517E-001	-1.2440726E+000	0
4.0950427E+000	1.124589973655384E+002	-1.2460911E+000	-3.042925989168284E+002	3.7917632E-001	-1.2460738E+000	0
4.0857196E+000	1.126590973604834E+002	-1.2481264E+000	-3.054850713370629E+002	3.8128397E-001	-1.2480745E+000	0
4.0835981E+000	1.128594973554209E+002	-1.2501125E+000	-3.061301492132880E+002	3.8269714E-001	-1.2500780E+000	0
4.0005178E+000	1.130597973503609E+002	-1.2521421E+000	-3.129950046063568E+002	3.9191422E-001	-1.2520818E+000	0
3.9394641E+000	1.132597973453085E+002	-1.2541052E+000	-3.183441057334940E+002	3.9923701E-001	-1.2540817E+000	0
3.9261832E+000	1.134598973402535E+002	-1.2561198E+000	-3.199340792967646E+002	4.0187556E-001	-1.2560825E+000	0
3.8892853E+000	1.136602973351910E+002	-1.2581446E+000	-3.234899247110338E+002	4.0699711E-001	-1.2580861E+000	0
3.8494358E+000	1.138606973301285E+002	-1.2601272E+000	-3.273537310718126E+002	4.1250733E-001	-1.2600906E+000	0
3.8280592E+000	1.140611973250634E+002	-1.2621385E+000	-3.297071508456158E+002	4.1613609E-001	-1.2620953E+000	0
3.7535341E+000	1.142615973200009E+002	-1.2641441E+000	-3.367876864457378E+002	4.2574814E-001	-1.2640994E+000	0
3.7000031E+000	1.144617973149434E+002	-1.2661785E+000	-3.422101211807358E+002	4.3329909E-001	-1.2661018E+000	0
3.6747346E+000	1.146617973098910E+002	-1.2681420E+000	-3.450975650627328E+002	4.3763271E-001	-1.2681018E+000	0
3.6781015E+000	1.148617973048385E+002	-1.2702245E+000	-3.453478419851010E+002	4.3866926E-001	-1.2701018E+000	0
3.6526349E+000	1.150617972997861E+002	-1.2722260E+000	-3.483036257209687E+002	4.4312093E-001	-1.2721019E+000	0
3.6542599E+000	1.152619972947286E+002	-1.2741902E+000	-3.486862449240298E+002	4.4429260E-001	-1.2741038E+000	0
3.6664655E+000	1.154619972896762E+002	-1.2761830E+000	-3.480689957958230E+002	4.4419974E-001	-1.2761037E+000	0
3.6612821E+000	1.156619972846238E+002	-1.2782071E+000	-3.491146176634456E+002	4.4624078E-001	-1.2781037E+000	0
3.6543510E+000	1.158619972795714E+002	-1.2801778E+000	-3.503160677194055E+002	4.4846687E-001	-1.2801038E+000	0
3.5952127E+000	1.160622972745114E+002	-1.2822187E+000	-3.566461353473005E+002	4.5729834E-001	-1.2821062E+000	0
3.5353699E+000	1.162626972694488E+002	-1.2842023E+000	-3.632441238365354E+002	4.6647894E-001	-1.2841107E+000	0
3.4568450E+000	1.164627972643939E+002	-1.2862138E+000	-3.720773489253606E+002	4.7857100E-001	-1.2861120E+000	0
3.3788474E+000	1.166627972593415E+002	-1.2882258E+000	-3.812618975223922E+002	4.9115139E-001	-1.2881116E+000	0
3.3382061E+000	1.168629972542840E+002	-1.2902025E+000	-3.864957729366779E+002	4.9865782E-001	-1.2901132E+000	0
3.3341188E+000	1.170632972492240E+002	-1.2922431E+000	-3.875816094516626E+002	5.0084966E-001	-1.2921165E+000	0
3.3262215E+000	1.172634972441665E+002	-1.2942418E+000	-3.891027088189412E+002	5.0359297E-001	-1.2941186E+000	0
3.2900426E+000	1.174337972398644E+002	-1.2959285E+000	-3.938941412210143E+002	5.1045865E-001	-1.2958208E+000	0
3.2320547E+000	1.175643972365651E+002	-1.2972643E+000	-4.013744861712476E+002	5.2068883E-001	-1.2971267E+000	0
3.2577772E+000	1.177148972327632E+002	-1.2987375E+000	-3.986575736806899E+002	5.1775157E-001	-1.2986323E+000	0
3.2353625E+000	1.178455972294614E+002	-1.3000143E+000	-4.018140862605624E+002	5.2236402E-001	-1.2999393E+000	0
3.2294233E+000	1.179861972259096E+002	-1.3014922E+000	-4.030107194540042E+002	5.2451533E-001	-1.3013444E+000	0
3.2141194E+000	1.181266972223602E+002	-1.3028808E+000	-4.053616561605122E+002	5.2813792E-001	-1.3027496E+000	0
3.2182820E+000	1.182770972185608E+002	-1.3043952E+000	-4.053079193898593E+002	5.2868170E-001	-1.3042541E+000	0
3.2202294E+000	1.183977972155117E+002	-1.3056053E+000	-4.054385941189485E+002	5.2934277E-001	-1.3054600E+000	0
3.2219617E+000	1.185086972127101E+002	-1.3067061E+000	-4.055622691219633E+002	5.2995068E-001	-1.3065695E+000	0
3.2141120E+000	1.186494972091532E+002	-1.3081486E+000	-4.070015596451701E+002	5.3241855E-001	-1.3079776E+000	0
3.2169435E+000	1.187800972058540E+002	-1.3094596E+000	-4.070508389342401E+002	5.3301662E-001	-1.3092836E+000	0
3.2123508E+000	1.189106972025547E+002	-1.3107209E+000	-4.080254593423851E+002	5.3480750E-001	-1.3105899E+000	0
3.1878605E+000	1.190512971990029E+002	-1.3121612E+000	-4.116118748841814E+002	5.4010111E-001	-1.3119954E+000	0
3.1432731E+000	1.191718971959563E+002	-1.3133302E+000	-4.178224846167900E+002	5.4873890E-001	-1.3132019E+000	0
3.1509588E+000	1.193123971924069E+002	-1.3147172E+000	-4.172435431859230E+002	5.4855728E-001	-1.3146067E+000	0
3.1570277E+000	1.194527971888601E+002	-1.3161753E+000	-4.169033167041712E+002	5.4871786E-001	-1.3160111E+000	0
3.1352422E+000	1.196033971850557E+002	-1.3176351E+000	-4.202657803816362E+002	5.5375695E-001	-1.3175164E+000	0
3.1188490E+000	1.197239971820090E+002	-1.3188325E+000	-4.228587319716116E+002	5.5767983E-001	-1.3187225E+000	0
3.0656166E+000	1.198745971782046E+002	-1.3203394E+000	-4.306929546070405E+002	5.6866091E-001	-1.3202286E+000	0
3.0781775E+000	1.200150971746552E+002	-1.3217527E+000	-4.293945774147287E+002	5.6755340E-001	-1.3216335E+000	0
3.0846968E+000	1.201451971713686E+002	-1.3230816E+000	-4.289178873255323E+002	5.6749338E-001	-1.3229350E+000	0
3.0934982E+000	1.202855971678218E+002	-1.3244762E+000	-4.281483821531338E+002	5.6707233E-001	-1.3243389E+000	0
3.1030324E+000	1.204259971642750E+002	-1.3258802E+000	-4.272853124781732E+002	5.6652910E-001	-1.3257427E+000	0
3.0556517E+000	1.205863971602230E+002	-1.3274499E+000	-4.344244990128161E+002	5.7667679E-001	-1.3273466E+000	0
3.0516152E+000	1.207368971564210E+002	-1.3290637E+000	-4.355279364169573E+002	5.7884437E-001	-1.3288522E+000	0
3.0400567E+000	1.208773971528717E+002	-1.3303570E+000	-4.376092696946343E+002	5.8217651E-001	-1.3302571E+000	0
2.9724176E+000	1.210078971495750E+002	-1.3316878E+000	-4.480150538757125E+002	5.9661621E-001	-1.3315620E+000	0
2.9428196E+000	1.211382971462808E+002	-1.3329933E+000	-4.529646670987613E+002	6.0379887E-001	-1.3328657E+000	0
2.9479492E+000	1.212786971427340E+002	-1.3344340E+000	-4.526652130569664E+002	6.0405189E-001	-1.3342700E+000	0
2.9235339E+000	1.214292971389295E+002	-1.3359369E+000	-4.569596023527029E+002	6.1046922E-001	-1.3357759E+000	0
2.9293895E+000	1.215799971351225E+002	-1.3374333E+000	-4.565570366134555E+002	6.1061460E-001	-1.3372831E+000	0
2.9396923E+000	1.217301971313282E+002	-1.3389111E+000	-4.554596154107840E+002	6.0981989E-001	-1.3387855E+000	0
2.9267645E+000	1.218905971272761E+002	-1.3405854E+000	-4.580434784372319E+002	6.1404639E-001	-1.3403887E+000	0
2.8688059E+000	1.220309971237293E+002	-1.3419620E+000	-4.677771974114571E+002	6.2773919E-001	-1.3417933E+000	0
2.8549082E+000	1.221815971199248E+002	-1.3434511E+000	-4.705759296152592E+002	6.3219577E-001	-1.3432989E+000	0
2.8591735E+000	1.223419971158728E+002	-1.3450785E+000	-4.704430925967317E+002	6.3278288E-001	-1.3449031E+000	0
2.8611293E+000	1.225023971118208E+002	-1.3466754E+000	-4.706796746978134E+002	6.3385272E-001	-1.3465072E+000	0
2.8769164E+000	1.226331971085165E+002	-1.3479780E+000	-4.685495694849351E+002	6.3159454E-001	-1.3478147E+000	0
2.8771853E+000	1.227639971052122E+002	-1.3493090E+000	-4.689683762617765E+002	6.3278323E-001	-1.3491223E+000	0
2.8880944E+000	1.228748971024106E+002	-1.3504027E+000	-4.675756601161202E+002	6.3141543E-001	-1.3502318E+000	0
2.8886383E+000	1.230256970986011E+002	-1.3518872E+000	-4.680015624995885E+002	6.3268536E-001	-1.3517400E+000	0
2.8386769E+000	1.231664970950442E+002	-1.3533108E+000	-4.767400078621504E+002	6.4517742E-001	-1.3531475E+000	0
2.7999518E+000	1.233171970912372E+002	-1.3548572E+000	-4.838858903820083E+002	6.5559626E-001	-1.3546546E+000	0
2.8079355E+000	1.234378970881880E+002	-1.3560708E+000	-4.829422965295626E+002	6.5490395E-001	-1.3558618E+000	0
2.7918851E+000	1.235784970846362E+002	-1.3574214E+000	-4.862024625957783E+002	6.5998161E-001	-1.3572673E+000	0
2.7265999E+000	1.237090970813370E+002	-1.3587112E+000	-4.983170633457576E+002	6.7706901E-001	-1.3585732E+000	0
2.7190557E+000	1.238197970785404E+002	-1.3598652E+000	-5.001240783555422E+002	6.8010134E-001	-1.3596809E+000	0
2.6745572E+000	1.239701970747410E+002	-1.3613805E+000	-5.090115479728247E+002	6.9295835E-001	-1.3611852E+000	0
2.6518171E+000	1.241206970709391E+002	-1.3628753E+000	-5.139401726265942E+002	7.0043641E-001	-1.3626901E+000	0
2.6559634E+000	1.242411970678950E+002	-1.3640549E+000	-5.135819778649575E+002	7.0055401E-001	-1.3638948E+000	0
2.6654837E+000	1.243814970643507E+002	-1.3654695E+000	-5.122783155326042E+002	6.9950038E-001	-1.3652979E+000	0
2.6616962E+000	1.245319970605487E+002	-1.3670173E+000	-5.135887604008749E+002	7.0208472E-001	-1.3668029E+000	0
2.6613050E+000	1.246823970567493E+002	-1.3685156E+000	-5.142272910145521E+002	7.0372808E-001	-1.3683071E+000	0
2.6701546E+000	1.248527970524447E+002	-1.3701860E+000	-5.131485677348492E+002	7.0310897E-001	-1.3700106E+000	0
2.6616154E+000	1.250233970481349E+002	-1.3719232E+000	-5.154475661835995E+002	7.0715445E-001	-1.3717164E+000	0
2.6587362E+000	1.251838970440804E+002	-1.3734748E+000	-5.165893788172252E+002	7.0952249E-001	-1.3733221E+000	0
2.6200697E+000	1.253444970400233E+002	-1.3751259E+000	-5.248432495544666E+002	7.2172552E-001	-1.3749279E+000	0
2.6373506E+000	1.254748970367291E+002	-1.3764328E+000	-5.218998320785040E+002	7.1836001E-001	-1.3762312E+000	0
2.6303606E+000	1.256056970334248E+002	-1.3777504E+000	-5.237876618195567E+002	7.2164863E-001	-1.3775395E+000	0
2.6309817E+000	1.257562970296203E+002	-1.3792260E+000	-5.242248264770078E+002	7.2302449E-001	-1.3790458E+000	0
2.6237874E+000	1.258866970263261E+002	-1.3805296E+000	-5.261591205679549E+002	7.2637826E-001	-1.3803499E+000	0
2.6074252E+000	1.260071970232821E+002	-1.3817929E+000	-5.299453828658325E+002	7.3227477E-001	-1.3815544E+000	0
2.6232686E+000	1.261474970197378E+002	-1.3831390E+000	-5.272578740455083E+002	7.2927094E-001	-1.3829578E+000	0
2.6072915E+000	1.262977970159409E+002	-1.3846930E+000	-5.310848426660964E+002	7.3538947E-001	-1.3844607E+000	0
2.5239246E+000	1.264384970123865E+002	-1.3860909E+000	-5.491807898926427E+002	7.6121449E-001	-1.3858676E+000	0
2.5006716E+000	1.265691970090847E+002	-1.3873852E+000	-5.548050599208673E+002	7.6972836E-001	-1.3871745E+000	0
2.4367988E+000	1.266797970062908E+002	-1.3884293E+000	-5.697758953166667E+002	7.9109353E-001	-1.3882800E+000	0
2.3896077E+000	1.267905970034917E+002	-1.3895943E+000	-5.815156626672597E+002	8.0807084E-001	-1.3893888E+000	0
2.3962965E+000	1.269308969999474E+002	-1.3909824E+000	-5.804717093972213E+002	8.0742592E-001	-1.3907918E+000	0
2.4052520E+000	1.270712969964006E+002	-1.3923883E+000	-5.788949965663760E+002	8.0604666E-001	-1.3921955E+000	0
2.3720181E+000	1.271721969938517E+002	-1.3934195E+000	-5.874404834226752E+002	8.1855100E-001	-1.3932042E+000	0
2.3411629E+000	1.273026969905550E+002	-1.3947611E+000	-5.957556746277470E+002	8.3093685E-001	-1.3945096E+000	0
2.3495796E+000	1.274236969874983E+002	-1.3959550E+000	-5.941296937035650E+002	8.2937831E-001	-1.3957192E+000	0
2.3526216E+000	1.275045969854546E+002	-1.3967694E+000	-5.937076166584720E+002	8.2927263E-001	-1.3965286E+000	0
2.3597217E+000	1.275431969844794E+002	-1.3972968E+000	-5.921447724841889E+002	8.2740200E-001	-1.3970295E+000	1