EC-Lab ASCII FILE
Nb header lines : 62                          

Linear Sweep Voltammetry

Run on channel : 1 (SN 1340)
User : 
Electrode connection : standard
Potential control : Ewe
Ewe ctrl range : min = -5.00 V, max = 5.00 V
Ewe,I filtering : 50 kHz
Channel : Grounded
Acquisition started on : 11/06/2025 11:45:29.937
Technique started on : 11/06/2025 11:45:29.937
Loaded Setting File :  C:\Users\volt\Documents\Platalytix\Ni_Test1_C01.mpr
Saved on :
	File : PtPdNi_Test1Rerun_C01.mpr
	Directory : C:\Users\volt\Documents\Platalytix\
	Host : 127.0.0.1
Device : SP-200 (SN 0262)
Address : USB
EC-LAB for windows v11.60 (software)
Internet server v11.60 (firmware)
Command interpretor v11.60 (firmware)
Electrode material : PtPdNi
Initial state : 
Electrolyte : KOH (1M)
Comments : 
Cable : standard
Reference electrode : Hg/HgO (0.140 V)
Electrode surface area : 1.000 cm˛
Characteristic mass : 0.001 g
Volume (V) : 0.001 cmł
Thickness (t) : 0.000 cm
Diameter (d) : 0.000 cm
Cell constant (k=t/A) : 0.000 cm-1
Cycle Definition : Charge/Discharge alternance
tR (h:m:s)          0:00:5.0000         
dER/dt (mV/h)       0.0                 
dER (mV)            0                   
dtR (s)             0.0000              
dE/dt               10.000              
dE/dt unit          mV/s                
Ei (V)              -0.200              
vs.                 Ref                 
EL (V)              -2.200              
vs.                 Ref                 
record              <I>                 
dI                  0.000               
unit dI             µA                  
tI (s)              0.0000              
step percent        50                  
N                   10                  
E range min (V)     -5.000              
E range max (V)     5.000               
I Range             Auto                
I Range min         Unset               
I Range max         Unset               
I Range init        Unset               
Bandwidth           8                   

<I>/mA	Ewe/V	control/V	Rwe/Ohm	time/s	
0.000000000000000E+000	1.7193604E-002	0.0000000E+000	0.0000000E+000	0.000000000000000E+000
0.000000000000000E+000	1.6937690E-002	-1.9997396E-001	0.0000000E+000	4.999799873694428E+000
-3.874087619620401E-001	-2.0156276E-001	-2.0127366E-001	5.2028448E+002	5.139799870157731E+000
-3.309575549193777E-001	-2.0271575E-001	-2.0247366E-001	6.1251288E+002	5.259799867126276E+000
-2.487739930584039E-001	-2.0482646E-001	-2.0457353E-001	8.2334357E+002	5.469799861821230E+000
-2.111330062442389E-001	-2.0681643E-001	-2.0657341E-001	9.7955518E+002	5.669799856768805E+000
-1.876335283910303E-001	-2.0885548E-001	-2.0857331E-001	1.1131031E+003	5.869799851716380E+000
-1.710847795301047E-001	-2.1085081E-001	-2.1057320E-001	1.2324346E+003	6.069799846663955E+000
-1.586459618085017E-001	-2.1285655E-001	-2.1257310E-001	1.3417079E+003	6.269799841611530E+000
-1.487667006619966E-001	-2.1484803E-001	-2.1457300E-001	1.4441943E+003	6.469799836559105E+000
-1.407093213007378E-001	-2.1683741E-001	-2.1657288E-001	1.5410309E+003	6.669799831506680E+000
-1.339321875862372E-001	-2.1882953E-001	-2.1857275E-001	1.6338831E+003	6.869799826454255E+000
-1.281224769041732E-001	-2.2084437E-001	-2.2057262E-001	1.7236974E+003	7.069799821401830E+000
-1.231510313417843E-001	-2.2284353E-001	-2.2257254E-001	1.8095142E+003	7.269799816349405E+000
-1.187401018189922E-001	-2.2483824E-001	-2.2457242E-001	1.8935325E+003	7.469799811296980E+000
-1.148017395885401E-001	-2.2685114E-001	-2.2657232E-001	1.9760253E+003	7.669799806244555E+000
-1.113169496380587E-001	-2.2884241E-001	-2.2857217E-001	2.0557732E+003	7.869799801192130E+000
-1.081351309015828E-001	-2.3084284E-001	-2.3057207E-001	2.1347627E+003	8.069799796139705E+000
-1.052136537322119E-001	-2.3286194E-001	-2.3257197E-001	2.2132292E+003	8.269699791089806E+000
-1.025483636386151E-001	-2.3484343E-001	-2.3457186E-001	2.2900750E+003	8.469599786039907E+000
-1.001220469652355E-001	-2.3686083E-001	-2.3657174E-001	2.3657209E+003	8.669599780987483E+000
-9.782839168650792E-002	-2.3885274E-001	-2.3857166E-001	2.4415483E+003	8.869599775935058E+000
-9.565941516210708E-002	-2.4084446E-001	-2.4057153E-001	2.5177288E+003	9.069599770882633E+000
-9.374334677988398E-002	-2.4285802E-001	-2.4257143E-001	2.5906694E+003	9.269599765830208E+000
-9.193788839149319E-002	-2.4484614E-001	-2.4457128E-001	2.6631689E+003	9.469599760777783E+000
-9.019583208135940E-002	-2.4684907E-001	-2.4657121E-001	2.7368125E+003	9.669599755725358E+000
-8.857700637332644E-002	-2.4884443E-001	-2.4857110E-001	2.8093569E+003	9.869599750672933E+000
-8.709953759127453E-002	-2.5084886E-001	-2.5057095E-001	2.8800251E+003	1.006959974562051E+001
-8.561312611787120E-002	-2.5284651E-001	-2.5257087E-001	2.9533616E+003	1.026959974056808E+001
-8.434094484397048E-002	-2.5484478E-001	-2.5457075E-001	3.0216023E+003	1.046959973551566E+001
-8.294535503942341E-002	-2.5683972E-001	-2.5657064E-001	3.0964932E+003	1.066959973046323E+001
-8.172610591433926E-002	-2.5885561E-001	-2.5857052E-001	3.1673552E+003	1.086959972541081E+001
-8.057067608312940E-002	-2.6082951E-001	-2.6057044E-001	3.2372759E+003	1.106959972035838E+001
-7.944215667252408E-002	-2.6283136E-001	-2.6257029E-001	3.3084622E+003	1.126959971530596E+001
-7.835720992138184E-002	-2.6483712E-001	-2.6457018E-001	3.3798691E+003	1.146959971025353E+001
-7.730754594690259E-002	-2.6682886E-001	-2.6657009E-001	3.4515242E+003	1.166959970520111E+001
-7.634782764537434E-002	-2.6882136E-001	-2.6857018E-001	3.5210085E+003	1.186949970015121E+001
-7.546921736189083E-002	-2.7084279E-001	-2.7056986E-001	3.5887849E+003	1.206939969510131E+001
-7.448611363595398E-002	-2.7282664E-001	-2.7256975E-001	3.6627854E+003	1.226939969004889E+001
-7.364770896413908E-002	-2.7483556E-001	-2.7456963E-001	3.7317598E+003	1.246939968499646E+001
-7.277811264572770E-002	-2.7682790E-001	-2.7656952E-001	3.8037246E+003	1.266939967994404E+001
-7.199314861640738E-002	-2.7881452E-001	-2.7856940E-001	3.8727925E+003	1.286939967489161E+001
-7.127849658256369E-002	-2.8084740E-001	-2.8056931E-001	3.9401421E+003	1.306939966983919E+001
-7.052829241339997E-002	-2.8282851E-001	-2.8256920E-001	4.0101426E+003	1.326939966478676E+001
-6.978035132535854E-002	-2.8483996E-001	-2.8456908E-001	4.0819507E+003	1.346939965973434E+001
-6.904590082916584E-002	-2.8683019E-001	-2.8656897E-001	4.1541958E+003	1.366939965468191E+001
-6.845626948811032E-002	-2.8881890E-001	-2.8856885E-001	4.2190278E+003	1.386939964962949E+001
-6.777623159781332E-002	-2.9083779E-001	-2.9056874E-001	4.2911475E+003	1.406939964457706E+001
-6.715455810674609E-002	-2.9282886E-001	-2.9256865E-001	4.3605210E+003	1.426939963952464E+001
-6.657243324412021E-002	-2.9482758E-001	-2.9456854E-001	4.4286738E+003	1.446939963447221E+001
-6.599840374141830E-002	-2.9683775E-001	-2.9656842E-001	4.4976504E+003	1.466939962941979E+001
-6.541272041402668E-002	-2.9882818E-001	-2.9856828E-001	4.5683496E+003	1.486939962436736E+001
-6.493829172516390E-002	-3.0082497E-001	-3.0056819E-001	4.6324741E+003	1.506939961931494E+001
-6.444662045307317E-002	-3.0282626E-001	-3.0256808E-001	4.6988696E+003	1.526939961426251E+001
-6.391744837274138E-002	-3.0482540E-001	-3.0456820E-001	4.7690483E+003	1.546929960921261E+001
-6.344165806521318E-002	-3.0682835E-001	-3.0656785E-001	4.8363862E+003	1.566919960416271E+001
-6.295791755603597E-002	-3.0884764E-001	-3.0856776E-001	4.9056201E+003	1.586919959911029E+001
-6.247579107639689E-002	-3.1086609E-001	-3.1056762E-001	4.9757847E+003	1.606919959405786E+001
-6.207910121752208E-002	-3.1284893E-001	-3.1256753E-001	5.0395210E+003	1.626919958900544E+001
-6.169007519469094E-002	-3.1484509E-001	-3.1456742E-001	5.1036587E+003	1.646919958395301E+001
-6.125383107403445E-002	-3.1684634E-001	-3.1656730E-001	5.1726777E+003	1.666919957890059E+001
-6.090626054625031E-002	-3.1883994E-001	-3.1856719E-001	5.2349287E+003	1.686919957384816E+001
-6.056578272516511E-002	-3.2083017E-001	-3.2056707E-001	5.2972183E+003	1.706919956879574E+001
-6.016870752154313E-002	-3.2283229E-001	-3.2256696E-001	5.3654517E+003	1.726919956374331E+001
-5.982417487718850E-002	-3.2484430E-001	-3.2456687E-001	5.4299839E+003	1.746919955869089E+001
-5.953290179063508E-002	-3.2684118E-001	-3.2656673E-001	5.4900933E+003	1.766919955363846E+001
-5.920867477765368E-002	-3.2883966E-001	-3.2856661E-001	5.5539102E+003	1.786919954858604E+001
-5.887311901590953E-002	-3.3083370E-001	-3.3056650E-001	5.6194355E+003	1.806919954353361E+001
-5.862640100320105E-002	-3.3284092E-001	-3.3256641E-001	5.6773213E+003	1.826919953848119E+001
-5.837955233237585E-002	-3.3484557E-001	-3.3456630E-001	5.7356655E+003	1.846919953342876E+001
-5.811598058473177E-002	-3.3685470E-001	-3.3656618E-001	5.7962490E+003	1.866919952837634E+001
-5.788357431161917E-002	-3.3885145E-001	-3.3856606E-001	5.8540176E+003	1.886919952332391E+001
-5.762771714200232E-002	-3.4085083E-001	-3.4056640E-001	5.9147031E+003	1.906909951827402E+001
-5.742091035983543E-002	-3.4285337E-001	-3.4256583E-001	5.9708799E+003	1.926899951322412E+001
-5.719968972119410E-002	-3.4485465E-001	-3.4456575E-001	6.0289600E+003	1.946899950817169E+001
-5.708568563469422E-002	-3.4684017E-001	-3.4656563E-001	6.0757817E+003	1.966899950311927E+001
-5.692543430188382E-002	-3.4884867E-001	-3.4856555E-001	6.1281689E+003	1.986899949806684E+001
-5.664213531483775E-002	-3.5084251E-001	-3.5056540E-001	6.1940195E+003	2.006899949301442E+001
-5.657577289314819E-002	-3.5283107E-001	-3.5256532E-001	6.2364341E+003	2.026899948796199E+001
-5.639753391377023E-002	-3.5486242E-001	-3.5456517E-001	6.2921621E+003	2.046899948290957E+001
-5.624259029812850E-002	-3.5683504E-001	-3.5656512E-001	6.3445698E+003	2.066899947785714E+001
-5.613324931524932E-002	-3.5884097E-001	-3.5856497E-001	6.3926636E+003	2.086899947280472E+001
-5.606736641539800E-002	-3.6084118E-001	-3.6056489E-001	6.4358506E+003	2.106899946775229E+001
-5.589895469269579E-002	-3.6283880E-001	-3.6256474E-001	6.4909766E+003	2.126899946269987E+001
-5.579460742503259E-002	-3.6481565E-001	-3.6456463E-001	6.5385469E+003	2.146899945764744E+001
-5.576838339761292E-002	-3.6683983E-001	-3.6656454E-001	6.5779175E+003	2.166899945259502E+001
-5.564579003978331E-002	-3.6883307E-001	-3.6856440E-001	6.6282295E+003	2.186899944754259E+001
-5.558938104258077E-002	-3.7082794E-001	-3.7056431E-001	6.6708413E+003	2.206899944249017E+001
-5.551045519603925E-002	-3.7282753E-001	-3.7256417E-001	6.7163481E+003	2.226899943743774E+001
-5.553504707589485E-002	-3.7483341E-001	-3.7456411E-001	6.7494927E+003	2.246899943238532E+001
-5.546963765140833E-002	-3.7682790E-001	-3.7656420E-001	6.7934082E+003	2.266889942733542E+001
-5.541400330578361E-002	-3.7883192E-001	-3.7856388E-001	6.8363936E+003	2.286879942228552E+001
-5.543476955747662E-002	-3.8082811E-001	-3.8056374E-001	6.8698423E+003	2.306879941723309E+001
-5.535206736631437E-002	-3.8283589E-001	-3.8256362E-001	6.9163794E+003	2.326879941218067E+001
-5.543949590655883E-002	-3.8483909E-001	-3.8456354E-001	6.9416050E+003	2.346879940712824E+001
-5.539559067571176E-002	-3.8686308E-001	-3.8656339E-001	6.9836440E+003	2.366879940207582E+001
-5.538514244651045E-002	-3.8885498E-001	-3.8856331E-001	7.0209258E+003	2.386879939702339E+001
-5.548252777171092E-002	-3.9086089E-001	-3.9056319E-001	7.0447563E+003	2.406879939197097E+001
-5.542760162958515E-002	-3.9283946E-001	-3.9256310E-001	7.0874341E+003	2.426879938691854E+001
-5.550348960484075E-002	-3.9484584E-001	-3.9456296E-001	7.1138921E+003	2.446879938186612E+001
-5.546957703862693E-002	-3.9684179E-001	-3.9656290E-001	7.1542241E+003	2.466879937681369E+001
-5.550580147375050E-002	-3.9883751E-001	-3.9856276E-001	7.1855103E+003	2.486879937176127E+001
-5.559142696293150E-002	-4.0084243E-001	-4.0056267E-001	7.2105078E+003	2.506879936670884E+001
-5.557640578519646E-002	-4.0284368E-001	-4.0256253E-001	7.2484658E+003	2.526879936165642E+001
-5.562369750027052E-002	-4.0482941E-001	-4.0456241E-001	7.2780024E+003	2.546879935660400E+001
-5.571249353143970E-002	-4.0684897E-001	-4.0656233E-001	7.3026523E+003	2.566879935155157E+001
-5.575976308430985E-002	-4.0883580E-001	-4.0856218E-001	7.3320938E+003	2.586879934649915E+001
-5.579945720339408E-002	-4.1084400E-001	-4.1056210E-001	7.3628672E+003	2.606879934144672E+001
-5.586428049622572E-002	-4.1288227E-001	-4.1256219E-001	7.3908096E+003	2.626869933639682E+001
-5.589556368384607E-002	-4.1488305E-001	-4.1456190E-001	7.4224683E+003	2.646859933134692E+001
-5.597561749190438E-002	-4.1687924E-001	-4.1656175E-001	7.4475146E+003	2.666859932629450E+001
-5.602458870363619E-002	-4.1886860E-001	-4.1856164E-001	7.4765137E+003	2.686859932124207E+001
-5.607949000204626E-002	-4.2086414E-001	-4.2056155E-001	7.5047783E+003	2.706859931618965E+001
-5.612288848412500E-002	-4.2286792E-001	-4.2256141E-001	7.5346787E+003	2.726859931113722E+001
-5.618611210165247E-002	-4.2487639E-001	-4.2456132E-001	7.5619468E+003	2.746859930608480E+001
-5.628308416565975E-002	-4.2686623E-001	-4.2656121E-001	7.5842725E+003	2.766859930103237E+001
-5.625381455239342E-002	-4.2887661E-001	-4.2856106E-001	7.6239561E+003	2.786859929597995E+001
-5.632593637583638E-002	-4.3087572E-001	-4.3056098E-001	7.6496860E+003	2.806859929092752E+001
-5.641575785915554E-002	-4.3286341E-001	-4.3256083E-001	7.6727397E+003	2.826859928587510E+001
-5.649588000115879E-002	-4.3486679E-001	-4.3456078E-001	7.6973184E+003	2.846859928082267E+001
-5.646145720955607E-002	-4.3686974E-001	-4.3656063E-001	7.7374863E+003	2.866859927577025E+001
-5.649663364174684E-002	-4.3887931E-001	-4.3856049E-001	7.7682383E+003	2.886859927071782E+001
-5.656263907545611E-002	-4.4087332E-001	-4.4056043E-001	7.7944263E+003	2.906859926566540E+001
-5.658665346773650E-002	-4.4287249E-001	-4.4256026E-001	7.8264478E+003	2.926859926061297E+001
-5.656293940692381E-002	-4.4486910E-001	-4.4456020E-001	7.8650278E+003	2.946859925556055E+001
-5.665697400456060E-002	-4.4688731E-001	-4.4656006E-001	7.8875957E+003	2.966859925050812E+001
-5.662175976979519E-002	-4.4887349E-001	-4.4856000E-001	7.9275791E+003	2.986849924545822E+001
-5.667434190927906E-002	-4.5087668E-001	-4.5055985E-001	7.9555698E+003	3.006839924040833E+001
-5.664559881585129E-002	-4.5289260E-001	-4.5255974E-001	7.9951948E+003	3.026839923535590E+001
-5.661982599468451E-002	-4.5487434E-001	-4.5455968E-001	8.0338350E+003	3.046839923030348E+001
-5.655581213147420E-002	-4.5688558E-001	-4.5655948E-001	8.0784902E+003	3.066839922525105E+001
-5.657881244704499E-002	-4.5886433E-001	-4.5855948E-001	8.1101797E+003	3.086839922019863E+001
-5.652338224082989E-002	-4.6087727E-001	-4.6055928E-001	8.1537456E+003	3.106839921514620E+001
-5.655324708062182E-002	-4.6287683E-001	-4.6255919E-001	8.1847969E+003	3.126839921009378E+001
-5.646895845642397E-002	-4.6485704E-001	-4.6455911E-001	8.2320811E+003	3.146839920504135E+001
-5.642196199489244E-002	-4.6686214E-001	-4.6655896E-001	8.2744756E+003	3.166839919998893E+001
-5.639626520428198E-002	-4.6886429E-001	-4.6855891E-001	8.3137471E+003	3.186839919493650E+001
-5.636361058296702E-002	-4.7085091E-001	-4.7055870E-001	8.3538105E+003	3.206839918988408E+001
-5.627869945621367E-002	-4.7286782E-001	-4.7255865E-001	8.4022520E+003	3.226839918483165E+001
-5.624514616035392E-002	-4.7485149E-001	-4.7455853E-001	8.4425332E+003	3.246839917977923E+001
-5.616628603646490E-002	-4.7687545E-001	-4.7655842E-001	8.4904219E+003	3.266839917472680E+001
-5.603132462878690E-002	-4.7885546E-001	-4.7855833E-001	8.5462100E+003	3.286839916967438E+001
-5.598082071193439E-002	-4.8087329E-001	-4.8055819E-001	8.5899648E+003	3.306839916462195E+001
-5.585974145758810E-002	-4.8285565E-001	-4.8255813E-001	8.6440723E+003	3.326839915956953E+001
-5.578806933266411E-002	-4.8486692E-001	-4.8455822E-001	8.6912295E+003	3.346829915451963E+001
-5.562895002390511E-002	-4.8686561E-001	-4.8655784E-001	8.7520186E+003	3.366819914946973E+001
-5.551368393882446E-002	-4.8886201E-001	-4.8855779E-001	8.8061533E+003	3.386819914441730E+001
-5.541841990669205E-002	-4.9086520E-001	-4.9055764E-001	8.8574375E+003	3.406819913936488E+001
-5.531935549769862E-002	-4.9286410E-001	-4.9255759E-001	8.9094336E+003	3.426819913431245E+001
-5.513469579253671E-002	-4.9487257E-001	-4.9455741E-001	8.9757012E+003	3.446819912926003E+001
-5.497155365134984E-002	-4.9686089E-001	-4.9655733E-001	9.0385088E+003	3.466819912420760E+001
-5.488493487126966E-002	-4.9887171E-001	-4.9855721E-001	9.0894111E+003	3.486819911915518E+001
-5.470153751947787E-002	-5.0085658E-001	-5.0055707E-001	9.1561699E+003	3.506819911410275E+001
-5.452606671747451E-002	-5.0286597E-001	-5.0255704E-001	9.2224873E+003	3.526819910905033E+001
-5.440988632704613E-002	-5.0487280E-001	-5.0455683E-001	9.2790635E+003	3.546819910399790E+001
-5.423665978278425E-002	-5.0686556E-001	-5.0655681E-001	9.3454424E+003	3.566819909894548E+001
-5.399329855123669E-002	-5.0887376E-001	-5.0855666E-001	9.4247578E+003	3.586819909389305E+001
-5.391204404927658E-002	-5.1087373E-001	-5.1055652E-001	9.4760596E+003	3.606819908884063E+001
-5.367612911022923E-002	-5.1288033E-001	-5.1255643E-001	9.5550918E+003	3.626819908378820E+001
-5.360159532762543E-002	-5.1487368E-001	-5.1455629E-001	9.6055664E+003	3.646819907873578E+001
-5.332192827634874E-002	-5.1686633E-001	-5.1655620E-001	9.6933164E+003	3.666819907368335E+001
-5.318765865391750E-002	-5.1886952E-001	-5.1855606E-001	9.7554492E+003	3.686819906863093E+001
-5.300628045873054E-002	-5.2087140E-001	-5.2055597E-001	9.8265977E+003	3.706809906358103E+001
-5.275799295613692E-002	-5.2287495E-001	-5.2255589E-001	9.9108193E+003	3.726799905853113E+001
-5.259221831976502E-002	-5.2485478E-001	-5.2455574E-001	9.9797041E+003	3.746799905347871E+001
-5.239272301186682E-002	-5.2685964E-001	-5.2655566E-001	1.0055970E+004	3.766799904842628E+001
-5.220152924308252E-002	-5.2886921E-001	-5.2855557E-001	1.0131297E+004	3.786799904337386E+001
-5.202001932049649E-002	-5.3087813E-001	-5.3055543E-001	1.0205266E+004	3.806799903832143E+001
-5.190029669745222E-002	-5.3285432E-001	-5.3255534E-001	1.0266884E+004	3.826799903326901E+001
-5.167133817787112E-002	-5.3485775E-001	-5.3455514E-001	1.0351149E+004	3.846799902821658E+001
-5.146955344836569E-002	-5.3686345E-001	-5.3655511E-001	1.0430699E+004	3.866799902316416E+001
-5.129279358979832E-002	-5.3885788E-001	-5.3855497E-001	1.0505528E+004	3.886799901811173E+001
-5.113384185534170E-002	-5.4088485E-001	-5.4055488E-001	1.0577825E+004	3.906799901305931E+001
-5.092611486913695E-002	-5.4285002E-001	-5.4255480E-001	1.0659561E+004	3.926799900800688E+001
-5.067325257347788E-002	-5.4487383E-001	-5.4455465E-001	1.0752691E+004	3.946799900295446E+001
-5.047888147260327E-002	-5.4687732E-001	-5.4655457E-001	1.0833784E+004	3.966799899790203E+001
-5.035785781779256E-002	-5.4888898E-001	-5.4855442E-001	1.0899769E+004	3.986799899284961E+001
-5.010700672801571E-002	-5.5085105E-001	-5.5055434E-001	1.0993493E+004	4.006799898779718E+001
-4.994652209362060E-002	-5.5287367E-001	-5.5255425E-001	1.1069313E+004	4.026799898274476E+001
-4.978121488509249E-002	-5.5486798E-001	-5.5455410E-001	1.1146132E+004	4.046799897769233E+001
-4.958236737930122E-002	-5.5685598E-001	-5.5655402E-001	1.1230928E+004	4.066789897264243E+001
-4.945585283381060E-002	-5.5886966E-001	-5.5855387E-001	1.1300375E+004	4.086779896759253E+001
-4.923185376691164E-002	-5.6088811E-001	-5.6055379E-001	1.1392789E+004	4.106779896254011E+001
-4.908457725275048E-002	-5.6287003E-001	-5.6255364E-001	1.1467350E+004	4.126779895748768E+001
-4.889399688448026E-002	-5.6487298E-001	-5.6455350E-001	1.1553013E+004	4.146779895243526E+001
-4.875455228474546E-002	-5.6685090E-001	-5.6655347E-001	1.1626625E+004	4.166779894738283E+001
-4.857343325603658E-002	-5.6886286E-001	-5.6855327E-001	1.1711399E+004	4.186779894233041E+001
-4.843713073117994E-002	-5.7086855E-001	-5.7055324E-001	1.1785763E+004	4.206779893727798E+001
-4.828173530054669E-002	-5.7286173E-001	-5.7255310E-001	1.1864979E+004	4.226779893222556E+001
-4.808049042030182E-002	-5.7487065E-001	-5.7455301E-001	1.1956422E+004	4.246779892717313E+001
-4.797694946416442E-002	-5.7685512E-001	-5.7655287E-001	1.2023589E+004	4.266779892212071E+001
-4.781399529650088E-002	-5.7886297E-001	-5.7855272E-001	1.2106560E+004	4.286779891706828E+001
-4.761119685985793E-002	-5.8086336E-001	-5.8055264E-001	1.2200142E+004	4.306779891201586E+001
-4.749625402897639E-002	-5.8286971E-001	-5.8255249E-001	1.2271909E+004	4.326779890696344E+001
-4.739018904954374E-002	-5.8486778E-001	-5.8455241E-001	1.2341537E+004	4.346779890191101E+001
-4.723621435308212E-002	-5.8686411E-001	-5.8655232E-001	1.2424029E+004	4.366779889685859E+001
-4.710303767359347E-002	-5.8886176E-001	-5.8855218E-001	1.2501566E+004	4.386779889180616E+001
-4.703494649071072E-002	-5.9087372E-001	-5.9055209E-001	1.2562440E+004	4.406779888675374E+001
-4.686956079359114E-002	-5.9288090E-001	-5.9255219E-001	1.2649594E+004	4.426769888170384E+001
-4.672167424187534E-002	-5.9486371E-001	-5.9455186E-001	1.2732072E+004	4.446759887665394E+001
-4.662723811776234E-002	-5.9685969E-001	-5.9655172E-001	1.2800666E+004	4.466759887160151E+001
-4.649983295540444E-002	-5.9887707E-001	-5.9855163E-001	1.2879123E+004	4.486759886654909E+001
-4.639377390866567E-002	-6.0086340E-001	-6.0055155E-001	1.2951380E+004	4.506759886149666E+001
-4.622539000896153E-002	-6.0286278E-001	-6.0255140E-001	1.3041811E+004	4.526759885644424E+001
-4.615619525924775E-002	-6.0486323E-001	-6.0455132E-001	1.3104703E+004	4.546759885139181E+001
-4.610032369482986E-002	-6.0686344E-001	-6.0655123E-001	1.3163974E+004	4.566759884633939E+001
-4.598432941528041E-002	-6.0886061E-001	-6.0855108E-001	1.3240611E+004	4.586759884128696E+001
-4.590184735810043E-002	-6.1086804E-001	-6.1055100E-001	1.3308136E+004	4.606759883623454E+001
-4.580389941322394E-002	-6.1287296E-001	-6.1255085E-001	1.3380366E+004	4.626759883118211E+001
-4.574031061007144E-002	-6.1488289E-001	-6.1455077E-001	1.3442910E+004	4.646759882612969E+001
-4.570972926221993E-002	-6.1686611E-001	-6.1655062E-001	1.3495291E+004	4.666759882107726E+001
-4.564739208163726E-002	-6.1888397E-001	-6.1855060E-001	1.3557926E+004	4.686759881602484E+001
-4.552635175620500E-002	-6.2088031E-001	-6.2055045E-001	1.3637822E+004	4.706759881097241E+001
-4.547431643855848E-002	-6.2288392E-001	-6.2255031E-001	1.3697488E+004	4.726759880591999E+001
-4.544285188329833E-002	-6.2487793E-001	-6.2455022E-001	1.3750852E+004	4.746759880086756E+001
-4.531895840284994E-002	-6.2687749E-001	-6.2655008E-001	1.3832566E+004	4.766759879581514E+001
-4.531233652495736E-002	-6.2888235E-001	-6.2855005E-001	1.3878833E+004	4.786749879076524E+001
-4.525904304162082E-002	-6.3088715E-001	-6.3054985E-001	1.3939472E+004	4.806739878571534E+001
-4.520926330383240E-002	-6.3291013E-001	-6.3254982E-001	1.3999567E+004	4.826739878066292E+001
-4.517365711906940E-002	-6.3485956E-001	-6.3454968E-001	1.4053756E+004	4.846739877561049E+001
-4.514567055575824E-002	-6.3688886E-001	-6.3654953E-001	1.4107418E+004	4.866739877055807E+001
-4.507833151009488E-002	-6.3889629E-001	-6.3854945E-001	1.4173024E+004	4.886739876550564E+001
-4.504295131096603E-002	-6.4087421E-001	-6.4054930E-001	1.4228068E+004	4.906739876045322E+001
-4.499993971290261E-002	-6.4288849E-001	-6.4254922E-001	1.4286430E+004	4.926739875540079E+001
-4.503319811423312E-002	-6.4489007E-001	-6.4454907E-001	1.4320326E+004	4.946739875034837E+001
-4.501031941360456E-002	-6.4688885E-001	-6.4654893E-001	1.4372012E+004	4.966739874529594E+001
-4.504358723032115E-002	-6.4889514E-001	-6.4854890E-001	1.4405938E+004	4.986739874024352E+001
-4.501809081925356E-002	-6.5088111E-001	-6.5054876E-001	1.4458212E+004	5.006739873519109E+001
-4.498541497576847E-002	-6.5287620E-001	-6.5254867E-001	1.4513063E+004	5.026739873013867E+001
-4.505817783872956E-002	-6.5489680E-001	-6.5454853E-001	1.4534472E+004	5.046739872508624E+001
-4.503336296677629E-002	-6.5689111E-001	-6.5654838E-001	1.4586766E+004	5.066739872003382E+001
-4.508889663083893E-002	-6.5889049E-001	-6.5854830E-001	1.4613143E+004	5.086739871498139E+001
-4.502791759891722E-002	-6.6087747E-001	-6.6054815E-001	1.4677061E+004	5.106739870992897E+001
-4.513935754344908E-002	-6.6289610E-001	-6.6254807E-001	1.4685546E+004	5.126739870487654E+001
-4.520991719880207E-002	-6.6487664E-001	-6.6454846E-001	1.4706434E+004	5.146729869982664E+001
-4.523199373832948E-002	-6.6688126E-001	-6.6654783E-001	1.4743574E+004	5.166719869477674E+001
-4.515969942222497E-002	-6.6887742E-001	-6.6854775E-001	1.4811379E+004	5.186719868972432E+001
-4.526836207467011E-002	-6.7086232E-001	-6.7054760E-001	1.4819673E+004	5.206719868467189E+001
-4.532022410797797E-002	-6.7286491E-001	-6.7254752E-001	1.4846901E+004	5.226719867961947E+001
-4.537008291077652E-002	-6.7486697E-001	-6.7454737E-001	1.4874713E+004	5.246719867456704E+001
-4.552248692458860E-002	-6.7687547E-001	-6.7654729E-001	1.4869035E+004	5.266719866951462E+001
-4.556413234661327E-002	-6.7885447E-001	-6.7854720E-001	1.4898878E+004	5.286719866446219E+001
-4.562589594468164E-002	-6.8086714E-001	-6.8054712E-001	1.4922822E+004	5.306719865940977E+001
-4.569477355978802E-002	-6.8287414E-001	-6.8254703E-001	1.4944251E+004	5.326719865435734E+001
-4.576769246996426E-002	-6.8485844E-001	-6.8454689E-001	1.4963797E+004	5.346719864930492E+001
-4.597842537448482E-002	-6.8686181E-001	-6.8654674E-001	1.4938785E+004	5.366719864425249E+001
-4.614181932702843E-002	-6.8885326E-001	-6.8854666E-001	1.4929044E+004	5.386719863920007E+001
-4.616180902728173E-002	-6.9086754E-001	-6.9054651E-001	1.4966215E+004	5.406719863414764E+001
-4.627070326359117E-002	-6.9286281E-001	-6.9254643E-001	1.4974114E+004	5.426719862909522E+001
-4.646084060002315E-002	-6.9486630E-001	-6.9454634E-001	1.4955956E+004	5.446719862404279E+001
-4.659446750402180E-002	-6.9688356E-001	-6.9654626E-001	1.4956358E+004	5.466719861899037E+001
-4.681061842302470E-002	-6.9886750E-001	-6.9854611E-001	1.4929679E+004	5.486719861393794E+001
-4.696561495934570E-002	-7.0088023E-001	-7.0054626E-001	1.4923263E+004	5.506709860888805E+001
-4.716275075013399E-002	-7.0285678E-001	-7.0254594E-001	1.4902794E+004	5.526699860383815E+001
-4.725991758568626E-002	-7.0486641E-001	-7.0454574E-001	1.4914677E+004	5.546699859878572E+001
-4.756677704372247E-002	-7.0688522E-001	-7.0654565E-001	1.4860902E+004	5.566699859373330E+001
-4.771861628958707E-002	-7.0886850E-001	-7.0854557E-001	1.4855178E+004	5.586699858868087E+001
-4.796731833747615E-002	-7.1088207E-001	-7.1054548E-001	1.4820134E+004	5.606699858362845E+001
-4.812039125551287E-002	-7.1285951E-001	-7.1254534E-001	1.4814084E+004	5.626699857857602E+001
-4.838194857486644E-002	-7.1487474E-001	-7.1454519E-001	1.4775650E+004	5.646699857352360E+001
-4.859417092103679E-002	-7.1687114E-001	-7.1654510E-001	1.4752204E+004	5.666699856847117E+001
-4.891717699968823E-002	-7.1887481E-001	-7.1854496E-001	1.4695754E+004	5.686699856341875E+001
-4.913811367416919E-002	-7.2088999E-001	-7.2054487E-001	1.4670689E+004	5.706699855836632E+001
-4.937986857806886E-002	-7.2287285E-001	-7.2254479E-001	1.4639020E+004	5.726699855331390E+001
-4.970297041875016E-002	-7.2485113E-001	-7.2454458E-001	1.4583658E+004	5.746699854826147E+001
-4.998265945958707E-002	-7.2686833E-001	-7.2654462E-001	1.4542410E+004	5.766699854320905E+001
-5.020919500516469E-002	-7.2886771E-001	-7.2854441E-001	1.4516618E+004	5.786699853815662E+001
-5.058595645896136E-002	-7.3088068E-001	-7.3054433E-001	1.4448292E+004	5.806699853310420E+001
-5.089301441673655E-002	-7.3286557E-001	-7.3254418E-001	1.4400121E+004	5.826699852805177E+001
-5.123564692704075E-002	-7.3488146E-001	-7.3454410E-001	1.4343167E+004	5.846699852299935E+001
-5.157954884048643E-002	-7.3684084E-001	-7.3654449E-001	1.4285523E+004	5.866689851794945E+001
-5.195754905951444E-002	-7.3886430E-001	-7.3854381E-001	1.4220538E+004	5.886679851289955E+001
-5.232062307978347E-002	-7.4086720E-001	-7.4054372E-001	1.4160137E+004	5.906679850784712E+001
-5.269263714315384E-002	-7.4285722E-001	-7.4254364E-001	1.4097932E+004	5.926679850279470E+001
-5.289620198594511E-002	-7.4488074E-001	-7.4454355E-001	1.4081933E+004	5.946679849774227E+001
-5.312164339222192E-002	-7.4687481E-001	-7.4654347E-001	1.4059708E+004	5.966679849268985E+001
-5.350312227784529E-002	-7.4886841E-001	-7.4854326E-001	1.3996724E+004	5.986679848763742E+001
-5.394575522912670E-002	-7.5087589E-001	-7.5054324E-001	1.3919091E+004	6.006679848258500E+001
-5.425888555263780E-002	-7.5287420E-001	-7.5254303E-001	1.3875593E+004	6.026679847753257E+001
-5.480738746977978E-002	-7.5487053E-001	-7.5454295E-001	1.3773153E+004	6.046679847248015E+001
-5.522103934514999E-002	-7.5687200E-001	-7.5654286E-001	1.3706226E+004	6.066679846742773E+001
-5.564828471189820E-002	-7.5886983E-001	-7.5854278E-001	1.3636896E+004	6.086679846237530E+001
-5.603030978547840E-002	-7.6088381E-001	-7.6054269E-001	1.3579860E+004	6.106679845732288E+001
-5.657366463331637E-002	-7.6287067E-001	-7.6254255E-001	1.3484555E+004	6.126679845227045E+001
-5.704932087449488E-002	-7.6486641E-001	-7.6454246E-001	1.3407108E+004	6.146679844721803E+001
-5.764153633158964E-002	-7.6687580E-001	-7.6654238E-001	1.3304222E+004	6.166679844216560E+001
-5.803689619900065E-002	-7.6886702E-001	-7.6854217E-001	1.3247900E+004	6.186679843711318E+001
-5.863345227977179E-002	-7.7087897E-001	-7.7054209E-001	1.3147426E+004	6.206679843206075E+001
-5.920134427939761E-002	-7.7287209E-001	-7.7254242E-001	1.3054976E+004	6.226669842701085E+001
-5.982023855151766E-002	-7.7486110E-001	-7.7454191E-001	1.2953159E+004	6.246659842196095E+001
-6.022925953572922E-002	-7.7685851E-001	-7.7654177E-001	1.2898357E+004	6.266659841690853E+001
-6.081033740805086E-002	-7.7883452E-001	-7.7854162E-001	1.2807601E+004	6.286659841185610E+001
-6.143264689740402E-002	-7.8084254E-001	-7.8054160E-001	1.2710547E+004	6.306659840680368E+001
-6.206467655506365E-002	-7.8285700E-001	-7.8254139E-001	1.2613567E+004	6.326659840175125E+001
-6.248655391417768E-002	-7.8486824E-001	-7.8454143E-001	1.2560594E+004	6.346659839669883E+001
-6.336096012458003E-002	-7.8686947E-001	-7.8654122E-001	1.2418838E+004	6.366659839164640E+001
-6.425376143095329E-002	-7.8887862E-001	-7.8854114E-001	1.2277548E+004	6.386659838659398E+001
-6.507031582380376E-002	-7.9084951E-001	-7.9054105E-001	1.2153768E+004	6.406659838154155E+001
-6.580462131402176E-002	-7.9286075E-001	-7.9254085E-001	1.2048709E+004	6.426659837648913E+001
-6.651593243192200E-002	-7.9485542E-001	-7.9454076E-001	1.1949850E+004	6.446659837143670E+001
-6.754943038771960E-002	-7.9685158E-001	-7.9654074E-001	1.1796570E+004	6.466659836638428E+001
-6.869189958816668E-002	-7.9885536E-001	-7.9854053E-001	1.1629542E+004	6.486659836133185E+001
-6.923118124604044E-002	-8.0085230E-001	-8.0054045E-001	1.1567798E+004	6.506659835627943E+001
-7.011871809898015E-002	-8.0285460E-001	-8.0254024E-001	1.1449933E+004	6.526659835122700E+001
-7.119832440203422E-002	-8.0485290E-001	-8.0454028E-001	1.1304380E+004	6.546659834617458E+001
-7.179388613123350E-002	-8.0685556E-001	-8.0654013E-001	1.1238500E+004	6.566659834112215E+001
-7.278960702831205E-002	-8.0888170E-001	-8.0854076E-001	1.1112599E+004	6.586649833607225E+001
-7.368611322468777E-002	-8.1085318E-001	-8.1053990E-001	1.1004152E+004	6.606639833102236E+001
-7.482377685661357E-002	-8.1286436E-001	-8.1253976E-001	1.0863718E+004	6.626639832596993E+001
-7.655059465507014E-002	-8.1486678E-001	-8.1453967E-001	1.0644813E+004	6.646639832091751E+001
-7.752062962707251E-002	-8.1686187E-001	-8.1653959E-001	1.0537349E+004	6.666639831586508E+001
-7.882983435754198E-002	-8.1887078E-001	-8.1853950E-001	1.0387828E+004	6.686639831081266E+001
-7.954620822362402E-002	-8.2085818E-001	-8.2053930E-001	1.0319263E+004	6.706639830576023E+001
-8.039010497487986E-002	-8.2287669E-001	-8.2253921E-001	1.0236045E+004	6.726639830070781E+001
-8.140778490405565E-002	-8.2486302E-001	-8.2453912E-001	1.0132483E+004	6.746639829565538E+001
-8.279650437681529E-002	-8.2686865E-001	-8.2653898E-001	9.9867578E+003	6.766639829060296E+001
-8.433546934777342E-002	-8.2887465E-001	-8.2853889E-001	9.8283047E+003	6.786639828555053E+001
-8.577971925004471E-002	-8.3087623E-001	-8.3053881E-001	9.6861621E+003	6.806639828049811E+001
-8.717455893761283E-002	-8.3287412E-001	-8.3253860E-001	9.5540957E+003	6.826639827544568E+001
-8.898255962597559E-002	-8.3486944E-001	-8.3453864E-001	9.3823945E+003	6.846639827039326E+001
-9.069858954653443E-002	-8.3685201E-001	-8.3653843E-001	9.2267363E+003	6.866639826534083E+001
-9.260824346828317E-002	-8.3886808E-001	-8.3853841E-001	9.0582441E+003	6.886639826028841E+001
-9.454047972866531E-002	-8.4085727E-001	-8.4053820E-001	8.8941504E+003	6.906639825523598E+001
-9.664755611302467E-002	-8.4286499E-001	-8.4253812E-001	8.7210176E+003	6.926639825018356E+001
-9.932602028444981E-002	-8.4486383E-001	-8.4453791E-001	8.5059668E+003	6.946629824513366E+001
-1.023700481244787E-001	-8.4686452E-001	-8.4653795E-001	8.2725811E+003	6.966619824008376E+001
-1.053974751083191E-001	-8.4887296E-001	-8.4853786E-001	8.0540161E+003	6.986619823503133E+001
-1.085412290534362E-001	-8.5087144E-001	-8.5053766E-001	7.8391543E+003	7.006619822997891E+001
-1.113887646915535E-001	-8.5287225E-001	-8.5253757E-001	7.6567168E+003	7.026619822492648E+001
-1.147071531500730E-001	-8.5487151E-001	-8.5453749E-001	7.4526436E+003	7.046619821987406E+001
-1.178528960538676E-001	-8.5685849E-001	-8.5653734E-001	7.2705767E+003	7.066619821482163E+001
-1.205659658223593E-001	-8.5888022E-001	-8.5853726E-001	7.1237368E+003	7.086619820976921E+001
-1.227055006088214E-001	-8.6086392E-001	-8.6053705E-001	7.0156914E+003	7.106619820471678E+001
-1.245119066712553E-001	-8.6286098E-001	-8.6253709E-001	6.9299478E+003	7.126619819966436E+001
-1.264869694391062E-001	-8.6487561E-001	-8.6453688E-001	6.8376655E+003	7.146619819461193E+001
-1.278088691046714E-001	-8.6686766E-001	-8.6653680E-001	6.7825313E+003	7.166619818955951E+001
-1.290418538064309E-001	-8.6886805E-001	-8.6853671E-001	6.7332266E+003	7.186619818450708E+001
-1.302850549109278E-001	-8.7087536E-001	-8.7053651E-001	6.6843843E+003	7.206619817945466E+001
-1.318727270647243E-001	-8.7286532E-001	-8.7253642E-001	6.6189980E+003	7.226619817440223E+001
-1.334143297465903E-001	-8.7484825E-001	-8.7453634E-001	6.5573784E+003	7.246619816934981E+001
-1.352022579615585E-001	-8.7685359E-001	-8.7653619E-001	6.4854951E+003	7.266619816429738E+001
-1.373772359550287E-001	-8.7885219E-001	-8.7853611E-001	6.3973643E+003	7.286619815924496E+001
-1.404202299950036E-001	-8.8083327E-001	-8.8053554E-001	6.2728374E+003	7.306609815419506E+001
-1.437387501423897E-001	-8.8284236E-001	-8.8253593E-001	6.1419927E+003	7.326599814914516E+001
-1.471767151335472E-001	-8.8484633E-001	-8.8453579E-001	6.0121353E+003	7.346599814409274E+001
-1.509651292554719E-001	-8.8685387E-001	-8.8653570E-001	5.8745610E+003	7.366599813904031E+001
-1.555407938057482E-001	-8.8884276E-001	-8.8853556E-001	5.7145313E+003	7.386599813398789E+001
-1.612471945324066E-001	-8.9084506E-001	-8.9053541E-001	5.5247168E+003	7.406599812893546E+001
-1.670920099300710E-001	-8.9286417E-001	-8.9253533E-001	5.3435479E+003	7.426599812388304E+001
-1.739046950550023E-001	-8.9484841E-001	-8.9453524E-001	5.1456255E+003	7.446599811883061E+001
-1.822226393171702E-001	-8.9684856E-001	-8.9653516E-001	4.9217188E+003	7.466599811377819E+001
-1.911781822265786E-001	-8.9884526E-001	-8.9853501E-001	4.7016099E+003	7.486599810872576E+001
-2.015628880692342E-001	-9.0086311E-001	-9.0053493E-001	4.4693896E+003	7.506599810367334E+001
-2.134181068420333E-001	-9.0285987E-001	-9.0253478E-001	4.2304746E+003	7.526599809862091E+001
-2.267753869535860E-001	-9.0485328E-001	-9.0453464E-001	3.9900859E+003	7.546599809356849E+001
-2.419504463195370E-001	-9.0684360E-001	-9.0653455E-001	3.7480552E+003	7.566599808851606E+001
-2.588490495044331E-001	-9.0885115E-001	-9.0853447E-001	3.5111240E+003	7.586599808346364E+001
-2.782905453947002E-001	-9.1085386E-001	-9.1053438E-001	3.2730320E+003	7.606599807841121E+001
-2.999387322259799E-001	-9.1285771E-001	-9.1253430E-001	3.0434807E+003	7.626599807335879E+001
-3.237997912537824E-001	-9.1486937E-001	-9.1453409E-001	2.8254167E+003	7.646599806830636E+001
-3.512989484266118E-001	-9.1687143E-001	-9.1653407E-001	2.6099463E+003	7.666589806325646E+001
-3.822693910487773E-001	-9.1886395E-001	-9.1853392E-001	2.4037080E+003	7.686579805820656E+001
-4.167009388136744E-001	-9.2086118E-001	-9.2053378E-001	2.2098850E+003	7.706579805315414E+001
-4.549142844096474E-001	-9.2285889E-001	-9.2253369E-001	2.0286434E+003	7.726579804810171E+001
-4.973852305024731E-001	-9.2487574E-001	-9.2453361E-001	1.8594757E+003	7.746579804304929E+001
-5.446478918515734E-001	-9.2687893E-001	-9.2653352E-001	1.7017948E+003	7.766579803799686E+001
-5.968386345540839E-001	-9.2886192E-001	-9.2853332E-001	1.5563032E+003	7.786579803294444E+001
-6.550645072545329E-001	-9.3086725E-001	-9.3053323E-001	1.4210314E+003	7.806579802789201E+001
-7.181025653900139E-001	-9.3285018E-001	-9.3253314E-001	1.2990487E+003	7.826579802283959E+001
-7.864611469707619E-001	-9.3486148E-001	-9.3453300E-001	1.1886938E+003	7.846579801778717E+001
-8.617816275057493E-001	-9.3684185E-001	-9.3653291E-001	1.0870989E+003	7.866579801273474E+001
-9.427115735925256E-001	-9.3883401E-001	-9.3853277E-001	9.9588678E+002	7.886579800768232E+001
-1.033355559339583E+000	-9.4093478E-001	-9.4063282E-001	9.1056244E+002	7.907579800237727E+001
-1.128630519859375E+000	-9.4300038E-001	-9.4273257E-001	8.3552618E+002	7.928579799707222E+001
-1.228763183887178E+000	-9.4499546E-001	-9.4473243E-001	7.6906232E+002	7.948579799201980E+001
-1.334469574995660E+000	-9.4701421E-001	-9.4673234E-001	7.0965588E+002	7.968579798696737E+001
-1.445104017296210E+000	-9.4900090E-001	-9.4873220E-001	6.5670074E+002	7.988579798191495E+001
-1.562059551038168E+000	-9.5102066E-001	-9.5073205E-001	6.0882483E+002	8.008579797686252E+001
-1.683421683629824E+000	-9.5302367E-001	-9.5273203E-001	5.6612299E+002	8.028569797181262E+001
-1.808960986718574E+000	-9.5502692E-001	-9.5473188E-001	5.2794226E+002	8.048559796676273E+001
-1.939096155401131E+000	-9.5702499E-001	-9.5673180E-001	4.9354178E+002	8.068559796171030E+001
-2.072863658877466E+000	-9.5901656E-001	-9.5873165E-001	4.6265298E+002	8.088559795665788E+001
-2.210418959205240E+000	-9.6100748E-001	-9.6073151E-001	4.3476260E+002	8.108559795160545E+001
-2.351866898859711E+000	-9.6302503E-001	-9.6273148E-001	4.0947260E+002	8.128559794655303E+001
-2.496062069134505E+000	-9.6505028E-001	-9.6473128E-001	3.8662912E+002	8.148559794150060E+001
-2.643319574461369E+000	-9.6700943E-001	-9.6673119E-001	3.6583145E+002	8.168559793644818E+001
-2.793647725802426E+000	-9.6902388E-001	-9.6873111E-001	3.4686688E+002	8.188559793139575E+001
-2.945623534708346E+000	-9.7102481E-001	-9.7073102E-001	3.2964999E+002	8.208559792634333E+001
-3.100425213102316E+000	-9.7302854E-001	-9.7273093E-001	3.1383713E+002	8.228559792129090E+001
-3.256938519154815E+000	-9.7503138E-001	-9.7473073E-001	2.9937051E+002	8.248559791623848E+001
-3.413170777142991E+000	-9.7703660E-001	-9.7673064E-001	2.8625482E+002	8.268559791118605E+001
-3.572107404031179E+000	-9.7902316E-001	-9.7873056E-001	2.7407440E+002	8.288559790613363E+001
-3.732396994791330E+000	-9.8100960E-001	-9.8073041E-001	2.6283636E+002	8.308559790108120E+001
-3.895194007628618E+000	-9.8301601E-001	-9.8273033E-001	2.5236638E+002	8.328559789602878E+001
-4.058302940255928E+000	-9.8502725E-001	-9.8473024E-001	2.4271901E+002	8.348559789097635E+001
-4.224015169099076E+000	-9.8700249E-001	-9.8673016E-001	2.3366452E+002	8.368559788592393E+001
-4.390798010323174E+000	-9.8900980E-001	-9.8873025E-001	2.2524602E+002	8.388549788087403E+001
-4.557907128043475E+000	-9.9100596E-001	-9.9072993E-001	2.1742566E+002	8.408539787582413E+001
-4.725813933004055E+000	-9.9301440E-001	-9.9272978E-001	2.1012558E+002	8.428539787077170E+001
-4.896315656585493E+000	-9.9501824E-001	-9.9472964E-001	2.0321774E+002	8.448539786571928E+001
-5.067750601304908E+000	-9.9702585E-001	-9.9672955E-001	1.9673933E+002	8.468539786066685E+001
-5.242056013032155E+000	-9.9903512E-001	-9.9872947E-001	1.9058078E+002	8.488539785561443E+001
-5.418221501570178E+000	-1.0010183E+000	-1.0007293E+000	1.8475035E+002	8.508539785056200E+001
-5.590885411145450E+000	-1.0030351E+000	-1.0027292E+000	1.7940541E+002	8.528539784550958E+001
-5.763305234631986E+000	-1.0050235E+000	-1.0047290E+000	1.7438318E+002	8.548539784045715E+001
-5.938898344294003E+000	-1.0070322E+000	-1.0067290E+000	1.6956548E+002	8.568539783540473E+001
-6.111897720163370E+000	-1.0090227E+000	-1.0087289E+000	1.6509155E+002	8.588539783035230E+001
-6.287558825040378E+000	-1.0110152E+000	-1.0107288E+000	1.6079614E+002	8.608539782529988E+001
-6.467822656136789E+000	-1.0130436E+000	-1.0127287E+000	1.5662823E+002	8.628539782024745E+001
-6.649054282173836E+000	-1.0150496E+000	-1.0147285E+000	1.5266075E+002	8.648539781519503E+001
-6.830076168386302E+000	-1.0170362E+000	-1.0167284E+000	1.4890555E+002	8.668539781014260E+001
-7.014830703502895E+000	-1.0190492E+000	-1.0187283E+000	1.4527068E+002	8.688539780509018E+001
-7.203531440761367E+000	-1.0210483E+000	-1.0207282E+000	1.4174274E+002	8.708539780003775E+001
-7.395297025606999E+000	-1.0230389E+000	-1.0227281E+000	1.3833641E+002	8.728539779498533E+001
-7.586318081489821E+000	-1.0250551E+000	-1.0247276E+000	1.3511891E+002	8.748529778993543E+001
-7.782045644629875E+000	-1.0270594E+000	-1.0267279E+000	1.3197807E+002	8.768519778488553E+001
-7.972763254123421E+000	-1.0290700E+000	-1.0287278E+000	1.2907320E+002	8.788519777983311E+001
-8.166063442319427E+000	-1.0310626E+000	-1.0307276E+000	1.2626189E+002	8.808519777478068E+001
-8.362497652063553E+000	-1.0330509E+000	-1.0327276E+000	1.2353378E+002	8.828519776972826E+001
-8.559347131557750E+000	-1.0350428E+000	-1.0347273E+000	1.2092543E+002	8.848519776467583E+001
-8.759553763669075E+000	-1.0370457E+000	-1.0367273E+000	1.1839024E+002	8.868519775962341E+001
-8.964115972489111E+000	-1.0390427E+000	-1.0387272E+000	1.1591134E+002	8.888519775457098E+001
-9.169827650598933E+000	-1.0410544E+000	-1.0407271E+000	1.1353042E+002	8.908519774951856E+001
-9.381838910366106E+000	-1.0430436E+000	-1.0427269E+000	1.1117689E+002	8.928519774446613E+001
-9.599731307518965E+000	-1.0450372E+000	-1.0447268E+000	1.0886108E+002	8.948519773941371E+001
-9.823753217923638E+000	-1.0470569E+000	-1.0467268E+000	1.0658421E+002	8.968519773436128E+001
-1.004930427258253E+001	-1.0490533E+000	-1.0487267E+000	1.0439064E+002	8.988519772930886E+001
-1.027691361308095E+001	-1.0510558E+000	-1.0507265E+000	1.0227348E+002	9.008519772425643E+001
-1.051747975584597E+001	-1.0530645E+000	-1.0527264E+000	1.0012517E+002	9.028519771920401E+001
-1.076755740718238E+001	-1.0550642E+000	-1.0547264E+000	9.7985474E+001	9.048519771415158E+001
-1.104503675018043E+001	-1.0571219E+000	-1.0568262E+000	9.5710129E+001	9.069519770884654E+001
-1.132381318621083E+001	-1.0592360E+000	-1.0589261E+000	9.3540581E+001	9.090519770354149E+001
-1.160133018256110E+001	-1.0612297E+000	-1.0609258E+000	9.1474831E+001	9.110509769849159E+001
-1.188535560873635E+001	-1.0632286E+000	-1.0629259E+000	8.9457031E+001	9.130499769344169E+001
-1.216966883915893E+001	-1.0652400E+000	-1.0649258E+000	8.7532379E+001	9.150499768838927E+001
-1.244765250205728E+001	-1.0672264E+000	-1.0669256E+000	8.5737160E+001	9.170499768333684E+001
-1.273645652475813E+001	-1.0692230E+000	-1.0689255E+000	8.3949806E+001	9.190499767828442E+001
-1.303099559399546E+001	-1.0712377E+000	-1.0709254E+000	8.2206894E+001	9.210499767323199E+001
-1.333571511628676E+001	-1.0732347E+000	-1.0729253E+000	8.0478226E+001	9.230499766817957E+001
-1.363677602884721E+001	-1.0752190E+000	-1.0749252E+000	7.8847008E+001	9.250499766312714E+001
-1.393002933520580E+001	-1.0772325E+000	-1.0769250E+000	7.7331673E+001	9.270499765807472E+001
-1.422538143734272E+001	-1.0792158E+000	-1.0789249E+000	7.5865509E+001	9.290499765302229E+001
-1.453619790563778E+001	-1.0812095E+000	-1.0809250E+000	7.4380493E+001	9.310499764796987E+001
-1.485104722338741E+001	-1.0832171E+000	-1.0829247E+000	7.2938774E+001	9.330499764291744E+001
-1.517219346761701E+001	-1.0852093E+000	-1.0849247E+000	7.1526192E+001	9.350499763786502E+001
-1.551830511055294E+001	-1.0872204E+000	-1.0869246E+000	7.0060516E+001	9.370499763281259E+001
-1.586144312628272E+001	-1.0892187E+000	-1.0889245E+000	6.8670845E+001	9.390499762776017E+001
-1.620815075552115E+001	-1.0912337E+000	-1.0909243E+000	6.7326233E+001	9.410499762270774E+001
-1.655500383604135E+001	-1.0932174E+000	-1.0929242E+000	6.6035461E+001	9.430499761765532E+001
-1.689606465449947E+001	-1.0952085E+000	-1.0949241E+000	6.4820335E+001	9.450499761260289E+001
-1.723688898676097E+001	-1.0972261E+000	-1.0969241E+000	6.3655693E+001	9.470489760755299E+001
-1.757858405821440E+001	-1.0992155E+000	-1.0989239E+000	6.2531517E+001	9.490479760250309E+001
-1.793496562172231E+001	-1.1012143E+000	-1.1009238E+000	6.1400414E+001	9.510479759745067E+001
-1.829958304431696E+001	-1.1032313E+000	-1.1029238E+000	6.0287239E+001	9.530479759239824E+001
-1.864631658481632E+001	-1.1052278E+000	-1.1049235E+000	5.9273251E+001	9.550479758734582E+001
-1.900899161367994E+001	-1.1072391E+000	-1.1069235E+000	5.8248177E+001	9.570479758229340E+001
-1.937109377378755E+001	-1.1092300E+000	-1.1089232E+000	5.7262127E+001	9.590479757724097E+001
-1.972563914309291E+001	-1.1112269E+000	-1.1109233E+000	5.6334141E+001	9.610479757218855E+001
-2.008468016096788E+001	-1.1132251E+000	-1.1129230E+000	5.5426579E+001	9.630479756713612E+001
-2.045396016298230E+001	-1.1152425E+000	-1.1149230E+000	5.4524525E+001	9.650479756208370E+001
-2.082906589121501E+001	-1.1172425E+000	-1.1169227E+000	5.3638626E+001	9.670479755703127E+001
-2.119893450653206E+001	-1.1192271E+000	-1.1189227E+000	5.2796383E+001	9.690479755197885E+001
-2.158316200471518E+001	-1.1212362E+000	-1.1209227E+000	5.1949581E+001	9.710479754692642E+001
-2.197090942289279E+001	-1.1232343E+000	-1.1229225E+000	5.1123703E+001	9.730479754187400E+001
-2.233629175716521E+001	-1.1252291E+000	-1.1249224E+000	5.0376720E+001	9.750479753682157E+001
-2.270431011550284E+001	-1.1272303E+000	-1.1269222E+000	4.9648296E+001	9.770479753176915E+001
-2.308081832332130E+001	-1.1292448E+000	-1.1289222E+000	4.8925682E+001	9.790479752671672E+001
-2.347585210940730E+001	-1.1312490E+000	-1.1309221E+000	4.8187771E+001	9.810479752166430E+001
-2.386189706606865E+001	-1.1332366E+000	-1.1329221E+000	4.7491474E+001	9.830469751661440E+001
-2.424841620808547E+001	-1.1352432E+000	-1.1349218E+000	4.6817211E+001	9.850459751156450E+001
-2.464550102446344E+001	-1.1372281E+000	-1.1369218E+000	4.6143436E+001	9.870459750651207E+001
-2.502704701631785E+001	-1.1392306E+000	-1.1389216E+000	4.5519978E+001	9.890459750145965E+001
-2.543847911995817E+001	-1.1412499E+000	-1.1409216E+000	4.4863132E+001	9.910459749640722E+001
-2.583892854081793E+001	-1.1432369E+000	-1.1429214E+000	4.4244747E+001	9.930459749135480E+001
-2.624404874112867E+001	-1.1452550E+000	-1.1449213E+000	4.3638653E+001	9.950459748630237E+001
-2.667551920905953E+001	-1.1472232E+000	-1.1469212E+000	4.3006596E+001	9.970459748124995E+001
-2.709400172244401E+001	-1.1492474E+000	-1.1489210E+000	4.2417042E+001	9.990459747619752E+001
-2.751546824924534E+001	-1.1512448E+000	-1.1509210E+000	4.1839912E+001	1.001045974711451E+002
-2.793634570564009E+001	-1.1532341E+000	-1.1529208E+000	4.1280781E+001	1.003045974660927E+002
-2.836751347901865E+001	-1.1552377E+000	-1.1549207E+000	4.0723969E+001	1.005045974610402E+002
-2.880548601896584E+001	-1.1572473E+000	-1.1569206E+000	4.0174545E+001	1.007045974559878E+002
-2.924660995785069E+001	-1.1592443E+000	-1.1589206E+000	3.9636879E+001	1.009045974509354E+002
-2.968064903726385E+001	-1.1612258E+000	-1.1609204E+000	3.9124004E+001	1.011045974458830E+002
-3.010330858387374E+001	-1.1632355E+000	-1.1629204E+000	3.8641453E+001	1.013045974408305E+002
-3.053318278967924E+001	-1.1652429E+000	-1.1649202E+000	3.8163166E+001	1.015045974357781E+002
-3.097380441981381E+001	-1.1672518E+000	-1.1669202E+000	3.7685131E+001	1.017045974307257E+002
-3.142591676006044E+001	-1.1692604E+000	-1.1689200E+000	3.7206882E+001	1.019044974256758E+002
-3.188976088240580E+001	-1.1712582E+000	-1.1709199E+000	3.6728348E+001	1.021043974206259E+002
-3.234587768794739E+001	-1.1732386E+000	-1.1729198E+000	3.6271660E+001	1.023043974155735E+002
-3.280792558058056E+001	-1.1752554E+000	-1.1749196E+000	3.5822304E+001	1.025043974105211E+002
-3.327899285941453E+001	-1.1772358E+000	-1.1769196E+000	3.5374744E+001	1.027043974054686E+002
-3.374897389401112E+001	-1.1792601E+000	-1.1789193E+000	3.4942104E+001	1.029043974004162E+002
-3.421095277176417E+001	-1.1812340E+000	-1.1809194E+000	3.4527946E+001	1.031043973953638E+002
-3.468084585396343E+001	-1.1832384E+000	-1.1829191E+000	3.4117920E+001	1.033043973903114E+002
-3.517239660092230E+001	-1.1852242E+000	-1.1849191E+000	3.3697567E+001	1.035043973852589E+002
-3.568226886633568E+001	-1.1872323E+000	-1.1869190E+000	3.3272331E+001	1.037043973802065E+002
-3.617315253622135E+001	-1.1892453E+000	-1.1889189E+000	3.2876465E+001	1.039043973751541E+002
-3.666197124089786E+001	-1.1912526E+000	-1.1909187E+000	3.2492867E+001	1.041043973701017E+002
-3.714441626790961E+001	-1.1932300E+000	-1.1929187E+000	3.2124077E+001	1.043043973650492E+002
-3.765515041702713E+001	-1.1952426E+000	-1.1949184E+000	3.1741810E+001	1.045043973599968E+002
-3.816702733964343E+001	-1.1972419E+000	-1.1969184E+000	3.1368486E+001	1.047043973549444E+002
-3.869655600048252E+001	-1.1992574E+000	-1.1989182E+000	3.0991322E+001	1.049043973498920E+002
-3.925000368007973E+001	-1.2012419E+000	-1.2009182E+000	3.0604885E+001	1.051043973448395E+002
-3.980676014028711E+001	-1.2032434E+000	-1.2029181E+000	3.0227112E+001	1.053043973397871E+002
-4.032865197714523E+001	-1.2052498E+000	-1.2049183E+000	2.9885695E+001	1.055042973347372E+002
-4.088341154641309E+001	-1.2072706E+000	-1.2069179E+000	2.9529596E+001	1.057041973296873E+002
-4.141363504387083E+001	-1.2092543E+000	-1.2089177E+000	2.9199423E+001	1.059041973246349E+002
-4.196002912575423E+001	-1.2112602E+000	-1.2109176E+000	2.8867001E+001	1.061041973195825E+002
-4.254701653981141E+001	-1.2132453E+000	-1.2129174E+000	2.8515402E+001	1.063041973145300E+002
-4.310298572997644E+001	-1.2152411E+000	-1.2149174E+000	2.8193895E+001	1.065041973094776E+002
-4.363392241255225E+001	-1.2172443E+000	-1.2169173E+000	2.7896742E+001	1.067041973044252E+002
-4.417891817784914E+001	-1.2192463E+000	-1.2189173E+000	2.7597921E+001	1.069041972993728E+002
-4.475612113183888E+001	-1.2212485E+000	-1.2209171E+000	2.7286737E+001	1.071041972943203E+002
-4.535855496416288E+001	-1.2232538E+000	-1.2229170E+000	2.6968536E+001	1.073041972892679E+002
-4.594251675562512E+001	-1.2252519E+000	-1.2249168E+000	2.6669237E+001	1.075041972842155E+002
-4.656153271879487E+001	-1.2272626E+000	-1.2269167E+000	2.6357866E+001	1.077041972791631E+002
-4.717973364399677E+001	-1.2292703E+000	-1.2289166E+000	2.6055050E+001	1.079041972741106E+002
-4.777168804961275E+001	-1.2312676E+000	-1.2309165E+000	2.5774002E+001	1.081041972690582E+002
-4.833979255515146E+001	-1.2332965E+000	-1.2329164E+000	2.5513069E+001	1.083041972640058E+002
-4.894781357441912E+001	-1.2353082E+000	-1.2349162E+000	2.5237249E+001	1.085041972589534E+002
-4.957241806151367E+001	-1.2372854E+000	-1.2369162E+000	2.4959148E+001	1.087041972539009E+002
-5.014820446178763E+001	-1.2392920E+000	-1.2389160E+000	2.4712589E+001	1.089041972488485E+002
-5.078935832975435E+001	-1.2412924E+000	-1.2409163E+000	2.4440008E+001	1.091040972437986E+002
-5.143006528045558E+001	-1.2432908E+000	-1.2429159E+000	2.4174397E+001	1.093039972387487E+002
-5.208259447361638E+001	-1.2452953E+000	-1.2449157E+000	2.3910009E+001	1.095039972336963E+002
-5.272377541113883E+001	-1.2472813E+000	-1.2469156E+000	2.3656904E+001	1.097039972286439E+002
-5.336081734914617E+001	-1.2492844E+000	-1.2489156E+000	2.3412018E+001	1.099039972235914E+002
-5.407032567249121E+001	-1.2512790E+000	-1.2509155E+000	2.3141695E+001	1.101039972185390E+002
-5.472103360450728E+001	-1.2532909E+000	-1.2529154E+000	2.2903275E+001	1.103039972134866E+002
-5.533149268513625E+001	-1.2552996E+000	-1.2549152E+000	2.2686892E+001	1.105039972084342E+002
-5.602790974489426E+001	-1.2572984E+000	-1.2569150E+000	2.2440573E+001	1.107039972033817E+002
-5.667283506566423E+001	-1.2592944E+000	-1.2589151E+000	2.2220423E+001	1.109039971983293E+002
-5.733622129055379E+001	-1.2612965E+000	-1.2609148E+000	2.1998249E+001	1.111039971932769E+002
-5.801255952906456E+001	-1.2632934E+000	-1.2629148E+000	2.1776205E+001	1.113039971882245E+002
-5.869692466264382E+001	-1.2652912E+000	-1.2649146E+000	2.1556347E+001	1.115039971831720E+002
-5.934764652836054E+001	-1.2672958E+000	-1.2669146E+000	2.1353767E+001	1.117039971781196E+002
-5.999948305553858E+001	-1.2692878E+000	-1.2689143E+000	2.1154980E+001	1.119039971730672E+002
-6.074291755877402E+001	-1.2713040E+000	-1.2709143E+000	2.0929255E+001	1.121039971680148E+002
-6.142358191375570E+001	-1.2732989E+000	-1.2729142E+000	2.0729805E+001	1.123039971629623E+002
-6.207571418052876E+001	-1.2752937E+000	-1.2749140E+000	2.0544165E+001	1.125039971579099E+002
-6.274056056290419E+001	-1.2772857E+000	-1.2769145E+000	2.0358213E+001	1.127038971528600E+002
-6.340498133040865E+001	-1.2792920E+000	-1.2789139E+000	2.0176521E+001	1.129037971478101E+002
-6.411845636043427E+001	-1.2813052E+000	-1.2809138E+000	1.9983406E+001	1.131037971427577E+002
-6.484372515472978E+001	-1.2833117E+000	-1.2829136E+000	1.9790838E+001	1.133037971377053E+002
-6.570988584213558E+001	-1.2853059E+000	-1.2849135E+000	1.9560312E+001	1.135037971326528E+002
-6.644179469171308E+001	-1.2872947E+000	-1.2869134E+000	1.9374773E+001	1.137037971276004E+002
-6.715271844290805E+001	-1.2892923E+000	-1.2889134E+000	1.9199406E+001	1.139037971225480E+002
-6.788383327698250E+001	-1.2912968E+000	-1.2909132E+000	1.9022156E+001	1.141037971174956E+002
-6.862925483472236E+001	-1.2933034E+000	-1.2929131E+000	1.8844782E+001	1.143037971124431E+002
-6.924524115326756E+001	-1.2952838E+000	-1.2949129E+000	1.8705744E+001	1.145037971073907E+002
-7.004253600460106E+001	-1.2972845E+000	-1.2969129E+000	1.8521381E+001	1.147037971023383E+002
-7.083006049391884E+001	-1.2992742E+000	-1.2989126E+000	1.8343542E+001	1.149037970972859E+002
-7.163667846915405E+001	-1.3012868E+000	-1.3009126E+000	1.8165091E+001	1.151037970922334E+002
-7.233502809693209E+001	-1.3033004E+000	-1.3029125E+000	1.8017555E+001	1.153037970871810E+002
-7.303705497826047E+001	-1.3052940E+000	-1.3049123E+000	1.7871668E+001	1.155037970821286E+002
-7.382805614136254E+001	-1.3073133E+000	-1.3069123E+000	1.7707541E+001	1.157037970770762E+002
-7.449281452626633E+001	-1.3093019E+000	-1.3089122E+000	1.7576218E+001	1.159037970720237E+002
-7.524337822685033E+001	-1.3112916E+000	-1.3109113E+000	1.7427336E+001	1.161036970669738E+002
-7.609153525142779E+001	-1.3132976E+000	-1.3129122E+000	1.7259445E+001	1.163036970619214E+002
-7.714203578436423E+001	-1.3152951E+000	-1.3149118E+000	1.7050303E+001	1.165035970568715E+002
-7.790172379087176E+001	-1.3172971E+000	-1.3169117E+000	1.6909729E+001	1.167035970518191E+002
-7.860558098297815E+001	-1.3193127E+000	-1.3189117E+000	1.6783957E+001	1.169035970467667E+002
-7.945652208090405E+001	-1.3213147E+000	-1.3209115E+000	1.6629406E+001	1.171035970417142E+002
-8.014878222893708E+001	-1.3233042E+000	-1.3229114E+000	1.6510595E+001	1.173035970366618E+002
-8.083383700474565E+001	-1.3253009E+000	-1.3249112E+000	1.6395372E+001	1.175035970316094E+002
-8.160186619553190E+001	-1.3273093E+000	-1.3269112E+000	1.6265673E+001	1.177035970265570E+002
-8.240023821389590E+001	-1.3293025E+000	-1.3289111E+000	1.6132265E+001	1.179035970215045E+002
-8.311535691241812E+001	-1.3313310E+000	-1.3309110E+000	1.6017870E+001	1.181035970164521E+002
-8.402050646578618E+001	-1.3333217E+000	-1.3329108E+000	1.5869003E+001	1.183035970113997E+002
-8.487879788902569E+001	-1.3353148E+000	-1.3349106E+000	1.5732018E+001	1.185035970063473E+002
-8.593209161671933E+001	-1.3373177E+000	-1.3369106E+000	1.5562494E+001	1.187035970012948E+002
-8.667605722301960E+001	-1.3393122E+000	-1.3389105E+000	1.5451928E+001	1.189035969962424E+002
-8.754063274422458E+001	-1.3413305E+000	-1.3409104E+000	1.5322376E+001	1.191035969911900E+002
-8.833027586158431E+001	-1.3433237E+000	-1.3429103E+000	1.5207965E+001	1.193035969861376E+002
-8.901757831530168E+001	-1.3453113E+000	-1.3449103E+000	1.5112872E+001	1.195035969810851E+002
-8.982606596416912E+001	-1.3473166E+000	-1.3469100E+000	1.4999172E+001	1.197035969760327E+002
-9.068463583917287E+001	-1.3493198E+000	-1.3489103E+000	1.4879255E+001	1.199034969709828E+002
-9.156702856303946E+001	-1.3513286E+000	-1.3509098E+000	1.4757808E+001	1.201033969659329E+002
-9.237263071023426E+001	-1.3533148E+000	-1.3529098E+000	1.4650603E+001	1.203033969608805E+002
-9.322973116833600E+001	-1.3553268E+000	-1.3549095E+000	1.4537496E+001	1.205033969558281E+002
-9.410106055644644E+001	-1.3573276E+000	-1.3569095E+000	1.4424148E+001	1.207033969507756E+002
-9.502207308021002E+001	-1.3593041E+000	-1.3589095E+000	1.4305140E+001	1.209033969457232E+002
-9.593242379002550E+001	-1.3613204E+000	-1.3609092E+000	1.4190410E+001	1.211033969406708E+002
-9.667407546346180E+001	-1.3633105E+000	-1.3629092E+000	1.4102131E+001	1.213033969356184E+002
-9.760380372817281E+001	-1.3653129E+000	-1.3649091E+000	1.3988317E+001	1.215033969305659E+002
-9.866048691332207E+001	-1.3673252E+000	-1.3669090E+000	1.3858893E+001	1.217033969255135E+002
-9.952193844075032E+001	-1.3693177E+000	-1.3689089E+000	1.3758953E+001	1.219033969204611E+002
-1.003362850331932E+002	-1.3713251E+000	-1.3709087E+000	1.3667291E+001	1.221033969154087E+002
-1.010722277029301E+002	-1.3733171E+000	-1.3729086E+000	1.3587482E+001	1.223033969103562E+002
-1.020993469599421E+002	-1.3753082E+000	-1.3749086E+000	1.3470293E+001	1.225033969053038E+002
-1.028729299839392E+002	-1.3773084E+000	-1.3769083E+000	1.3388443E+001	1.227033969002514E+002
-1.038905358368581E+002	-1.3793187E+000	-1.3789083E+000	1.3276654E+001	1.229033968951990E+002
-1.047488501509843E+002	-1.3813187E+000	-1.3809081E+000	1.3186958E+001	1.231033968901465E+002
-1.054142890614444E+002	-1.3833175E+000	-1.3829080E+000	1.3122675E+001	1.233033968850941E+002
-1.064852707898410E+002	-1.3853148E+000	-1.3849075E+000	1.3009450E+001	1.235031968800467E+002
-1.074091546605771E+002	-1.3873180E+000	-1.3869078E+000	1.2916199E+001	1.237031968749943E+002
-1.083680380596327E+002	-1.3893167E+000	-1.3889077E+000	1.2820354E+001	1.239031968699419E+002
-1.092444051777150E+002	-1.3913195E+000	-1.3909076E+000	1.2735843E+001	1.241031968648895E+002
-1.106229668082024E+002	-1.3933889E+000	-1.3930076E+000	1.2595837E+001	1.243131968595844E+002
-1.115371963994030E+002	-1.3954722E+000	-1.3951074E+000	1.2511271E+001	1.245231968542794E+002
-1.122928936681504E+002	-1.3974875E+000	-1.3971074E+000	1.2445022E+001	1.247231968492270E+002
-1.131564222733716E+002	-1.3994913E+000	-1.3991071E+000	1.2367759E+001	1.249231968441745E+002
-1.141303197564453E+002	-1.4014994E+000	-1.4011072E+000	1.2279817E+001	1.251231968391221E+002
-1.152092310436192E+002	-1.4034837E+000	-1.4031070E+000	1.2182042E+001	1.253231968340697E+002
-1.161763381968817E+002	-1.4054873E+000	-1.4051069E+000	1.2097879E+001	1.255231968290173E+002
-1.171862246530667E+002	-1.4074802E+000	-1.4071066E+000	1.2010629E+001	1.257231968239648E+002
-1.182558413027630E+002	-1.4094852E+000	-1.4091066E+000	1.1918948E+001	1.259231968189124E+002
-1.191962465245169E+002	-1.4115076E+000	-1.4111065E+000	1.1841880E+001	1.261231968138600E+002
-1.200950610772821E+002	-1.4135050E+000	-1.4131064E+000	1.1769884E+001	1.263231968088076E+002
-1.213299091094747E+002	-1.4154886E+000	-1.4151063E+000	1.1666444E+001	1.265231968037551E+002
-1.220386311386176E+002	-1.4175079E+000	-1.4171062E+000	1.1615239E+001	1.267231967987027E+002
-1.229151398202017E+002	-1.4194949E+000	-1.4191052E+000	1.1548576E+001	1.269230967936528E+002
-1.241230727570705E+002	-1.4214773E+000	-1.4211067E+000	1.1452160E+001	1.271230967886004E+002
-1.253044058276410E+002	-1.4234970E+000	-1.4231058E+000	1.1360311E+001	1.273229967835505E+002
-1.262039458054257E+002	-1.4254938E+000	-1.4251058E+000	1.1295160E+001	1.275229967784981E+002
-1.270844816361426E+002	-1.4274942E+000	-1.4271057E+000	1.1232639E+001	1.277229967734456E+002
-1.277080090159462E+002	-1.4295033E+000	-1.4291056E+000	1.1193529E+001	1.279229967683932E+002
-1.285181470739067E+002	-1.4314959E+000	-1.4311055E+000	1.1138473E+001	1.281229967633408E+002
-1.292968242044080E+002	-1.4334987E+000	-1.4331053E+000	1.1086883E+001	1.283229967582884E+002
-1.302976065568643E+002	-1.4355129E+000	-1.4351051E+000	1.1017185E+001	1.285229967532359E+002
-1.315327798352491E+002	-1.4375156E+000	-1.4371051E+000	1.0928953E+001	1.287229967481835E+002
-1.328553426714439E+002	-1.4395307E+000	-1.4391049E+000	1.0835324E+001	1.289229967431311E+002
-1.337417461661252E+002	-1.4415115E+000	-1.4411049E+000	1.0778321E+001	1.291229967380787E+002
-1.346936902545749E+002	-1.4435165E+000	-1.4431047E+000	1.0717031E+001	1.293229967330262E+002
-1.362861363266068E+002	-1.4455159E+000	-1.4451046E+000	1.0606478E+001	1.295229967279738E+002
-1.371096613661230E+002	-1.4475142E+000	-1.4471046E+000	1.0557346E+001	1.297229967229214E+002
-1.378627778559312E+002	-1.4495205E+000	-1.4491044E+000	1.0514227E+001	1.299229967178690E+002
-1.387891858083590E+002	-1.4515246E+000	-1.4511044E+000	1.0458485E+001	1.301229967128165E+002
-1.397808200183094E+002	-1.4535146E+000	-1.4531043E+000	1.0398526E+001	1.303229967077641E+002
-1.407575023009958E+002	-1.4555014E+000	-1.4551034E+000	1.0340489E+001	1.305228967027142E+002
-1.420733759551072E+002	-1.4575162E+000	-1.4571044E+000	1.0258898E+001	1.307228966976618E+002
-1.428947739698452E+002	-1.4595134E+000	-1.4591038E+000	1.0213903E+001	1.309227966926119E+002
-1.438114297568393E+002	-1.4615183E+000	-1.4611037E+000	1.0162741E+001	1.311227966875595E+002
-1.450139810741630E+002	-1.4635117E+000	-1.4631035E+000	1.0092211E+001	1.313227966825070E+002
-1.459683867765937E+002	-1.4655175E+000	-1.4651035E+000	1.0039966E+001	1.315227966774546E+002
-1.468700419066987E+002	-1.4675092E+000	-1.4671034E+000	9.9918890E+000	1.317227966724022E+002
-1.481029220492394E+002	-1.4695182E+000	-1.4691033E+000	9.9222765E+000	1.319227966673498E+002
-1.491749849287014E+002	-1.4715279E+000	-1.4711032E+000	9.8644419E+000	1.321227966622973E+002
-1.500979054866189E+002	-1.4735342E+000	-1.4731030E+000	9.8171539E+000	1.323227966572449E+002
-1.509403585857822E+002	-1.4755245E+000	-1.4751030E+000	9.7755470E+000	1.325227966521925E+002
-1.518169569850237E+002	-1.4775274E+000	-1.4771028E+000	9.7322950E+000	1.327227966471401E+002
-1.528985469530501E+002	-1.4795228E+000	-1.4791028E+000	9.6765003E+000	1.329227966420876E+002
-1.539987013053458E+002	-1.4815277E+000	-1.4811027E+000	9.6203909E+000	1.331227966370352E+002
-1.549383807809445E+002	-1.4835389E+000	-1.4831026E+000	9.5750246E+000	1.333227966319828E+002
-1.561727564934963E+002	-1.4855310E+000	-1.4851023E+000	9.5121002E+000	1.335227966269304E+002
-1.572986638983909E+002	-1.4875399E+000	-1.4871023E+000	9.4567862E+000	1.337227966218779E+002
-1.582696089052563E+002	-1.4895345E+000	-1.4891021E+000	9.4113741E+000	1.339227966168255E+002
-1.593626396500327E+002	-1.4915227E+000	-1.4911011E+000	9.3592997E+000	1.341226966117756E+002
-1.604564930841370E+002	-1.4935038E+000	-1.4931016E+000	9.3078432E+000	1.343225966067257E+002
-1.616411490007863E+002	-1.4955118E+000	-1.4951018E+000	9.2520485E+000	1.345225966016733E+002
-1.628764225198565E+002	-1.4975119E+000	-1.4971018E+000	9.1941595E+000	1.347225965966209E+002
-1.637717778006927E+002	-1.4995202E+000	-1.4991016E+000	9.1561575E+000	1.349225965915684E+002
-1.654650307674801E+002	-1.5015115E+000	-1.5011015E+000	9.0744944E+000	1.351225965865160E+002
-1.665387303056091E+002	-1.5035291E+000	-1.5031015E+000	9.0281048E+000	1.353225965814636E+002
-1.676708850914656E+002	-1.5055063E+000	-1.5051013E+000	8.9789371E+000	1.355225965764112E+002
-1.685909463715939E+002	-1.5075195E+000	-1.5071013E+000	8.9418764E+000	1.357225965713587E+002
-1.695391513171382E+002	-1.5095177E+000	-1.5091012E+000	8.9036522E+000	1.359225965663063E+002
-1.701602053599024E+002	-1.5115167E+000	-1.5111010E+000	8.8829031E+000	1.361225965612539E+002
-1.710716663163803E+002	-1.5135200E+000	-1.5131007E+000	8.8472862E+000	1.363225965562015E+002
-1.720541872588951E+002	-1.5155265E+000	-1.5151007E+000	8.8084259E+000	1.365225965511490E+002
-1.728349488641129E+002	-1.5175147E+000	-1.5171006E+000	8.7801380E+000	1.367225965460966E+002
-1.734153616790597E+002	-1.5195216E+000	-1.5191005E+000	8.7623243E+000	1.369225965410442E+002
-1.744077933715862E+002	-1.5215147E+000	-1.5211004E+000	8.7238913E+000	1.371225965359918E+002
-1.752889870786335E+002	-1.5235260E+000	-1.5231003E+000	8.6915102E+000	1.373225965309393E+002
-1.759690381848084E+002	-1.5255295E+000	-1.5251002E+000	8.6693068E+000	1.375225965258869E+002
-1.780415104187960E+002	-1.5275215E+000	-1.5271003E+000	8.5795803E+000	1.377225965208345E+002
-1.798399483153894E+002	-1.5295316E+000	-1.5290997E+000	8.5049601E+000	1.379223965157871E+002
-1.804720279905528E+002	-1.5315405E+000	-1.5310999E+000	8.4863043E+000	1.381223965107347E+002
-1.819188436953664E+002	-1.5335289E+000	-1.5330997E+000	8.4297419E+000	1.383223965056823E+002
-1.830861763694647E+002	-1.5355157E+000	-1.5350995E+000	8.3868465E+000	1.385223965006298E+002
-1.839900876799938E+002	-1.5375483E+000	-1.5370995E+000	8.3566914E+000	1.387223964955774E+002
-1.855851225939464E+002	-1.5395408E+000	-1.5390993E+000	8.2956047E+000	1.389223964905250E+002
-1.865920076662169E+002	-1.5415249E+000	-1.5410993E+000	8.2614737E+000	1.391223964854726E+002
-1.871625116233654E+002	-1.5435271E+000	-1.5430992E+000	8.2469883E+000	1.393223964804201E+002
-1.880003427702277E+002	-1.5455153E+000	-1.5450990E+000	8.2208109E+000	1.395223964753677E+002
-1.903613535109034E+002	-1.5475334E+000	-1.5470990E+000	8.1294518E+000	1.397223964703153E+002
-1.918122432594132E+002	-1.5495344E+000	-1.5490988E+000	8.0783920E+000	1.399223964652629E+002
-1.925533485542355E+002	-1.5515478E+000	-1.5510987E+000	8.0577555E+000	1.401223964602104E+002
-1.936408008945227E+002	-1.5535371E+000	-1.5530987E+000	8.0227776E+000	1.403223964551580E+002
-1.951524426661381E+002	-1.5555383E+000	-1.5550984E+000	7.9708881E+000	1.405223964501056E+002
-1.963435230233505E+002	-1.5575383E+000	-1.5570985E+000	7.9327202E+000	1.407223964450532E+002
-1.969382547748337E+002	-1.5595431E+000	-1.5590984E+000	7.9189448E+000	1.409223964400007E+002
-1.980495981218596E+002	-1.5615584E+000	-1.5610982E+000	7.8846831E+000	1.411223964349483E+002
-1.988021938326747E+002	-1.5635431E+000	-1.5630983E+000	7.8648181E+000	1.413223964298959E+002
-1.998015403986437E+002	-1.5655608E+000	-1.5650977E+000	7.8355794E+000	1.415221964248485E+002
-2.004122977829838E+002	-1.5675576E+000	-1.5670980E+000	7.8216634E+000	1.417221964197961E+002
-2.015304180781050E+002	-1.5695397E+000	-1.5690979E+000	7.7881031E+000	1.419221964147437E+002
-2.023847550567320E+002	-1.5715574E+000	-1.5710976E+000	7.7651963E+000	1.421221964096912E+002
-2.035867106444166E+002	-1.5735502E+000	-1.5730977E+000	7.7291403E+000	1.423221964046388E+002
-2.046170938517776E+002	-1.5755548E+000	-1.5750974E+000	7.7000155E+000	1.425221963995864E+002
-2.048234746915684E+002	-1.5775512E+000	-1.5770973E+000	7.7020040E+000	1.427221963945340E+002
-2.052197654987945E+002	-1.5795466E+000	-1.5790973E+000	7.6968541E+000	1.429221963894815E+002
-2.066386801055769E+002	-1.5815663E+000	-1.5810971E+000	7.6537766E+000	1.431221963844291E+002
-2.090806947608658E+002	-1.5835581E+000	-1.5830970E+000	7.5739088E+000	1.433221963793767E+002
-2.116929320597051E+002	-1.5855644E+000	-1.5850967E+000	7.4899259E+000	1.435221963743243E+002
-2.133535260116178E+002	-1.5875694E+000	-1.5870968E+000	7.4410272E+000	1.437221963692718E+002
-2.141455903453343E+002	-1.5895725E+000	-1.5890967E+000	7.4228592E+000	1.439221963642194E+002
-2.156635847848552E+002	-1.5915391E+000	-1.5910966E+000	7.3797307E+000	1.441221963591670E+002
-2.162922001836523E+002	-1.5935425E+000	-1.5930964E+000	7.3675447E+000	1.443221963541146E+002
-2.175029184618234E+002	-1.5955380E+000	-1.5950965E+000	7.3357086E+000	1.445221963490621E+002
-2.195454793462950E+002	-1.5975411E+000	-1.5970962E+000	7.2765837E+000	1.447221963440097E+002
-2.202837309229603E+002	-1.5995383E+000	-1.5990964E+000	7.2612638E+000	1.449221963389573E+002
-2.212582726540174E+002	-1.6015531E+000	-1.6010958E+000	7.2383876E+000	1.451219963339099E+002
-2.228122842641628E+002	-1.6035596E+000	-1.6030959E+000	7.1969085E+000	1.453219963288575E+002
-2.248482442085970E+002	-1.6055636E+000	-1.6050957E+000	7.1406546E+000	1.455219963238051E+002
-2.249796698196133E+002	-1.6075450E+000	-1.6070957E+000	7.1452904E+000	1.457219963187526E+002
-2.253719700512693E+002	-1.6095464E+000	-1.6090956E+000	7.1417332E+000	1.459219963137002E+002
-2.261149921892993E+002	-1.6115420E+000	-1.6110954E+000	7.1270905E+000	1.461219963086478E+002
-2.275095218303797E+002	-1.6135428E+000	-1.6130954E+000	7.0921988E+000	1.463219963035954E+002
-2.281010364631952E+002	-1.6155671E+000	-1.6150951E+000	7.0826821E+000	1.465219962985429E+002
-2.290946018949930E+002	-1.6175636E+000	-1.6170950E+000	7.0606799E+000	1.467219962934905E+002
-2.320719181674949E+002	-1.6195650E+000	-1.6190950E+000	6.9787202E+000	1.469219962884381E+002
-2.331163063006070E+002	-1.6215538E+000	-1.6210948E+000	6.9559860E+000	1.471219962833857E+002
-2.342573584061345E+002	-1.6235535E+000	-1.6230947E+000	6.9306402E+000	1.473219962783332E+002
-2.354024861523894E+002	-1.6255789E+000	-1.6250948E+000	6.9055300E+000	1.475219962732808E+002
-2.362319857798466E+002	-1.6275793E+000	-1.6270945E+000	6.8897500E+000	1.477219962682284E+002
-2.373314267415844E+002	-1.6295609E+000	-1.6290944E+000	6.8661828E+000	1.479219962631760E+002
-2.384050339873952E+002	-1.6315669E+000	-1.6310943E+000	6.8436761E+000	1.481219962581235E+002
-2.394716462786237E+002	-1.6335577E+000	-1.6330942E+000	6.8215079E+000	1.483219962530711E+002
-2.399226608710578E+002	-1.6355655E+000	-1.6350943E+000	6.8170533E+000	1.485219962480187E+002
-2.403979571839841E+002	-1.6375717E+000	-1.6370937E+000	6.8119202E+000	1.487217962429713E+002
-2.413897351786109E+002	-1.6395875E+000	-1.6390939E+000	6.7922835E+000	1.489217962379189E+002
-2.428517239715511E+002	-1.6415689E+000	-1.6410936E+000	6.7595520E+000	1.491217962328665E+002
-2.439071381432673E+002	-1.6435757E+000	-1.6430936E+000	6.7385306E+000	1.493217962278140E+002
-2.447409454224608E+002	-1.6455860E+000	-1.6450937E+000	6.7237873E+000	1.495217962227616E+002
-2.464493920548975E+002	-1.6475819E+000	-1.6470935E+000	6.6852751E+000	1.497217962177092E+002
-2.485363752901404E+002	-1.6495875E+000	-1.6490933E+000	6.6372075E+000	1.499217962126568E+002
-2.515555729595717E+002	-1.6515673E+000	-1.6510934E+000	6.5654173E+000	1.501217962076043E+002
-2.521662055402658E+002	-1.6535686E+000	-1.6530931E+000	6.5574555E+000	1.503217962025519E+002
-2.530262618486577E+002	-1.6555665E+000	-1.6550930E+000	6.5430617E+000	1.505217961974995E+002
-2.535726251840060E+002	-1.6575699E+000	-1.6570929E+000	6.5368643E+000	1.507217961924471E+002
-2.545487223860899E+002	-1.6595930E+000	-1.6590928E+000	6.5197458E+000	1.509217961873946E+002
-2.549740506018634E+002	-1.6615714E+000	-1.6610926E+000	6.5166292E+000	1.511217961823422E+002
-2.556949107500973E+002	-1.6635840E+000	-1.6630924E+000	6.5061288E+000	1.513217961772898E+002
-2.574962539434978E+002	-1.6655821E+000	-1.6650925E+000	6.4683738E+000	1.515217961722374E+002
-2.582834211466266E+002	-1.6675893E+000	-1.6670924E+000	6.4564319E+000	1.517217961671849E+002
-2.604510823636906E+002	-1.6695876E+000	-1.6690923E+000	6.4103694E+000	1.519217961621325E+002
-2.623866904663123E+002	-1.6715757E+000	-1.6710920E+000	6.3706574E+000	1.521217961570801E+002
-2.627294042860258E+002	-1.6735795E+000	-1.6730917E+000	6.3699741E+000	1.523216961520302E+002
-2.632380919282100E+002	-1.6755770E+000	-1.6750927E+000	6.3652530E+000	1.525216961469778E+002
-2.651391217259861E+002	-1.6775995E+000	-1.6770917E+000	6.3272424E+000	1.527215961419279E+002
-2.664196081593991E+002	-1.6795907E+000	-1.6790915E+000	6.3043060E+000	1.529215961368755E+002
-2.666252127926359E+002	-1.6815856E+000	-1.6810915E+000	6.3069263E+000	1.531215961318230E+002
-2.668755867778582E+002	-1.6835814E+000	-1.6830914E+000	6.3084879E+000	1.533215961267706E+002
-2.681228622622497E+002	-1.6855804E+000	-1.6850914E+000	6.2865968E+000	1.535215961217182E+002
-2.708841656470795E+002	-1.6875753E+000	-1.6870912E+000	6.2298779E+000	1.537215961166658E+002
-2.709452902605753E+002	-1.6895713E+000	-1.6890911E+000	6.2358394E+000	1.539215961116133E+002
-2.716030372870491E+002	-1.6915824E+000	-1.6910911E+000	6.2281427E+000	1.541215961065609E+002
-2.728854418752408E+002	-1.6935818E+000	-1.6930908E+000	6.2062006E+000	1.543215961015085E+002
-2.739208416430583E+002	-1.6955861E+000	-1.6950907E+000	6.1900587E+000	1.545215960964561E+002
-2.757905307389174E+002	-1.6975762E+000	-1.6970906E+000	6.1553097E+000	1.547215960914036E+002
-2.808822392833495E+002	-1.6995736E+000	-1.6990905E+000	6.0508404E+000	1.549215960863512E+002
-2.826472214030568E+002	-1.7015879E+000	-1.7010903E+000	6.0201826E+000	1.551215960812988E+002
-2.829230738097049E+002	-1.7035778E+000	-1.7030904E+000	6.0213461E+000	1.553215960762464E+002
-2.837226022971199E+002	-1.7055755E+000	-1.7050902E+000	6.0114193E+000	1.555215960711939E+002
-2.842157509840536E+002	-1.7075889E+000	-1.7070901E+000	6.0080729E+000	1.557215960661415E+002
-2.850170647618334E+002	-1.7095855E+000	-1.7090896E+000	5.9981866E+000	1.559214960610916E+002
-2.864872445602799E+002	-1.7115753E+000	-1.7110909E+000	5.9743509E+000	1.561214960560392E+002
-2.865957896368841E+002	-1.7136005E+000	-1.7130898E+000	5.9791546E+000	1.563213960509893E+002
-2.874917326276263E+002	-1.7155749E+000	-1.7150897E+000	5.9673886E+000	1.565213960459369E+002
-2.878409166595570E+002	-1.7175901E+000	-1.7170894E+000	5.9671507E+000	1.567213960408844E+002
-2.883624883509010E+002	-1.7195865E+000	-1.7190893E+000	5.9632807E+000	1.569213960358320E+002
-2.888937414108764E+002	-1.7215892E+000	-1.7210892E+000	5.9592471E+000	1.571213960307796E+002
-2.898177109737776E+002	-1.7235953E+000	-1.7230893E+000	5.9471703E+000	1.573213960257272E+002
-2.916008549709709E+002	-1.7255958E+000	-1.7250892E+000	5.9176641E+000	1.575213960206747E+002
-2.925188266468697E+002	-1.7275939E+000	-1.7270889E+000	5.9059238E+000	1.577213960156223E+002
-2.955883543637342E+002	-1.7295960E+000	-1.7290888E+000	5.8513675E+000	1.579213960105699E+002
-2.979175825486645E+002	-1.7315879E+000	-1.7310888E+000	5.8123050E+000	1.581213960055175E+002
-2.982073629448478E+002	-1.7335982E+000	-1.7330886E+000	5.8133984E+000	1.583213960004650E+002
-2.996643674335771E+002	-1.7355946E+000	-1.7350886E+000	5.7917953E+000	1.585213959954126E+002
-3.003884195946239E+002	-1.7376069E+000	-1.7370884E+000	5.7845335E+000	1.587213959903602E+002
-3.006662039789207E+002	-1.7396011E+000	-1.7390883E+000	5.7858219E+000	1.589213959853078E+002
-3.012550960008785E+002	-1.7415924E+000	-1.7410880E+000	5.7811217E+000	1.591213959802553E+002
-3.016417589641756E+002	-1.7436101E+000	-1.7430881E+000	5.7804003E+000	1.593213959752029E+002
-3.048222605988035E+002	-1.7455946E+000	-1.7450880E+000	5.7265983E+000	1.595212959701530E+002
-3.069145115508509E+002	-1.7475984E+000	-1.7470880E+000	5.6940885E+000	1.597211959651031E+002
-3.086697720248687E+002	-1.7495948E+000	-1.7490877E+000	5.6681767E+000	1.599211959600507E+002
-3.087196011856840E+002	-1.7516047E+000	-1.7510878E+000	5.6737723E+000	1.601211959549983E+002
-3.091568311336631E+002	-1.7535824E+000	-1.7530875E+000	5.6721449E+000	1.603211959499458E+002
-3.091847196587619E+002	-1.7555877E+000	-1.7550874E+000	5.6781192E+000	1.605211959448934E+002
-3.099502880373224E+002	-1.7575858E+000	-1.7570871E+000	5.6705408E+000	1.607211959398410E+002
-3.105169009016204E+002	-1.7595913E+000	-1.7590872E+000	5.6666522E+000	1.609211959347886E+002
-3.115712365325626E+002	-1.7615856E+000	-1.7610871E+000	5.6538773E+000	1.611211959297361E+002
-3.129131498293532E+002	-1.7636011E+000	-1.7630870E+000	5.6360722E+000	1.613211959246837E+002
-3.148728273006795E+002	-1.7656175E+000	-1.7650869E+000	5.6073985E+000	1.615211959196313E+002
-3.178756199099325E+002	-1.7676010E+000	-1.7670867E+000	5.5606689E+000	1.617211959145789E+002
-3.186579827202690E+002	-1.7696109E+000	-1.7690867E+000	5.5533237E+000	1.619211959095264E+002
-3.199251661387157E+002	-1.7716067E+000	-1.7710865E+000	5.5375657E+000	1.621211959044740E+002
-3.201490133160091E+002	-1.7735925E+000	-1.7730863E+000	5.5398970E+000	1.623211958994216E+002
-3.204936585220880E+002	-1.7756097E+000	-1.7750863E+000	5.5402336E+000	1.625211958943692E+002
-3.208574215635959E+002	-1.7775961E+000	-1.7770861E+000	5.5401435E+000	1.627211958893167E+002
-3.224269034175900E+002	-1.7796056E+000	-1.7790860E+000	5.5194082E+000	1.629211958842643E+002
-3.266079027410897E+002	-1.7816308E+000	-1.7810860E+000	5.4549532E+000	1.631210958792144E+002
-3.274616597796248E+002	-1.7836074E+000	-1.7830858E+000	5.4467669E+000	1.633209958741645E+002
-3.280116012664066E+002	-1.7856108E+000	-1.7850858E+000	5.4437428E+000	1.635209958691121E+002
-3.286398544895387E+002	-1.7876188E+000	-1.7870858E+000	5.4394460E+000	1.637209958640597E+002
-3.312568375788579E+002	-1.7896129E+000	-1.7890857E+000	5.4024935E+000	1.639209958590072E+002
-3.369406155112642E+002	-1.7916191E+000	-1.7910855E+000	5.3173141E+000	1.641209958539548E+002
-3.387450785842339E+002	-1.7936217E+000	-1.7930853E+000	5.2949009E+000	1.643209958489024E+002
-3.393093909633408E+002	-1.7956228E+000	-1.7950851E+000	5.2919927E+000	1.645209958438500E+002
-3.403355156061598E+002	-1.7976292E+000	-1.7970849E+000	5.2819324E+000	1.647209958387975E+002
-3.420903015331338E+002	-1.7995945E+000	-1.7990849E+000	5.2605834E+000	1.649209958337451E+002
-3.418200755800531E+002	-1.8016366E+000	-1.8010850E+000	5.2707162E+000	1.651209958286927E+002
-3.435649081703750E+002	-1.8036087E+000	-1.8030849E+000	5.2496881E+000	1.653209958236403E+002
-3.446602378788975E+002	-1.8056171E+000	-1.8050847E+000	5.2388320E+000	1.655209958185878E+002
-3.450893860252545E+002	-1.8076223E+000	-1.8070847E+000	5.2381277E+000	1.657209958135354E+002
-3.451989532154976E+002	-1.8096068E+000	-1.8090845E+000	5.2422142E+000	1.659209958084830E+002
-3.465095503411327E+002	-1.8116112E+000	-1.8110843E+000	5.2281709E+000	1.661209958034306E+002
-3.476792891258008E+002	-1.8135922E+000	-1.8130842E+000	5.2162790E+000	1.663209957983781E+002
-3.488535155558001E+002	-1.8156044E+000	-1.8150841E+000	5.2044897E+000	1.665209957933257E+002
-3.497446567841753E+002	-1.8176017E+000	-1.8170837E+000	5.1969390E+000	1.667208957882758E+002
-3.503665438476880E+002	-1.8196139E+000	-1.8190837E+000	5.1934581E+000	1.669207957832259E+002
-3.528418073178427E+002	-1.8216071E+000	-1.8210838E+000	5.1626735E+000	1.671207957781735E+002
-3.536209371441341E+002	-1.8236046E+000	-1.8230838E+000	5.1569476E+000	1.673207957731211E+002
-3.538984301063219E+002	-1.8256015E+000	-1.8250836E+000	5.1585464E+000	1.675207957680686E+002
-3.539611789763928E+002	-1.8275999E+000	-1.8270835E+000	5.1632776E+000	1.677207957630162E+002
-3.578522293800124E+002	-1.8296123E+000	-1.8290834E+000	5.1127591E+000	1.679207957579638E+002
-3.586902196326221E+002	-1.8316163E+000	-1.8310832E+000	5.1064014E+000	1.681207957529114E+002
-3.602934984955400E+002	-1.8336189E+000	-1.8330830E+000	5.0892367E+000	1.683207957478589E+002
-3.611290025970552E+002	-1.8356240E+000	-1.8350828E+000	5.0830145E+000	1.685207957428065E+002
-3.623729967216786E+002	-1.8376110E+000	-1.8370829E+000	5.0710483E+000	1.687207957377541E+002
-3.639521256790695E+002	-1.8396204E+000	-1.8390827E+000	5.0545669E+000	1.689207957327017E+002
-3.644461965214916E+002	-1.8416060E+000	-1.8410827E+000	5.0531631E+000	1.691207957276492E+002
-3.673495262539582E+002	-1.8436191E+000	-1.8430827E+000	5.0187054E+000	1.693207957225968E+002
-3.678544616547845E+002	-1.8456192E+000	-1.8450824E+000	5.0172539E+000	1.695207957175444E+002
-3.687310352541699E+002	-1.8476403E+000	-1.8470824E+000	5.0108075E+000	1.697207957124920E+002
-3.697264527193274E+002	-1.8496488E+000	-1.8490822E+000	5.0027494E+000	1.699207957074395E+002
-3.702379977405744E+002	-1.8516239E+000	-1.8510822E+000	5.0011721E+000	1.701207957023871E+002
-3.716688811548038E+002	-1.8536506E+000	-1.8530817E+000	4.9873710E+000	1.703206956973372E+002
-3.735038954070897E+002	-1.8556507E+000	-1.8550818E+000	4.9682231E+000	1.705205956922873E+002
-3.735452039766201E+002	-1.8576300E+000	-1.8570817E+000	4.9729724E+000	1.707205956872349E+002
-3.766836984033216E+002	-1.8596530E+000	-1.8590817E+000	4.9369087E+000	1.709205956821825E+002
-3.768749856732611E+002	-1.8616428E+000	-1.8610815E+000	4.9396825E+000	1.711205956771300E+002
-3.784383043994167E+002	-1.8636364E+000	-1.8630816E+000	4.9245448E+000	1.713205956720776E+002
-3.800099040591522E+002	-1.8656417E+000	-1.8650813E+000	4.9094553E+000	1.715205956670252E+002
-3.800882777259449E+002	-1.8676188E+000	-1.8670814E+000	4.9136448E+000	1.717205956619728E+002
-3.808810018509148E+002	-1.8696588E+000	-1.8690811E+000	4.9087744E+000	1.719205956569203E+002
-3.832530498742524E+002	-1.8716493E+000	-1.8710810E+000	4.8835859E+000	1.721205956518679E+002
-3.837211007336645E+002	-1.8736523E+000	-1.8730807E+000	4.8828492E+000	1.723205956468155E+002
-3.839254029743261E+002	-1.8756469E+000	-1.8750807E+000	4.8854465E+000	1.725205956417631E+002
-3.854648265406122E+002	-1.8776629E+000	-1.8770806E+000	4.8711653E+000	1.727205956367106E+002
-3.858721514223917E+002	-1.8796500E+000	-1.8790807E+000	4.8711729E+000	1.729205956316582E+002
-3.869116846547363E+002	-1.8816607E+000	-1.8810804E+000	4.8632822E+000	1.731205956266058E+002
-3.876356048173102E+002	-1.8836516E+000	-1.8830804E+000	4.8593359E+000	1.733205956215534E+002
-3.903856333713138E+002	-1.8856583E+000	-1.8850803E+000	4.8302450E+000	1.735205956165009E+002
-3.916525693880467E+002	-1.8876358E+000	-1.8870802E+000	4.8196692E+000	1.737205956114485E+002
-3.927811040643355E+002	-1.8896396E+000	-1.8890800E+000	4.8109231E+000	1.739204956063986E+002
-3.938441368652311E+002	-1.8916488E+000	-1.8910799E+000	4.8030391E+000	1.741203956013487E+002
-3.937397566901318E+002	-1.8936464E+000	-1.8930798E+000	4.8093858E+000	1.743203955962963E+002
-3.931795493340005E+002	-1.8956565E+000	-1.8950795E+000	4.8213506E+000	1.745203955912439E+002
-3.955573872244004E+002	-1.8976429E+000	-1.8970793E+000	4.7973895E+000	1.747203955861914E+002
-3.986629239555950E+002	-1.8996260E+000	-1.8990794E+000	4.7649927E+000	1.749203955811390E+002
-4.003672226388967E+002	-1.9016253E+000	-1.9010794E+000	4.7497029E+000	1.751203955760866E+002
-4.007474761452540E+002	-1.9036237E+000	-1.9030793E+000	4.7501826E+000	1.753203955710342E+002
-4.005010572766496E+002	-1.9056311E+000	-1.9050791E+000	4.7581177E+000	1.755203955659817E+002
-4.023342899703123E+002	-1.9076353E+000	-1.9070791E+000	4.7414188E+000	1.757203955609293E+002
-4.042570023871886E+002	-1.9096563E+000	-1.9090788E+000	4.7238669E+000	1.759203955558769E+002
-4.071179503702507E+002	-1.9116354E+000	-1.9110787E+000	4.6955323E+000	1.761203955508245E+002
-4.076757949387957E+002	-1.9136285E+000	-1.9130784E+000	4.6939960E+000	1.763203955457720E+002
-4.099405580637422E+002	-1.9156398E+000	-1.9150785E+000	4.6729698E+000	1.765203955407196E+002
-4.098159658427658E+002	-1.9176399E+000	-1.9170784E+000	4.6792707E+000	1.767203955356672E+002
-4.094426843898364E+002	-1.9196382E+000	-1.9190784E+000	4.6884174E+000	1.769203955306148E+002
-4.089109620031595E+002	-1.9216490E+000	-1.9210783E+000	4.6994314E+000	1.771203955255623E+002
-4.095278777513922E+002	-1.9236432E+000	-1.9230781E+000	4.6972218E+000	1.773203955205099E+002
-4.109090726252771E+002	-1.9256532E+000	-1.9250792E+000	4.6863246E+000	1.775203955154575E+002
-4.150140924727671E+002	-1.9276433E+000	-1.9270779E+000	4.6447659E+000	1.777201955104101E+002
-4.183553638544763E+002	-1.9296458E+000	-1.9290779E+000	4.6124563E+000	1.779201955053577E+002
-4.214075468327192E+002	-1.9316295E+000	-1.9310776E+000	4.5837564E+000	1.781201955003053E+002
-4.237400816443819E+002	-1.9336519E+000	-1.9330775E+000	4.5632973E+000	1.783201954952528E+002
-4.234318868762516E+002	-1.9356552E+000	-1.9350773E+000	4.5713496E+000	1.785201954902004E+002
-4.237132528179632E+002	-1.9376606E+000	-1.9370774E+000	4.5730467E+000	1.787201954851480E+002
-4.242683318910122E+002	-1.9396383E+000	-1.9390771E+000	4.5717254E+000	1.789201954800956E+002
-4.282677790626658E+002	-1.9416693E+000	-1.9410772E+000	4.5337739E+000	1.791201954750431E+002
-4.281217545316886E+002	-1.9436678E+000	-1.9430770E+000	4.5399885E+000	1.793201954699907E+002
-4.286021796721716E+002	-1.9456549E+000	-1.9450771E+000	4.5395355E+000	1.795201954649383E+002
-4.285645460963530E+002	-1.9476675E+000	-1.9470768E+000	4.5446305E+000	1.797201954598859E+002
-4.282001846815183E+002	-1.9496602E+000	-1.9490767E+000	4.5531511E+000	1.799201954548334E+002
-4.280397627434761E+002	-1.9516566E+000	-1.9510764E+000	4.5595217E+000	1.801201954497810E+002
-4.305751550549012E+002	-1.9536581E+000	-1.9530764E+000	4.5373220E+000	1.803201954447286E+002
-4.310532697258077E+002	-1.9556543E+000	-1.9550762E+000	4.5369201E+000	1.805201954396762E+002
-4.301830546234196E+002	-1.9576613E+000	-1.9570763E+000	4.5507631E+000	1.807201954346237E+002
-4.316026248023627E+002	-1.9596578E+000	-1.9590760E+000	4.5404215E+000	1.809201954295713E+002
-4.329703545796874E+002	-1.9616419E+000	-1.9610763E+000	4.5306611E+000	1.811200954245214E+002
-4.363658328499641E+002	-1.9636419E+000	-1.9630760E+000	4.4999900E+000	1.813199954194715E+002
-4.389019877288865E+002	-1.9656391E+000	-1.9650759E+000	4.4785376E+000	1.815199954144191E+002
-4.392007034457456E+002	-1.9676478E+000	-1.9670756E+000	4.4800653E+000	1.817199954093667E+002
-4.409744179913778E+002	-1.9696509E+000	-1.9690756E+000	4.4665875E+000	1.819199954043143E+002
-4.425594172056024E+002	-1.9716730E+000	-1.9710754E+000	4.4551601E+000	1.821199953992618E+002
-4.431850072207653E+002	-1.9736557E+000	-1.9730752E+000	4.4533448E+000	1.823199953942094E+002
-4.447532468523295E+002	-1.9756614E+000	-1.9750750E+000	4.4421515E+000	1.825199953891570E+002
-4.472902413279562E+002	-1.9776682E+000	-1.9770751E+000	4.4214425E+000	1.827199953841046E+002
-4.484142927442281E+002	-1.9796616E+000	-1.9790751E+000	4.4148049E+000	1.829199953790521E+002
-4.501522702716666E+002	-1.9816599E+000	-1.9810749E+000	4.4021993E+000	1.831199953739997E+002
-4.529876713482423E+002	-1.9836656E+000	-1.9830748E+000	4.3790717E+000	1.833199953689473E+002
-4.535433838772915E+002	-1.9856828E+000	-1.9850748E+000	4.3781543E+000	1.835199953638949E+002
-4.533887837857619E+002	-1.9876846E+000	-1.9870745E+000	4.3840623E+000	1.837199953588424E+002
-4.559507494080917E+002	-1.9896696E+000	-1.9890743E+000	4.3637819E+000	1.839199953537900E+002
-4.561240136974811E+002	-1.9916687E+000	-1.9910741E+000	4.3665071E+000	1.841199953487376E+002
-4.556778126887457E+002	-1.9936755E+000	-1.9930741E+000	4.3751864E+000	1.843199953436852E+002
-4.568523729717936E+002	-1.9956797E+000	-1.9950740E+000	4.3683252E+000	1.845199953386327E+002
-4.580281583760916E+002	-1.9976737E+000	-1.9970740E+000	4.3614650E+000	1.847198953335828E+002
-4.601813038936281E+002	-1.9996827E+000	-1.9990741E+000	4.3454237E+000	1.849197953285329E+002
-4.627879519084163E+002	-2.0016685E+000	-2.0010738E+000	4.3252387E+000	1.851197953234805E+002
-4.651114686978917E+002	-2.0036590E+000	-2.0030737E+000	4.3079114E+000	1.853197953184281E+002
-4.638589222923156E+002	-2.0056696E+000	-2.0050735E+000	4.3238783E+000	1.855197953133757E+002
-4.636786343451276E+002	-2.0076625E+000	-2.0070734E+000	4.3298578E+000	1.857197953083232E+002
-4.654203616896993E+002	-2.0096605E+000	-2.0090733E+000	4.3179469E+000	1.859197953032708E+002
-4.657613270428719E+002	-2.0116732E+000	-2.0110731E+000	4.3191075E+000	1.861197952982184E+002
-4.655116683890737E+002	-2.0136669E+000	-2.0130730E+000	4.3257065E+000	1.863197952931660E+002
-4.675691321496251E+002	-2.0156686E+000	-2.0150728E+000	4.3109531E+000	1.865197952881135E+002
-4.703788982529759E+002	-2.0176709E+000	-2.0170729E+000	4.2894588E+000	1.867197952830611E+002
-4.745258914099795E+002	-2.0196743E+000	-2.0190730E+000	4.2561941E+000	1.869197952780087E+002
-4.766374052441315E+002	-2.0216751E+000	-2.0210729E+000	4.2415366E+000	1.871197952729563E+002
-4.759990048397685E+002	-2.0236688E+000	-2.0230725E+000	4.2514138E+000	1.873197952679038E+002
-4.762570634266667E+002	-2.0256763E+000	-2.0250726E+000	4.2533255E+000	1.875197952628514E+002
-4.774513382425093E+002	-2.0276718E+000	-2.0270724E+000	4.2468657E+000	1.877197952577990E+002
-4.779997774067924E+002	-2.0296690E+000	-2.0290720E+000	4.2461715E+000	1.879197952527466E+002
-4.784195350254868E+002	-2.0316875E+000	-2.0310717E+000	4.2466650E+000	1.881196952476967E+002
-4.793570121731182E+002	-2.0336728E+000	-2.0330715E+000	4.2425013E+000	1.883195952426468E+002
-4.833817824884895E+002	-2.0356822E+000	-2.0350721E+000	4.2113342E+000	1.885195952375943E+002
-4.902822508779509E+002	-2.0376883E+000	-2.0370719E+000	4.1561532E+000	1.887195952325419E+002
-4.911709376830368E+002	-2.0396712E+000	-2.0390718E+000	4.1526709E+000	1.889195952274895E+002
-4.912595977912933E+002	-2.0416684E+000	-2.0410717E+000	4.1559868E+000	1.891195952224371E+002
-4.937935822891282E+002	-2.0436704E+000	-2.0430715E+000	4.1387138E+000	1.893195952173846E+002
-4.951390936845005E+002	-2.0456741E+000	-2.0450714E+000	4.1315141E+000	1.895195952123322E+002
-4.955044396977864E+002	-2.0476713E+000	-2.0470712E+000	4.1324983E+000	1.897195952072798E+002
-4.961924034257036E+002	-2.0496514E+000	-2.0490711E+000	4.1307592E+000	1.899195952022274E+002
-4.961572171425323E+002	-2.0517123E+000	-2.0510709E+000	4.1352057E+000	1.901195951971749E+002
-4.983619548901388E+002	-2.0537114E+000	-2.0530708E+000	4.1209235E+000	1.903195951921225E+002
-4.978620415036639E+002	-2.0557110E+000	-2.0550709E+000	4.1290774E+000	1.905195951870701E+002
-4.972701973039270E+002	-2.0577037E+000	-2.0570710E+000	4.1379995E+000	1.907195951820177E+002
-5.003619588345882E+002	-2.0597053E+000	-2.0590706E+000	4.1164308E+000	1.909195951769652E+002
-5.018924310385764E+002	-2.0616922E+000	-2.0610704E+000	4.1078367E+000	1.911195951719128E+002
-5.008525049118757E+002	-2.0636964E+000	-2.0630705E+000	4.1203675E+000	1.913195951668604E+002
-5.003235648927239E+002	-2.0657175E+000	-2.0650704E+000	4.1287632E+000	1.915195951618080E+002
-5.005220269341708E+002	-2.0677047E+000	-2.0670700E+000	4.1310964E+000	1.917194951567581E+002
-5.004782806625126E+002	-2.0697165E+000	-2.0690706E+000	4.1354771E+000	1.919194951517056E+002
-5.021386251384711E+002	-2.0716975E+000	-2.0710700E+000	4.1257482E+000	1.921193951466557E+002
-5.048754694413165E+002	-2.0737128E+000	-2.0730700E+000	4.1073747E+000	1.923193951416033E+002
-5.038655583301634E+002	-2.0757012E+000	-2.0750697E+000	4.1195536E+000	1.925193951365509E+002
-5.041755991176680E+002	-2.0777154E+000	-2.0770695E+000	4.1210155E+000	1.927193951314985E+002
-5.059438069574953E+002	-2.0797262E+000	-2.0790696E+000	4.1105876E+000	1.929193951264460E+002
-5.059415357637304E+002	-2.0817127E+000	-2.0810695E+000	4.1145320E+000	1.931193951213936E+002
-5.081063713194835E+002	-2.0837200E+000	-2.0830693E+000	4.1009521E+000	1.933193951163412E+002
-5.144667975670075E+002	-2.0857184E+000	-2.0850692E+000	4.0541363E+000	1.935193951112888E+002
-5.202573826458975E+002	-2.0877171E+000	-2.0870690E+000	4.0128541E+000	1.937193951062363E+002
-5.220598863917394E+002	-2.0897231E+000	-2.0890689E+000	4.0028419E+000	1.939193951011839E+002
-5.229142367391096E+002	-2.0917361E+000	-2.0910687E+000	4.0001512E+000	1.941193950961315E+002
-5.235257101037350E+002	-2.0937214E+000	-2.0930686E+000	3.9992714E+000	1.943193950910791E+002
-5.245345037248408E+002	-2.0957415E+000	-2.0950687E+000	3.9954312E+000	1.945193950860266E+002
-5.256397284120667E+002	-2.0977199E+000	-2.0970685E+000	3.9907942E+000	1.947193950809742E+002
-5.258731547115613E+002	-2.0997145E+000	-2.0990684E+000	3.9928155E+000	1.949193950759218E+002
-5.274298897740828E+002	-2.1017277E+000	-2.1010675E+000	3.9848475E+000	1.951192950708719E+002
-5.270908251740138E+002	-2.1036994E+000	-2.1030688E+000	3.9911518E+000	1.953193950658169E+002
-5.266665029832985E+002	-2.1057029E+000	-2.1050680E+000	3.9981713E+000	1.955191950607696E+002
-5.314174349821642E+002	-2.1077011E+000	-2.1070681E+000	3.9661872E+000	1.957191950557171E+002
-5.308203075478136E+002	-2.1097155E+000	-2.1090679E+000	3.9744437E+000	1.959191950506647E+002
-5.303577352251314E+002	-2.1117156E+000	-2.1110675E+000	3.9816813E+000	1.961191950456123E+002
-5.309367519603566E+002	-2.1137147E+000	-2.1130674E+000	3.9811046E+000	1.963191950405599E+002
-5.298301524942972E+002	-2.1157026E+000	-2.1150675E+000	3.9931715E+000	1.965191950355074E+002
-5.292401530164170E+002	-2.1177082E+000	-2.1170676E+000	4.0014124E+000	1.967191950304550E+002
-5.311707296652612E+002	-2.1196976E+000	-2.1190674E+000	3.9906144E+000	1.969191950254026E+002
-5.331753720134311E+002	-2.1216936E+000	-2.1210670E+000	3.9793541E+000	1.971191950203502E+002
-5.331065641909224E+002	-2.1236987E+000	-2.1230671E+000	3.9836290E+000	1.973191950152977E+002
-5.326335625464690E+002	-2.1256938E+000	-2.1250670E+000	3.9909122E+000	1.975191950102453E+002
-5.358584585730441E+002	-2.1277075E+000	-2.1270669E+000	3.9706521E+000	1.977191950051929E+002
-5.381873858272374E+002	-2.1297231E+000	-2.1290665E+000	3.9572148E+000	1.979191950001405E+002
-5.374236032005883E+002	-2.1316998E+000	-2.1310666E+000	3.9665170E+000	1.981191949950880E+002
-5.383383748147467E+002	-2.1337204E+000	-2.1330664E+000	3.9635303E+000	1.983191949900356E+002
-5.392714331750121E+002	-2.1356933E+000	-2.1350663E+000	3.9603310E+000	1.985191949849832E+002
-5.401167090149975E+002	-2.1377096E+000	-2.1370664E+000	3.9578662E+000	1.987191949799308E+002
-5.452876111884061E+002	-2.1396952E+000	-2.1390665E+000	3.9239755E+000	1.989190949748809E+002
-5.475856467377998E+002	-2.1416981E+000	-2.1410658E+000	3.9111655E+000	1.991189949698310E+002
-5.479603099476972E+002	-2.1437085E+000	-2.1430659E+000	3.9121602E+000	1.993189949647785E+002
-5.494925519030642E+002	-2.1456933E+000	-2.1450660E+000	3.9048634E+000	1.995189949597261E+002
-5.515423417340062E+002	-2.1477108E+000	-2.1470659E+000	3.8940089E+000	1.997189949546737E+002
-5.543872218099577E+002	-2.1497054E+000	-2.1490655E+000	3.8776243E+000	1.999189949496213E+002
-5.579730216608007E+002	-2.1517053E+000	-2.1510653E+000	3.8562891E+000	2.001189949445688E+002
-5.602333530503856E+002	-2.1537225E+000	-2.1530654E+000	3.8443310E+000	2.003189949395164E+002
-5.628299413668055E+002	-2.1557052E+000	-2.1550655E+000	3.8301182E+000	2.005189949344640E+002
-5.622440037435408E+002	-2.1570003E+000	-2.1563649E+000	3.8364131E+000	2.006489949311799E+002
-5.614132772909634E+002	-2.1574292E+000	-2.1567647E+000	3.8428540E+000	2.006865949302301E+002