EC-Lab ASCII FILE
Nb header lines : 62                          

Linear Sweep Voltammetry

Run on channel : 1 (SN 1340)
User : 
Electrode connection : standard
Potential control : Ewe
Ewe ctrl range : min = -5.00 V, max = 5.00 V
Ewe,I filtering : 50 kHz
Channel : Grounded
Acquisition started on : 11/06/2025 11:28:34.044
Technique started on : 11/06/2025 11:28:34.044
Loaded Setting File :  NONE
Saved on :
	File : Ni_Test1_C01.mpr
	Directory : C:\Users\volt\Documents\Platalytix\
	Host : 127.0.0.1
Device : SP-200 (SN 0262)
Address : USB
EC-LAB for windows v11.60 (software)
Internet server v11.60 (firmware)
Command interpretor v11.60 (firmware)
Electrode material : Ni 
Initial state : 
Electrolyte : KOH (1M)
Comments : 
Cable : standard
Reference electrode : Hg/HgO (0.140 V)
Electrode surface area : 1.000 cmｲ
Characteristic mass : 0.001 g
Volume (V) : 0.001 cmｳ
Thickness (t) : 0.000 cm
Diameter (d) : 0.000 cm
Cell constant (k=t/A) : 0.000 cm-1
Cycle Definition : Charge/Discharge alternance
tR (h:m:s)          0:00:5.0000         
dER/dt (mV/h)       0.0                 
dER (mV)            0                   
dtR (s)             0.0000              
dE/dt               10.000              
dE/dt unit          mV/s                
Ei (V)              -0.200              
vs.                 Ref                 
EL (V)              -2.500              
vs.                 Ref                 
record              <I>                 
dI                  0.000               
unit dI             ｵA                  
tI (s)              0.0000              
step percent        50                  
N                   10                  
E range min (V)     -5.000              
E range max (V)     5.000               
I Range             Auto                
I Range min         Unset               
I Range max         Unset               
I Range init        Unset               
Bandwidth           8                   

<I>/mA	Ewe/V	control/V	Rwe/Ohm	time/s	
0.000000000000000E+000	-2.8126368E-001	0.0000000E+000	0.0000000E+000	0.000000000000000E+000
0.000000000000000E+000	-2.8085500E-001	-1.9990683E-001	0.0000000E+000	4.999799873694428E+000
6.448098026417401E-001	-2.0147598E-001	-2.0120654E-001	3.1245801E+002	5.139799870157731E+000
1.820921390623562E-001	-2.0265381E-001	-2.0240654E-001	1.1129191E+003	5.259799867126276E+000
7.322721174852670E-002	-2.0475368E-001	-2.0450641E-001	2.7961421E+003	5.469799861821230E+000
4.699980360805711E-002	-2.0697242E-001	-2.0670626E-001	4.4036870E+003	5.689799856263562E+000
3.498938594957435E-002	-2.0916362E-001	-2.0890616E-001	5.9779165E+003	5.909799850705895E+000
2.835955121765629E-002	-2.1115153E-001	-2.1090604E-001	7.4455171E+003	6.109799845653470E+000
2.378979039601781E-002	-2.1316826E-001	-2.1290594E-001	8.9604932E+003	6.309799840601045E+000
2.047369686731976E-002	-2.1514979E-001	-2.1490584E-001	1.0508595E+004	6.509799835548620E+000
1.787614881360899E-002	-2.1716379E-001	-2.1690573E-001	1.2148242E+004	6.709799830496195E+000
1.584962132817680E-002	-2.1914911E-001	-2.1890561E-001	1.3826772E+004	6.909799825443770E+000
1.419947572926782E-002	-2.2116396E-001	-2.2090548E-001	1.5575502E+004	7.109799820391345E+000
1.284600360701260E-002	-2.2315633E-001	-2.2290540E-001	1.7371654E+004	7.309799815338920E+000
1.161927500809118E-002	-2.2515906E-001	-2.2490530E-001	1.9378064E+004	7.509799810286495E+000
1.060375671834023E-002	-2.2716139E-001	-2.2690517E-001	2.1422729E+004	7.709799805234070E+000
9.745062034470980E-003	-2.2918364E-001	-2.2890508E-001	2.3517926E+004	7.909799800181645E+000
8.962372018490566E-003	-2.3115498E-001	-2.3090495E-001	2.5791719E+004	8.109799795129220E+000
8.293295128798353E-003	-2.3315877E-001	-2.3290505E-001	2.8114129E+004	8.309699790079321E+000
7.669104948809347E-003	-2.3517066E-001	-2.3490472E-001	3.0664682E+004	8.509599785029422E+000
7.118392267418588E-003	-2.3717363E-001	-2.3690462E-001	3.3318426E+004	8.709599779976998E+000
6.603231318976097E-003	-2.3916343E-001	-2.3890452E-001	3.6219152E+004	8.909599774924573E+000
6.175407202727745E-003	-2.4116236E-001	-2.4090438E-001	3.9052059E+004	9.109599769872148E+000
5.751291984457785E-003	-2.4316552E-001	-2.4290428E-001	4.2280156E+004	9.309599764819723E+000
5.366592658493585E-003	-2.4516933E-001	-2.4490416E-001	4.5684355E+004	9.509599759767298E+000
5.028177119985273E-003	-2.4716529E-001	-2.4690406E-001	4.9156043E+004	9.709599754714873E+000
4.669724172093423E-003	-2.4915932E-001	-2.4890395E-001	5.3356324E+004	9.909599749662448E+000
4.361566703083151E-003	-2.5118524E-001	-2.5090384E-001	5.7590598E+004	1.010959974461002E+001
4.105710297013329E-003	-2.5315827E-001	-2.5290370E-001	6.1660043E+004	1.030959973955760E+001
3.859312421753913E-003	-2.5515106E-001	-2.5490361E-001	6.6113086E+004	1.050959973450517E+001
3.609703070628759E-003	-2.5715378E-001	-2.5690350E-001	7.1239594E+004	1.070959972945275E+001
3.343656007210385E-003	-2.5915843E-001	-2.5890338E-001	7.7507508E+004	1.090959972440032E+001
3.151387092360416E-003	-2.6114762E-001	-2.6090330E-001	8.2867516E+004	1.110959971934790E+001
2.952602011382395E-003	-2.6313955E-001	-2.6290315E-001	8.9121234E+004	1.130959971429547E+001
2.729925206314501E-003	-2.6514611E-001	-2.6490307E-001	9.7125773E+004	1.150959970924305E+001
2.564102590182801E-003	-2.6713738E-001	-2.6690295E-001	1.0418358E+005	1.170959970419062E+001
2.379463298695733E-003	-2.6913527E-001	-2.6890308E-001	1.1310755E+005	1.190949969914072E+001
2.224936893206669E-003	-2.7114117E-001	-2.7090275E-001	1.2186466E+005	1.210939969409083E+001
2.039360144817804E-003	-2.7313566E-001	-2.7290264E-001	1.3393203E+005	1.230939968903840E+001
1.886178503888159E-003	-2.7514282E-001	-2.7490249E-001	1.4587316E+005	1.250939968398598E+001
1.736617228360261E-003	-2.7714327E-001	-2.7690241E-001	1.5958800E+005	1.270939967893355E+001
1.584238273726278E-003	-2.7914917E-001	-2.7890229E-001	1.7620403E+005	1.290939967388113E+001
1.467603562338632E-003	-2.8114724E-001	-2.8090218E-001	1.9156892E+005	1.310939966882870E+001
1.348715608126820E-003	-2.8313684E-001	-2.8290206E-001	2.0993072E+005	1.330939966377628E+001
1.222825858325376E-003	-2.8514129E-001	-2.8490198E-001	2.3318225E+005	1.350939965872385E+001
1.079730487683259E-003	-2.8716081E-001	-2.8690186E-001	2.6595600E+005	1.370939965367143E+001
9.498663082782330E-004	-2.8914529E-001	-2.8890175E-001	3.0440631E+005	1.390939964861900E+001
8.580200429260695E-004	-2.9114065E-001	-2.9090163E-001	3.3931684E+005	1.410939964356658E+001
7.547451986449462E-004	-2.9312748E-001	-2.9290152E-001	3.8837938E+005	1.430939963851415E+001
6.308992099789321E-004	-2.9514059E-001	-2.9490143E-001	4.6780941E+005	1.450939963346173E+001
5.214013458389251E-004	-2.9715163E-001	-2.9690132E-001	5.6990956E+005	1.470939962840930E+001
4.154065265204419E-004	-2.9913953E-001	-2.9890120E-001	7.2011275E+005	1.490939962335688E+001
3.190602226889093E-004	-3.0113634E-001	-3.0090106E-001	9.4382288E+005	1.510939961830445E+001
2.071809760171230E-004	-3.0316538E-001	-3.0290097E-001	1.4632878E+006	1.530939961325203E+001
1.231155620639480E-004	-3.0513188E-001	-3.0490130E-001	2.4784185E+006	1.550929960820213E+001
3.962789212826481E-005	-3.0714560E-001	-3.0690074E-001	7.7507425E+006	1.570919960315223E+001
-4.935690683053527E-005	-3.0914769E-001	-3.0890062E-001	6.2635140E+006	1.590919959809980E+001
-1.312178799526422E-004	-3.1114855E-001	-3.1090054E-001	2.3712360E+006	1.610919959304738E+001
-2.629942114685101E-004	-3.1315958E-001	-3.1290039E-001	1.1907471E+006	1.630919958799495E+001
-3.494707953062685E-004	-3.1515259E-001	-3.1490034E-001	9.0179950E+005	1.650919958294253E+001
-4.338356548762154E-004	-3.1715444E-001	-3.1690019E-001	7.3104744E+005	1.670919957789010E+001
-5.299772424803197E-004	-3.1914616E-001	-3.1890008E-001	6.0218844E+005	1.690919957283768E+001
-6.100896797802905E-004	-3.2115552E-001	-3.2089996E-001	5.2640706E+005	1.710919956778525E+001
-7.000701899701374E-004	-3.2314911E-001	-3.2289985E-001	4.6159531E+005	1.730919956273283E+001
-8.098087504999126E-004	-3.2514441E-001	-3.2489976E-001	4.0150766E+005	1.750919955768040E+001
-8.598826189003400E-004	-3.2714018E-001	-3.2689965E-001	3.8044750E+005	1.770919955262798E+001
-9.550505434310543E-004	-3.2914907E-001	-3.2889950E-001	3.4464047E+005	1.790919954757555E+001
-1.058066167681343E-003	-3.3115014E-001	-3.3089939E-001	3.1297678E+005	1.810919954252313E+001
-1.133983386511865E-003	-3.3313695E-001	-3.3289930E-001	2.9377588E+005	1.830919953747070E+001
-1.212932606474105E-003	-3.3515373E-001	-3.3489919E-001	2.7631688E+005	1.850919953241828E+001
-1.312066353362704E-003	-3.3715793E-001	-3.3689907E-001	2.5696714E+005	1.870919952736585E+001
-1.406552489406483E-003	-3.3914879E-001	-3.3889899E-001	2.4112061E+005	1.890919952231343E+001
-1.456799828192848E-003	-3.4114370E-001	-3.4089887E-001	2.3417334E+005	1.910909951726353E+001
-1.565381331342259E-003	-3.4314960E-001	-3.4289876E-001	2.1921152E+005	1.930899951221363E+001
-1.666808179082603E-003	-3.4513789E-001	-3.4489864E-001	2.0706516E+005	1.950899950716121E+001
-1.735920998258056E-003	-3.4715766E-001	-3.4689853E-001	1.9998470E+005	1.970899950210878E+001
-1.826336559821572E-003	-3.4915107E-001	-3.4889844E-001	1.9117564E+005	1.990899949705636E+001
-1.919034364148486E-003	-3.5115656E-001	-3.5089833E-001	1.8298608E+005	2.010899949200393E+001
-2.017618594746884E-003	-3.5313830E-001	-3.5289824E-001	1.7502728E+005	2.030899948695151E+001
-2.112327889517061E-003	-3.5513705E-001	-3.5489810E-001	1.6812591E+005	2.050899948189908E+001
-2.189291578130054E-003	-3.5713828E-001	-3.5689798E-001	1.6312961E+005	2.070899947684666E+001
-2.323708021375710E-003	-3.5916349E-001	-3.5889789E-001	1.5456481E+005	2.090899947179423E+001
-2.365996182057264E-003	-3.6114976E-001	-3.6089775E-001	1.5264173E+005	2.110899946674181E+001
-2.463030811874663E-003	-3.6316326E-001	-3.6289766E-001	1.4744569E+005	2.130899946168938E+001
-2.546875673109919E-003	-3.6514315E-001	-3.6489752E-001	1.4336905E+005	2.150899945663696E+001
-2.653524302181754E-003	-3.6713696E-001	-3.6689746E-001	1.3835823E+005	2.170899945158453E+001
-2.752923309106411E-003	-3.6912954E-001	-3.6889732E-001	1.3408639E+005	2.190899944653211E+001
-2.831342300296483E-003	-3.7112969E-001	-3.7089723E-001	1.3107906E+005	2.210899944147968E+001
-2.971513537688500E-003	-3.7312439E-001	-3.7289709E-001	1.2556712E+005	2.230899943642726E+001
-3.092949639596256E-003	-3.7514752E-001	-3.7489697E-001	1.2129118E+005	2.250899943137483E+001
-3.165207152566591E-003	-3.7713218E-001	-3.7689665E-001	1.1914929E+005	2.270889942632493E+001
-3.263522543998004E-003	-3.7914196E-001	-3.7889674E-001	1.1617568E+005	2.290879942127503E+001
-3.368398409190028E-003	-3.8113582E-001	-3.8089666E-001	1.1315046E+005	2.310879941622261E+001
-3.464940823082699E-003	-3.8313174E-001	-3.8289654E-001	1.1057382E+005	2.330879941117018E+001
-3.568325111552195E-003	-3.8512599E-001	-3.8489646E-001	1.0792906E+005	2.350879940611776E+001
-3.677870769890748E-003	-3.8714615E-001	-3.8689631E-001	1.0526366E+005	2.370879940106533E+001
-3.803625376083322E-003	-3.8917246E-001	-3.8889620E-001	1.0231620E+005	2.390879939601291E+001
-3.930448180726104E-003	-3.9114234E-001	-3.9089608E-001	9.9515961E+004	2.410879939096048E+001
-4.000563160924188E-003	-3.9316228E-001	-3.9289603E-001	9.8276734E+004	2.430879938590806E+001
-4.120785630971464E-003	-3.9514253E-001	-3.9489588E-001	9.5890094E+004	2.450879938085563E+001
-4.221158551449229E-003	-3.9713782E-001	-3.9689577E-001	9.4082656E+004	2.470879937580321E+001
-4.348483525857774E-003	-3.9913931E-001	-3.9889568E-001	9.1788164E+004	2.490879937075078E+001
-4.413735189100522E-003	-4.0113887E-001	-4.0089554E-001	9.0884219E+004	2.510879936569836E+001
-4.549677150660306E-003	-4.0315306E-001	-4.0289548E-001	8.8611359E+004	2.530879936064593E+001
-4.670087167308934E-003	-4.0514645E-001	-4.0489534E-001	8.6753508E+004	2.550879935559351E+001
-4.775685726147798E-003	-4.0714732E-001	-4.0689525E-001	8.5254211E+004	2.570879935054109E+001
-4.919225831489413E-003	-4.0915960E-001	-4.0889511E-001	8.3175609E+004	2.590879934548866E+001
-5.048349919365178E-003	-4.1115129E-001	-4.1089499E-001	8.1442711E+004	2.610879934043624E+001
-5.159871517525338E-003	-4.1317871E-001	-4.1289422E-001	8.0075391E+004	2.630869933538634E+001
-5.302268645430208E-003	-4.1518459E-001	-4.1489476E-001	7.8303195E+004	2.650859933033644E+001
-5.430115100688970E-003	-4.1719392E-001	-4.1689470E-001	7.6829664E+004	2.670859932528401E+001
-5.536956254102748E-003	-4.1919225E-001	-4.1889456E-001	7.5708070E+004	2.690859932023159E+001
-5.658561725370298E-003	-4.2117995E-001	-4.2089441E-001	7.4432336E+004	2.710859931517916E+001
-5.802504482899234E-003	-4.2318416E-001	-4.2289436E-001	7.2931297E+004	2.730859931012674E+001
-5.965710463107385E-003	-4.2518049E-001	-4.2489418E-001	7.1270719E+004	2.750859930507431E+001
-6.062692405753363E-003	-4.2718095E-001	-4.2689413E-001	7.0460602E+004	2.770859930002189E+001
-6.183063392647514E-003	-4.2916417E-001	-4.2889398E-001	6.9409633E+004	2.790859929496946E+001
-6.293047916752864E-003	-4.3117175E-001	-4.3089390E-001	6.8515570E+004	2.810859928991704E+001
-6.473289187926293E-003	-4.3317708E-001	-4.3289378E-001	6.6917617E+004	2.830859928486461E+001
-6.584149510668325E-003	-4.3515903E-001	-4.3489367E-001	6.6091914E+004	2.850859927981219E+001
-6.710197334124989E-003	-4.3715328E-001	-4.3689355E-001	6.5147605E+004	2.870859927475976E+001
-6.862249667809064E-003	-4.3917492E-001	-4.3889341E-001	6.3998680E+004	2.890859926970734E+001
-7.007385496775508E-003	-4.4118401E-001	-4.4089335E-001	6.2959859E+004	2.910859926465491E+001
-7.133027258640012E-003	-4.4318676E-001	-4.4289321E-001	6.2131652E+004	2.930859925960249E+001
-7.247800645898902E-003	-4.4517848E-001	-4.4489312E-001	6.1422563E+004	2.950859925455006E+001
-7.446150079368469E-003	-4.4719017E-001	-4.4689301E-001	6.0056563E+004	2.970859924949764E+001
-7.565920971757470E-003	-4.4917312E-001	-4.4889203E-001	5.9367938E+004	2.990849924444774E+001
-7.681939063835047E-003	-4.5119199E-001	-4.5089284E-001	5.8734129E+004	3.010839923939784E+001
-7.842562973785425E-003	-4.5317841E-001	-4.5289263E-001	5.7784477E+004	3.030839923434542E+001
-8.031900772888748E-003	-4.5517313E-001	-4.5489258E-001	5.6670664E+004	3.050839922929299E+001
-8.142547834706262E-003	-4.5719054E-001	-4.5689246E-001	5.6148340E+004	3.070839922424057E+001
-8.303877856907622E-003	-4.5919472E-001	-4.5889235E-001	5.5298828E+004	3.090839921918814E+001
-8.439938587206736E-003	-4.6117032E-001	-4.6089229E-001	5.4641430E+004	3.110839921413572E+001
-8.591091552012292E-003	-4.6318218E-001	-4.6289212E-001	5.3914242E+004	3.130839920908329E+001
-8.762713412959082E-003	-4.6515965E-001	-4.6489206E-001	5.3083973E+004	3.150839920403087E+001
-8.921875726696116E-003	-4.6717641E-001	-4.6689191E-001	5.2363027E+004	3.170839919897844E+001
-9.055575362288928E-003	-4.6917710E-001	-4.6889180E-001	5.1810855E+004	3.190839919392602E+001
-9.210602088703057E-003	-4.7117960E-001	-4.7089171E-001	5.1156223E+004	3.210839918887359E+001
-9.374089803757313E-003	-4.7316453E-001	-4.7289157E-001	5.0475785E+004	3.230839918382117E+001
-9.527954478434533E-003	-4.7516119E-001	-4.7489151E-001	4.9870223E+004	3.250839917876874E+001
-9.685871178123775E-003	-4.7717449E-001	-4.7689134E-001	4.9265004E+004	3.270839917371632E+001
-9.817306956689704E-003	-4.7915870E-001	-4.7889122E-001	4.8807551E+004	3.290839916866389E+001
-9.980451385332170E-003	-4.8115957E-001	-4.8089114E-001	4.8210199E+004	3.310839916361147E+001
-1.012774928770706E-002	-4.8316407E-001	-4.8289099E-001	4.7706953E+004	3.330839915855904E+001
-1.028540369984854E-002	-4.8515871E-001	-4.8489094E-001	4.7169633E+004	3.350839915350662E+001
-1.046141968287780E-002	-4.8716524E-001	-4.8689079E-001	4.6567793E+004	3.370819914845924E+001
-1.061306975976207E-002	-4.8917925E-001	-4.8889071E-001	4.6092156E+004	3.390819914340682E+001
-1.078984166025349E-002	-4.9118602E-001	-4.9089059E-001	4.5523004E+004	3.410819913835439E+001
-1.093406642013955E-002	-4.9317542E-001	-4.9289042E-001	4.5104484E+004	3.430819913330197E+001
-1.109230627793910E-002	-4.9516845E-001	-4.9489036E-001	4.4640711E+004	3.450819912824954E+001
-1.124299071126525E-002	-4.9717307E-001	-4.9689022E-001	4.4220715E+004	3.470819912319712E+001
-1.140965763794927E-002	-4.9916178E-001	-4.9889013E-001	4.3749059E+004	3.490819911814469E+001
-1.156120618558204E-002	-5.0117052E-001	-5.0089002E-001	4.3349328E+004	3.510819911309227E+001
-1.173143847662030E-002	-5.0316095E-001	-5.0288993E-001	4.2889961E+004	3.530819910803984E+001
-1.187470694561699E-002	-5.0516516E-001	-5.0488979E-001	4.2541273E+004	3.550819910298742E+001
-1.203498560164434E-002	-5.0717348E-001	-5.0688964E-001	4.2141594E+004	3.570819909793499E+001
-1.221759370903019E-002	-5.0917703E-001	-5.0888962E-001	4.1675723E+004	3.590819909288257E+001
-1.236131167302729E-002	-5.1118344E-001	-5.1088947E-001	4.1353496E+004	3.610819908783014E+001
-1.252389294037259E-002	-5.1318163E-001	-5.1288939E-001	4.0976207E+004	3.630819908277772E+001
-1.268942260788965E-002	-5.1519042E-001	-5.1488930E-001	4.0599988E+004	3.650819907772529E+001
-1.283071148159118E-002	-5.1717609E-001	-5.1688915E-001	4.0307672E+004	3.670819907267287E+001
-1.303094672276733E-002	-5.1918000E-001	-5.1888907E-001	3.9842078E+004	3.690819906762044E+001
-1.317174258985602E-002	-5.2118033E-001	-5.2088892E-001	3.9568063E+004	3.710819906256802E+001
-1.329283193926695E-002	-5.2316874E-001	-5.2288955E-001	3.9357207E+004	3.730809905751812E+001
-1.347648197190543E-002	-5.2517444E-001	-5.2488875E-001	3.8969699E+004	3.750799905246822E+001
-1.365489140892070E-002	-5.2717477E-001	-5.2688861E-001	3.8607027E+004	3.770799904741580E+001
-1.379370881147394E-002	-5.2917522E-001	-5.2888852E-001	3.8363520E+004	3.790799904236337E+001
-1.393008625882940E-002	-5.3116989E-001	-5.3088838E-001	3.8131129E+004	3.810799903731095E+001
-1.411904006667936E-002	-5.3317475E-001	-5.3288823E-001	3.7762820E+004	3.830799903225852E+001
-1.425891503749210E-002	-5.3517878E-001	-5.3488815E-001	3.7532926E+004	3.850799902720610E+001
-1.444324697425925E-002	-5.3717029E-001	-5.3688800E-001	3.7191797E+004	3.870799902215367E+001
-1.456550551251590E-002	-5.3916925E-001	-5.3888798E-001	3.7016859E+004	3.890799901710125E+001
-1.475071946878084E-002	-5.4118091E-001	-5.4088777E-001	3.6688441E+004	3.910799901204882E+001
-1.488625482313413E-002	-5.4319215E-001	-5.4288775E-001	3.6489512E+004	3.930799900699640E+001
-1.503469183042644E-002	-5.4518253E-001	-5.4488760E-001	3.6261637E+004	3.950799900194397E+001
-1.519702229178416E-002	-5.4716706E-001	-5.4688752E-001	3.6004887E+004	3.970799899689155E+001
-1.539239422679523E-002	-5.4918355E-001	-5.4888737E-001	3.5678891E+004	3.990799899183912E+001
-1.549569306796939E-002	-5.5118525E-001	-5.5088729E-001	3.5570223E+004	4.010799898678670E+001
-1.563958201598054E-002	-5.5317801E-001	-5.5288720E-001	3.5370383E+004	4.030799898173427E+001
-1.578301700257617E-002	-5.5518758E-001	-5.5488706E-001	3.5176266E+004	4.050799897668185E+001
-1.595427822561875E-002	-5.5717927E-001	-5.5688697E-001	3.4923504E+004	4.070799897162942E+001
-1.610386766642863E-002	-5.5917275E-001	-5.5888730E-001	3.4722887E+004	4.090789896657952E+001
-1.624607541329126E-002	-5.6118625E-001	-5.6088668E-001	3.4542883E+004	4.110779896152962E+001
-1.639588303663903E-002	-5.6318158E-001	-5.6288660E-001	3.4348965E+004	4.130779895647720E+001
-1.653071845350509E-002	-5.6518078E-001	-5.6488645E-001	3.4189730E+004	4.150779895142477E+001
-1.668750536242658E-002	-5.6714618E-001	-5.6688643E-001	3.3986277E+004	4.170779894637235E+001
-1.684931894305505E-002	-5.6917989E-001	-5.6888628E-001	3.3780586E+004	4.190779894131992E+001
-1.697686729058329E-002	-5.7117248E-001	-5.7088619E-001	3.3644164E+004	4.210779893626750E+001
-1.712835542044580E-002	-5.7316744E-001	-5.7288611E-001	3.3463074E+004	4.230779893121507E+001
-1.727732449419939E-002	-5.7517219E-001	-5.7488590E-001	3.3290582E+004	4.250779892616265E+001
-1.739793444828960E-002	-5.7715988E-001	-5.7688588E-001	3.3174047E+004	4.270779892111022E+001
-1.754534377134664E-002	-5.7917750E-001	-5.7888573E-001	3.3010324E+004	4.290779891605780E+001
-1.769965289180669E-002	-5.8117086E-001	-5.8088559E-001	3.2835156E+004	4.310779891100538E+001
-1.783363529638850E-002	-5.8316362E-001	-5.8288550E-001	3.2700211E+004	4.330779890595295E+001
-1.795794588818300E-002	-5.8517492E-001	-5.8488536E-001	3.2585850E+004	4.350779890090053E+001
-1.811619664282621E-002	-5.8716589E-001	-5.8688533E-001	3.2411102E+004	4.370779889584810E+001
-1.823531494601560E-002	-5.8916938E-001	-5.8888513E-001	3.2309252E+004	4.390779889079568E+001
-1.837989100286222E-002	-5.9116995E-001	-5.9088510E-001	3.2163953E+004	4.410779888574325E+001
-1.849400487363062E-002	-5.9317142E-001	-5.9288496E-001	3.2073713E+004	4.430779888069083E+001
-1.863775612069596E-002	-5.9516275E-001	-5.9488529E-001	3.1933176E+004	4.450769887564093E+001
-1.875663918821575E-002	-5.9717584E-001	-5.9688473E-001	3.1838104E+004	4.470759887059103E+001
-1.889644409389954E-002	-5.9917670E-001	-5.9888458E-001	3.1708438E+004	4.490759886553860E+001
-1.900773000683798E-002	-6.0117137E-001	-6.0088450E-001	3.1627730E+004	4.510759886048618E+001
-1.913889933996804E-002	-6.0316283E-001	-6.0288441E-001	3.1515021E+004	4.530759885543375E+001
-1.927806809874539E-002	-6.0518110E-001	-6.0488427E-001	3.1392207E+004	4.550759885038133E+001
-1.940897659701133E-002	-6.0716325E-001	-6.0688418E-001	3.1282600E+004	4.570759884532890E+001
-1.954733249266760E-002	-6.0917026E-001	-6.0888404E-001	3.1163855E+004	4.590759884027648E+001
-1.962696801255462E-002	-6.1116558E-001	-6.1088395E-001	3.1139072E+004	4.610759883522405E+001
-1.977312784534283E-002	-6.1317086E-001	-6.1288381E-001	3.1010313E+004	4.630759883017163E+001
-1.990309328354514E-002	-6.1517912E-001	-6.1488372E-001	3.0908719E+004	4.650759882511920E+001
-2.003753225120053E-002	-6.1719269E-001	-6.1688364E-001	3.0801832E+004	4.670759882006678E+001
-2.016035515470266E-002	-6.1919582E-001	-6.1888349E-001	3.0713537E+004	4.690759881501435E+001
-2.027326203458213E-002	-6.2118459E-001	-6.2088341E-001	3.0640584E+004	4.710759880996193E+001
-2.039407899385726E-002	-6.2319010E-001	-6.2288326E-001	3.0557404E+004	4.730759880490950E+001
-2.048422422726237E-002	-6.2519163E-001	-6.2488317E-001	3.0520641E+004	4.750759879985708E+001
-2.060257483079975E-002	-6.2718624E-001	-6.2688303E-001	3.0442129E+004	4.770759879480465E+001
-2.074494367426308E-002	-6.2919617E-001	-6.2888294E-001	3.0330098E+004	4.790759878975223E+001
-2.082808906815409E-002	-6.3118726E-001	-6.3088334E-001	3.0304617E+004	4.810749878470233E+001
-2.096085564567024E-002	-6.3320065E-001	-6.3288277E-001	3.0208721E+004	4.830739877965243E+001
-2.107468605648136E-002	-6.3518327E-001	-6.3488269E-001	3.0139631E+004	4.850739877460001E+001
-2.115342743872178E-002	-6.3718879E-001	-6.3688254E-001	3.0122248E+004	4.870739876954758E+001
-2.125047130894041E-002	-6.3918507E-001	-6.3888240E-001	3.0078631E+004	4.890739876449516E+001
-2.138690894829687E-002	-6.4118600E-001	-6.4088231E-001	2.9980303E+004	4.910739875944273E+001
-2.150881505091395E-002	-6.4319909E-001	-6.4288217E-001	2.9903977E+004	4.930739875439031E+001
-2.156903433625099E-002	-6.4518166E-001	-6.4488208E-001	2.9912404E+004	4.950739874933788E+001
-2.170228402319318E-002	-6.4719993E-001	-6.4688194E-001	2.9821742E+004	4.970739874428546E+001
-2.180520196280566E-002	-6.4919990E-001	-6.4888185E-001	2.9772707E+004	4.990739873923303E+001
-2.190336446349600E-002	-6.5118772E-001	-6.5088177E-001	2.9730031E+004	5.010739873418061E+001
-2.202574010923103E-002	-6.5318274E-001	-6.5288162E-001	2.9655428E+004	5.030739872912818E+001
-2.210636750442263E-002	-6.5519607E-001	-6.5488154E-001	2.9638342E+004	5.050739872407576E+001
-2.223418811161937E-002	-6.5720135E-001	-6.5688139E-001	2.9558145E+004	5.070739871902333E+001
-2.232919671612874E-002	-6.5919006E-001	-6.5888137E-001	2.9521441E+004	5.090739871397091E+001
-2.240222008490222E-002	-6.6118538E-001	-6.6088116E-001	2.9514279E+004	5.110739870891848E+001
-2.251704429992206E-002	-6.6317648E-001	-6.6288114E-001	2.9452199E+004	5.130739870386606E+001
-2.260617085913608E-002	-6.6518879E-001	-6.6488099E-001	2.9425098E+004	5.150739869881363E+001
-2.269706760679657E-002	-6.6718733E-001	-6.6688108E-001	2.9395311E+004	5.170729869376373E+001
-2.280994041431095E-002	-6.6917348E-001	-6.6888076E-001	2.9336924E+004	5.190719868871383E+001
-2.292261262109631E-002	-6.7118365E-001	-6.7088062E-001	2.9280416E+004	5.210719868366141E+001
-2.300354156351714E-002	-6.7317384E-001	-6.7288053E-001	2.9263922E+004	5.230719867860898E+001
-2.310819983959644E-002	-6.7516541E-001	-6.7488045E-001	2.9217568E+004	5.250719867355656E+001
-2.317421814326986E-002	-6.7717147E-001	-6.7688024E-001	2.9220898E+004	5.270719866850413E+001
-2.331262247614735E-002	-6.7916805E-001	-6.7888021E-001	2.9133061E+004	5.290719866345171E+001
-2.337866522941434E-002	-6.8117106E-001	-6.8088007E-001	2.9136439E+004	5.310719865839928E+001
-2.349551930475052E-002	-6.8316978E-001	-6.8287998E-001	2.9076598E+004	5.330719865334686E+001
-2.357914581535348E-002	-6.8518692E-001	-6.8487984E-001	2.9059021E+004	5.350719864829443E+001
-2.370512736232655E-002	-6.8718821E-001	-6.8687975E-001	2.8989012E+004	5.370719864324201E+001
-2.379128796614960E-002	-6.8916464E-001	-6.8887967E-001	2.8967102E+004	5.390719863818958E+001
-2.390854145110383E-002	-6.9118989E-001	-6.9087946E-001	2.8909746E+004	5.410719863313716E+001
-2.399213133998068E-002	-6.9318277E-001	-6.9287950E-001	2.8892088E+004	5.430719862808473E+001
-2.409347260327033E-002	-6.9518733E-001	-6.9487935E-001	2.8853762E+004	5.450719862303231E+001
-2.421873858974105E-002	-6.9718254E-001	-6.9687921E-001	2.8786906E+004	5.470719861797988E+001
-2.429823177091064E-002	-6.9918531E-001	-6.9887912E-001	2.8775152E+004	5.490719861292746E+001
-2.440706706938994E-002	-7.0119488E-001	-7.0087898E-001	2.8729174E+004	5.510719860787503E+001
-2.451365058134680E-002	-7.0319366E-001	-7.0287889E-001	2.8685799E+004	5.530709860282514E+001
-2.461249808344756E-002	-7.0518130E-001	-7.0487881E-001	2.8651350E+004	5.550699859777524E+001
-2.472613693759790E-002	-7.0718408E-001	-7.0687860E-001	2.8600670E+004	5.570699859272281E+001
-2.482721353923303E-002	-7.0917916E-001	-7.0887858E-001	2.8564590E+004	5.590699858767039E+001
-2.496381731948849E-002	-7.1117389E-001	-7.1087843E-001	2.8488188E+004	5.610699858261796E+001
-2.503466383947903E-002	-7.1317387E-001	-7.1287841E-001	2.8487455E+004	5.630699857756554E+001
-2.516064384414726E-002	-7.1518123E-001	-7.1487820E-001	2.8424600E+004	5.650699857251311E+001
-2.528593535276344E-002	-7.1721202E-001	-7.1687812E-001	2.8364068E+004	5.670699856746069E+001
-2.539517368927020E-002	-7.1920389E-001	-7.1887803E-001	2.8320494E+004	5.690699856240826E+001
-2.551154802234464E-002	-7.2119606E-001	-7.2087783E-001	2.8269396E+004	5.710699855735584E+001
-2.562896794398783E-002	-7.2317326E-001	-7.2287774E-001	2.8217025E+004	5.730699855230341E+001
-2.577445513115836E-002	-7.2520554E-001	-7.2487766E-001	2.8136600E+004	5.750699854725099E+001
-2.588431823596393E-002	-7.2718036E-001	-7.2687757E-001	2.8093473E+004	5.770699854219856E+001
-2.600150130865481E-002	-7.2919321E-001	-7.2887743E-001	2.8044273E+004	5.790699853714614E+001
-2.613776707847529E-002	-7.3119724E-001	-7.3087728E-001	2.7974740E+004	5.810699853209371E+001
-2.625827959214933E-002	-7.3318195E-001	-7.3287725E-001	2.7921934E+004	5.830699852704129E+001
-2.637952782188341E-002	-7.3518008E-001	-7.3487705E-001	2.7869342E+004	5.850699852198886E+001
-2.653309604091791E-002	-7.3716944E-001	-7.3687696E-001	2.7783016E+004	5.870699851693644E+001
-2.667973815708957E-002	-7.3919290E-001	-7.3887688E-001	2.7706152E+004	5.890689851188654E+001
-2.682261234925454E-002	-7.4120122E-001	-7.4087679E-001	2.7633447E+004	5.910679850683664E+001
-2.695050016557687E-002	-7.4316913E-001	-7.4287665E-001	2.7575338E+004	5.930679850178421E+001
-2.712373359998910E-002	-7.4519438E-001	-7.4487656E-001	2.7473887E+004	5.950679849673179E+001
-2.727835420112580E-002	-7.4719828E-001	-7.4687648E-001	2.7391619E+004	5.970679849167936E+001
-2.743937288011833E-002	-7.4919379E-001	-7.4887627E-001	2.7303605E+004	5.990679848662694E+001
-2.761786875062655E-002	-7.5120437E-001	-7.5087619E-001	2.7199939E+004	6.010679848157451E+001
-2.777036767829921E-002	-7.5319588E-001	-7.5287610E-001	2.7122287E+004	6.030679847652209E+001
-2.795767912254704E-002	-7.5520325E-001	-7.5487602E-001	2.7012373E+004	6.050679847146966E+001
-2.811427616520595E-002	-7.5719035E-001	-7.5687593E-001	2.6932592E+004	6.070679846641724E+001
-2.828833099709118E-002	-7.5920981E-001	-7.5887573E-001	2.6838268E+004	6.090679846136482E+001
-2.850001682543201E-002	-7.6120090E-001	-7.6087570E-001	2.6708787E+004	6.110679845631239E+001
-2.869077868281300E-002	-7.6319772E-001	-7.6287550E-001	2.6600803E+004	6.130679845125997E+001
-2.890098221756343E-002	-7.6519132E-001	-7.6487541E-001	2.6476309E+004	6.150679844620754E+001
-2.908940126331705E-002	-7.6719576E-001	-7.6687533E-001	2.6373721E+004	6.170679844115512E+001
-2.928864662408776E-002	-7.6920146E-001	-7.6887524E-001	2.6262785E+004	6.190679843610269E+001
-2.949694477421905E-002	-7.7117562E-001	-7.7087516E-001	2.6144254E+004	6.210679843105027E+001
-2.975192773863344E-002	-7.7318209E-001	-7.7287501E-001	2.5987631E+004	6.230679842599784E+001
-2.997866459326112E-002	-7.7518106E-001	-7.7487475E-001	2.5857758E+004	6.250669842094794E+001
-3.020746193408064E-002	-7.7718014E-001	-7.7687478E-001	2.5728084E+004	6.270659841589804E+001
-3.047651352726188E-002	-7.7917939E-001	-7.7887464E-001	2.5566553E+004	6.290659841084562E+001
-3.070776749089738E-002	-7.8117317E-001	-7.8087455E-001	2.5438943E+004	6.310659840579319E+001
-3.098557791102446E-002	-7.8317380E-001	-7.8287446E-001	2.5275430E+004	6.330659840074077E+001
-3.125252871554501E-002	-7.8517622E-001	-7.8487438E-001	2.5123605E+004	6.350659839568834E+001
-3.155079370685532E-002	-7.8716928E-001	-7.8687423E-001	2.4949270E+004	6.370659839063592E+001
-3.186294908134812E-002	-7.8918856E-001	-7.8887415E-001	2.4768221E+004	6.390659838558349E+001
-3.217574521263539E-002	-7.9118127E-001	-7.9087406E-001	2.4589369E+004	6.410659838053107E+001
-3.250483850538816E-002	-7.9317737E-001	-7.9287386E-001	2.4401824E+004	6.430659837547864E+001
-3.282170369825170E-002	-7.9520118E-001	-7.9487389E-001	2.4227906E+004	6.450659837042622E+001
-3.317581859914604E-002	-7.9718423E-001	-7.9687369E-001	2.4029074E+004	6.470659836537379E+001
-3.353979449762473E-002	-7.9918104E-001	-7.9887366E-001	2.3827846E+004	6.490659836032137E+001
-3.389870710940210E-002	-8.0118394E-001	-8.0087352E-001	2.3634646E+004	6.510659835526894E+001
-3.430315599879230E-002	-8.0318218E-001	-8.0287337E-001	2.3414236E+004	6.530659835021652E+001
-3.472095052421298E-002	-8.0516493E-001	-8.0487329E-001	2.3189600E+004	6.550659834516409E+001
-3.510364915203096E-002	-8.0716652E-001	-8.0687320E-001	2.2993807E+004	6.570659834011167E+001
-3.556519398933522E-002	-8.0917561E-001	-8.0887312E-001	2.2751896E+004	6.590659833505924E+001
-3.601102652755372E-002	-8.1117004E-001	-8.1087255E-001	2.2525602E+004	6.610649833000934E+001
-3.649229605607218E-002	-8.1318468E-001	-8.1287283E-001	2.2283736E+004	6.630639832495945E+001
-3.698141544887287E-002	-8.1517744E-001	-8.1487274E-001	2.2042895E+004	6.650639831990702E+001
-3.747869584848773E-002	-8.1717360E-001	-8.1687260E-001	2.1803684E+004	6.670639831485460E+001
-3.802517840803474E-002	-8.1917250E-001	-8.1887251E-001	2.1542896E+004	6.690639830980217E+001
-3.856975202081193E-002	-8.2117659E-001	-8.2087237E-001	2.1290689E+004	6.710639830474975E+001
-3.912688343750859E-002	-8.2318360E-001	-8.2287222E-001	2.1038824E+004	6.730639829969732E+001
-3.972262844745308E-002	-8.2517612E-001	-8.2487220E-001	2.0773451E+004	6.750639829464490E+001
-4.035533552824649E-002	-8.2718199E-001	-8.2687205E-001	2.0497463E+004	6.770639828959247E+001
-4.096765471136621E-002	-8.2917327E-001	-8.2887197E-001	2.0239705E+004	6.790639828454005E+001
-4.166702449674431E-002	-8.3117461E-001	-8.3087176E-001	1.9948020E+004	6.810639827948762E+001
-4.231630943376596E-002	-8.3316952E-001	-8.3287168E-001	1.9689088E+004	6.830639827443520E+001
-4.304382479390600E-002	-8.3518863E-001	-8.3487159E-001	1.9403217E+004	6.850639826938277E+001
-4.381565900351603E-002	-8.3717221E-001	-8.3687145E-001	1.9106689E+004	6.870639826433035E+001
-4.456531052116508E-002	-8.3918941E-001	-8.3887136E-001	1.8830553E+004	6.890639825927792E+001
-4.541631842368921E-002	-8.4118158E-001	-8.4087127E-001	1.8521570E+004	6.910639825422550E+001
-4.625891188984255E-002	-8.4318143E-001	-8.4287107E-001	1.8227438E+004	6.930639824917307E+001
-4.712122602017621E-002	-8.4518170E-001	-8.4487110E-001	1.7936326E+004	6.950639824412065E+001
-4.805158048154359E-002	-8.4717488E-001	-8.4687090E-001	1.7630531E+004	6.970639823906822E+001
-4.898932035986814E-002	-8.4919423E-001	-8.4887153E-001	1.7334273E+004	6.990629823401832E+001
-4.996469933666331E-002	-8.5118699E-001	-8.5087067E-001	1.7035768E+004	7.010619822896842E+001
-5.100467153708721E-002	-8.5318631E-001	-8.5287058E-001	1.6727611E+004	7.030619822391600E+001
-5.209516530936731E-002	-8.5519272E-001	-8.5487050E-001	1.6415971E+004	7.050619821886357E+001
-5.315998692990487E-002	-8.5719270E-001	-8.5687041E-001	1.6124772E+004	7.070619821381115E+001
-5.435103252413953E-002	-8.5920221E-001	-8.5887033E-001	1.5808388E+004	7.090619820875872E+001
-5.555107450860284E-002	-8.6118752E-001	-8.6087012E-001	1.5502626E+004	7.110619820370630E+001
-5.677235170421685E-002	-8.6318600E-001	-8.6287004E-001	1.5204338E+004	7.130619819865387E+001
-5.806652859039185E-002	-8.6516458E-001	-8.6486995E-001	1.4899540E+004	7.150619819360145E+001
-5.942939927161617E-002	-8.6718118E-001	-8.6686981E-001	1.4591788E+004	7.170619818854902E+001
-6.082253166117496E-002	-8.6918372E-001	-8.6886972E-001	1.4290489E+004	7.190619818349660E+001
-6.230057285393253E-002	-8.7118089E-001	-8.7086952E-001	1.3983514E+004	7.210619817844417E+001
-6.380607919290221E-002	-8.7318641E-001	-8.7286955E-001	1.3685003E+004	7.230619817339175E+001
-6.537211565839329E-002	-8.7515968E-001	-8.7486941E-001	1.3387354E+004	7.250619816833932E+001
-6.700505364301890E-002	-8.7716311E-001	-8.7686932E-001	1.3090999E+004	7.270619816328690E+001
-6.872984078024286E-002	-8.7917215E-001	-8.7886918E-001	1.2791709E+004	7.290619815823447E+001
-7.052714532809323E-002	-8.8115340E-001	-8.8086903E-001	1.2493819E+004	7.310619815318205E+001
-7.235189021011723E-002	-8.8315827E-001	-8.8286895E-001	1.2206430E+004	7.330619814812962E+001
-7.432413351738032E-002	-8.8515675E-001	-8.8486958E-001	1.1909412E+004	7.350609814307973E+001
-7.633096906472681E-002	-8.8717586E-001	-8.8686877E-001	1.1622751E+004	7.370599813802983E+001
-7.841600688985317E-002	-8.8917786E-001	-8.8886857E-001	1.1339239E+004	7.390599813297740E+001
-8.060760297992076E-002	-8.9116341E-001	-8.9086848E-001	1.1055575E+004	7.410599812792498E+001
-8.286365946911067E-002	-8.9315867E-001	-8.9286840E-001	1.0778653E+004	7.430599812287255E+001
-8.523679659078909E-002	-8.9517480E-001	-8.9486825E-001	1.0502211E+004	7.450599811782013E+001
-8.768998046274684E-002	-8.9718378E-001	-8.9686817E-001	1.0231314E+004	7.470599811276770E+001
-9.031385820530013E-002	-8.9918607E-001	-8.9886808E-001	9.9562363E+003	7.490599810771528E+001
-9.298668325775150E-002	-9.0117073E-001	-9.0086800E-001	9.6913955E+003	7.510599810266285E+001
-9.579981480304900E-002	-9.0317649E-001	-9.0286791E-001	9.4277480E+003	7.530599809761043E+001
-9.881649978741136E-002	-9.0525949E-001	-9.0496773E-001	9.1610156E+003	7.551599809230538E+001
-1.020279407813769E-001	-9.0735364E-001	-9.0706760E-001	8.8931875E+003	7.572599808700033E+001
-1.052101257345861E-001	-9.0933192E-001	-9.0906751E-001	8.6430078E+003	7.592599808194791E+001
-1.085436468470899E-001	-9.1134596E-001	-9.1106743E-001	8.3961240E+003	7.612599807689548E+001
-1.119579809745289E-001	-9.1334492E-001	-9.1306734E-001	8.1579258E+003	7.632599807184306E+001
-1.155690614993592E-001	-9.1535360E-001	-9.1506720E-001	7.9204033E+003	7.652599806679063E+001
-1.193394868237613E-001	-9.1735828E-001	-9.1706705E-001	7.6869634E+003	7.672599806173821E+001
-1.232183682521097E-001	-9.1935164E-001	-9.1906697E-001	7.4611572E+003	7.692599805668578E+001
-1.272622345791829E-001	-9.2135280E-001	-9.2106754E-001	7.2397974E+003	7.712589805163589E+001
-1.314268719791399E-001	-9.2335129E-001	-9.2306674E-001	7.0255898E+003	7.732579804658599E+001
-1.358309861741402E-001	-9.2535919E-001	-9.2506659E-001	6.8125781E+003	7.752579804153356E+001
-1.403288953238566E-001	-9.2736042E-001	-9.2706656E-001	6.6084780E+003	7.772579803648114E+001
-1.449712226315149E-001	-9.2934138E-001	-9.2906636E-001	6.4105229E+003	7.792579803142871E+001
-1.498507147088914E-001	-9.3135965E-001	-9.3106627E-001	6.2152500E+003	7.812579802637629E+001
-1.549531265675110E-001	-9.3336195E-001	-9.3306619E-001	6.0235117E+003	7.832579802132386E+001
-1.601242871591798E-001	-9.3535542E-001	-9.3506604E-001	5.8414336E+003	7.852579801627144E+001
-1.655270162042734E-001	-9.3735445E-001	-9.3706596E-001	5.6628486E+003	7.872579801121901E+001
-1.711218500839307E-001	-9.3936151E-001	-9.3906581E-001	5.4894307E+003	7.892579800616659E+001
-1.768715131622396E-001	-9.4134831E-001	-9.4106579E-001	5.3222153E+003	7.912579800111416E+001
-1.828320403456640E-001	-9.4334596E-001	-9.4306570E-001	5.1596313E+003	7.932579799606174E+001
-1.890726062931678E-001	-9.4534963E-001	-9.4506550E-001	4.9999292E+003	7.952579799100931E+001
-1.954854341052785E-001	-9.4736183E-001	-9.4706541E-001	4.8462017E+003	7.972579798595689E+001
-2.021486357999054E-001	-9.4936192E-001	-9.4906527E-001	4.6963560E+003	7.992579798090446E+001
-2.090669660797344E-001	-9.5136547E-001	-9.5106518E-001	4.5505298E+003	8.012579797585204E+001
-2.162398941721975E-001	-9.5335501E-001	-9.5306510E-001	4.4087842E+003	8.032579797079961E+001
-2.237666577392192E-001	-9.5536005E-001	-9.5506489E-001	4.2694478E+003	8.052579796574719E+001
-2.315575533826806E-001	-9.5736772E-001	-9.5706540E-001	4.1344697E+003	8.072569796069729E+001
-2.397724189235921E-001	-9.5935547E-001	-9.5906472E-001	4.0011086E+003	8.092559795564739E+001
-2.482500922213604E-001	-9.6136755E-001	-9.6106470E-001	3.8725769E+003	8.112559795059497E+001
-2.572466790393122E-001	-9.6336478E-001	-9.6306455E-001	3.7449065E+003	8.132559794554254E+001
-2.666389910174776E-001	-9.6536189E-001	-9.6506441E-001	3.6204829E+003	8.152559794049012E+001
-2.764521155658430E-001	-9.6735495E-001	-9.6706432E-001	3.4991772E+003	8.172559793543769E+001
-2.867547007226925E-001	-9.6935701E-001	-9.6906412E-001	3.3804399E+003	8.192559793038527E+001
-2.975669169667561E-001	-9.7136599E-001	-9.7106403E-001	3.2643616E+003	8.212559792533284E+001
-3.088087155177448E-001	-9.7337425E-001	-9.7306395E-001	3.1520298E+003	8.232559792028042E+001
-3.205646515133331E-001	-9.7535789E-001	-9.7506386E-001	3.0426245E+003	8.252559791522799E+001
-3.326563472540682E-001	-9.7736633E-001	-9.7706378E-001	2.9380662E+003	8.272559791017557E+001
-3.452559802216619E-001	-9.7935110E-001	-9.7906357E-001	2.8365942E+003	8.292559790512314E+001
-3.583741403351652E-001	-9.8134601E-001	-9.8106354E-001	2.7383281E+003	8.312559790007072E+001
-3.718121752708878E-001	-9.8334509E-001	-9.8306340E-001	2.6447361E+003	8.332559789501829E+001
-3.856936555541619E-001	-9.8534441E-001	-9.8506325E-001	2.5547332E+003	8.352559788996587E+001
-3.999193813778481E-001	-9.8732704E-001	-9.8706317E-001	2.4688152E+003	8.372559788491344E+001
-4.145615768245081E-001	-9.8935318E-001	-9.8906308E-001	2.3865049E+003	8.392559787986102E+001
-4.294654839332139E-001	-9.9135089E-001	-9.9106300E-001	2.3083367E+003	8.412559787480859E+001
-4.446272610902455E-001	-9.9335235E-001	-9.9306351E-001	2.2341238E+003	8.432549786975869E+001
-4.601508287328571E-001	-9.9536157E-001	-9.9506277E-001	2.1631201E+003	8.452539786470879E+001
-4.758773531317031E-001	-9.9734819E-001	-9.9706262E-001	2.0958093E+003	8.472539785965637E+001
-4.917219300836730E-001	-9.9936241E-001	-9.9906248E-001	2.0323730E+003	8.492539785460394E+001
-5.079017931726391E-001	-1.0013688E+000	-1.0010624E+000	1.9715795E+003	8.512539784955152E+001
-5.240727624140025E-001	-1.0033514E+000	-1.0030624E+000	1.9145270E+003	8.532539784449909E+001
-5.402847699897020E-001	-1.0053537E+000	-1.0050621E+000	1.8607848E+003	8.552539783944667E+001
-5.566323332936252E-001	-1.0073609E+000	-1.0070621E+000	1.8097421E+003	8.572539783439424E+001
-5.731243964141051E-001	-1.0093595E+000	-1.0090619E+000	1.7611526E+003	8.592539782934182E+001
-5.895744472184559E-001	-1.0113573E+000	-1.0110619E+000	1.7154022E+003	8.612539782428939E+001
-6.060650908808420E-001	-1.0133681E+000	-1.0130618E+000	1.6720450E+003	8.632539781923697E+001
-6.224768829833951E-001	-1.0153663E+000	-1.0150616E+000	1.6311711E+003	8.652539781418454E+001
-6.388710121203915E-001	-1.0173635E+000	-1.0170615E+000	1.5924397E+003	8.672539780913212E+001
-6.552496493293494E-001	-1.0193738E+000	-1.0190613E+000	1.5557029E+003	8.692539780407969E+001
-6.714714197209621E-001	-1.0213678E+000	-1.0210614E+000	1.5210890E+003	8.712539779902727E+001
-6.877074418188265E-001	-1.0233732E+000	-1.0230612E+000	1.4880939E+003	8.732539779397484E+001
-7.038213345993007E-001	-1.0253657E+000	-1.0250611E+000	1.4568551E+003	8.752539778892242E+001
-7.200252446187596E-001	-1.0273886E+000	-1.0270609E+000	1.4268785E+003	8.772539778386999E+001
-7.360394264282313E-001	-1.0293826E+000	-1.0290606E+000	1.3985427E+003	8.792529777882010E+001
-7.517866854536948E-001	-1.0313780E+000	-1.0310607E+000	1.3719025E+003	8.812519777377020E+001
-7.675788196568245E-001	-1.0333735E+000	-1.0330606E+000	1.3462767E+003	8.832519776871777E+001
-7.831675674842309E-001	-1.0353787E+000	-1.0350605E+000	1.3220398E+003	8.852519776366535E+001
-7.988121305970353E-001	-1.0373625E+000	-1.0370604E+000	1.2986313E+003	8.872519775861292E+001
-8.144877257243692E-001	-1.0393543E+000	-1.0390604E+000	1.2760835E+003	8.892519775356050E+001
-8.298559673214942E-001	-1.0413530E+000	-1.0410602E+000	1.2548599E+003	8.912519774850807E+001
-8.452926625047859E-001	-1.0433526E+000	-1.0430601E+000	1.2343093E+003	8.932519774345565E+001
-8.607833794658184E-001	-1.0453548E+000	-1.0450599E+000	1.2144226E+003	8.952519773840322E+001
-8.761360085064551E-001	-1.0473546E+000	-1.0470599E+000	1.1954247E+003	8.972519773335080E+001
-8.916120908630703E-001	-1.0493560E+000	-1.0490597E+000	1.1769199E+003	8.992519772829837E+001
-9.070702528162897E-001	-1.0513506E+000	-1.0510596E+000	1.1590619E+003	9.012519772324595E+001
-9.226346249331083E-001	-1.0533715E+000	-1.0530595E+000	1.1416996E+003	9.032519771819352E+001
-9.381425101859087E-001	-1.0553660E+000	-1.0550596E+000	1.1249528E+003	9.052519771314110E+001
-9.537003573427247E-001	-1.0573709E+000	-1.0570593E+000	1.1087035E+003	9.072519770808867E+001
-9.694732730519782E-001	-1.0593619E+000	-1.0590593E+000	1.0927191E+003	9.092519770303625E+001
-9.854646823083844E-001	-1.0613499E+000	-1.0610591E+000	1.0770045E+003	9.112519769798382E+001
-1.001467116565664E+000	-1.0633612E+000	-1.0630591E+000	1.0618033E+003	9.132519769293140E+001
-1.017725980978170E+000	-1.0653468E+000	-1.0650585E+000	1.0467914E+003	9.152509768788150E+001
-1.034210563322653E+000	-1.0673678E+000	-1.0670588E+000	1.0320604E+003	9.172499768283160E+001
-1.050826201574401E+000	-1.0693531E+000	-1.0690587E+000	1.0176308E+003	9.192499767777917E+001
-1.069181441296503E+000	-1.0714440E+000	-1.0711585E+000	1.0021162E+003	9.213499767247413E+001
-1.087734613846351E+000	-1.0735199E+000	-1.0732585E+000	9.8693188E+002	9.234499766716908E+001
-1.105293866500352E+000	-1.0755249E+000	-1.0752583E+000	9.7306696E+002	9.254499766211666E+001
-1.123025188868751E+000	-1.0775335E+000	-1.0772582E+000	9.5949182E+002	9.274499765706423E+001
-1.140812618721300E+000	-1.0795157E+000	-1.0792580E+000	9.4626904E+002	9.294499765201181E+001
-1.159261086013782E+000	-1.0815011E+000	-1.0812581E+000	9.3292285E+002	9.314499764695938E+001
-1.178165887125560E+000	-1.0835162E+000	-1.0832578E+000	9.1966357E+002	9.334499764190696E+001
-1.197386991308664E+000	-1.0855159E+000	-1.0852578E+000	9.0657062E+002	9.354499763685453E+001
-1.217140107409282E+000	-1.0875176E+000	-1.0872575E+000	8.9350238E+002	9.374499763180211E+001
-1.237160842874154E+000	-1.0894961E+000	-1.0892575E+000	8.8064227E+002	9.394499762674968E+001
-1.258022864279489E+000	-1.0914996E+000	-1.0912575E+000	8.6763092E+002	9.414499762169726E+001
-1.279257894449294E+000	-1.0935131E+000	-1.0932573E+000	8.5480273E+002	9.434499761664483E+001
-1.301184169078019E+000	-1.0954995E+000	-1.0952572E+000	8.4192505E+002	9.454499761159241E+001
-1.323754643501884E+000	-1.0975049E+000	-1.0972570E+000	8.2908478E+002	9.474499760653998E+001
-1.346958145186676E+000	-1.0994990E+000	-1.0992570E+000	8.1628296E+002	9.494499760148756E+001
-1.370848393771865E+000	-1.1014942E+000	-1.1012564E+000	8.0351276E+002	9.514489759643766E+001
-1.396033623110071E+000	-1.1035175E+000	-1.1032568E+000	7.9046631E+002	9.534479759138776E+001
-1.421755517581619E+000	-1.1055039E+000	-1.1052567E+000	7.7756262E+002	9.554479758633533E+001
-1.448576166702111E+000	-1.1075176E+000	-1.1072565E+000	7.6455603E+002	9.574479758128291E+001
-1.476299593288481E+000	-1.1095060E+000	-1.1092564E+000	7.5154529E+002	9.594479757623049E+001
-1.504959532936155E+000	-1.1115297E+000	-1.1112564E+000	7.3857782E+002	9.614479757117806E+001
-1.534732674161928E+000	-1.1135155E+000	-1.1132562E+000	7.2554364E+002	9.634479756612564E+001
-1.565983637660539E+000	-1.1155127E+000	-1.1152561E+000	7.1233997E+002	9.654479756107321E+001
-1.598502134367854E+000	-1.1175174E+000	-1.1172559E+000	6.9910284E+002	9.674479755602079E+001
-1.632693966601437E+000	-1.1195052E+000	-1.1192558E+000	6.8567975E+002	9.694479755096836E+001
-1.668102927049802E+000	-1.1215198E+000	-1.1212558E+000	6.7233252E+002	9.714479754591594E+001
-1.705082133040683E+000	-1.1235095E+000	-1.1232556E+000	6.5891815E+002	9.734479754086351E+001
-1.744152817359861E+000	-1.1255116E+000	-1.1252555E+000	6.4530566E+002	9.754479753581109E+001
-1.784765520097174E+000	-1.1275094E+000	-1.1272554E+000	6.3174091E+002	9.774479753075866E+001
-1.827581755428361E+000	-1.1295154E+000	-1.1292554E+000	6.1803827E+002	9.794479752570624E+001
-1.872944540413869E+000	-1.1315229E+000	-1.1312553E+000	6.0414117E+002	9.814479752065381E+001
-1.919880279084321E+000	-1.1335173E+000	-1.1332551E+000	5.9041040E+002	9.834479751560139E+001
-1.969120325888099E+000	-1.1355305E+000	-1.1352550E+000	5.7666888E+002	9.854479751054896E+001
-2.021806268482539E+000	-1.1375141E+000	-1.1372545E+000	5.6262268E+002	9.874469750549906E+001
-2.076635428836980E+000	-1.1394984E+000	-1.1392546E+000	5.4872333E+002	9.894459750044916E+001
-2.133223964632084E+000	-1.1415206E+000	-1.1412547E+000	5.3511523E+002	9.914459749539674E+001
-2.194561019624295E+000	-1.1435088E+000	-1.1432545E+000	5.2106494E+002	9.934459749034431E+001
-2.259060797321688E+000	-1.1455264E+000	-1.1452545E+000	5.0708081E+002	9.954459748529189E+001
-2.325230143660185E+000	-1.1475253E+000	-1.1472543E+000	4.9351044E+002	9.974459748023946E+001
-2.394295038042962E+000	-1.1495177E+000	-1.1492542E+000	4.8010693E+002	9.994459747518704E+001
-2.468615850843399E+000	-1.1515183E+000	-1.1512542E+000	4.6646317E+002	1.001445974701346E+002
-2.544237922682790E+000	-1.1535140E+000	-1.1532539E+000	4.5338293E+002	1.003445974650822E+002
-2.625155760655332E+000	-1.1555369E+000	-1.1552539E+000	4.4017841E+002	1.005445974600298E+002
-2.709699135636930E+000	-1.1575329E+000	-1.1572537E+000	4.2718134E+002	1.007445974549773E+002
-2.797729132447799E+000	-1.1595200E+000	-1.1592537E+000	4.1445044E+002	1.009445974499249E+002
-2.892294422028558E+000	-1.1615424E+000	-1.1612536E+000	4.0159897E+002	1.011445974448725E+002
-2.989934193692647E+000	-1.1635352E+000	-1.1632534E+000	3.8915079E+002	1.013445974398201E+002
-3.093575786098064E+000	-1.1655118E+000	-1.1652533E+000	3.7675232E+002	1.015445974347676E+002
-3.200927084028855E+000	-1.1675335E+000	-1.1672531E+000	3.6474857E+002	1.017445974297152E+002
-3.313749189989082E+000	-1.1695182E+000	-1.1692531E+000	3.5292902E+002	1.019445974246628E+002
-3.432862839055446E+000	-1.1715263E+000	-1.1712530E+000	3.4126804E+002	1.021445974196104E+002
-3.556120568500916E+000	-1.1735227E+000	-1.1732525E+000	3.3000082E+002	1.023444974145605E+002
-3.687779520002621E+000	-1.1755353E+000	-1.1752528E+000	3.1876508E+002	1.025443974095106E+002
-3.829425583654795E+000	-1.1775159E+000	-1.1772527E+000	3.0749152E+002	1.027443974044581E+002
-3.974471938414112E+000	-1.1795304E+000	-1.1792526E+000	2.9677664E+002	1.029443973994057E+002
-4.123540077451409E+000	-1.1815327E+000	-1.1812525E+000	2.8653360E+002	1.031443973943533E+002
-4.275643375725432E+000	-1.1835179E+000	-1.1832523E+000	2.7680466E+002	1.033443973893009E+002
-4.435870099770504E+000	-1.1855229E+000	-1.1852523E+000	2.6725827E+002	1.035443973842484E+002
-4.608044504477320E+000	-1.1875237E+000	-1.1872520E+000	2.5770667E+002	1.037443973791960E+002
-4.787813612663282E+000	-1.1895268E+000	-1.1892520E+000	2.4844885E+002	1.039443973741436E+002
-4.976922411969994E+000	-1.1915205E+000	-1.1912519E+000	2.3940909E+002	1.041443973690912E+002
-5.169328314444371E+000	-1.1935153E+000	-1.1932518E+000	2.3088402E+002	1.043443973640387E+002
-5.366074154571606E+000	-1.1954988E+000	-1.1952516E+000	2.2278836E+002	1.045443973589863E+002
-5.575180856109725E+000	-1.1975267E+000	-1.1972517E+000	2.1479602E+002	1.047443973539339E+002
-5.793302537936743E+000	-1.1995202E+000	-1.1992514E+000	2.0705292E+002	1.049443973488815E+002
-6.026738341635863E+000	-1.2015218E+000	-1.2012514E+000	1.9936517E+002	1.051443973438290E+002
-6.260027244214029E+000	-1.2035204E+000	-1.2032511E+000	1.9225482E+002	1.053443973387766E+002
-6.509006126802802E+000	-1.2055262E+000	-1.2052511E+000	1.8520895E+002	1.055443973337242E+002
-6.766525463452410E+000	-1.2075298E+000	-1.2072510E+000	1.7845641E+002	1.057443973286718E+002
-7.037310799290935E+000	-1.2095258E+000	-1.2092515E+000	1.7187331E+002	1.059443973236193E+002
-7.315898401463301E+000	-1.2115214E+000	-1.2112507E+000	1.6560118E+002	1.061441973185720E+002
-7.603486686742215E+000	-1.2135272E+000	-1.2132506E+000	1.5960141E+002	1.063441973135195E+002
-7.898001526353553E+000	-1.2155480E+000	-1.2152506E+000	1.5390578E+002	1.065441973084671E+002
-8.199085196197153E+000	-1.2175186E+000	-1.2172505E+000	1.4849445E+002	1.067441973034147E+002
-8.517981241349474E+000	-1.2195449E+000	-1.2192503E+000	1.4317299E+002	1.069441972983623E+002
-8.834230137384964E+000	-1.2215331E+000	-1.2212502E+000	1.3827272E+002	1.071441972933098E+002
-9.169009966509677E+000	-1.2235279E+000	-1.2232502E+000	1.3344167E+002	1.073441972882574E+002
-9.520899765818589E+000	-1.2255361E+000	-1.2252500E+000	1.2872061E+002	1.075441972832050E+002
-9.872972221060934E+000	-1.2275364E+000	-1.2272499E+000	1.2433302E+002	1.077441972781526E+002
-1.023103622223781E+001	-1.2295238E+000	-1.2292498E+000	1.2017588E+002	1.079441972731001E+002
-1.059489313099124E+001	-1.2315573E+000	-1.2312496E+000	1.1624065E+002	1.081441972680477E+002
-1.100700789008823E+001	-1.2336501E+000	-1.2333496E+000	1.1207861E+002	1.083541972627427E+002
-1.142791422255465E+001	-1.2357326E+000	-1.2354494E+000	1.0813282E+002	1.085641972574376E+002
-1.183041419423358E+001	-1.2377173E+000	-1.2374493E+000	1.0462164E+002	1.087641972523852E+002
-1.224365896804266E+001	-1.2397470E+000	-1.2394491E+000	1.0125626E+002	1.089641972473328E+002
-1.265827292406642E+001	-1.2417327E+000	-1.2414491E+000	9.8096535E+001	1.091641972422804E+002
-1.312999454701570E+001	-1.2437205E+000	-1.2434490E+000	9.4723610E+001	1.093641972372279E+002
-1.358306713445495E+001	-1.2457398E+000	-1.2454484E+000	9.1712708E+001	1.095640972321780E+002
-1.404300485757469E+001	-1.2477341E+000	-1.2474488E+000	8.8850929E+001	1.097639972271281E+002
-1.451253916955048E+001	-1.2497486E+000	-1.2494487E+000	8.6115089E+001	1.099639972220757E+002
-1.499841732259782E+001	-1.2517333E+000	-1.2514485E+000	8.3457695E+001	1.101639972170233E+002
-1.549237117691649E+001	-1.2537369E+000	-1.2534485E+000	8.0926079E+001	1.103639972119709E+002
-1.598249689251395E+001	-1.2557442E+000	-1.2554485E+000	7.8569962E+001	1.105639972069184E+002
-1.650408306873305E+001	-1.2577575E+000	-1.2574483E+000	7.6208870E+001	1.107639972018660E+002
-1.703947272295321E+001	-1.2597625E+000	-1.2594482E+000	7.3932014E+001	1.109639971968136E+002
-1.756139792904023E+001	-1.2617512E+000	-1.2614479E+000	7.1847992E+001	1.111639971917612E+002
-1.809235976247835E+001	-1.2637293E+000	-1.2634480E+000	6.9848785E+001	1.113639971867087E+002
-1.864758476256782E+001	-1.2657331E+000	-1.2654477E+000	6.7876518E+001	1.115639971816563E+002
-1.920429452287365E+001	-1.2677348E+000	-1.2674477E+000	6.6013084E+001	1.117639971766039E+002
-1.976389184344117E+001	-1.2697455E+000	-1.2694476E+000	6.4245720E+001	1.119639971715515E+002
-2.030560050218816E+001	-1.2717440E+000	-1.2714475E+000	6.2630211E+001	1.121639971664990E+002
-2.091661596568528E+001	-1.2737410E+000	-1.2734473E+000	6.0896133E+001	1.123639971614466E+002
-2.154127536730974E+001	-1.2757282E+000	-1.2754472E+000	5.9222504E+001	1.125639971563942E+002
-2.217828786900262E+001	-1.2777486E+000	-1.2774471E+000	5.7612591E+001	1.127639971513418E+002
-2.279261775243853E+001	-1.2797481E+000	-1.2794470E+000	5.6147480E+001	1.129639971462893E+002
-2.343819883715474E+001	-1.2817358E+000	-1.2814474E+000	5.4685764E+001	1.131639971412369E+002
-2.409205125054899E+001	-1.2837448E+000	-1.2834468E+000	5.3284996E+001	1.133637971361895E+002
-2.475190994731423E+001	-1.2857233E+000	-1.2854468E+000	5.1944408E+001	1.135637971311371E+002
-2.541240430851366E+001	-1.2877337E+000	-1.2874465E+000	5.0673428E+001	1.137637971260847E+002
-2.608221078324485E+001	-1.2897476E+000	-1.2894465E+000	4.9449322E+001	1.139637971210323E+002
-2.676823562802645E+001	-1.2917500E+000	-1.2914463E+000	4.8256821E+001	1.141637971159798E+002
-2.742919174073231E+001	-1.2937486E+000	-1.2934463E+000	4.7166851E+001	1.143637971109274E+002
-2.815538224530597E+001	-1.2957451E+000	-1.2954462E+000	4.6021225E+001	1.145637971058750E+002
-2.885904978489390E+001	-1.2977505E+000	-1.2974460E+000	4.4968578E+001	1.147637971008226E+002
-2.955964734440749E+001	-1.2997293E+000	-1.2994459E+000	4.3969719E+001	1.149637970957701E+002
-3.032829995868968E+001	-1.3017505E+000	-1.3014458E+000	4.2921974E+001	1.151637970907177E+002
-3.100960134405668E+001	-1.3037679E+000	-1.3034457E+000	4.2044006E+001	1.153637970856653E+002
-3.169676361143453E+001	-1.3057432E+000	-1.3054457E+000	4.1194843E+001	1.155637970806129E+002
-3.241784275875610E+001	-1.3077493E+000	-1.3074454E+000	4.0340416E+001	1.157637970755604E+002
-3.315299287810069E+001	-1.3097395E+000	-1.3094453E+000	3.9505920E+001	1.159637970705080E+002
-3.389316520344929E+001	-1.3117666E+000	-1.3114452E+000	3.8702984E+001	1.161637970654556E+002
-3.463573112212063E+001	-1.3137617E+000	-1.3134451E+000	3.7930820E+001	1.163637970604032E+002
-3.544606034934117E+001	-1.3157656E+000	-1.3154449E+000	3.7120220E+001	1.165637970553507E+002
-3.626954989087744E+001	-1.3177485E+000	-1.3174452E+000	3.6332088E+001	1.167637970502983E+002
-3.705543126984603E+001	-1.3197502E+000	-1.3194447E+000	3.5615566E+001	1.169635970452509E+002
-3.776284809501800E+001	-1.3217571E+000	-1.3214447E+000	3.5001518E+001	1.171635970401985E+002
-3.847141260922366E+001	-1.3237619E+000	-1.3234446E+000	3.4408978E+001	1.173635970351461E+002
-3.926659506491785E+001	-1.3257493E+000	-1.3254445E+000	3.3762775E+001	1.175635970300937E+002
-4.002662251839010E+001	-1.3277675E+000	-1.3274444E+000	3.3172108E+001	1.177635970250412E+002
-4.082836403354747E+001	-1.3297666E+000	-1.3294442E+000	3.2569675E+001	1.179635970199888E+002
-4.157271467125611E+001	-1.3317652E+000	-1.3314443E+000	3.2034595E+001	1.181635970149364E+002
-4.243295780817687E+001	-1.3337833E+000	-1.3334440E+000	3.1432720E+001	1.183635970098840E+002
-4.319688815594810E+001	-1.3357620E+000	-1.3354440E+000	3.0922646E+001	1.185635970048315E+002
-4.425587475732340E+001	-1.3377724E+000	-1.3374437E+000	3.0228130E+001	1.187635969997791E+002
-4.506787066989480E+001	-1.3397532E+000	-1.3394437E+000	2.9727457E+001	1.189635969947267E+002
-4.588473044582491E+001	-1.3417667E+000	-1.3414435E+000	2.9242119E+001	1.191635969896743E+002
-4.665785463353700E+001	-1.3437538E+000	-1.3434435E+000	2.8800163E+001	1.193635969846218E+002
-4.746321688703938E+001	-1.3457609E+000	-1.3454434E+000	2.8353765E+001	1.195635969795694E+002
-4.824050553720843E+001	-1.3477645E+000	-1.3474432E+000	2.7938440E+001	1.197635969745170E+002
-4.893485908713740E+001	-1.3497773E+000	-1.3494432E+000	2.7583145E+001	1.199635969694646E+002
-4.971170578305691E+001	-1.3517623E+000	-1.3514429E+000	2.7192032E+001	1.201635969644121E+002
-5.051568371866597E+001	-1.3537725E+000	-1.3534434E+000	2.6799053E+001	1.203635969593597E+002
-5.156486745124971E+001	-1.3557698E+000	-1.3554437E+000	2.6292509E+001	1.205634969543098E+002
-5.246521632903864E+001	-1.3577697E+000	-1.3574427E+000	2.5879427E+001	1.207633969492599E+002
-5.326901767745869E+001	-1.3597829E+000	-1.3594426E+000	2.5526712E+001	1.209633969442075E+002
-5.420398937223194E+001	-1.3617792E+000	-1.3614424E+000	2.5123228E+001	1.211633969391551E+002
-5.499309806975066E+001	-1.3637881E+000	-1.3634424E+000	2.4799259E+001	1.213633969341026E+002
-5.569087165121039E+001	-1.3657821E+000	-1.3654423E+000	2.4524345E+001	1.215633969290502E+002
-5.645759420113791E+001	-1.3677917E+000	-1.3674421E+000	2.4226885E+001	1.217633969239978E+002
-5.741954772272314E+001	-1.3697841E+000	-1.3694420E+000	2.3855711E+001	1.219633969189454E+002
-5.844054285468997E+001	-1.3717917E+000	-1.3714420E+000	2.3473288E+001	1.221633969138929E+002
-5.915281884740534E+001	-1.3738028E+000	-1.3734418E+000	2.3224638E+001	1.223633969088405E+002
-6.001736766302656E+001	-1.3757857E+000	-1.3754417E+000	2.2923126E+001	1.225633969037881E+002
-6.101108505990749E+001	-1.3777910E+000	-1.3774415E+000	2.2582634E+001	1.227633968987357E+002
-6.200206978791437E+001	-1.3798006E+000	-1.3794415E+000	2.2254105E+001	1.229633968936832E+002
-6.317269283141104E+001	-1.3817897E+000	-1.3814414E+000	2.1873211E+001	1.231633968886308E+002
-6.407655536668926E+001	-1.3837904E+000	-1.3834413E+000	2.1595892E+001	1.233633968835784E+002
-6.489849275039717E+001	-1.3858057E+000	-1.3854412E+000	2.1353436E+001	1.235633968785260E+002
-6.589307305710111E+001	-1.3877984E+000	-1.3874409E+000	2.1061371E+001	1.237633968734735E+002
-6.696435427024005E+001	-1.3897898E+000	-1.3894402E+000	2.0754173E+001	1.239632968684236E+002
-6.766245966541715E+001	-1.3917917E+000	-1.3914416E+000	2.0569630E+001	1.241632968633712E+002
-6.848914169724583E+001	-1.3937948E+000	-1.3934406E+000	2.0350595E+001	1.243631968583213E+002
-6.981210556970950E+001	-1.3957973E+000	-1.3954406E+000	1.9993628E+001	1.245631968532689E+002
-7.058535266841636E+001	-1.3977925E+000	-1.3974404E+000	1.9802868E+001	1.247631968482165E+002
-7.160770920236610E+001	-1.3998160E+000	-1.3994404E+000	1.9548399E+001	1.249631968431640E+002
-7.254562264126707E+001	-1.4017997E+000	-1.4014403E+000	1.9323008E+001	1.251631968381116E+002
-7.331082721902681E+001	-1.4038082E+000	-1.4034401E+000	1.9148716E+001	1.253631968330592E+002
-7.402269556462875E+001	-1.4058089E+000	-1.4054401E+000	1.8991592E+001	1.255631968280068E+002
-7.495866348089231E+001	-1.4078057E+000	-1.4074398E+000	1.8781094E+001	1.257631968229543E+002
-7.587310790150626E+001	-1.4098308E+000	-1.4094399E+000	1.8581430E+001	1.259631968179019E+002
-7.695251691692829E+001	-1.4118192E+000	-1.4114398E+000	1.8346628E+001	1.261631968128495E+002
-7.809362830164213E+001	-1.4138235E+000	-1.4134396E+000	1.8104210E+001	1.263631968077971E+002
-7.900883307316406E+001	-1.4158289E+000	-1.4154394E+000	1.7919882E+001	1.265631968027446E+002
-7.996400424250089E+001	-1.4178200E+000	-1.4174395E+000	1.7730728E+001	1.267631967976922E+002
-8.077711335817958E+001	-1.4198265E+000	-1.4194392E+000	1.7577089E+001	1.269631967926398E+002
-8.146922539096886E+001	-1.4218128E+000	-1.4214393E+000	1.7452145E+001	1.271631967875874E+002
-8.260172230694562E+001	-1.4238044E+000	-1.4234390E+000	1.7236982E+001	1.273631967825349E+002
-8.347943066865969E+001	-1.4258149E+000	-1.4254382E+000	1.7079834E+001	1.275630967774850E+002
-8.467206818975592E+001	-1.4278035E+000	-1.4274396E+000	1.6862745E+001	1.277630967724326E+002
-8.635414709796146E+001	-1.4297980E+000	-1.4294387E+000	1.6557375E+001	1.279629967673827E+002
-8.729907318848348E+001	-1.4318134E+000	-1.4314386E+000	1.6401243E+001	1.281629967623303E+002
-8.802382572059452E+001	-1.4337910E+000	-1.4334385E+000	1.6288670E+001	1.283629967572779E+002
-8.895444277246520E+001	-1.4357989E+000	-1.4354384E+000	1.6140835E+001	1.285629967522254E+002
-9.054192379596819E+001	-1.4378185E+000	-1.4374384E+000	1.5880141E+001	1.287629967471730E+002
-9.126525183545749E+001	-1.4398350E+000	-1.4394382E+000	1.5776377E+001	1.289629967421206E+002
-9.206839754305707E+001	-1.4418083E+000	-1.4414381E+000	1.5660187E+001	1.291629967370682E+002
-9.297202352547606E+001	-1.4438331E+000	-1.4434381E+000	1.5529759E+001	1.293629967320157E+002
-9.391573485711808E+001	-1.4458202E+000	-1.4454378E+000	1.5394867E+001	1.295629967269633E+002
-9.480282090148148E+001	-1.4477973E+000	-1.4474379E+000	1.5271669E+001	1.297629967219109E+002
-9.539819891544676E+001	-1.4498310E+000	-1.4494376E+000	1.5197677E+001	1.299629967168585E+002
-9.612620917577647E+001	-1.4518193E+000	-1.4514376E+000	1.5103262E+001	1.301629967118060E+002
-9.781206515046200E+001	-1.4538115E+000	-1.4534373E+000	1.4863315E+001	1.303629967067536E+002
-9.926888149611784E+001	-1.4558083E+000	-1.4554373E+000	1.4665303E+001	1.305629967017012E+002
-1.005652121837991E+002	-1.4578180E+000	-1.4574372E+000	1.4496245E+001	1.307629966966488E+002
-1.019750406552876E+002	-1.4598131E+000	-1.4594371E+000	1.4315396E+001	1.309629966915963E+002
-1.029866311754133E+002	-1.4618316E+000	-1.4614362E+000	1.4194382E+001	1.311628966865464E+002
-1.034272231270968E+002	-1.4638166E+000	-1.4634372E+000	1.4153108E+001	1.313628966814940E+002
-1.040214882610608E+002	-1.4658295E+000	-1.4654368E+000	1.4091602E+001	1.315627966764441E+002
-1.049480716484748E+002	-1.4678146E+000	-1.4674366E+000	1.3986103E+001	1.317627966713917E+002
-1.059844793419184E+002	-1.4698159E+000	-1.4694365E+000	1.3868217E+001	1.319627966663393E+002
-1.071153141495327E+002	-1.4718210E+000	-1.4714363E+000	1.3740528E+001	1.321627966612868E+002
-1.080042992654564E+002	-1.4738443E+000	-1.4734364E+000	1.3646163E+001	1.323627966562344E+002
-1.091278484651564E+002	-1.4758351E+000	-1.4754361E+000	1.3523909E+001	1.325627966511820E+002
-1.101157551833562E+002	-1.4779025E+000	-1.4775362E+000	1.3421354E+001	1.327727966458770E+002
-1.107940497344309E+002	-1.4799860E+000	-1.4796360E+000	1.3357991E+001	1.329827966405719E+002
-1.116340369518655E+002	-1.4819973E+000	-1.4816358E+000	1.3275496E+001	1.331827966355195E+002
-1.131055807321247E+002	-1.4839972E+000	-1.4836358E+000	1.3120460E+001	1.333827966304671E+002
-1.145174281007844E+002	-1.4859937E+000	-1.4856356E+000	1.2976136E+001	1.335827966254146E+002
-1.149363604240675E+002	-1.4879831E+000	-1.4876355E+000	1.2946148E+001	1.337827966203622E+002
-1.160299180943412E+002	-1.4899861E+000	-1.4896352E+000	1.2841395E+001	1.339827966153098E+002
-1.178965705668309E+002	-1.4919934E+000	-1.4916353E+000	1.2655105E+001	1.341827966102574E+002
-1.194246248398777E+002	-1.4939864E+000	-1.4936351E+000	1.2509869E+001	1.343827966052049E+002
-1.206511329090786E+002	-1.4959863E+000	-1.4956352E+000	1.2399273E+001	1.345827966001525E+002
-1.218608023589485E+002	-1.4980026E+000	-1.4976342E+000	1.2292736E+001	1.347826965951026E+002
-1.221425877818629E+002	-1.5000007E+000	-1.4996356E+000	1.2280735E+001	1.349826965900502E+002
-1.234028711816347E+002	-1.5020062E+000	-1.5016347E+000	1.2171566E+001	1.351825965850003E+002
-1.251798892172556E+002	-1.5040138E+000	-1.5036346E+000	1.2014819E+001	1.353825965799479E+002
-1.262015561062735E+002	-1.5060065E+000	-1.5056344E+000	1.1933343E+001	1.355825965748954E+002
-1.269475932467281E+002	-1.5079938E+000	-1.5076344E+000	1.1878869E+001	1.357825965698430E+002
-1.276459084043693E+002	-1.5100060E+000	-1.5096343E+000	1.1829646E+001	1.359825965647906E+002
-1.286916787164819E+002	-1.5119991E+000	-1.5116342E+000	1.1749004E+001	1.361825965597382E+002
-1.306502367644624E+002	-1.5140169E+000	-1.5136341E+000	1.1588321E+001	1.363825965546857E+002
-1.312254332977088E+002	-1.5160114E+000	-1.5156339E+000	1.1552725E+001	1.365825965496333E+002
-1.320680647480240E+002	-1.5180196E+000	-1.5176339E+000	1.1494222E+001	1.367825965445809E+002
-1.330037354406577E+002	-1.5200040E+000	-1.5196337E+000	1.1428281E+001	1.369825965395285E+002
-1.337194469694109E+002	-1.5220269E+000	-1.5216337E+000	1.1382240E+001	1.371825965344760E+002
-1.344535196697900E+002	-1.5240028E+000	-1.5236336E+000	1.1334793E+001	1.373825965294236E+002
-1.356356248715028E+002	-1.5260204E+000	-1.5256335E+000	1.1250882E+001	1.375825965243712E+002
-1.371608126395957E+002	-1.5280359E+000	-1.5276332E+000	1.1140470E+001	1.377825965193188E+002
-1.375028687442507E+002	-1.5300177E+000	-1.5296332E+000	1.1127170E+001	1.379825965142663E+002
-1.377140913096150E+002	-1.5320226E+000	-1.5316330E+000	1.1124661E+001	1.381825965092139E+002
-1.383364530396739E+002	-1.5340037E+000	-1.5336322E+000	1.1088934E+001	1.383824965041640E+002
-1.399368439641955E+002	-1.5360137E+000	-1.5356333E+000	1.0976479E+001	1.385824964991116E+002
-1.425224426490104E+002	-1.5380099E+000	-1.5376327E+000	1.0791352E+001	1.387823964940617E+002
-1.431969169910797E+002	-1.5400137E+000	-1.5396327E+000	1.0754517E+001	1.389823964890093E+002
-1.444066183507580E+002	-1.5420375E+000	-1.5416325E+000	1.0678440E+001	1.391823964839568E+002
-1.448450582032838E+002	-1.5440187E+000	-1.5436325E+000	1.0659796E+001	1.393823964789044E+002
-1.455461163823570E+002	-1.5460221E+000	-1.5456324E+000	1.0622214E+001	1.395823964738520E+002
-1.465271419040732E+002	-1.5480210E+000	-1.5476322E+000	1.0564738E+001	1.397823964687996E+002
-1.473099012093749E+002	-1.5500185E+000	-1.5496320E+000	1.0522161E+001	1.399823964637471E+002
-1.478678288535461E+002	-1.5520251E+000	-1.5516320E+000	1.0496030E+001	1.401823964586947E+002
-1.489335197937462E+002	-1.5540094E+000	-1.5536318E+000	1.0434249E+001	1.403823964536423E+002
-1.498570099222959E+002	-1.5560020E+000	-1.5556316E+000	1.0383245E+001	1.405823964485899E+002
-1.520492577185171E+002	-1.5580361E+000	-1.5576316E+000	1.0246917E+001	1.407823964435374E+002
-1.527724864509910E+002	-1.5600086E+000	-1.5596315E+000	1.0211319E+001	1.409823964384850E+002
-1.533521120413092E+002	-1.5620146E+000	-1.5616314E+000	1.0185804E+001	1.411823964334326E+002
-1.558573875146121E+002	-1.5640316E+000	-1.5636313E+000	1.0035017E+001	1.413823964283802E+002
-1.574066438274858E+002	-1.5660270E+000	-1.5656312E+000	9.9489260E+000	1.415823964233277E+002
-1.580909618304163E+002	-1.5680168E+000	-1.5676311E+000	9.9184465E+000	1.417823964182753E+002
-1.587588844104691E+002	-1.5700229E+000	-1.5696310E+000	9.8893547E+000	1.419823964132229E+002
-1.602665250004578E+002	-1.5720203E+000	-1.5716306E+000	9.8087873E+000	1.421821964081755E+002
-1.614935889979333E+002	-1.5740322E+000	-1.5736308E+000	9.7467165E+000	1.423821964031231E+002
-1.622438233661003E+002	-1.5760150E+000	-1.5756307E+000	9.7138672E+000	1.425821963980707E+002
-1.630671038865503E+002	-1.5780344E+000	-1.5776306E+000	9.6772089E+000	1.427821963930182E+002
-1.640097521254268E+002	-1.5800358E+000	-1.5796305E+000	9.6337919E+000	1.429821963879658E+002
-1.640781897741651E+002	-1.5820346E+000	-1.5816302E+000	9.6419554E+000	1.431821963829134E+002
-1.647582695024611E+002	-1.5840409E+000	-1.5836302E+000	9.6143332E+000	1.433821963778610E+002
-1.659257230866788E+002	-1.5860398E+000	-1.5856301E+000	9.5587339E+000	1.435821963728085E+002
-1.683826740442221E+002	-1.5880274E+000	-1.5876299E+000	9.4310617E+000	1.437821963677561E+002
-1.693209261331974E+002	-1.5900395E+000	-1.5896300E+000	9.3906851E+000	1.439821963627037E+002
-1.718197809801081E+002	-1.5920317E+000	-1.5916297E+000	9.2657070E+000	1.441821963576513E+002
-1.730469866772096E+002	-1.5940109E+000	-1.5936298E+000	9.2114344E+000	1.443821963525988E+002
-1.736658745817583E+002	-1.5960459E+000	-1.5956296E+000	9.1903248E+000	1.445821963475464E+002
-1.739149434766532E+002	-1.5980231E+000	-1.5976294E+000	9.1885319E+000	1.447821963424940E+002
-1.747610914961285E+002	-1.6000358E+000	-1.5996294E+000	9.1555605E+000	1.449821963374416E+002
-1.751071910728401E+002	-1.6020415E+000	-1.6016293E+000	9.1489191E+000	1.451821963323891E+002
-1.755728482886493E+002	-1.6040233E+000	-1.6036291E+000	9.1359415E+000	1.453821963273367E+002
-1.767146028715467E+002	-1.6060396E+000	-1.6056288E+000	9.0883245E+000	1.455821963222843E+002
-1.780456264934987E+002	-1.6080003E+000	-1.6076283E+000	9.0313940E+000	1.457819963172369E+002
-1.793672799026077E+002	-1.6100296E+000	-1.6096289E+000	8.9761610E+000	1.459819963121845E+002
-1.811837110962733E+002	-1.6120397E+000	-1.6116288E+000	8.8972664E+000	1.461819963071321E+002
-1.829405719958199E+002	-1.6140466E+000	-1.6136285E+000	8.8227921E+000	1.463819963020796E+002
-1.831389997529873E+002	-1.6160505E+000	-1.6156286E+000	8.8241749E+000	1.465819962970272E+002
-1.841191205654013E+002	-1.6180253E+000	-1.6176283E+000	8.7879267E+000	1.467819962919748E+002
-1.859098563940343E+002	-1.6200602E+000	-1.6196282E+000	8.7142248E+000	1.469819962869224E+002
-1.859082640217541E+002	-1.6220561E+000	-1.6216282E+000	8.7250347E+000	1.471819962818699E+002
-1.861411083496077E+002	-1.6240380E+000	-1.6236280E+000	8.7247677E+000	1.473819962768175E+002
-1.876687857212664E+002	-1.6260519E+000	-1.6256279E+000	8.6644773E+000	1.475819962717651E+002
-1.899913090405280E+002	-1.6280490E+000	-1.6276278E+000	8.5690708E+000	1.477819962667127E+002
-1.912522073029927E+002	-1.6300627E+000	-1.6296277E+000	8.5231056E+000	1.479819962616602E+002
-1.914694287382290E+002	-1.6320604E+000	-1.6316276E+000	8.5238695E+000	1.481819962566078E+002
-1.919985182690782E+002	-1.6340473E+000	-1.6336275E+000	8.5107288E+000	1.483819962515554E+002
-1.926758775711060E+002	-1.6360695E+000	-1.6356274E+000	8.4913044E+000	1.485819962465030E+002
-1.925361972309286E+002	-1.6380618E+000	-1.6376274E+000	8.5078115E+000	1.487819962414505E+002
-1.927978925553589E+002	-1.6400731E+000	-1.6396271E+000	8.5066957E+000	1.489819962363981E+002
-1.942707676541511E+002	-1.6420689E+000	-1.6416270E+000	8.4524755E+000	1.491819962313457E+002
-1.953235620684631E+002	-1.6440780E+000	-1.6436268E+000	8.4172029E+000	1.493819962262933E+002
-1.984557840223451E+002	-1.6460718E+000	-1.6456273E+000	8.2944002E+000	1.495818962212434E+002
-1.992417035902981E+002	-1.6480595E+000	-1.6476266E+000	8.2716589E+000	1.497817962161935E+002
-2.013623923260602E+002	-1.6500713E+000	-1.6496267E+000	8.1945353E+000	1.499817962111410E+002
-2.014336047334732E+002	-1.6520553E+000	-1.6516265E+000	8.2014875E+000	1.501817962060886E+002
-2.026586805611773E+002	-1.6540639E+000	-1.6536263E+000	8.1618214E+000	1.503817962010362E+002
-2.075793872041763E+002	-1.6560693E+000	-1.6556263E+000	7.9780045E+000	1.505817961959838E+002
-2.078185651177992E+002	-1.6580526E+000	-1.6576262E+000	7.9783659E+000	1.507817961909313E+002
-2.083352344365887E+002	-1.6600623E+000	-1.6596259E+000	7.9682264E+000	1.509817961858789E+002
-2.104066677180003E+002	-1.6620536E+000	-1.6616259E+000	7.8992438E+000	1.511817961808265E+002
-2.103931051825193E+002	-1.6640544E+000	-1.6636257E+000	7.9092631E+000	1.513817961757741E+002
-2.104363225301104E+002	-1.6660700E+000	-1.6656256E+000	7.9172168E+000	1.515817961707216E+002
-2.105947331928073E+002	-1.6680759E+000	-1.6676257E+000	7.9207864E+000	1.517817961656692E+002
-2.117656421120747E+002	-1.6700732E+000	-1.6696254E+000	7.8864217E+000	1.519817961606168E+002
-2.152230434158218E+002	-1.6720555E+000	-1.6716255E+000	7.7689428E+000	1.521817961555644E+002
-2.158427843842105E+002	-1.6740822E+000	-1.6736252E+000	7.7560258E+000	1.523817961505119E+002
-2.156723442812886E+002	-1.6760764E+000	-1.6756251E+000	7.7714019E+000	1.525817961454595E+002
-2.162697801395334E+002	-1.6780708E+000	-1.6776251E+000	7.7591553E+000	1.527817961404071E+002
-2.163548662462481E+002	-1.6800817E+000	-1.6796249E+000	7.7653985E+000	1.529817961353547E+002
-2.173566274681136E+002	-1.6820742E+000	-1.6816250E+000	7.7387757E+000	1.531816961303048E+002
-2.208551204123464E+002	-1.6840910E+000	-1.6836245E+000	7.6253200E+000	1.533815961252549E+002
-2.224251183187612E+002	-1.6860778E+000	-1.6856246E+000	7.5804291E+000	1.535815961202024E+002
-2.268021425022293E+002	-1.6880918E+000	-1.6876246E+000	7.4430151E+000	1.537815961151500E+002
-2.282312799419140E+002	-1.6900971E+000	-1.6896244E+000	7.4051948E+000	1.539815961100976E+002
-2.279666470594693E+002	-1.6920884E+000	-1.6916243E+000	7.4225259E+000	1.541815961050452E+002
-2.284474998915275E+002	-1.6940787E+000	-1.6936243E+000	7.4156151E+000	1.543815960999927E+002
-2.281064779061035E+002	-1.6960773E+000	-1.6956240E+000	7.4354634E+000	1.545815960949403E+002
-2.284293565404123E+002	-1.6980684E+000	-1.6976238E+000	7.4336696E+000	1.547815960898879E+002
-2.310720420240546E+002	-1.7000728E+000	-1.6996238E+000	7.3573279E+000	1.549815960848355E+002
-2.334868234582500E+002	-1.7020866E+000	-1.7016237E+000	7.2898612E+000	1.551815960797830E+002
-2.358823625495374E+002	-1.7040879E+000	-1.7036235E+000	7.2243123E+000	1.553815960747306E+002
-2.377880267210294E+002	-1.7060872E+000	-1.7056236E+000	7.1748238E+000	1.555815960696782E+002
-2.389125871766455E+002	-1.7080878E+000	-1.7076234E+000	7.1494260E+000	1.557815960646258E+002
-2.385415745192363E+002	-1.7100800E+000	-1.7096233E+000	7.1688972E+000	1.559815960595733E+002
-2.384147164459400E+002	-1.7120754E+000	-1.7116232E+000	7.1810808E+000	1.561815960545209E+002
-2.390803577570141E+002	-1.7140853E+000	-1.7136230E+000	7.1694946E+000	1.563815960494685E+002
-2.402928633268191E+002	-1.7160808E+000	-1.7156230E+000	7.1416221E+000	1.565815960444161E+002
-2.395949679499477E+002	-1.7181019E+000	-1.7176230E+000	7.1708593E+000	1.567814960393662E+002
-2.395635274878441E+002	-1.7200845E+000	-1.7196226E+000	7.1800771E+000	1.569813960343163E+002
-2.400141651084364E+002	-1.7220899E+000	-1.7216225E+000	7.1749511E+000	1.571813960292639E+002
-2.408526413911050E+002	-1.7240946E+000	-1.7236224E+000	7.1582966E+000	1.573813960242114E+002
-2.406410734518322E+002	-1.7260866E+000	-1.7256225E+000	7.1728678E+000	1.575813960191590E+002
-2.422003441786824E+002	-1.7280868E+000	-1.7276224E+000	7.1349478E+000	1.577813960141066E+002
-2.434757648519917E+002	-1.7300878E+000	-1.7296221E+000	7.1057906E+000	1.579813960090542E+002
-2.446632612989597E+002	-1.7320954E+000	-1.7316220E+000	7.0795074E+000	1.581813960040017E+002
-2.461568671072964E+002	-1.7340900E+000	-1.7336220E+000	7.0446539E+000	1.583813959989493E+002
-2.481240333634973E+002	-1.7360947E+000	-1.7356218E+000	6.9968824E+000	1.585813959938969E+002
-2.497376680914770E+002	-1.7380986E+000	-1.7376218E+000	6.9596977E+000	1.587813959888445E+002
-2.542704418035328E+002	-1.7400947E+000	-1.7396216E+000	6.8434801E+000	1.589813959837920E+002
-2.538687994258476E+002	-1.7420812E+000	-1.7416215E+000	6.8621316E+000	1.591813959787396E+002
-2.543430992091853E+002	-1.7440867E+000	-1.7436212E+000	6.8572206E+000	1.593813959736872E+002
-2.553228510383024E+002	-1.7460878E+000	-1.7456213E+000	6.8387446E+000	1.595813959686348E+002
-2.564527935019432E+002	-1.7480856E+000	-1.7476213E+000	6.8164029E+000	1.597813959635823E+002
-2.581119923602423E+002	-1.7501045E+000	-1.7496212E+000	6.7804079E+000	1.599813959585299E+002
-2.574499744731015E+002	-1.7520969E+000	-1.7516209E+000	6.8055820E+000	1.601813959534775E+002
-2.575680255132306E+002	-1.7540833E+000	-1.7536209E+000	6.8101749E+000	1.603812959484276E+002
-2.579224808837821E+002	-1.7560854E+000	-1.7556207E+000	6.8085785E+000	1.605811959433777E+002
-2.574443003487968E+002	-1.7580911E+000	-1.7576206E+000	6.8290153E+000	1.607811959383253E+002
-2.609696712407394E+002	-1.7600796E+000	-1.7596203E+000	6.7443838E+000	1.609811959332728E+002
-2.616684530673379E+002	-1.7620921E+000	-1.7616204E+000	6.7340641E+000	1.611811959282204E+002
-2.650116526934557E+002	-1.7640859E+000	-1.7636203E+000	6.6566353E+000	1.613811959231680E+002
-2.665475264503857E+002	-1.7660973E+000	-1.7656202E+000	6.6258249E+000	1.615811959181156E+002
-2.668080442259911E+002	-1.7680880E+000	-1.7676201E+000	6.6268167E+000	1.617811959130631E+002
-2.680444253847973E+002	-1.7701238E+000	-1.7696199E+000	6.6038451E+000	1.619811959080107E+002
-2.696710478378254E+002	-1.7721263E+000	-1.7716199E+000	6.5714369E+000	1.621811959029583E+002
-2.725848632864395E+002	-1.7740945E+000	-1.7736197E+000	6.5084114E+000	1.623811958979059E+002
-2.722296810409644E+002	-1.7761112E+000	-1.7756195E+000	6.5243115E+000	1.625811958928534E+002
-2.736089204736313E+002	-1.7781067E+000	-1.7776195E+000	6.4987159E+000	1.627811958878010E+002
-2.737410685307868E+002	-1.7801116E+000	-1.7796193E+000	6.5029030E+000	1.629811958827486E+002
-2.738926758906737E+002	-1.7821103E+000	-1.7816192E+000	6.5066009E+000	1.631811958776962E+002
-2.737594676006947E+002	-1.7841034E+000	-1.7836193E+000	6.5170474E+000	1.633811958726437E+002
-2.742087642773472E+002	-1.7861074E+000	-1.7856190E+000	6.5136776E+000	1.635811958675913E+002
-2.749713461090923E+002	-1.7881057E+000	-1.7876191E+000	6.5028801E+000	1.637811958625389E+002
-2.752131289930062E+002	-1.7901078E+000	-1.7896191E+000	6.5044422E+000	1.639810958574890E+002
-2.748167118063865E+002	-1.7921222E+000	-1.7916189E+000	6.5211544E+000	1.641809958524391E+002
-2.757116496546741E+002	-1.7941135E+000	-1.7936187E+000	6.5072098E+000	1.643809958473867E+002
-2.770912783183754E+002	-1.7961149E+000	-1.7956185E+000	6.4820333E+000	1.645809958423342E+002
-2.780188848556018E+002	-1.7981039E+000	-1.7976183E+000	6.4675603E+000	1.647809958372818E+002
-2.804162861960276E+002	-1.8000894E+000	-1.7996181E+000	6.4193468E+000	1.649809958322294E+002
-2.807210117305485E+002	-1.8021098E+000	-1.8016181E+000	6.4195757E+000	1.651809958271770E+002
-2.825090352142756E+002	-1.8040980E+000	-1.8036182E+000	6.3859835E+000	1.653809958221245E+002
-2.883465565553859E+002	-1.8060992E+000	-1.8056180E+000	6.2636404E+000	1.655809958170721E+002
-2.884089863511181E+002	-1.8081018E+000	-1.8076179E+000	6.2692285E+000	1.657809958120197E+002
-2.895491369186882E+002	-1.8101003E+000	-1.8096179E+000	6.2514443E+000	1.659809958069673E+002
-2.900823418623722E+002	-1.8120918E+000	-1.8116177E+000	6.2468190E+000	1.661809958019148E+002
-2.979135361647650E+002	-1.8140934E+000	-1.8136175E+000	6.0893283E+000	1.663809957968624E+002
-2.995378100834174E+002	-1.8161049E+000	-1.8156174E+000	6.0630240E+000	1.665809957918100E+002
-2.989277376166290E+002	-1.8180951E+000	-1.8176173E+000	6.0820556E+000	1.667809957867576E+002
-2.989182077351611E+002	-1.8201181E+000	-1.8196170E+000	6.0890169E+000	1.669809957817051E+002
-2.993309076746032E+002	-1.8221436E+000	-1.8216169E+000	6.0873885E+000	1.671809957766527E+002
-3.014176919768454E+002	-1.8241224E+000	-1.8236170E+000	6.0518093E+000	1.673809957716003E+002
-3.028559838215037E+002	-1.8261071E+000	-1.8256167E+000	6.0296221E+000	1.675808957665504E+002
-3.033035859607505E+002	-1.8281201E+000	-1.8276168E+000	6.0273609E+000	1.677807957615005E+002
-3.027586355901356E+002	-1.8301133E+000	-1.8296167E+000	6.0447931E+000	1.679807957564481E+002
-3.039779891362259E+002	-1.8321182E+000	-1.8316166E+000	6.0271406E+000	1.681807957513956E+002
-3.040092524746919E+002	-1.8341076E+000	-1.8336164E+000	6.0330653E+000	1.683807957463432E+002
-3.038575716061921E+002	-1.8361279E+000	-1.8356162E+000	6.0427256E+000	1.685807957412908E+002
-3.054863638564311E+002	-1.8381081E+000	-1.8376162E+000	6.0169888E+000	1.687807957362384E+002
-3.063909507349208E+002	-1.8401130E+000	-1.8396161E+000	6.0057683E+000	1.689807957311859E+002
-3.068283736084059E+002	-1.8421177E+000	-1.8416159E+000	6.0037398E+000	1.691807957261335E+002
-3.065857504457567E+002	-1.8441201E+000	-1.8436159E+000	6.0150223E+000	1.693807957210811E+002
-3.067934947197668E+002	-1.8461426E+000	-1.8456159E+000	6.0175419E+000	1.695807957160287E+002
-3.069994859262929E+002	-1.8481301E+000	-1.8476158E+000	6.0199780E+000	1.697807957109762E+002
-3.069652627914666E+002	-1.8501307E+000	-1.8496156E+000	6.0271664E+000	1.699807957059238E+002
-3.085413830123523E+002	-1.8521411E+000	-1.8516154E+000	6.0028939E+000	1.701807957008714E+002
-3.095440688165666E+002	-1.8541372E+000	-1.8536154E+000	5.9898973E+000	1.703807956958190E+002
-3.130167884286036E+002	-1.8561414E+000	-1.8556151E+000	5.9298463E+000	1.705807956907665E+002
-3.118486699971477E+002	-1.8581288E+000	-1.8576150E+000	5.9584312E+000	1.707807956857141E+002
-3.139385882483602E+002	-1.8601319E+000	-1.8596148E+000	5.9251456E+000	1.709807956806617E+002
-3.172760380336499E+002	-1.8621285E+000	-1.8616147E+000	5.8691115E+000	1.711806956756118E+002
-3.158200324895420E+002	-1.8641310E+000	-1.8636147E+000	5.9025102E+000	1.713805956705619E+002
-3.167151876371736E+002	-1.8661368E+000	-1.8656148E+000	5.8921609E+000	1.715805956655095E+002
-3.214876977678330E+002	-1.8681372E+000	-1.8676145E+000	5.8109136E+000	1.717805956604570E+002
-3.249909104522394E+002	-1.8701358E+000	-1.8696146E+000	5.7544250E+000	1.719805956554046E+002
-3.227097845185635E+002	-1.8721538E+000	-1.8716143E+000	5.8013544E+000	1.721805956503522E+002
-3.227014682038816E+002	-1.8741471E+000	-1.8736142E+000	5.8076806E+000	1.723805956452998E+002
-3.233538492228704E+002	-1.8761393E+000	-1.8756139E+000	5.8021245E+000	1.725805956402473E+002
-3.257680634998137E+002	-1.8781468E+000	-1.8776139E+000	5.7652884E+000	1.727805956351949E+002
-3.265278848769167E+002	-1.8801489E+000	-1.8796139E+000	5.7580042E+000	1.729805956301425E+002
-3.267200721753707E+002	-1.8821466E+000	-1.8816139E+000	5.7607312E+000	1.731805956250901E+002
-3.278670903679440E+002	-1.8841361E+000	-1.8836137E+000	5.7466459E+000	1.733805956200376E+002
-3.284886575231758E+002	-1.8861408E+000	-1.8856136E+000	5.7418752E+000	1.735805956149852E+002
-3.322303716071342E+002	-1.8881450E+000	-1.8876135E+000	5.6832399E+000	1.737805956099328E+002
-3.340609827603885E+002	-1.8901403E+000	-1.8896134E+000	5.6580696E+000	1.739805956048804E+002
-3.371811420241693E+002	-1.8921400E+000	-1.8916131E+000	5.6116424E+000	1.741805955998279E+002
-3.395686023543481E+002	-1.8941492E+000	-1.8936131E+000	5.5781045E+000	1.743805955947755E+002
-3.393015663640044E+002	-1.8961383E+000	-1.8956130E+000	5.5883570E+000	1.745805955897231E+002
-3.420142473550477E+002	-1.8981426E+000	-1.8976125E+000	5.5498934E+000	1.747804955846732E+002
-3.427621565427380E+002	-1.9001454E+000	-1.8996125E+000	5.5436268E+000	1.749803955796233E+002
-3.444836794016310E+002	-1.9021431E+000	-1.9016126E+000	5.5217218E+000	1.751803955745709E+002
-3.428882754124763E+002	-1.9041433E+000	-1.9036126E+000	5.5532470E+000	1.753803955695184E+002
-3.425132657805807E+002	-1.9061388E+000	-1.9056125E+000	5.5651531E+000	1.755803955644660E+002
-3.439624555548835E+002	-1.9081239E+000	-1.9076123E+000	5.5474772E+000	1.757803955594136E+002
-3.445628075134734E+002	-1.9101206E+000	-1.9096123E+000	5.5436063E+000	1.759803955543612E+002
-3.438579068994845E+002	-1.9121329E+000	-1.9116120E+000	5.5608225E+000	1.761803955493087E+002
-3.450440668097418E+002	-1.9141394E+000	-1.9136119E+000	5.5475216E+000	1.763803955442563E+002
-3.471967549313231E+002	-1.9161304E+000	-1.9156119E+000	5.5188603E+000	1.765803955392039E+002
-3.521895090349681E+002	-1.9181321E+000	-1.9176117E+000	5.4463067E+000	1.767803955341515E+002
-3.511210004672447E+002	-1.9201283E+000	-1.9196116E+000	5.4685659E+000	1.769803955290990E+002
-3.501683955268261E+002	-1.9221367E+000	-1.9216115E+000	5.4891782E+000	1.771803955240466E+002
-3.507353573645596E+002	-1.9241449E+000	-1.9236115E+000	5.4860306E+000	1.773803955189942E+002
-3.512947172523891E+002	-1.9261307E+000	-1.9256115E+000	5.4829478E+000	1.775803955139418E+002
-3.533844626679711E+002	-1.9281393E+000	-1.9276112E+000	5.4562087E+000	1.777803955088893E+002
-3.532884217843995E+002	-1.9301465E+000	-1.9296111E+000	5.4633732E+000	1.779803955038369E+002
-3.528784893624106E+002	-1.9321380E+000	-1.9316111E+000	5.4753633E+000	1.781803954987845E+002
-3.521621084040197E+002	-1.9341379E+000	-1.9336116E+000	5.4921808E+000	1.783803954937321E+002
-3.533357226125667E+002	-1.9361459E+000	-1.9356105E+000	5.4796209E+000	1.785801954886847E+002
-3.536325654140130E+002	-1.9381392E+000	-1.9376105E+000	5.4806581E+000	1.787801954836323E+002
-3.608354312503152E+002	-1.9401399E+000	-1.9396106E+000	5.3768001E+000	1.789801954785798E+002
-3.647217210090630E+002	-1.9421453E+000	-1.9416103E+000	5.3250060E+000	1.791801954735274E+002
-3.685548195590236E+002	-1.9441446E+000	-1.9436104E+000	5.2750487E+000	1.793801954684750E+002
-3.681005291733327E+002	-1.9461342E+000	-1.9456103E+000	5.2869639E+000	1.795801954634226E+002
-3.700108436035189E+002	-1.9481344E+000	-1.9476103E+000	5.2650738E+000	1.797801954583701E+002
-3.689680337495029E+002	-1.9501628E+000	-1.9496100E+000	5.2854519E+000	1.799801954533177E+002
-3.689325686841876E+002	-1.9521488E+000	-1.9516098E+000	5.2913432E+000	1.801801954482653E+002
-3.688954349612995E+002	-1.9541541E+000	-1.9536096E+000	5.2973118E+000	1.803801954432129E+002
-3.683000706372068E+002	-1.9561435E+000	-1.9556096E+000	5.3112764E+000	1.805801954381604E+002
-3.726131378095988E+002	-1.9581722E+000	-1.9576095E+000	5.2552419E+000	1.807801954331080E+002
-3.747008645193919E+002	-1.9601452E+000	-1.9596095E+000	5.2312269E+000	1.809801954280556E+002
-3.756768659712798E+002	-1.9621512E+000	-1.9616094E+000	5.2229757E+000	1.811801954230032E+002
-3.765276753107710E+002	-1.9641517E+000	-1.9636093E+000	5.2164869E+000	1.813801954179507E+002
-3.803567114546722E+002	-1.9661485E+000	-1.9656092E+000	5.1692224E+000	1.815801954128983E+002
-3.839371479146876E+002	-1.9681593E+000	-1.9676090E+000	5.1262541E+000	1.817801954078459E+002
-3.884540209832921E+002	-1.9701678E+000	-1.9696093E+000	5.0718169E+000	1.819801954027935E+002
-3.873584500894558E+002	-1.9721470E+000	-1.9716088E+000	5.0912714E+000	1.821799953977461E+002
-3.871326872615859E+002	-1.9741485E+000	-1.9736086E+000	5.0994105E+000	1.823799953926937E+002
-3.875094035163752E+002	-1.9761531E+000	-1.9756083E+000	5.0996261E+000	1.825799953876412E+002
-3.869280568791110E+002	-1.9781648E+000	-1.9776086E+000	5.1124873E+000	1.827799953825888E+002
-3.877330658971057E+002	-1.9801512E+000	-1.9796083E+000	5.1069961E+000	1.829799953775364E+002
-3.877505903892761E+002	-1.9821674E+000	-1.9816084E+000	5.1119647E+000	1.831799953724840E+002
-3.901538212834566E+002	-1.9841624E+000	-1.9836081E+000	5.0855904E+000	1.833799953674315E+002
-3.930477393511464E+002	-1.9861572E+000	-1.9856082E+000	5.0532212E+000	1.835799953623791E+002
-3.922064683226490E+002	-1.9881508E+000	-1.9876080E+000	5.0691433E+000	1.837799953573267E+002
-3.913537265643506E+002	-1.9901524E+000	-1.9896077E+000	5.0853033E+000	1.839799953522743E+002
-3.899345553218645E+002	-1.9921677E+000	-1.9916075E+000	5.1089797E+000	1.841799953472218E+002
-3.905871702116365E+002	-1.9941640E+000	-1.9936075E+000	5.1055541E+000	1.843799953421694E+002
-3.921086240690565E+002	-1.9961743E+000	-1.9956074E+000	5.0908709E+000	1.845799953371170E+002
-3.915484221343822E+002	-1.9981705E+000	-1.9976072E+000	5.1032524E+000	1.847799953320646E+002
-3.914079015325258E+002	-2.0001545E+000	-1.9996073E+000	5.1101537E+000	1.849799953270121E+002
-3.937186633691781E+002	-2.0021591E+000	-2.0016074E+000	5.0852532E+000	1.851799953219597E+002
-3.922718935683197E+002	-2.0041449E+000	-2.0036070E+000	5.1090708E+000	1.853799953169073E+002
-3.921379167706655E+002	-2.0061488E+000	-2.0056062E+000	5.1159267E+000	1.855797953118599E+002
-3.920922727906564E+002	-2.0081403E+000	-2.0076079E+000	5.1216016E+000	1.857798953068050E+002
-3.945870376941573E+002	-2.0101659E+000	-2.0096068E+000	5.0943537E+000	1.859797953017551E+002
-3.945440075240718E+002	-2.0121596E+000	-2.0116065E+000	5.0999622E+000	1.861797952967027E+002
-3.931153395386800E+002	-2.0141342E+000	-2.0136063E+000	5.1235194E+000	1.863797952916502E+002
-3.949375148176350E+002	-2.0161502E+000	-2.0156066E+000	5.1049852E+000	1.865797952865978E+002
-3.953083940255128E+002	-2.0181503E+000	-2.0176063E+000	5.1052556E+000	1.867797952815454E+002
-4.015023945551084E+002	-2.0201526E+000	-2.0196061E+000	5.0314832E+000	1.869797952764930E+002
-4.029880191604034E+002	-2.0221567E+000	-2.0216062E+000	5.0179076E+000	1.871797952714405E+002
-4.131540765308173E+002	-2.0241482E+000	-2.0236061E+000	4.8992577E+000	1.873797952663881E+002
-4.160264089588673E+002	-2.0261726E+000	-2.0256059E+000	4.8702979E+000	1.875797952613357E+002
-4.205044763439655E+002	-2.0281694E+000	-2.0276058E+000	4.8231816E+000	1.877797952562833E+002
-4.206768084156283E+002	-2.0301678E+000	-2.0296056E+000	4.8259563E+000	1.879797952512308E+002
-4.194745033809104E+002	-2.0321834E+000	-2.0316055E+000	4.8445935E+000	1.881797952461784E+002
-4.203725707601243E+002	-2.0341704E+000	-2.0336053E+000	4.8389702E+000	1.883797952411260E+002
-4.211518334672028E+002	-2.0361824E+000	-2.0356052E+000	4.8347940E+000	1.885797952360736E+002
-4.242490098871094E+002	-2.0381753E+000	-2.0376053E+000	4.8041959E+000	1.887797952310211E+002
-4.231700576274889E+002	-2.0401776E+000	-2.0396054E+000	4.8211765E+000	1.889797952259687E+002
-4.221985381590312E+002	-2.0421689E+000	-2.0416048E+000	4.8369870E+000	1.891796952209188E+002
-4.211027649557236E+002	-2.0441713E+000	-2.0436049E+000	4.8543291E+000	1.893795952158689E+002
-4.214194490385162E+002	-2.0461707E+000	-2.0456047E+000	4.8554254E+000	1.895795952108165E+002
-4.209384677350654E+002	-2.0481620E+000	-2.0476046E+000	4.8657041E+000	1.897795952057641E+002
-4.255307192899727E+002	-2.0501750E+000	-2.0496044E+000	4.8179245E+000	1.899795952007116E+002
-4.248794493642790E+002	-2.0522056E+000	-2.0516043E+000	4.8300891E+000	1.901795951956592E+002
-4.242015868898416E+002	-2.0542107E+000	-2.0536041E+000	4.8425341E+000	1.903795951906068E+002
-4.253370260813881E+002	-2.0562041E+000	-2.0556040E+000	4.8342938E+000	1.905795951855544E+002
-4.260510487372635E+002	-2.0582054E+000	-2.0576041E+000	4.8308892E+000	1.907795951805019E+002
-4.302179487578733E+002	-2.0602114E+000	-2.0596042E+000	4.7887621E+000	1.909795951754495E+002
-4.349012582048008E+002	-2.0622044E+000	-2.0616040E+000	4.7417760E+000	1.911795951703971E+002
-4.393483919243142E+002	-2.0642235E+000	-2.0636036E+000	4.6983752E+000	1.913795951653447E+002
-4.398588462838252E+002	-2.0662298E+000	-2.0656037E+000	4.6974840E+000	1.915795951602922E+002
-4.408337388849590E+002	-2.0682089E+000	-2.0676036E+000	4.6915851E+000	1.917795951552398E+002
-4.423706385510857E+002	-2.0702145E+000	-2.0696032E+000	4.6798191E+000	1.919795951501874E+002
-4.434632935513168E+002	-2.0722244E+000	-2.0716033E+000	4.6728206E+000	1.921795951451350E+002
-4.431814052469354E+002	-2.0742147E+000	-2.0736032E+000	4.6802835E+000	1.923795951400825E+002
-4.421695632458795E+002	-2.0762224E+000	-2.0756032E+000	4.6955342E+000	1.925795951350301E+002
-4.416168503317268E+002	-2.0782208E+000	-2.0776031E+000	4.7059364E+000	1.927794951299802E+002
-4.422197870997913E+002	-2.0802336E+000	-2.0796034E+000	4.7040715E+000	1.929794951249278E+002
-4.512677084042643E+002	-2.0821981E+000	-2.0816028E+000	4.6141086E+000	1.931793951198779E+002
-4.486897386650380E+002	-2.0842135E+000	-2.0836027E+000	4.6451106E+000	1.933793951148255E+002
-4.479930246011463E+002	-2.0862279E+000	-2.0856028E+000	4.6568313E+000	1.935793951097730E+002
-4.478008928623340E+002	-2.0882215E+000	-2.0876024E+000	4.6632814E+000	1.937793951047206E+002
-4.508048282675209E+002	-2.0902290E+000	-2.0896022E+000	4.6366606E+000	1.939793950996682E+002
-4.551474731255003E+002	-2.0922227E+000	-2.0916023E+000	4.5968018E+000	1.941793950946158E+002
-4.576358571950000E+002	-2.0942442E+000	-2.0936019E+000	4.5762243E+000	1.943793950895633E+002
-4.600482207534010E+002	-2.0962358E+000	-2.0956020E+000	4.5565567E+000	1.945793950845109E+002
-4.630585734481983E+002	-2.0982301E+000	-2.0976021E+000	4.5312414E+000	1.947793950794585E+002
-4.615850018871079E+002	-2.1002259E+000	-2.0996017E+000	4.5500307E+000	1.949793950744061E+002
-4.601021098744563E+002	-2.1022182E+000	-2.1016016E+000	4.5690250E+000	1.951793950693536E+002
-4.604013815683029E+002	-2.1042128E+000	-2.1036017E+000	4.5703874E+000	1.953793950643012E+002
-4.615068063541354E+002	-2.1061959E+000	-2.1056018E+000	4.5637374E+000	1.955793950592488E+002
-4.613044216735570E+002	-2.1082129E+000	-2.1076014E+000	4.5701122E+000	1.957793950541964E+002
-4.616024300192475E+002	-2.1102009E+000	-2.1096013E+000	4.5714684E+000	1.959793950491439E+002
-4.608729835406862E+002	-2.1122098E+000	-2.1116002E+000	4.5830626E+000	1.961792950440940E+002
-4.604556804605254E+002	-2.1142006E+000	-2.1136010E+000	4.5915399E+000	1.963792950390416E+002
-4.592988094288821E+002	-2.1162105E+000	-2.1156006E+000	4.6074810E+000	1.965791950339917E+002
-4.576797816823655E+002	-2.1181967E+000	-2.1176007E+000	4.6281195E+000	1.967791950289393E+002
-4.580953762633999E+002	-2.1201921E+000	-2.1196008E+000	4.6282763E+000	1.969791950238869E+002
-4.630796191459862E+002	-2.1222062E+000	-2.1216006E+000	4.5828109E+000	1.971791950188344E+002
-4.623482485228378E+002	-2.1242008E+000	-2.1236005E+000	4.5943742E+000	1.973791950137820E+002
-4.624480449823568E+002	-2.1261961E+000	-2.1256003E+000	4.5976973E+000	1.975791950087296E+002
-4.721406625803911E+002	-2.1282239E+000	-2.1276002E+000	4.5076056E+000	1.977791950036772E+002
-4.723117283369129E+002	-2.1302114E+000	-2.1296003E+000	4.5101810E+000	1.979791949986247E+002
-4.722631037792107E+002	-2.1322205E+000	-2.1315999E+000	4.5148997E+000	1.981791949935723E+002
-4.756322985841548E+002	-2.1342208E+000	-2.1336000E+000	4.4871235E+000	1.983791949885199E+002
-4.772988493177636E+002	-2.1362157E+000	-2.1355999E+000	4.4756355E+000	1.985791949834675E+002
-4.769213754303591E+002	-2.1382098E+000	-2.1375997E+000	4.4833593E+000	1.987791949784150E+002
-4.776536215395081E+002	-2.1402159E+000	-2.1395996E+000	4.4806862E+000	1.989791949733626E+002
-4.764107030751766E+002	-2.1421983E+000	-2.1415997E+000	4.4965367E+000	1.991791949683102E+002
-4.766540661117651E+002	-2.1442306E+000	-2.1435995E+000	4.4985046E+000	1.993791949632578E+002
-4.769765846399487E+002	-2.1462066E+000	-2.1455991E+000	4.4996057E+000	1.995791949582053E+002
-4.770146697049659E+002	-2.1482089E+000	-2.1475992E+000	4.5034442E+000	1.997791949531529E+002
-4.756184944753445E+002	-2.1501985E+000	-2.1495991E+000	4.5208468E+000	1.999790949481030E+002
-4.749115841132898E+002	-2.1522195E+000	-2.1515985E+000	4.5318322E+000	2.001789949430531E+002
-4.804832652431505E+002	-2.1542144E+000	-2.1535988E+000	4.4834328E+000	2.003789949380007E+002
-4.836259398081907E+002	-2.1562138E+000	-2.1555986E+000	4.4584327E+000	2.005789949329483E+002
-4.885353967532556E+002	-2.1582148E+000	-2.1575987E+000	4.4177246E+000	2.007789949278958E+002
-4.910492344075592E+002	-2.1602116E+000	-2.1595986E+000	4.3991752E+000	2.009789949228434E+002
-4.906044831135387E+002	-2.1622033E+000	-2.1615982E+000	4.4072227E+000	2.011789949177910E+002
-4.900499759077247E+002	-2.1642017E+000	-2.1635983E+000	4.4162879E+000	2.013789949127386E+002
-4.886093363080690E+002	-2.1662095E+000	-2.1655982E+000	4.4334183E+000	2.015789949076861E+002
-4.874126970027310E+002	-2.1681962E+000	-2.1675980E+000	4.4483786E+000	2.017789949026337E+002
-4.872222266164756E+002	-2.1702132E+000	-2.1695976E+000	4.4542575E+000	2.019789948975813E+002
-4.902742477641887E+002	-2.1722200E+000	-2.1715977E+000	4.4306221E+000	2.021789948925289E+002
-4.913245395435497E+002	-2.1742218E+000	-2.1735976E+000	4.4252253E+000	2.023789948874764E+002
-4.934312031198806E+002	-2.1762133E+000	-2.1755977E+000	4.4103680E+000	2.025789948824240E+002
-4.935397835556341E+002	-2.1782224E+000	-2.1775975E+000	4.4134688E+000	2.027789948773716E+002
-4.938601864060038E+002	-2.1802106E+000	-2.1795976E+000	4.4146314E+000	2.029789948723192E+002
-4.937163532758777E+002	-2.1822162E+000	-2.1815972E+000	4.4199796E+000	2.031789948672667E+002
-4.953274429044486E+002	-2.1842151E+000	-2.1835971E+000	4.4096389E+000	2.033789948622143E+002
-4.942335870448892E+002	-2.1862049E+000	-2.1855969E+000	4.4234242E+000	2.035788948571644E+002
-5.011034409762924E+002	-2.1882226E+000	-2.1875966E+000	4.3668084E+000	2.037787948521145E+002
-5.064674370175314E+002	-2.1902099E+000	-2.1895967E+000	4.3244829E+000	2.039787948470621E+002
-5.090730276259139E+002	-2.1922224E+000	-2.1915965E+000	4.3063025E+000	2.041787948420097E+002
-5.079669331444638E+002	-2.1942272E+000	-2.1935966E+000	4.3196259E+000	2.043787948369572E+002
-5.072748005665908E+002	-2.1962295E+000	-2.1955967E+000	4.3294668E+000	2.045787948319048E+002
-5.084437441231157E+002	-2.1982329E+000	-2.1975963E+000	4.3234534E+000	2.047787948268524E+002
-5.139807898895542E+002	-2.2005334E+000	-2.1995962E+000	4.2813535E+000	2.049787948218000E+002
-5.124306803420041E+002	-2.2028072E+000	-2.2015963E+000	4.2987418E+000	2.051787948167475E+002
-5.115930628960377E+002	-2.2048066E+000	-2.2035961E+000	4.3096881E+000	2.053787948116951E+002
-5.148601076900281E+002	-2.2067976E+000	-2.2055960E+000	4.2862082E+000	2.055787948066427E+002
-5.152126276444396E+002	-2.2088001E+000	-2.2075956E+000	4.2871623E+000	2.057787948015903E+002
-5.157961389104776E+002	-2.2107937E+000	-2.2095957E+000	4.2861772E+000	2.059787947965378E+002
-5.141084799734126E+002	-2.2127833E+000	-2.2115955E+000	4.3041177E+000	2.061787947914854E+002
-5.147498586745460E+002	-2.2147989E+000	-2.2135954E+000	4.3026705E+000	2.063787947864330E+002
-5.152895967306213E+002	-2.2167790E+000	-2.2155955E+000	4.3020062E+000	2.065787947813806E+002
-5.157583200006629E+002	-2.2187932E+000	-2.2175956E+000	4.3020015E+000	2.067787947763281E+002
-5.174866356311127E+002	-2.2207861E+000	-2.2195954E+000	4.2914848E+000	2.069786947712782E+002
-5.184179864585021E+002	-2.2227862E+000	-2.2215948E+000	4.2876334E+000	2.071785947662283E+002
-5.223681436006736E+002	-2.2247796E+000	-2.2235951E+000	4.2590261E+000	2.073785947611759E+002
-5.217414029785296E+002	-2.2267931E+000	-2.2255948E+000	4.2680016E+000	2.075785947561235E+002
-5.279124681035928E+002	-2.2287719E+000	-2.2275946E+000	4.2218590E+000	2.077785947510711E+002
-5.361598940998520E+002	-2.2308176E+000	-2.2295945E+000	4.1607318E+000	2.079785947460186E+002
-5.379388946654299E+002	-2.2327945E+000	-2.2315946E+000	4.1506472E+000	2.081785947409662E+002
-5.367058649776745E+002	-2.2347994E+000	-2.2335944E+000	4.1639185E+000	2.083785947359138E+002
-5.406057297237367E+002	-2.2368135E+000	-2.2355943E+000	4.1376061E+000	2.085785947308614E+002
-5.390700549257590E+002	-2.2388046E+000	-2.2375941E+000	4.1530867E+000	2.087785947258089E+002
-5.361966012664930E+002	-2.2407928E+000	-2.2395942E+000	4.1790504E+000	2.089785947207565E+002
-5.345884445778634E+002	-2.2427726E+000	-2.2415941E+000	4.1953254E+000	2.091785947157041E+002
-5.349771587951363E+002	-2.2448075E+000	-2.2435939E+000	4.1960812E+000	2.093785947106517E+002
-5.370337560095752E+002	-2.2467718E+000	-2.2455935E+000	4.1836696E+000	2.095785947055992E+002
-5.360365473559114E+002	-2.2487884E+000	-2.2475936E+000	4.1952147E+000	2.097785947005468E+002
-5.364968831847314E+002	-2.2507968E+000	-2.2495933E+000	4.1953588E+000	2.099785946954944E+002
-5.350456700443956E+002	-2.2527812E+000	-2.2515934E+000	4.2104464E+000	2.101785946904420E+002
-5.346227513616986E+002	-2.2548046E+000	-2.2535937E+000	4.2175622E+000	2.103785946853895E+002
-5.409799718575878E+002	-2.2568111E+000	-2.2555935E+000	4.1717091E+000	2.105784946803396E+002
-5.393554051645044E+002	-2.2588160E+000	-2.2575932E+000	4.1879916E+000	2.107783946752897E+002
-5.415237388783830E+002	-2.2608089E+000	-2.2595930E+000	4.1749029E+000	2.109783946702373E+002
-5.507319950527624E+002	-2.2628129E+000	-2.2615931E+000	4.1087370E+000	2.111783946651849E+002
-5.508023251297782E+002	-2.2648160E+000	-2.2635927E+000	4.1118493E+000	2.113783946601325E+002
-5.493883679837614E+002	-2.2668242E+000	-2.2655926E+000	4.1260872E+000	2.115783946550800E+002
-5.498001192529746E+002	-2.2688158E+000	-2.2675924E+000	4.1266193E+000	2.117783946500276E+002
-5.534467736371789E+002	-2.2708275E+000	-2.2695925E+000	4.1030641E+000	2.119783946449752E+002
-5.555430441962371E+002	-2.2728260E+000	-2.2715924E+000	4.0911789E+000	2.121783946399228E+002
-5.564293963806440E+002	-2.2748075E+000	-2.2735920E+000	4.0882230E+000	2.123783946348703E+002
-5.558030400351832E+002	-2.2768047E+000	-2.2755921E+000	4.0964236E+000	2.125783946298179E+002
-5.541653448610894E+002	-2.2788012E+000	-2.2775919E+000	4.1121321E+000	2.127783946247655E+002
-5.524604380082119E+002	-2.2799206E+000	-2.2786913E+000	4.1268487E+000	2.128883946219867E+002
-5.525232313001488E+002	-2.2801039E+000	-2.2788913E+000	4.1267114E+000	2.128957946217997E+002