EC-Lab ASCII FILE
Nb header lines : 61                          

Linear Sweep Voltammetry

Run on channel : 1 (SN 1340)
User : 
Electrode connection : standard
Potential control : Ewe
Ewe ctrl range : min = -5.00 V, max = 5.00 V
Ewe,I filtering : 50 kHz
Channel : Grounded
Acquisition started on : 02/25/2026 11:44:46.515
Technique started on : 02/25/2026 11:44:49.881
Loaded Setting File :  NONE
Saved on :
	File : PtPdNiCoCr_nomagnet_2_25_02_LSV_C01.mpr
	Directory : C:\Users\volt\Documents\Platalytix\
	Host : 127.0.0.1
Device : SP-200 (SN 0262)
Address : USB
EC-LAB for windows v11.60 (software)
Internet server v11.60 (firmware)
Command interpretor v11.60 (firmware)
Electrode material : PtPdNiCoCr
Initial state : 
Electrolyte : KOH (1M)
Comments : 
Cable : standard
Reference electrode : Hg/HgO (0.140 V)
Electrode surface area : 1.000 cm˛
Characteristic mass : 0.001 g
Equivalent Weight : 0.000 g/eq.
Density : 0.000 g/cm3
Volume (V) : 0.001 cmł
Cycle Definition : Charge/Discharge alternance
tR (h:m:s)          0:00:5.0000         
dER/dt (mV/h)       0.0                 
dER (mV)            0                   
dtR (s)             0.0000              
dE/dt               10.000              
dE/dt unit          mV/s                
Ei (V)              -0.200              
vs.                 Ref                 
EL (V)              -2.500              
vs.                 Ref                 
record              <I>                 
dI                  0.000               
unit dI             µA                  
tI (s)              0.0000              
step percent        50                  
N                   10                  
E range min (V)     -5.000              
E range max (V)     5.000               
I Range             Auto                
I Range min         Unset               
I Range max         Unset               
I Range init        Unset               
Bandwidth           8                   

Rwe/Ohm	time/s	Ewe/V	<I>/mA	Pwe/W	control/V	error	
0.0000000E+000	3.366400159866316E+000	-1.6238104E-001	0.000000000000000E+000	0.0000000E+000	0.0000000E+000	0
0.0000000E+000	8.366200033560744E+000	-6.9187127E-002	0.000000000000000E+000	0.0000000E+000	-1.9980298E-001	0
1.0431224E+003	8.506200030024047E+000	-2.0110364E-001	1.927900566039855E-001	-3.8770784E-005	-2.0110276E-001	0
3.4823137E+003	8.626200026992592E+000	-2.0230222E-001	-5.809419525615073E-002	1.1752584E-005	-2.0230281E-001	0
2.2636060E+003	8.836200021687546E+000	-2.0439433E-001	-9.029589030551688E-002	1.8455967E-005	-2.0440280E-001	0
2.2834805E+003	9.036200016635121E+000	-2.0640138E-001	-9.038894096138095E-002	1.8656401E-005	-2.0640282E-001	0
2.3603328E+003	9.236200011582696E+000	-2.0843963E-001	-8.830942722700530E-002	1.8407185E-005	-2.0840280E-001	0
2.4479502E+003	9.436200006530271E+000	-2.1042803E-001	-8.596091517912452E-002	1.8088585E-005	-2.1040282E-001	0
2.5348064E+003	9.636200001477846E+000	-2.1242514E-001	-8.380330160055394E-002	1.7801929E-005	-2.1240282E-001	0
2.6194751E+003	9.836199996425421E+000	-2.1442582E-001	-8.185831401993415E-002	1.7552537E-005	-2.1440279E-001	0
2.7025137E+003	1.003619999137300E+001	-2.1642587E-001	-8.008316859429740E-002	1.7332070E-005	-2.1640281E-001	0
2.7819778E+003	1.023619998632057E+001	-2.1841553E-001	-7.851087897403508E-002	1.7147995E-005	-2.1840282E-001	0
2.8605364E+003	1.043619998126815E+001	-2.2043937E-001	-7.706224929452654E-002	1.6987555E-005	-2.2040281E-001	0
2.9359551E+003	1.063619997621572E+001	-2.2242819E-001	-7.576008055141598E-002	1.6851178E-005	-2.2240281E-001	0
3.0128547E+003	1.083619997116330E+001	-2.2442125E-001	-7.448790876602418E-002	1.6716669E-005	-2.2440283E-001	0
3.0880269E+003	1.103619996611087E+001	-2.2642979E-001	-7.332507406768995E-002	1.6602980E-005	-2.2640280E-001	0
3.1597505E+003	1.123619996105845E+001	-2.2841178E-001	-7.228791892165309E-002	1.6511412E-005	-2.2840281E-001	0
3.2311963E+003	1.143619995600602E+001	-2.3041357E-001	-7.130906063653636E-002	1.6430575E-005	-2.3040283E-001	0
3.3040483E+003	1.163619995095360E+001	-2.3243825E-001	-7.034953041245029E-002	1.6351922E-005	-2.3240282E-001	0
3.3724893E+003	1.183619994590117E+001	-2.3441753E-001	-6.950875333787013E-002	1.6294071E-005	-2.3440282E-001	0
3.4458110E+003	1.203619994084875E+001	-2.3642373E-001	-6.861192804852023E-002	1.6221487E-005	-2.3640282E-001	0
3.5131628E+003	1.223619993579632E+001	-2.3841192E-001	-6.786247497517428E-002	1.6179223E-005	-2.3840281E-001	0
3.5812659E+003	1.243619993074390E+001	-2.4041493E-001	-6.713127259422685E-002	1.6139360E-005	-2.4040282E-001	0
3.6549155E+003	1.263619992569147E+001	-2.4240693E-001	-6.632354055835421E-002	1.6077287E-005	-2.4240282E-001	0
3.7196863E+003	1.283619992063905E+001	-2.4440464E-001	-6.570571600913550E-002	1.6058782E-005	-2.4440283E-001	0
3.7901780E+003	1.303619991558662E+001	-2.4640810E-001	-6.501227683998040E-002	1.6019552E-005	-2.4640280E-001	0
3.8576929E+003	1.323619991053420E+001	-2.4841812E-001	-6.439551708178670E-002	1.5997013E-005	-2.4840283E-001	0
3.9239607E+003	1.343619990548177E+001	-2.5041884E-001	-6.381787555059959E-002	1.5981199E-005	-2.5040281E-001	0
3.9887522E+003	1.363619990042935E+001	-2.5242186E-001	-6.328341321250944E-002	1.5974116E-005	-2.5240281E-001	0
4.0566035E+003	1.383619989537692E+001	-2.5441727E-001	-6.271681984487398E-002	1.5956242E-005	-2.5440282E-001	0
4.1223721E+003	1.403619989032450E+001	-2.5641310E-001	-6.220037669741674E-002	1.5948992E-005	-2.5640279E-001	0
4.1890884E+003	1.423619988527207E+001	-2.5841972E-001	-6.168876954062910E-002	1.5941594E-005	-2.5840279E-001	0
4.2550078E+003	1.443619988021965E+001	-2.6039115E-001	-6.119639535968857E-002	1.5935000E-005	-2.6040280E-001	0
4.3215547E+003	1.463619987516722E+001	-2.6239014E-001	-6.071660434246451E-002	1.5931439E-005	-2.6240280E-001	0
4.3844517E+003	1.483619987011480E+001	-2.6440951E-001	-6.030617306714292E-002	1.5945527E-005	-2.6440281E-001	0
4.4467280E+003	1.503619986506237E+001	-2.6639155E-001	-5.990731712354679E-002	1.5958803E-005	-2.6640281E-001	0
4.5120591E+003	1.523619986000995E+001	-2.6839563E-001	-5.948406574157938E-002	1.5965263E-005	-2.6840281E-001	0
4.5764595E+003	1.543619985495752E+001	-2.7039909E-001	-5.908477551128533E-002	1.5976470E-005	-2.7040282E-001	0
4.6374541E+003	1.563619984990510E+001	-2.7239278E-001	-5.873757082010167E-002	1.5999691E-005	-2.7240282E-001	0
4.7010117E+003	1.583619984485267E+001	-2.7438012E-001	-5.836618341961693E-002	1.6014521E-005	-2.7440280E-001	0
4.7610317E+003	1.603619983980025E+001	-2.7640012E-001	-5.805466901363088E-002	1.6046317E-005	-2.7640283E-001	0
4.8208818E+003	1.623619983474782E+001	-2.7838808E-001	-5.774629922412661E-002	1.6075881E-005	-2.7840281E-001	0
4.8810845E+003	1.643619982969540E+001	-2.8038496E-001	-5.744316575303254E-002	1.6106200E-005	-2.8040281E-001	0
4.9406953E+003	1.663619982464297E+001	-2.8239799E-001	-5.715754066272960E-002	1.6141174E-005	-2.8240281E-001	0
4.9988125E+003	1.683619981959055E+001	-2.8439781E-001	-5.689307447214553E-002	1.6180265E-005	-2.8440282E-001	0
5.0608149E+003	1.703619981453812E+001	-2.8638765E-001	-5.658923726805531E-002	1.6206459E-005	-2.8640282E-001	0
5.1185259E+003	1.723619980948570E+001	-2.8839943E-001	-5.634423549595335E-002	1.6249645E-005	-2.8840283E-001	0
5.1744272E+003	1.743619980443327E+001	-2.9040712E-001	-5.612353114527391E-002	1.6298673E-005	-2.9040280E-001	0
5.2323784E+003	1.763619979938085E+001	-2.9239315E-001	-5.588149803356912E-002	1.6339367E-005	-2.9240280E-001	0
5.2868584E+003	1.783619979432842E+001	-2.9439706E-001	-5.568468692456974E-002	1.6393407E-005	-2.9440281E-001	0
5.3446450E+003	1.803619978927600E+001	-2.9637909E-001	-5.545346566545617E-002	1.6435248E-005	-2.9640281E-001	0
5.3973369E+003	1.823619978422357E+001	-2.9839486E-001	-5.528557321263697E-002	1.6496931E-005	-2.9840279E-001	0
5.4510947E+003	1.843619977917115E+001	-3.0038470E-001	-5.510538760224210E-002	1.6552814E-005	-3.0040282E-001	0
5.5022920E+003	1.863619977411872E+001	-3.0239028E-001	-5.495714623630987E-002	1.6618507E-005	-3.0240282E-001	0
5.5563315E+003	1.883619976906630E+001	-3.0438143E-001	-5.478100743790981E-002	1.6674321E-005	-3.0440280E-001	0
5.6101284E+003	1.903619976401387E+001	-3.0638954E-001	-5.461364011480851E-002	1.6733047E-005	-3.0640283E-001	0
5.6631377E+003	1.923619975896145E+001	-3.0839518E-001	-5.445659000800307E-002	1.6794149E-005	-3.0840281E-001	0
5.7142788E+003	1.943619975390902E+001	-3.1040540E-001	-5.432101164980363E-002	1.6861535E-005	-3.1040281E-001	0
5.7618135E+003	1.963619974885660E+001	-3.1239167E-001	-5.421759443972118E-002	1.6937125E-005	-3.1240281E-001	0
5.8097695E+003	1.983619974380417E+001	-3.1439364E-001	-5.411464867737470E-002	1.7013301E-005	-3.1440282E-001	0
5.8633403E+003	2.003619973875175E+001	-3.1639791E-001	-5.396205585190170E-002	1.7073482E-005	-3.1640279E-001	0
5.9129199E+003	2.023619973369932E+001	-3.1838930E-001	-5.384637247887181E-002	1.7144108E-005	-3.1840283E-001	0
5.9581563E+003	2.043619972864690E+001	-3.2037917E-001	-5.377152992218154E-002	1.7227278E-005	-3.2040280E-001	0
6.0035605E+003	2.063619972359447E+001	-3.2238558E-001	-5.369906315565220E-002	1.7311804E-005	-3.2240281E-001	0
6.0520337E+003	2.083619971854205E+001	-3.2439348E-001	-5.360074103609269E-002	1.7387731E-005	-3.2440281E-001	0
6.0991948E+003	2.103619971348962E+001	-3.2637700E-001	-5.351149061242788E-002	1.7464919E-005	-3.2640281E-001	0
6.1495942E+003	2.123619970843720E+001	-3.2840616E-001	-5.340289837910950E-002	1.7537841E-005	-3.2840282E-001	0
6.1904409E+003	2.143619970338477E+001	-3.3041042E-001	-5.337429353217593E-002	1.7635422E-005	-3.3040279E-001	0
6.2390439E+003	2.163619969833235E+001	-3.3239797E-001	-5.327706680054478E-002	1.7709188E-005	-3.3240283E-001	0
6.2855918E+003	2.183619969327992E+001	-3.3439764E-001	-5.320066193334091E-002	1.7790177E-005	-3.3440280E-001	0
6.3279990E+003	2.203619968822750E+001	-3.3642465E-001	-5.316446079606463E-002	1.7885835E-005	-3.3640283E-001	0
6.3725132E+003	2.223619968317507E+001	-3.3840728E-001	-5.310420989261644E-002	1.7970851E-005	-3.3840281E-001	0
6.4168442E+003	2.243619967812265E+001	-3.4040692E-001	-5.304896254029101E-002	1.8058234E-005	-3.4040281E-001	0
6.4649707E+003	2.263619967307022E+001	-3.4239659E-001	-5.296181571509384E-002	1.8133946E-005	-3.4240282E-001	0
6.5114009E+003	2.283619966801780E+001	-3.4440896E-001	-5.289321946658110E-002	1.8216899E-005	-3.4440282E-001	0
6.5426475E+003	2.303619966296537E+001	-3.4641385E-001	-5.294704632654079E-002	1.8341590E-005	-3.4640282E-001	0
6.5880532E+003	2.323619965791295E+001	-3.4840652E-001	-5.288459476117313E-002	1.8425339E-005	-3.4840283E-001	0
6.6339067E+003	2.343619965286052E+001	-3.5041529E-001	-5.282186079546469E-002	1.8509587E-005	-3.5040283E-001	0
6.6746230E+003	2.363619964780810E+001	-3.5240901E-001	-5.279833812883247E-002	1.8606610E-005	-3.5240281E-001	0
6.7172715E+003	2.383619964275567E+001	-3.5439357E-001	-5.275856061572481E-002	1.8697294E-005	-3.5440284E-001	0
6.7592446E+003	2.403619963770325E+001	-3.5641333E-001	-5.272975894611917E-002	1.8793589E-005	-3.5640281E-001	0
6.7959507E+003	2.423619963265082E+001	-3.5841319E-001	-5.273922852477020E-002	1.8902436E-005	-3.5840279E-001	0
6.8421191E+003	2.443619962759840E+001	-3.6040843E-001	-5.267497234927088E-002	1.8984503E-005	-3.6040282E-001	0
6.8800366E+003	2.463619962254597E+001	-3.6237532E-001	-5.267055010868660E-002	1.9086507E-005	-3.6240283E-001	0
6.9244175E+003	2.483619961749355E+001	-3.6439472E-001	-5.262460496673643E-002	1.9176128E-005	-3.6440280E-001	0
6.9625181E+003	2.503619961244112E+001	-3.6638162E-001	-5.262199931887834E-002	1.9279732E-005	-3.6640283E-001	0
7.0028945E+003	2.523619960738870E+001	-3.6840567E-001	-5.260762888114562E-002	1.9380948E-005	-3.6840281E-001	0
7.0360840E+003	2.543619960233627E+001	-3.7041354E-001	-5.264484520332109E-002	1.9500363E-005	-3.7040284E-001	0
7.0821963E+003	2.563619959728385E+001	-3.7240535E-001	-5.258331447839737E-002	1.9582307E-005	-3.7240282E-001	0
7.1243154E+003	2.583619959223142E+001	-3.7441003E-001	-5.255382656871588E-002	1.9676680E-005	-3.7440285E-001	0
7.1600615E+003	2.603619958717900E+001	-3.7640333E-001	-5.256984683119031E-002	1.9787465E-005	-3.7640283E-001	0
7.1987778E+003	2.623619958212657E+001	-3.7839684E-001	-5.256403753821171E-002	1.9890065E-005	-3.7840280E-001	0
7.2345098E+003	2.643619957707415E+001	-3.8040560E-001	-5.258208636380313E-002	2.0002521E-005	-3.8040280E-001	0
7.2785054E+003	2.663619957202172E+001	-3.8237679E-001	-5.253506869989991E-002	2.0088191E-005	-3.8240281E-001	0
7.3144341E+003	2.683619956696930E+001	-3.8440272E-001	-5.255399354682855E-002	2.0201898E-005	-3.8440284E-001	0
7.3443149E+003	2.703619956191687E+001	-3.8640600E-001	-5.261294196556210E-002	2.0329957E-005	-3.8640285E-001	0
7.3835947E+003	2.723619955686445E+001	-3.8841093E-001	-5.260458309889737E-002	2.0432195E-005	-3.8840282E-001	0
7.4223521E+003	2.743619955181202E+001	-3.9040121E-001	-5.259804589126904E-002	2.0534340E-005	-3.9040279E-001	0
7.4621934E+003	2.763619954675960E+001	-3.9240623E-001	-5.258590916579253E-002	2.0635038E-005	-3.9240286E-001	0
7.5001665E+003	2.783619954170717E+001	-3.9440328E-001	-5.258593492235253E-002	2.0740064E-005	-3.9440286E-001	0
7.5323525E+003	2.803619953665475E+001	-3.9639527E-001	-5.262569088991453E-002	2.0860574E-005	-3.9640284E-001	0
7.5717275E+003	2.823619953160232E+001	-3.9839616E-001	-5.261628373732991E-002	2.0962125E-005	-3.9840281E-001	0
7.6059067E+003	2.843619952654990E+001	-4.0039834E-001	-5.264307845694310E-002	2.1078202E-005	-4.0040284E-001	0
7.6413115E+003	2.863619952149747E+001	-4.0240714E-001	-5.266205196072429E-002	2.1191585E-005	-4.0240282E-001	0
7.6788438E+003	2.883619951644505E+001	-4.0441203E-001	-5.266574518586131E-002	2.1298662E-005	-4.0440285E-001	0
7.7162222E+003	2.903619951139262E+001	-4.0640321E-001	-5.266867809804343E-002	2.1404720E-005	-4.0640283E-001	0
7.7479673E+003	2.923619950634020E+001	-4.0841624E-001	-5.271269608966889E-002	2.1528722E-005	-4.0840286E-001	0
7.7885439E+003	2.943619950128777E+001	-4.1040677E-001	-5.269364407180466E-002	2.1625829E-005	-4.1040280E-001	0
7.8194004E+003	2.963619949623535E+001	-4.1243693E-001	-5.274533877432203E-002	2.1754126E-005	-4.1240284E-001	0
7.8520352E+003	2.983619949118292E+001	-4.1442975E-001	-5.277991427167783E-002	2.1873568E-005	-4.1440287E-001	0
7.8910576E+003	3.003619948613050E+001	-4.1644701E-001	-5.277455001995568E-002	2.1977803E-005	-4.1640285E-001	0
7.9232451E+003	3.023619948107807E+001	-4.1844922E-001	-5.281285946722012E-002	2.2099501E-005	-4.1840282E-001	0
7.9567495E+003	3.043619947602565E+001	-4.2044500E-001	-5.284130018069266E-002	2.2216860E-005	-4.2040285E-001	0
7.9908730E+003	3.063619947097322E+001	-4.2245951E-001	-5.286775520514887E-002	2.2334487E-005	-4.2240283E-001	0
8.0268164E+003	3.083619946592080E+001	-4.2445320E-001	-5.287939484776016E-002	2.2444829E-005	-4.2440283E-001	0
8.0583950E+003	3.103619946086837E+001	-4.2646304E-001	-5.292158385225587E-002	2.2569100E-005	-4.2640284E-001	0
8.0935415E+003	3.123619945581595E+001	-4.2844418E-001	-5.293655187966473E-002	2.2680357E-005	-4.2840284E-001	0
8.1238887E+003	3.143619945076352E+001	-4.3044105E-001	-5.298460588279413E-002	2.2806749E-005	-4.3040282E-001	0
8.1644736E+003	3.163619944571110E+001	-4.3244132E-001	-5.296622349061264E-002	2.2904784E-005	-4.3240285E-001	0
8.1878711E+003	3.183619944065867E+001	-4.3445501E-001	-5.306080174780203E-002	2.3052531E-005	-4.3440282E-001	0
8.2283037E+003	3.203619943560625E+001	-4.3643150E-001	-5.304027380012047E-002	2.3148446E-005	-4.3640286E-001	0
8.2541221E+003	3.223619943055382E+001	-4.3844277E-001	-5.311803926941849E-002	2.3289220E-005	-4.3840283E-001	0
8.2877832E+003	3.243619942550140E+001	-4.4045368E-001	-5.314492936142612E-002	2.3407880E-005	-4.4040281E-001	0
8.3228721E+003	3.263619942044897E+001	-4.4244930E-001	-5.316065088212241E-002	2.3520894E-005	-4.4240284E-001	0
8.3521973E+003	3.283619941539655E+001	-4.4445953E-001	-5.321468262724127E-002	2.3651774E-005	-4.4440284E-001	0
8.3921699E+003	3.303619941034412E+001	-4.4645134E-001	-5.319855768917758E-002	2.3750566E-005	-4.4640285E-001	0
8.4158887E+003	3.323619940529170E+001	-4.4845054E-001	-5.328617485444953E-002	2.3896213E-005	-4.4840285E-001	0
8.4526084E+003	3.343619940023927E+001	-4.5045570E-001	-5.329191820936741E-002	2.4005649E-005	-4.5040286E-001	0
8.4780303E+003	3.363619939518685E+001	-4.5245683E-001	-5.336815715754772E-002	2.4146788E-005	-4.5240280E-001	0
8.5092451E+003	3.383619939013442E+001	-4.5443526E-001	-5.340488728604664E-002	2.4269064E-005	-4.5440283E-001	0
8.5409785E+003	3.403619938508200E+001	-4.5644376E-001	-5.344162367087901E-002	2.4393095E-005	-4.5640287E-001	0
8.5708018E+003	3.423619938002958E+001	-4.5845762E-001	-5.349063109173573E-002	2.4523188E-005	-4.5840284E-001	0
8.5975449E+003	3.443619937497715E+001	-4.6044198E-001	-5.355505514657644E-002	2.4658995E-005	-4.6040282E-001	0
8.6337305E+003	3.463619936992473E+001	-4.6245882E-001	-5.356419642874022E-002	2.4771234E-005	-4.6240285E-001	0
8.6636387E+003	3.483619936487230E+001	-4.6443427E-001	-5.360729937428965E-002	2.4897066E-005	-4.6440282E-001	0
8.6993164E+003	3.503619935981988E+001	-4.6642774E-001	-5.361659582250256E-002	2.5008268E-005	-4.6640283E-001	0
8.7279453E+003	3.523619935476745E+001	-4.6842164E-001	-5.366917955002781E-002	2.5139805E-005	-4.6840286E-001	0
8.7517861E+003	3.543619934971503E+001	-4.7044417E-001	-5.375407788851838E-002	2.5288293E-005	-4.7040287E-001	0
8.7807627E+003	3.563619934466260E+001	-4.7244024E-001	-5.380400789050543E-002	2.5419178E-005	-4.7240281E-001	0
8.8041338E+003	3.583619933961018E+001	-4.7443306E-001	-5.388753397322665E-002	2.5566027E-005	-4.7440284E-001	0
8.8372930E+003	3.603619933455775E+001	-4.7644228E-001	-5.391269734566451E-002	2.5686288E-005	-4.7640288E-001	0
8.8699297E+003	3.623619932950533E+001	-4.7842321E-001	-5.393765657420047E-002	2.5805026E-005	-4.7840282E-001	0
8.8968535E+003	3.643619932445290E+001	-4.8043114E-001	-5.400011770515933E-002	2.5943338E-005	-4.8040283E-001	0
8.9249883E+003	3.663619931940048E+001	-4.8242354E-001	-5.405312907605386E-002	2.6076503E-005	-4.8240286E-001	0
8.9509219E+003	3.683619931434805E+001	-4.8441848E-001	-5.411939299665380E-002	2.6216434E-005	-4.8440289E-001	0
8.9722988E+003	3.703619930929563E+001	-4.8642662E-001	-5.421426885469879E-002	2.6371265E-005	-4.8640284E-001	0
9.0046826E+003	3.723619930424320E+001	-4.8842865E-001	-5.424162594848636E-002	2.6493164E-005	-4.8840281E-001	0
9.0319189E+003	3.743619929919078E+001	-4.9045455E-001	-5.430236436340033E-002	2.6632842E-005	-4.9040285E-001	0
9.0506445E+003	3.763619929413835E+001	-4.9245337E-001	-5.441086133466833E-002	2.6794813E-005	-4.9240282E-001	0
9.0850381E+003	3.783619928908593E+001	-4.9443874E-001	-5.442340849252525E-002	2.6909041E-005	-4.9440286E-001	0
9.1031025E+003	3.803619928403350E+001	-4.9644774E-001	-5.453610547571164E-002	2.7074326E-005	-4.9640289E-001	0
9.1347773E+003	3.823619927898108E+001	-4.9841753E-001	-5.456263702172715E-002	2.7194974E-005	-4.9840286E-001	0
9.1543789E+003	3.843619927392865E+001	-5.0043815E-001	-5.466653005369926E-002	2.7357217E-005	-5.0040287E-001	0
9.1810537E+003	3.863619926887623E+001	-5.0243348E-001	-5.472503329707468E-002	2.7495689E-005	-5.0240284E-001	0
9.2050225E+003	3.883619926382380E+001	-5.0445032E-001	-5.480163954166689E-002	2.7644704E-005	-5.0440282E-001	0
9.2284170E+003	3.903619925877138E+001	-5.0643939E-001	-5.487825014457420E-002	2.7792508E-005	-5.0640285E-001	0
9.2596973E+003	3.923619925371895E+001	-5.0843918E-001	-5.490883456251631E-002	2.7917804E-005	-5.0840282E-001	0
9.2750918E+003	3.943619924866653E+001	-5.1045007E-001	-5.503450217815176E-002	2.8092365E-005	-5.1040286E-001	0
9.3090479E+003	3.963619924361410E+001	-5.1242679E-001	-5.504610250353414E-002	2.8207098E-005	-5.1240283E-001	0
9.3261943E+003	3.983619923856168E+001	-5.1444978E-001	-5.516181007986376E-002	2.8377981E-005	-5.1440281E-001	0
9.3505215E+003	4.003619923350925E+001	-5.1645029E-001	-5.523224502681512E-002	2.8524708E-005	-5.1640284E-001	0
9.3767422E+003	4.023619922845683E+001	-5.1844269E-001	-5.529027964546007E-002	2.8664841E-005	-5.1840281E-001	0
9.3956523E+003	4.043619922340440E+001	-5.2044868E-001	-5.539250210647662E-002	2.8828956E-005	-5.2040285E-001	0
9.4234570E+003	4.063619921835198E+001	-5.2244091E-001	-5.544047378523115E-002	2.8964372E-005	-5.2240288E-001	0
9.4401387E+003	4.083619921329955E+001	-5.2443033E-001	-5.555324304147774E-002	2.9133806E-005	-5.2440286E-001	0
9.4679404E+003	4.103619920824713E+001	-5.2643406E-001	-5.560174824030084E-002	2.9270654E-005	-5.2640289E-001	0
9.4987402E+003	4.123619920319470E+001	-5.2842426E-001	-5.563098433123415E-002	2.9396762E-005	-5.2840281E-001	0
9.5097725E+003	4.143619919814228E+001	-5.3042799E-001	-5.577714974219039E-002	2.9585761E-005	-5.3040284E-001	0
9.5373857E+003	4.163619919308985E+001	-5.3242743E-001	-5.582530122480511E-002	2.9722922E-005	-5.3240287E-001	0
9.5483896E+003	4.183619918803743E+001	-5.3443408E-001	-5.597111990816814E-002	2.9912873E-005	-5.3440279E-001	0
9.5764619E+003	4.203619918298500E+001	-5.3643519E-001	-5.601601015941143E-002	3.0048959E-005	-5.3640288E-001	0
9.5925586E+003	4.223619917793258E+001	-5.3842551E-001	-5.612949869234374E-002	3.0221554E-005	-5.3840292E-001	0
9.6159385E+003	4.243619917288015E+001	-5.4043657E-001	-5.620216569797769E-002	3.0373705E-005	-5.4040289E-001	0
9.6345938E+003	4.263619916782773E+001	-5.4244816E-001	-5.630213358015040E-002	3.0540989E-005	-5.4240280E-001	0
9.6596338E+003	4.283619916277530E+001	-5.4444629E-001	-5.636303655722974E-002	3.0686646E-005	-5.4440284E-001	0
9.6832207E+003	4.303619915772288E+001	-5.4643101E-001	-5.643071013855461E-002	3.0835490E-005	-5.4640293E-001	0
9.7001611E+003	4.323619915267045E+001	-5.4843789E-001	-5.653905026697026E-002	3.1008156E-005	-5.4840279E-001	0
9.7198564E+003	4.343619914761803E+001	-5.5044413E-001	-5.663088981913256E-002	3.1172141E-005	-5.5040282E-001	0
9.7395723E+003	4.363619914256560E+001	-5.5243415E-001	-5.672057698187238E-002	3.1334384E-005	-5.5240291E-001	0
9.7691113E+003	4.383619913751318E+001	-5.5443323E-001	-5.675369895183702E-002	3.1466137E-005	-5.5440283E-001	0
9.7830420E+003	4.403619913246075E+001	-5.5643708E-001	-5.687771595923674E-002	3.1648869E-005	-5.5640286E-001	0
9.8000742E+003	4.423619912740833E+001	-5.5843711E-001	-5.698294764122780E-002	3.1821393E-005	-5.5840284E-001	0
9.8183457E+003	4.443619912235590E+001	-5.6043631E-001	-5.708052407867781E-002	3.1989999E-005	-5.6040293E-001	0
9.8377539E+003	4.463619911730348E+001	-5.6242645E-001	-5.717020857732807E-002	3.2154036E-005	-5.6240284E-001	0
9.8564863E+003	4.483619911225105E+001	-5.6443948E-001	-5.726579051462699E-002	3.2323074E-005	-5.6440282E-001	0
9.8782012E+003	4.503619910719863E+001	-5.6643146E-001	-5.734156013008146E-002	3.2480064E-005	-5.6640291E-001	0
9.9051455E+003	4.523619910214620E+001	-5.6841195E-001	-5.738552109615025E-002	3.2618616E-005	-5.6840277E-001	0
9.9159854E+003	4.543619909709378E+001	-5.7041156E-001	-5.752444770419463E-002	3.2812612E-005	-5.7040286E-001	0
9.9347910E+003	4.563619909204135E+001	-5.7241595E-001	-5.761731257018032E-002	3.2981068E-005	-5.7240289E-001	0
9.9556475E+003	4.583619908698893E+001	-5.7443428E-001	-5.769933963483820E-002	3.3144479E-005	-5.7440287E-001	0
9.9710166E+003	4.603619908193650E+001	-5.7642514E-001	-5.781006846838771E-002	3.3323176E-005	-5.7640284E-001	0
9.9906699E+003	4.623619907688408E+001	-5.7843369E-001	-5.789738514221969E-002	3.3489800E-005	-5.7840282E-001	0
1.0011614E+004	4.643619907183165E+001	-5.8043319E-001	-5.797598308930074E-002	3.3651184E-005	-5.8040291E-001	0
1.0018136E+004	4.663619906677923E+001	-5.8243024E-001	-5.813758661695978E-002	3.3861088E-005	-5.8240283E-001	0
1.0038563E+004	4.683619906172680E+001	-5.8442497E-001	-5.821798891547147E-002	3.4024048E-005	-5.8440280E-001	0
1.0056792E+004	4.703619905667438E+001	-5.8641332E-001	-5.831017495658852E-002	3.4193865E-005	-5.8640289E-001	0
1.0079012E+004	4.723619905162195E+001	-5.8843344E-001	-5.838205543179875E-002	3.4353954E-005	-5.8840281E-001	0
1.0085207E+004	4.743619904656953E+001	-5.9042978E-001	-5.854414187713841E-002	3.4566205E-005	-5.9040284E-001	0
1.0106521E+004	4.763619904151710E+001	-5.9243500E-001	-5.861907938755029E-002	3.4727993E-005	-5.9240282E-001	0
1.0128923E+004	4.783619903646468E+001	-5.9444207E-001	-5.868758950086794E-002	3.4886372E-005	-5.9440285E-001	0
1.0145186E+004	4.803619903141225E+001	-5.9644216E-001	-5.879066217228218E-002	3.5065230E-005	-5.9640282E-001	0
1.0156928E+004	4.823619902635983E+001	-5.9845597E-001	-5.892096214680609E-002	3.5261601E-005	-5.9840286E-001	0
1.0167695E+004	4.843619902130740E+001	-6.0042226E-001	-5.905195440708422E-002	3.5456109E-005	-6.0040289E-001	0
1.0189995E+004	4.863619901625498E+001	-6.0242468E-001	-5.911923007555986E-002	3.5614885E-005	-6.0240287E-001	0
1.0207217E+004	4.883619901120255E+001	-6.0441715E-001	-5.921468687457043E-002	3.5790374E-005	-6.0440284E-001	0
1.0224534E+004	4.903619900615013E+001	-6.0644227E-001	-5.931245930104294E-002	3.5969584E-005	-6.0640287E-001	0
1.0236272E+004	4.923619900109770E+001	-6.0843313E-001	-5.943893642922926E-002	3.6164616E-005	-6.0840285E-001	0
1.0244229E+004	4.943619899604528E+001	-6.1044383E-001	-5.958904030779261E-002	3.6375761E-005	-6.1040288E-001	0
1.0262269E+004	4.963619899099285E+001	-6.1245513E-001	-5.968028610116061E-002	3.6551497E-005	-6.1240286E-001	0
1.0279353E+004	4.983619898594043E+001	-6.1442971E-001	-5.977319056736297E-002	3.6726426E-005	-6.1440289E-001	0
1.0288484E+004	5.003619898088800E+001	-6.1646116E-001	-5.991758910153488E-002	3.6936868E-005	-6.1640286E-001	0
1.0299579E+004	5.023619897583558E+001	-6.1845493E-001	-6.004662269276562E-002	3.7136131E-005	-6.1840284E-001	0
1.0314851E+004	5.043619897078315E+001	-6.2044519E-001	-6.015067430827648E-002	3.7320198E-005	-6.2040287E-001	0
1.0330395E+004	5.063619896573073E+001	-6.2245053E-001	-6.025428193106042E-002	3.7505310E-005	-6.2240285E-001	0
1.0339448E+004	5.083619896067830E+001	-6.2445229E-001	-6.039512798067614E-002	3.7713875E-005	-6.2440282E-001	0
1.0357312E+004	5.103619895562588E+001	-6.2647128E-001	-6.048589915643249E-002	3.7892678E-005	-6.2640285E-001	0
1.0361315E+004	5.123619895057345E+001	-6.2845242E-001	-6.065372935318902E-002	3.8117982E-005	-6.2840295E-001	0
1.0373544E+004	5.143619894552103E+001	-6.3045865E-001	-6.077562765558331E-002	3.8316521E-005	-6.3040286E-001	0
1.0379358E+004	5.163619894046860E+001	-6.3246191E-001	-6.093458422035189E-002	3.8538805E-005	-6.3240284E-001	0
1.0388874E+004	5.183619893541618E+001	-6.3445240E-001	-6.107037353842526E-002	3.8746246E-005	-6.3440287E-001	0
1.0399381E+004	5.203619893036375E+001	-6.3645703E-001	-6.120143435386474E-002	3.8952083E-005	-6.3640290E-001	0
1.0406765E+004	5.223619892531133E+001	-6.3848174E-001	-6.135256994830351E-002	3.9172497E-005	-6.3840282E-001	0
1.0408028E+004	5.243619892025890E+001	-6.4045423E-001	-6.153463539741344E-002	3.9410119E-005	-6.4040285E-001	0
1.0410302E+004	5.263619891520648E+001	-6.4246094E-001	-6.171396119222317E-002	3.9648810E-005	-6.4240289E-001	0
1.0414268E+004	5.283619891015405E+001	-6.4444989E-001	-6.188144297719123E-002	3.9879487E-005	-6.4440286E-001	0
1.0415193E+004	5.303619890510163E+001	-6.4647013E-001	-6.206991311158494E-002	4.0126346E-005	-6.4640284E-001	0
1.0408331E+004	5.323619890004920E+001	-6.4846873E-001	-6.230285258323831E-002	4.0401454E-005	-6.4840287E-001	0
1.0408412E+004	5.343619889499678E+001	-6.5046859E-001	-6.249451020398844E-002	4.0650717E-005	-6.5040290E-001	0
1.0393172E+004	5.363619888994435E+001	-6.5247971E-001	-6.277965207039382E-002	4.0962448E-005	-6.5240282E-001	0
1.0381997E+004	5.383619888489193E+001	-6.5446061E-001	-6.303802622870780E-002	4.1255906E-005	-6.5440285E-001	0
1.0378993E+004	5.403619887983950E+001	-6.5647107E-001	-6.324997485051442E-002	4.1521780E-005	-6.5640289E-001	0
1.0357086E+004	5.423619887478708E+001	-6.5846330E-001	-6.357611671022542E-002	4.1862539E-005	-6.5840280E-001	0
1.0334583E+004	5.443619886973465E+001	-6.6047776E-001	-6.390947105189809E-002	4.2210784E-005	-6.6040283E-001	0
1.0310153E+004	5.463619886468223E+001	-6.6247356E-001	-6.425447999594791E-002	4.2566895E-005	-6.6240293E-001	0
1.0288339E+004	5.483619885962980E+001	-6.6447198E-001	-6.458496526749546E-002	4.2914900E-005	-6.6440284E-001	0
1.0256445E+004	5.503619885457738E+001	-6.6646075E-001	-6.497970076759352E-002	4.3306420E-005	-6.6640282E-001	0
1.0224378E+004	5.523619884952495E+001	-6.6846275E-001	-6.537930894370647E-002	4.3703632E-005	-6.6840285E-001	0
1.0185005E+004	5.543619884447253E+001	-6.7043310E-001	-6.582550706168677E-002	4.4131601E-005	-6.7040288E-001	0
1.0138133E+004	5.563619883942010E+001	-6.7244422E-001	-6.632821019496005E-002	4.4602020E-005	-6.7240286E-001	0
1.0093735E+004	5.583619883436768E+001	-6.7444557E-001	-6.681823475146964E-002	4.5065262E-005	-6.7440283E-001	0
1.0041368E+004	5.603619882931525E+001	-6.7643309E-001	-6.736463181887753E-002	4.5567667E-005	-6.7640293E-001	0
9.9872021E+003	5.623619882426283E+001	-6.7843354E-001	-6.793029087515401E-002	4.6086188E-005	-6.7840284E-001	0
9.9227852E+003	5.643619881921040E+001	-6.8045145E-001	-6.857464277785252E-002	4.6661717E-005	-6.8040287E-001	0
9.8636621E+003	5.663619881415798E+001	-6.8245149E-001	-6.918845194562928E-002	4.7217763E-005	-6.8240285E-001	0
9.8013477E+003	5.683619880910555E+001	-6.8444455E-001	-6.983167729646705E-002	4.7795911E-005	-6.8440288E-001	0
9.7287637E+003	5.703619880405313E+001	-6.8644744E-001	-7.055854645574611E-002	4.8434733E-005	-6.8640286E-001	0
9.6515498E+003	5.723619879900070E+001	-6.8844569E-001	-7.133006441930656E-002	4.9106875E-005	-6.8840283E-001	0
9.5725615E+003	5.743619879394828E+001	-6.9044405E-001	-7.212741006125589E-002	4.9799943E-005	-6.9040293E-001	0
9.4943418E+003	5.763619878889585E+001	-6.9244492E-001	-7.293237672164155E-002	5.0501654E-005	-6.9240284E-001	0
9.4171611E+003	5.783619878384343E+001	-6.9445586E-001	-7.374365015912054E-002	5.1211711E-005	-6.9440281E-001	0
9.3296992E+003	5.803619877879100E+001	-6.9645470E-001	-7.464921498954169E-002	5.1989799E-005	-6.9640291E-001	0
9.2451895E+003	5.823619877373858E+001	-6.9844329E-001	-7.554667340348697E-002	5.2765066E-005	-6.9840282E-001	0
9.1526074E+003	5.843619876868615E+001	-7.0044822E-001	-7.652990748660216E-002	5.3605236E-005	-7.0040292E-001	0
9.0564092E+003	5.863619876363373E+001	-7.0245147E-001	-7.756401517253164E-002	5.4484957E-005	-7.0240289E-001	0
8.9603936E+003	5.883619875858130E+001	-7.0444626E-001	-7.861778364609728E-002	5.5382003E-005	-7.0440298E-001	0
8.8589688E+003	5.903619875352888E+001	-7.0645148E-001	-7.974421128191378E-002	5.6335415E-005	-7.0640284E-001	0
8.7609248E+003	5.923619874847645E+001	-7.0844537E-001	-8.086422641599023E-002	5.7287885E-005	-7.0840281E-001	0
8.6604482E+003	5.943619874342403E+001	-7.1043116E-001	-8.203168444666997E-002	5.8277863E-005	-7.1040291E-001	0
8.5560996E+003	5.963619873837160E+001	-7.1245903E-001	-8.326914029559140E-002	5.9325852E-005	-7.1240288E-001	0
8.4483076E+003	5.983619873331918E+001	-7.1443683E-001	-8.456567126007375E-002	6.0416831E-005	-7.1440285E-001	0
8.3419609E+003	6.003619872826675E+001	-7.1644998E-001	-8.588508277753482E-002	6.1532366E-005	-7.1640289E-001	0
8.2311250E+003	6.023619872321433E+001	-7.1844161E-001	-8.728352217415533E-002	6.2708117E-005	-7.1840292E-001	0
8.1208262E+003	6.043619871816190E+001	-7.2044778E-001	-8.871607014185035E-002	6.3915293E-005	-7.2040284E-001	0
8.0125493E+003	6.063619871310948E+001	-7.2244662E-001	-9.016439004837151E-002	6.5138956E-005	-7.2240287E-001	0
7.9072979E+003	6.083619870805705E+001	-7.2443789E-001	-9.161636656490257E-002	6.6370369E-005	-7.2440296E-001	0
7.7949424E+003	6.103619870300463E+001	-7.2641426E-001	-9.319045748075938E-002	6.7694877E-005	-7.2640288E-001	0
7.6818882E+003	6.123619869795220E+001	-7.2842377E-001	-9.482353456083992E-002	6.9071713E-005	-7.2840285E-001	0
7.5682061E+003	6.143619869289978E+001	-7.3040944E-001	-9.651025083146192E-002	7.0492002E-005	-7.3040289E-001	0
7.4574321E+003	6.163619868784735E+001	-7.3243773E-001	-9.821580728049240E-002	7.1936964E-005	-7.3240292E-001	0
7.3409839E+003	6.183619868279493E+001	-7.3440635E-001	-1.000419506019656E-001	7.3471441E-005	-7.3440289E-001	0
7.2294263E+003	6.203619867774250E+001	-7.3641753E-001	-1.018638970433839E-001	7.5014359E-005	-7.3640287E-001	0
7.1167041E+003	6.223619867269008E+001	-7.3842090E-001	-1.037588344206886E-001	7.6617689E-005	-7.3840296E-001	0
7.0065513E+003	6.243619866763765E+001	-7.4043030E-001	-1.056768515837842E-001	7.8246339E-005	-7.4040294E-001	0
6.8913379E+003	6.263619866258523E+001	-7.4242145E-001	-1.077325536559033E-001	7.9982958E-005	-7.4240279E-001	0
6.7801226E+003	6.283619865753280E+001	-7.4443048E-001	-1.097960223891521E-001	8.1735503E-005	-7.4440289E-001	0
6.6730288E+003	6.303619865248038E+001	-7.4643624E-001	-1.118586831884518E-001	8.3495375E-005	-7.4640286E-001	0
6.5650498E+003	6.323619864742795E+001	-7.4842638E-001	-1.140016266641091E-001	8.5321823E-005	-7.4840283E-001	0
6.4536660E+003	6.343619864237553E+001	-7.5043213E-001	-1.162799772607945E-001	8.7260232E-005	-7.5040287E-001	0
6.3500229E+003	6.363619863732310E+001	-7.5240380E-001	-1.184883627115559E-001	8.9151094E-005	-7.5240290E-001	0
6.2417798E+003	6.383619863227068E+001	-7.5443012E-001	-1.208677913881668E-001	9.1186303E-005	-7.5440288E-001	0
6.1382617E+003	6.403619862721825E+001	-7.5642109E-001	-1.232305092910243E-001	9.3214156E-005	-7.5640285E-001	0
6.0354707E+003	6.423619862216583E+001	-7.5843012E-001	-1.256621371038147E-001	9.5305950E-005	-7.5840294E-001	0
5.9326631E+003	6.443619861711340E+001	-7.6043093E-001	-1.281769978222513E-001	9.7469754E-005	-7.6040286E-001	0
5.8320146E+003	6.463619861206098E+001	-7.6243335E-001	-1.307324127097713E-001	9.9674755E-005	-7.6240283E-001	0
5.7345337E+003	6.483619860700856E+001	-7.6445109E-001	-1.333065877410915E-001	1.0190636E-004	-7.6440293E-001	0
5.6362334E+003	6.503619860195613E+001	-7.6643044E-001	-1.359827377487083E-001	1.0422131E-004	-7.6640290E-001	0
5.5435493E+003	6.523619859690371E+001	-7.6843226E-001	-1.386173714951204E-001	1.0651806E-004	-7.6840287E-001	0
5.4463149E+003	6.543619859185128E+001	-7.7042556E-001	-1.414581338881336E-001	1.0898296E-004	-7.7040285E-001	0
5.3593076E+003	6.563619858679886E+001	-7.7242458E-001	-1.441276771578166E-001	1.1132776E-004	-7.7240294E-001	0
5.2695566E+003	6.583619858174643E+001	-7.7441186E-001	-1.469595836984450E-001	1.1380725E-004	-7.7440292E-001	0
5.1796772E+003	6.603619857669401E+001	-7.7642125E-001	-1.498976078353267E-001	1.1638369E-004	-7.7640289E-001	0
5.0951353E+003	6.623619857164158E+001	-7.7842540E-001	-1.527781603591782E-001	1.1892640E-004	-7.7840286E-001	0
5.0100410E+003	6.643619856658916E+001	-7.8041881E-001	-1.557709448590718E-001	1.2156658E-004	-7.8040296E-001	0
4.9238042E+003	6.663619856153673E+001	-7.8241485E-001	-1.589045368320816E-001	1.2432926E-004	-7.8240281E-001	0
4.8445151E+003	6.683619855648431E+001	-7.8441399E-001	-1.619179495768681E-001	1.2701070E-004	-7.8440291E-001	0
4.7640039E+003	6.703619855143188E+001	-7.8643304E-001	-1.650781630382124E-001	1.2982292E-004	-7.8640300E-001	0
4.6867739E+003	6.723619854637946E+001	-7.8842223E-001	-1.682228002424795E-001	1.3263059E-004	-7.8840286E-001	0
4.6085488E+003	6.743619854132703E+001	-7.9042423E-001	-1.715126015708413E-001	1.3556771E-004	-7.9040295E-001	0
4.5328745E+003	6.763619853627461E+001	-7.9242545E-001	-1.748174190354415E-001	1.3852977E-004	-7.9240292E-001	0
4.4419595E+003	6.783619853122218E+001	-7.9440939E-001	-1.788421111284854E-001	1.4207386E-004	-7.9440290E-001	0
4.3699463E+003	6.803619852616976E+001	-7.9641926E-001	-1.822492128276103E-001	1.4514678E-004	-7.9640287E-001	0
4.3011694E+003	6.823619852111733E+001	-7.9842538E-001	-1.856298378073182E-001	1.4821158E-004	-7.9840291E-001	0
4.2327383E+003	6.843619851606491E+001	-8.0040658E-001	-1.890989895529884E-001	1.5135607E-004	-8.0040294E-001	0
4.1640835E+003	6.863619851101248E+001	-8.0242902E-001	-1.927024322897704E-001	1.5463002E-004	-8.0240291E-001	0
4.0969590E+003	6.883619850596006E+001	-8.0441415E-001	-1.963442072764359E-001	1.5794206E-004	-8.0440283E-001	0
4.0336521E+003	6.903619850090763E+001	-8.0640876E-001	-1.999202598617025E-001	1.6121745E-004	-8.0640298E-001	0
3.9690955E+003	6.923619849585521E+001	-8.0842894E-001	-2.036809077731374E-001	1.6466154E-004	-8.0840296E-001	0
3.9120393E+003	6.943619849080278E+001	-8.1043112E-001	-2.071633398989015E-001	1.6789162E-004	-8.1040287E-001	0
3.8482061E+003	6.963619848575036E+001	-8.1243241E-001	-2.111197769380015E-001	1.7152054E-004	-8.1240290E-001	0
3.7872031E+003	6.983619848069793E+001	-8.1443465E-001	-2.150491126253362E-001	1.7514345E-004	-8.1440294E-001	0
3.7283066E+003	7.003619847564551E+001	-8.1643277E-001	-2.189822021234027E-001	1.7878425E-004	-8.1640291E-001	0
3.6683279E+003	7.023619847059308E+001	-8.1843531E-001	-2.231085423249204E-001	1.8259991E-004	-8.1840289E-001	0
3.6115376E+003	7.043619846554066E+001	-8.2043195E-001	-2.271697071154939E-001	1.8637729E-004	-8.2040298E-001	0
3.5539111E+003	7.063619846048823E+001	-8.2244551E-001	-2.314198249380808E-001	1.9033020E-004	-8.2240283E-001	0
3.4998933E+003	7.083619845543581E+001	-8.2442600E-001	-2.355574600613952E-001	1.9419969E-004	-8.2440293E-001	0
3.4461372E+003	7.103619845038338E+001	-8.2645035E-001	-2.398193353077489E-001	1.9819877E-004	-8.2640290E-001	0
3.3938008E+003	7.123619844533096E+001	-8.2843471E-001	-2.441023379952876E-001	2.0222284E-004	-8.2840288E-001	0
3.3405703E+003	7.143619844027853E+001	-8.3044875E-001	-2.485949002299250E-001	2.0644533E-004	-8.3040297E-001	0
3.2866677E+003	7.163619843522611E+001	-8.3244282E-001	-2.532786759938592E-001	2.1084002E-004	-8.3240288E-001	0
3.2325688E+003	7.183619843017368E+001	-8.3443165E-001	-2.581326742793806E-001	2.1539407E-004	-8.3440304E-001	0
3.1871074E+003	7.203619842512126E+001	-8.3644819E-001	-2.624474465319049E-001	2.1952369E-004	-8.3640289E-001	0
3.1349883E+003	7.223619842006883E+001	-8.3842814E-001	-2.674422017816043E-001	2.2423107E-004	-8.3840281E-001	0
3.0904492E+003	7.243619841501641E+001	-8.4045100E-001	-2.719510796241246E-001	2.2856156E-004	-8.4040296E-001	0
3.0514197E+003	7.263619840996398E+001	-8.4244823E-001	-2.760840333668748E-001	2.3258651E-004	-8.4240294E-001	0
3.0126426E+003	7.283619840491156E+001	-8.4443408E-001	-2.802968061404501E-001	2.3669218E-004	-8.4440291E-001	0
2.9749316E+003	7.303619839985913E+001	-8.4643620E-001	-2.845229190032990E-001	2.4083050E-004	-8.4640294E-001	0
2.9339414E+003	7.323619839480671E+001	-8.4846342E-001	-2.891889512496666E-001	2.4536625E-004	-8.4840292E-001	0
2.8909277E+003	7.343619838975428E+001	-8.5044891E-001	-2.941785468160267E-001	2.5018383E-004	-8.5040289E-001	0
2.8532207E+003	7.363619838470186E+001	-8.5246843E-001	-2.987740850878575E-001	2.5469548E-004	-8.5240287E-001	0
2.8205706E+003	7.383619837964943E+001	-8.5446286E-001	-3.029397328420114E-001	2.5885075E-004	-8.5440296E-001	0
2.7845559E+003	7.403619837459701E+001	-8.5645890E-001	-3.075746894748602E-001	2.6342508E-004	-8.5640293E-001	0
2.7512522E+003	7.423619836954458E+001	-8.5846311E-001	-3.120263317587222E-001	2.6786310E-004	-8.5840291E-001	0
2.7225764E+003	7.443619836449216E+001	-8.6044657E-001	-3.160412962191534E-001	2.7193665E-004	-8.6040288E-001	0
2.6839382E+003	7.463619835943973E+001	-8.6246139E-001	-3.213417330934183E-001	2.7714483E-004	-8.6240286E-001	0
2.6454353E+003	7.483619835438731E+001	-8.6444080E-001	-3.267669308183048E-001	2.8247066E-004	-8.6440295E-001	0
2.6061484E+003	7.503619834933488E+001	-8.6643606E-001	-3.324584583466743E-001	2.8805400E-004	-8.6640286E-001	0
2.5724636E+003	7.523619834428246E+001	-8.6844945E-001	-3.375944512285914E-001	2.9318372E-004	-8.6840302E-001	0
2.5322651E+003	7.543619833923003E+001	-8.7044597E-001	-3.437420455358775E-001	2.9920888E-004	-8.7040299E-001	0
2.4912549E+003	7.563619833417761E+001	-8.7245947E-001	-3.502088342656027E-001	3.0554301E-004	-8.7240279E-001	0
2.4518303E+003	7.583619832912518E+001	-8.7444407E-001	-3.566494878432189E-001	3.1187004E-004	-8.7440294E-001	0
2.4225193E+003	7.603619832407276E+001	-8.7645298E-001	-3.617940192087619E-001	3.1709546E-004	-8.7640291E-001	0
2.3902891E+003	7.623619831902033E+001	-8.7844044E-001	-3.675038505328688E-001	3.2283025E-004	-8.7840289E-001	0
2.3385095E+003	7.643619831396791E+001	-8.8043725E-001	-3.764950442750887E-001	3.3148026E-004	-8.8040292E-001	0
2.2973398E+003	7.663619830891548E+001	-8.8242662E-001	-3.841079930793896E-001	3.3894711E-004	-8.8240296E-001	0
2.2531475E+003	7.683619830386306E+001	-8.8443309E-001	-3.925322722178990E-001	3.4716853E-004	-8.8440293E-001	0
2.2087769E+003	7.703619829881063E+001	-8.8644183E-001	-4.013270269952649E-001	3.5575306E-004	-8.8640290E-001	0
2.1611563E+003	7.723619829375821E+001	-8.8844669E-001	-4.110978653658686E-001	3.6523855E-004	-8.8840294E-001	0
2.1106042E+003	7.743619828870578E+001	-8.9045066E-001	-4.218936944739413E-001	3.7567550E-004	-8.9040291E-001	0
2.0552483E+003	7.763619828365336E+001	-8.9243633E-001	-4.342231428136643E-001	3.8751651E-004	-8.9240289E-001	0
1.9998969E+003	7.783619827860093E+001	-8.9443547E-001	-4.472407892160541E-001	4.0002802E-004	-8.9440292E-001	0
1.9476127E+003	7.803619827354851E+001	-8.9644092E-001	-4.602767938405892E-001	4.1261094E-004	-8.9640296E-001	0
1.8955118E+003	7.823619826849608E+001	-8.9844984E-001	-4.739879716795916E-001	4.2585441E-004	-8.9840293E-001	0
1.8460482E+003	7.843619826344366E+001	-9.0044504E-001	-4.877689739271083E-001	4.3920917E-004	-9.0040290E-001	0
1.7960513E+003	7.863619825839123E+001	-9.0241116E-001	-5.024417497834328E-001	4.5340904E-004	-9.0240300E-001	0
1.7439167E+003	7.883619825333881E+001	-9.0443349E-001	-5.186219374288097E-001	4.6905904E-004	-9.0440303E-001	0
1.6939102E+003	7.903619824828638E+001	-9.0643400E-001	-5.351133925329195E-001	4.8504496E-004	-9.0640295E-001	0
1.6480155E+003	7.923619824323396E+001	-9.0842932E-001	-5.512261981030501E-001	5.0075003E-004	-9.0840292E-001	0
1.5997916E+003	7.943619823818153E+001	-9.1043901E-001	-5.690984905120899E-001	5.1812944E-004	-9.1040301E-001	0
1.5489216E+003	7.963619823312911E+001	-9.1243511E-001	-5.890776620894824E-001	5.3749513E-004	-9.1240287E-001	0
1.5021674E+003	7.983619822807668E+001	-9.1442984E-001	-6.087403442127766E-001	5.5665034E-004	-9.1440290E-001	0
1.4518550E+003	8.003619822302426E+001	-9.1644126E-001	-6.312209382999571E-001	5.7847693E-004	-9.1640294E-001	0
1.3991144E+003	8.023619821797183E+001	-9.1843688E-001	-6.564416163632663E-001	6.0290017E-004	-9.1840291E-001	0
1.3438008E+003	8.043619821291941E+001	-9.2043877E-001	-6.849517964561560E-001	6.3045620E-004	-9.2040288E-001	0
1.2859810E+003	8.063619820786698E+001	-9.2242849E-001	-7.172956198639788E-001	6.6165393E-004	-9.2240292E-001	0
1.2234773E+003	8.083619820281456E+001	-9.2441577E-001	-7.555642805216403E-001	6.9845555E-004	-9.2440289E-001	0
1.1435251E+003	8.103619819776213E+001	-9.2641801E-001	-8.101422573669979E-001	7.5053039E-004	-9.2640287E-001	0
1.0789917E+003	8.123619819270971E+001	-9.2840135E-001	-8.604342062068469E-001	7.9882826E-004	-9.2840296E-001	0
1.0125202E+003	8.143619818765728E+001	-9.3040943E-001	-9.189045781147165E-001	8.5495750E-004	-9.3040299E-001	0
9.3387793E+002	8.163619818260486E+001	-9.3239635E-001	-9.984135237393588E-001	9.3091710E-004	-9.3240291E-001	0
8.6685382E+002	8.184619817729981E+001	-9.3446934E-001	-1.078001050105756E+000	1.0073589E-003	-9.3450296E-001	0
7.9504755E+002	8.205619817199477E+001	-9.3656904E-001	-1.178003782976646E+000	1.1032819E-003	-9.3660295E-001	0
7.3417230E+002	8.225619816694234E+001	-9.3855011E-001	-1.278378508334598E+000	1.1998223E-003	-9.3860292E-001	0
6.7335333E+002	8.245619816188992E+001	-9.4056338E-001	-1.396834849424302E+000	1.3138118E-003	-9.4060290E-001	0
6.2152228E+002	8.265619815683749E+001	-9.4256270E-001	-1.516538885132729E+000	1.4294330E-003	-9.4260293E-001	0
5.6621393E+002	8.285619815178507E+001	-9.4458032E-001	-1.668239280243583E+000	1.5757860E-003	-9.4460291E-001	0
5.1762494E+002	8.305619814673264E+001	-9.4656390E-001	-1.828667591184438E+000	1.7309508E-003	-9.4660288E-001	0
4.7324509E+002	8.325619814168022E+001	-9.4858027E-001	-2.004416493872119E+000	1.9013500E-003	-9.4860297E-001	0
4.3202698E+002	8.345619813662779E+001	-9.5057577E-001	-2.200269459867159E+000	2.0915228E-003	-9.5060295E-001	0
3.9490146E+002	8.365619813157537E+001	-9.5259786E-001	-2.412241891752977E+000	2.2978964E-003	-9.5260292E-001	0
3.6006174E+002	8.385619812652294E+001	-9.5459569E-001	-2.651200039823303E+000	2.5308242E-003	-9.5460290E-001	0
3.2873401E+002	8.405619812147052E+001	-9.5658815E-001	-2.909915357169254E+000	2.7835905E-003	-9.5660299E-001	0
3.0040201E+002	8.425619811641809E+001	-9.5860559E-001	-3.191075894584571E+000	3.0589832E-003	-9.5860302E-001	0
2.7471436E+002	8.445619811136567E+001	-9.6058846E-001	-3.496680931946301E+000	3.3588714E-003	-9.6060294E-001	0
2.5234384E+002	8.465619810631324E+001	-9.6259886E-001	-3.814631866962728E+000	3.6719602E-003	-9.6260291E-001	0
2.3126727E+002	8.485619810126082E+001	-9.6461248E-001	-4.170985703802161E+000	4.0233848E-003	-9.6460301E-001	0
2.1325896E+002	8.505619809620839E+001	-9.6661174E-001	-4.532572637474722E+000	4.3812380E-003	-9.6660286E-001	0
1.9610924E+002	8.525619809115597E+001	-9.6860337E-001	-4.939101263576624E+000	4.7840304E-003	-9.6860290E-001	0
1.8092628E+002	8.545619808610354E+001	-9.7060424E-001	-5.364639294120456E+000	5.2069416E-003	-9.7060293E-001	0
1.6723224E+002	8.565619808105112E+001	-9.7259223E-001	-5.815817731172835E+000	5.6564193E-003	-9.7260290E-001	0
1.5478799E+002	8.585619807599869E+001	-9.7460264E-001	-6.296371282836503E+000	6.1364602E-003	-9.7460294E-001	0
1.4356898E+002	8.605619807094627E+001	-9.7658145E-001	-6.802175745401769E+000	6.6428785E-003	-9.7660291E-001	0
1.3345340E+002	8.625619806589384E+001	-9.7859871E-001	-7.332887001183551E+000	7.1759536E-003	-9.7860289E-001	0
1.2407888E+002	8.645619806084142E+001	-9.8059034E-001	-7.902959250944249E+000	7.7495654E-003	-9.8060286E-001	0
1.1575613E+002	8.665619805578899E+001	-9.8259622E-001	-8.488502610094642E+000	8.3407704E-003	-9.8260295E-001	0
1.0786285E+002	8.685619805073657E+001	-9.8462510E-001	-9.128491674285897E+000	8.9881420E-003	-9.8460299E-001	0
1.0115144E+002	8.705619804568414E+001	-9.8659903E-001	-9.753681838309660E+000	9.6229734E-003	-9.8660290E-001	0
9.4834465E+001	8.725619804063172E+001	-9.8859584E-001	-1.042443635424516E+001	1.0305555E-002	-9.8860288E-001	0
8.8528328E+001	8.746619803532667E+001	-9.9068469E-001	-1.119059540270543E+001	1.1086351E-002	-9.9070293E-001	0
8.3053192E+001	8.767619803002162E+001	-9.9278492E-001	-1.195360347716445E+001	1.1867357E-002	-9.9280286E-001	0
7.8325195E+001	8.787619802496920E+001	-9.9478692E-001	-1.270072742215358E+001	1.2634518E-002	-9.9480283E-001	0
7.3983246E+001	8.807619801991677E+001	-9.9677956E-001	-1.347304393780198E+001	1.3429655E-002	-9.9680293E-001	0
6.9957436E+001	8.827619801486435E+001	-9.9880129E-001	-1.427727208372684E+001	1.4260158E-002	-9.9880278E-001	0
6.6271614E+001	8.847619800981192E+001	-1.0008072E+000	-1.510159579318126E+001	1.5113785E-002	-1.0008029E+000	0
6.2877773E+001	8.867629800475697E+001	-1.0027955E+000	-1.594832919723541E+001	1.5992912E-002	-1.0028037E+000	0
5.9689045E+001	8.887649799969950E+001	-1.0048114E+000	-1.683410091319686E+001	1.6915096E-002	-1.0048057E+000	0
5.6742832E+001	8.907669799464202E+001	-1.0068147E+000	-1.774346911135842E+001	1.7864386E-002	-1.0068077E+000	0
5.3917057E+001	8.927689798958454E+001	-1.0088426E+000	-1.871101025622789E+001	1.8876463E-002	-1.0088098E+000	0
5.1346317E+001	8.947719798452454E+001	-1.0108297E+000	-1.968650855508969E+001	1.9899707E-002	-1.0108125E+000	0
4.8982361E+001	8.967759797946201E+001	-1.0128313E+000	-2.067747132588947E+001	2.0942790E-002	-1.0128168E+000	0
4.6826263E+001	8.987779797440453E+001	-1.0148314E+000	-2.167226948955428E+001	2.1993700E-002	-1.0148188E+000	0
4.4812298E+001	9.007799796934705E+001	-1.0168467E+000	-2.269124117227898E+001	2.3073513E-002	-1.0168208E+000	0
4.2858246E+001	9.027839796428452E+001	-1.0188637E+000	-2.377287313761438E+001	2.4221318E-002	-1.0188245E+000	0
4.1016670E+001	9.047859795922705E+001	-1.0208439E+000	-2.488851037371461E+001	2.5407283E-002	-1.0208269E+000	0
3.9279343E+001	9.067859795417462E+001	-1.0228500E+000	-2.604040600680435E+001	2.6635431E-002	-1.0228270E+000	0
3.7592735E+001	9.087859794912220E+001	-1.0248679E+000	-2.726239268309394E+001	2.7940352E-002	-1.0248269E+000	0
3.6061035E+001	9.107859794406977E+001	-1.0268523E+000	-2.847539502720170E+001	2.9240023E-002	-1.0268270E+000	0
3.4582977E+001	9.127869793901482E+001	-1.0288525E+000	-2.975025865230015E+001	3.0608626E-002	-1.0288277E+000	0
3.3188534E+001	9.147909793395229E+001	-1.0308639E+000	-3.106084502005677E+001	3.2019503E-002	-1.0308312E+000	0
3.1877270E+001	9.167959792888723E+001	-1.0328596E+000	-3.240113038012436E+001	3.3465818E-002	-1.0328363E+000	0
3.0667934E+001	9.187989792382723E+001	-1.0348806E+000	-3.374471320000890E+001	3.4921750E-002	-1.0348397E+000	0
2.9486723E+001	9.207999791877228E+001	-1.0368820E+000	-3.516437131125915E+001	3.6461305E-002	-1.0368409E+000	0
2.8412371E+001	9.228019791371480E+001	-1.0388929E+000	-3.656480683381858E+001	3.7986916E-002	-1.0388428E+000	0
2.7368189E+001	9.248029790865985E+001	-1.0408688E+000	-3.803206642135383E+001	3.9586391E-002	-1.0408437E+000	0
2.6377052E+001	9.268049790360237E+001	-1.0428815E+000	-3.953745375879396E+001	4.1232880E-002	-1.0428456E+000	0
2.5478121E+001	9.288079789854237E+001	-1.0448753E+000	-4.101068774144392E+001	4.2851053E-002	-1.0448488E+000	0
2.4618536E+001	9.308089789348742E+001	-1.0468745E+000	-4.252383331734990E+001	4.4517118E-002	-1.0468497E+000	0
2.3798306E+001	9.328099788843247E+001	-1.0488895E+000	-4.407412595543474E+001	4.6228889E-002	-1.0488510E+000	0
2.3042759E+001	9.348099788338004E+001	-1.0508748E+000	-4.560542629716616E+001	4.7925595E-002	-1.0508510E+000	0
2.2343872E+001	9.368109787832509E+001	-1.0528811E+000	-4.712169360201511E+001	4.9613543E-002	-1.0528518E+000	0
2.1681101E+001	9.388139787326509E+001	-1.0548906E+000	-4.865484539117455E+001	5.1325541E-002	-1.0548544E+000	0
2.1046833E+001	9.408159786820761E+001	-1.0568970E+000	-5.021644140262987E+001	5.3073607E-002	-1.0568569E+000	0
2.0400707E+001	9.428169786315266E+001	-1.0589117E+000	-5.190563819819658E+001	5.4963488E-002	-1.0588578E+000	0
1.9807156E+001	9.448209785809013E+001	-1.0609066E+000	-5.356178797485632E+001	5.6824058E-002	-1.0608613E+000	0
1.9211498E+001	9.468239785303012E+001	-1.0629052E+000	-5.532651466523174E+001	5.8806840E-002	-1.0628650E+000	0
1.8652239E+001	9.488239784797770E+001	-1.0649198E+000	-5.709340720976826E+001	6.0799900E-002	-1.0648649E+000	0
1.8172892E+001	9.508239784292527E+001	-1.0669167E+000	-5.870923997647618E+001	6.2637866E-002	-1.0668648E+000	0
1.7702772E+001	9.528249783787032E+001	-1.0689358E+000	-6.038239476980493E+001	6.4544901E-002	-1.0688657E+000	0
1.7200573E+001	9.548259783281537E+001	-1.0709405E+000	-6.226191049800730E+001	6.6678800E-002	-1.0708669E+000	0
1.6781950E+001	9.568259782776295E+001	-1.0729321E+000	-6.393369806704891E+001	6.8596520E-002	-1.0728670E+000	0
1.6333340E+001	9.588299782270042E+001	-1.0749440E+000	-6.581287202128556E+001	7.0745155E-002	-1.0748703E+000	0
1.5961502E+001	9.608329781764041E+001	-1.0769379E+000	-6.747096305482216E+001	7.2662041E-002	-1.0768737E+000	0
1.5586809E+001	9.628359781258041E+001	-1.0789406E+000	-6.922139186726417E+001	7.4685775E-002	-1.0788764E+000	0
1.5195129E+001	9.648389780752041E+001	-1.0809435E+000	-7.113749488188478E+001	7.6895609E-002	-1.0808797E+000	0
1.4855708E+001	9.668399780246546E+001	-1.0829679E+000	-7.289910790439103E+001	7.8947395E-002	-1.0828810E+000	0
1.4512040E+001	9.688409779741050E+001	-1.0849657E+000	-7.476314006121947E+001	8.1115440E-002	-1.0848817E+000	0
1.4177798E+001	9.708419779235555E+001	-1.0869663E+000	-7.666679188832086E+001	8.3334215E-002	-1.0868829E+000	0
1.3850471E+001	9.728429778730060E+001	-1.0889711E+000	-7.862340559901575E+001	8.5618623E-002	-1.0888836E+000	0
1.3567643E+001	9.748459778224060E+001	-1.0909688E+000	-8.040960548854048E+001	8.7724373E-002	-1.0908866E+000	0
1.3195032E+001	9.768489777718059E+001	-1.0929816E+000	-8.283281207138839E+001	9.0534739E-002	-1.0928899E+000	0
1.2881828E+001	9.788499777212564E+001	-1.0949647E+000	-8.500072358903390E+001	9.3072794E-002	-1.0948910E+000	0
1.2634263E+001	9.808499776707322E+001	-1.0969433E+000	-8.682289210901240E+001	9.5239788E-002	-1.0968909E+000	0
1.2407406E+001	9.828529776201322E+001	-1.0989432E+000	-8.857155525389396E+001	9.7335108E-002	-1.0988933E+000	0
1.2164072E+001	9.848569775695069E+001	-1.1009520E+000	-9.050850770811945E+001	9.9645525E-002	-1.1008977E+000	0
1.1905201E+001	9.868589775189321E+001	-1.1029510E+000	-9.264446989885082E+001	1.0218231E-001	-1.1028997E+000	0
1.1695331E+001	9.888629774683068E+001	-1.1049691E+000	-9.447951526201206E+001	1.0439695E-001	-1.1049031E+000	0
1.1505859E+001	9.908659774177067E+001	-1.1069691E+000	-9.620916285968997E+001	1.0650057E-001	-1.1069069E+000	0
1.1272096E+001	9.928659773671825E+001	-1.1089749E+000	-9.838232106308260E+001	1.0910353E-001	-1.1089070E+000	0
1.0996833E+001	9.948669773166330E+001	-1.1109674E+000	-1.010261265476647E+002	1.1223673E-001	-1.1109078E+000	0
1.0803288E+001	9.968679772660835E+001	-1.1129723E+000	-1.030216306666936E+002	1.1466022E-001	-1.1129090E+000	0
1.0630233E+001	9.988679772155592E+001	-1.1149681E+000	-1.048865158747112E+002	1.1694512E-001	-1.1149089E+000	0
1.0459538E+001	1.000867977165035E+002	-1.1169789E+000	-1.067904650283776E+002	1.1928269E-001	-1.1169089E+000	0
1.0223078E+001	1.002967977111985E+002	-1.1190686E+000	-1.094649391602488E+002	1.2249878E-001	-1.1190090E+000	0
9.9033785E+000	1.005069977058884E+002	-1.1211783E+000	-1.132116973463485E+002	1.2693049E-001	-1.1211108E+000	0
9.7253027E+000	1.007071977008309E+002	-1.1231954E+000	-1.154920791256615E+002	1.2972017E-001	-1.1231128E+000	0
9.5642567E+000	1.009071976957785E+002	-1.1251786E+000	-1.176441236688438E+002	1.3237065E-001	-1.1251130E+000	0
9.4728518E+000	1.011073976907210E+002	-1.1271774E+000	-1.189902861985737E+002	1.3412316E-001	-1.1271144E+000	0
9.2902260E+000	1.013078976856559E+002	-1.1291956E+000	-1.215466237416140E+002	1.3724990E-001	-1.1291195E+000	0
9.1496077E+000	1.015079976806010E+002	-1.1311942E+000	-1.236330844636959E+002	1.3985303E-001	-1.1311209E+000	0
8.9983091E+000	1.017079976755485E+002	-1.1331913E+000	-1.259338117629768E+002	1.4270711E-001	-1.1331210E+000	0
8.9045935E+000	1.019080976704936E+002	-1.1352012E+000	-1.274849068099982E+002	1.4472102E-001	-1.1351217E+000	0
8.7543688E+000	1.021083976654336E+002	-1.1372156E+000	-1.299026359983261E+002	1.4772731E-001	-1.1371245E+000	0
8.5987940E+000	1.023087976603711E+002	-1.1392083E+000	-1.324846598437043E+002	1.5092763E-001	-1.1391288E+000	0
8.4021511E+000	1.025088976553161E+002	-1.1412203E+000	-1.358247877949334E+002	1.5500601E-001	-1.1411297E+000	0
8.2819080E+000	1.027089976502612E+002	-1.1432141E+000	-1.380375317154026E+002	1.5780646E-001	-1.1431309E+000	0
8.1428661E+000	1.029091976452037E+002	-1.1452048E+000	-1.406390227749122E+002	1.6106048E-001	-1.1451325E+000	0
8.0617027E+000	1.031097976401361E+002	-1.1472143E+000	-1.423042138464592E+002	1.6325343E-001	-1.1471382E+000	0
7.9420352E+000	1.033101976350736E+002	-1.1492261E+000	-1.447017097719149E+002	1.6629498E-001	-1.1491425E+000	0
7.8492470E+000	1.035104976300136E+002	-1.1512229E+000	-1.466666729861835E+002	1.6884604E-001	-1.1511457E+000	0
7.7336459E+000	1.037106976249561E+002	-1.1532303E+000	-1.491185787338397E+002	1.7196806E-001	-1.1531478E+000	0
7.5284796E+000	1.039107976199011E+002	-1.1552352E+000	-1.534486680571454E+002	1.7726929E-001	-1.1551490E+000	0
7.4443693E+000	1.041108976148462E+002	-1.1572397E+000	-1.554516763593689E+002	1.7989485E-001	-1.1571498E+000	0
7.3521528E+000	1.043110976097887E+002	-1.1592404E+000	-1.576735957922037E+002	1.8278159E-001	-1.1591518E+000	0
7.2996149E+000	1.045112976047312E+002	-1.1612406E+000	-1.590824440577553E+002	1.8473299E-001	-1.1611538E+000	0
7.1927600E+000	1.047114975996737E+002	-1.1632357E+000	-1.617231305366278E+002	1.8812211E-001	-1.1631557E+000	0
7.1246090E+000	1.049116975946163E+002	-1.1652658E+000	-1.635550525766466E+002	1.9058511E-001	-1.1651577E+000	0
7.0773411E+000	1.051119975895563E+002	-1.1672572E+000	-1.649287749517273E+002	1.9251430E-001	-1.1671604E+000	0
6.9931507E+000	1.053122975844963E+002	-1.1692590E+000	-1.672005958525210E+002	1.9550079E-001	-1.1691637E+000	0
6.9302468E+000	1.055124975794388E+002	-1.1712615E+000	-1.690071901388908E+002	1.9795163E-001	-1.1711657E+000	0
6.9183302E+000	1.057126975743813E+002	-1.1732527E+000	-1.695861048718770E+002	1.9896735E-001	-1.1731677E+000	0
6.8644571E+000	1.059129975693213E+002	-1.1752554E+000	-1.712087961871721E+002	2.0121406E-001	-1.1751704E+000	0
6.7397175E+000	1.061132975642613E+002	-1.1772695E+000	-1.746763805784262E+002	2.0564117E-001	-1.1771736E+000	0
6.4413695E+000	1.063134975592038E+002	-1.1792740E+000	-1.830781446727228E+002	2.1589929E-001	-1.1791756E+000	0
6.3178639E+000	1.065137975541438E+002	-1.1812906E+000	-1.869762634510903E+002	2.2087331E-001	-1.1811787E+000	0
6.2893209E+000	1.067138975490889E+002	-1.1833020E+000	-1.881446477795457E+002	2.2263195E-001	-1.1831797E+000	0
6.2356629E+000	1.069141975440289E+002	-1.1852969E+000	-1.900835483857227E+002	2.2530544E-001	-1.1851828E+000	0
6.2099423E+000	1.071142975389739E+002	-1.1873037E+000	-1.911939889311066E+002	2.2700532E-001	-1.1871836E+000	0
6.2031336E+000	1.073143975339190E+002	-1.1892972E+000	-1.917252255880917E+002	2.2801827E-001	-1.1891849E+000	0
6.1471829E+000	1.075144975288640E+002	-1.1912832E+000	-1.937933574614690E+002	2.3086278E-001	-1.1911857E+000	0
6.0839982E+000	1.077146975238065E+002	-1.1932842E+000	-1.961348659685573E+002	2.3404463E-001	-1.1931878E+000	0
6.0333390E+000	1.079148975187491E+002	-1.1952881E+000	-1.981138607631594E+002	2.3680313E-001	-1.1951897E+000	0
5.9043150E+000	1.081150975136916E+002	-1.1972980E+000	-2.027835689659613E+002	2.4279237E-001	-1.1971917E+000	0
5.7817225E+000	1.083152975086341E+002	-1.1993142E+000	-2.074319925762982E+002	2.4877614E-001	-1.1991937E+000	0
5.6915355E+000	1.085155975035741E+002	-1.2013249E+000	-2.110721970833670E+002	2.5356629E-001	-1.2011969E+000	0
5.5889368E+000	1.087155974985217E+002	-1.2033203E+000	-2.153039619571227E+002	2.5907964E-001	-1.2031969E+000	0
5.5627985E+000	1.089156974934667E+002	-1.2053176E+000	-2.166746905929995E+002	2.6116183E-001	-1.2051978E+000	0
5.5626283E+000	1.091159974884067E+002	-1.2073156E+000	-2.170404869360132E+002	2.6203635E-001	-1.2072002E+000	0
5.5304103E+000	1.093161974833492E+002	-1.2092948E+000	-2.186627550384628E+002	2.6442772E-001	-1.2092029E+000	0
5.4422588E+000	1.095162974782943E+002	-1.2113173E+000	-2.225761969337964E+002	2.6961040E-001	-1.2112037E+000	0
5.4031706E+000	1.097163974732393E+002	-1.2133255E+000	-2.245580515547936E+002	2.7246201E-001	-1.2132049E+000	0
5.3082252E+000	1.099165974681819E+002	-1.2153324E+000	-2.289526860245144E+002	2.7825361E-001	-1.2152064E+000	0
5.2426934E+000	1.101168974631219E+002	-1.2173474E+000	-2.321988600182458E+002	2.8266668E-001	-1.2172097E+000	0
5.2083945E+000	1.103170974580644E+002	-1.2193452E+000	-2.341115294360136E+002	2.8546277E-001	-1.2192118E+000	0
5.1789742E+000	1.105171974530094E+002	-1.2213283E+000	-2.358243636534953E+002	2.8801897E-001	-1.2212127E+000	0
5.1483660E+000	1.107172974479545E+002	-1.2233595E+000	-2.376209308386779E+002	2.9069582E-001	-1.2232139E+000	0
5.0861444E+000	1.109173974428995E+002	-1.2253649E+000	-2.409221640844186E+002	2.9521757E-001	-1.2252150E+000	0
5.0092320E+000	1.111173974378471E+002	-1.2273510E+000	-2.450177979869359E+002	3.0072284E-001	-1.2272149E+000	0
4.8746247E+000	1.113173974327947E+002	-1.2293618E+000	-2.521961903063880E+002	3.1004035E-001	-1.2292149E+000	0
4.8560319E+000	1.115173974277423E+002	-1.2313454E+000	-2.535702898453710E+002	3.1223261E-001	-1.2312149E+000	0
4.8541374E+000	1.117174974226873E+002	-1.2333554E+000	-2.540833342096967E+002	3.1337506E-001	-1.2332157E+000	0
4.7701750E+000	1.119176974176298E+002	-1.2353691E+000	-2.589777286777994E+002	3.1993309E-001	-1.2352177E+000	0
4.6989427E+000	1.121178974125723E+002	-1.2373549E+000	-2.633262371040264E+002	3.2582802E-001	-1.2372197E+000	0
4.6315451E+000	1.123180974075149E+002	-1.2393585E+000	-2.675907324909995E+002	3.3164087E-001	-1.2392217E+000	0
4.5614910E+000	1.125181974024599E+002	-1.2413650E+000	-2.721401743488791E+002	3.3782527E-001	-1.2412230E+000	0
4.5175061E+000	1.127182973974050E+002	-1.2433531E+000	-2.752299800528000E+002	3.4220806E-001	-1.2432238E+000	0
4.4477549E+000	1.129183973923500E+002	-1.2453665E+000	-2.799988975416782E+002	3.4870124E-001	-1.2452250E+000	0
4.4493227E+000	1.131184973872951E+002	-1.2473716E+000	-2.803508863223328E+002	3.4970173E-001	-1.2472256E+000	0
4.4581499E+000	1.133185973822401E+002	-1.2493694E+000	-2.802439283167693E+002	3.5012817E-001	-1.2492269E+000	0
4.4730153E+000	1.135185973771877E+002	-1.2513713E+000	-2.797601047675905E+002	3.5008377E-001	-1.2512269E+000	0
4.4456835E+000	1.137185973721353E+002	-1.2533689E+000	-2.819294062439267E+002	3.5336155E-001	-1.2532270E+000	0
4.4209528E+000	1.139185973670828E+002	-1.2553800E+000	-2.839614195683098E+002	3.5647950E-001	-1.2552270E+000	0
4.4264021E+000	1.141185973620304E+002	-1.2573706E+000	-2.840615483454835E+002	3.5717064E-001	-1.2572269E+000	0
4.3755622E+000	1.143185973569780E+002	-1.2593809E+000	-2.878215089222740E+002	3.6247692E-001	-1.2592269E+000	0
4.3133054E+000	1.145187973519205E+002	-1.2613828E+000	-2.924399460815030E+002	3.6887872E-001	-1.2612284E+000	0
4.3308020E+000	1.147189973468630E+002	-1.2633817E+000	-2.917200250409351E+002	3.6855376E-001	-1.2632310E+000	0
4.3276448E+000	1.149189973418106E+002	-1.2653853E+000	-2.923958103002594E+002	3.6999336E-001	-1.2652310E+000	0
4.2675667E+000	1.151190973367557E+002	-1.2674044E+000	-2.969852520336372E+002	3.7640044E-001	-1.2672317E+000	0
4.2315207E+000	1.153191973317007E+002	-1.2693983E+000	-2.999863219271979E+002	3.8080212E-001	-1.2692330E+000	0
4.0556860E+000	1.155192973266458E+002	-1.2714189E+000	-3.134904571215657E+002	3.9857769E-001	-1.2712338E+000	0
4.0705729E+000	1.157193973215908E+002	-1.2734156E+000	-3.128345000424686E+002	3.9836833E-001	-1.2732348E+000	0
4.0760450E+000	1.159193973165384E+002	-1.2754023E+000	-3.129019225979064E+002	3.9907584E-001	-1.2752349E+000	0
4.0005689E+000	1.161194973114834E+002	-1.2773863E+000	-3.193011488690188E+002	4.0787092E-001	-1.2772357E+000	0
3.9002411E+000	1.163195973064285E+002	-1.2794091E+000	-3.280333167484832E+002	4.1968879E-001	-1.2792369E+000	0
3.9249814E+000	1.165195973013761E+002	-1.2814144E+000	-3.264765544683751E+002	4.1835177E-001	-1.2812370E+000	0
3.9375861E+000	1.167195972963236E+002	-1.2833940E+000	-3.259341961542759E+002	4.1830200E-001	-1.2832370E+000	0
3.9482753E+000	1.169195972912712E+002	-1.2854009E+000	-3.255600794534830E+002	4.1847521E-001	-1.2852370E+000	0
3.9289548E+000	1.171196972862163E+002	-1.2874277E+000	-3.276768895291152E+002	4.2186028E-001	-1.2872378E+000	0
3.9017918E+000	1.173197972811613E+002	-1.2894181E+000	-3.304682012372007E+002	4.2611167E-001	-1.2892389E+000	0
3.8528769E+000	1.175199972761038E+002	-1.2914271E+000	-3.351851561075309E+002	4.3286720E-001	-1.2912408E+000	0
3.8602567E+000	1.177199972710514E+002	-1.2934089E+000	-3.350577387193430E+002	4.3336666E-001	-1.2932409E+000	0
3.8834753E+000	1.179199972659990E+002	-1.2954143E+000	-3.335708891961576E+002	4.3211251E-001	-1.2952409E+000	0
3.8909519E+000	1.181199972609465E+002	-1.2974061E+000	-3.334418281481644E+002	4.3260947E-001	-1.2972410E+000	0
3.7269366E+000	1.182903972566419E+002	-1.2991260E+000	-3.485774475651720E+002	4.5284602E-001	-1.2989442E+000	0
3.6349936E+000	1.184409972528374E+002	-1.3006068E+000	-3.578016932290345E+002	4.6535933E-001	-1.3004503E+000	0
3.6157417E+000	1.186212972482826E+002	-1.3024563E+000	-3.602182721826430E+002	4.6916854E-001	-1.3022538E+000	0
3.6392565E+000	1.188015972437279E+002	-1.3042656E+000	-3.583879456014729E+002	4.6743307E-001	-1.3040562E+000	0
3.6669621E+000	1.189422972401735E+002	-1.3056581E+000	-3.560598694859100E+002	4.6489245E-001	-1.3054627E+000	0
3.6886230E+000	1.190630972371218E+002	-1.3068625E+000	-3.542954817495374E+002	4.6301547E-001	-1.3066704E+000	0
3.7000122E+000	1.192035972335725E+002	-1.3082746E+000	-3.535865784438670E+002	4.6258834E-001	-1.3080757E+000	0
3.7034416E+000	1.193638972295230E+002	-1.3098726E+000	-3.536906483154885E+002	4.6328971E-001	-1.3096797E+000	0
3.6782606E+000	1.195343972252158E+002	-1.3115797E+000	-3.565760655449194E+002	4.6767792E-001	-1.3113838E+000	0
3.6602769E+000	1.196652972219090E+002	-1.3128811E+000	-3.586835450881063E+002	4.7090885E-001	-1.3126930E+000	0
3.6399577E+000	1.198158972181045E+002	-1.3144112E+000	-3.611061778692824E+002	4.7464198E-001	-1.3141990E+000	0
3.6392279E+000	1.199864972137948E+002	-1.3160951E+000	-3.616413014318782E+002	4.7595435E-001	-1.3159050E+000	0
3.5889392E+000	1.201369972099928E+002	-1.3176003E+000	-3.671280399578436E+002	4.8372799E-001	-1.3174100E+000	0
3.5906668E+000	1.202875972061884E+002	-1.3191229E+000	-3.673754860623210E+002	4.8461342E-001	-1.3189161E+000	0
3.6111610E+000	1.204281972026365E+002	-1.3205335E+000	-3.656811550852481E+002	4.8289421E-001	-1.3203220E+000	0
3.6001709E+000	1.205786971988346E+002	-1.3220264E+000	-3.672121179243613E+002	4.8546410E-001	-1.3218271E+000	0
3.5481319E+000	1.207093971955328E+002	-1.3233004E+000	-3.729569130629761E+002	4.9353403E-001	-1.3231339E+000	0
3.5461068E+000	1.208699971914757E+002	-1.3249415E+000	-3.736327084011436E+002	4.9504149E-001	-1.3247403E+000	0
3.4743252E+000	1.210306971874161E+002	-1.3265316E+000	-3.818098824914532E+002	5.0648290E-001	-1.3263470E+000	0
3.4290984E+000	1.211912971833590E+002	-1.3281497E+000	-3.873174694510058E+002	5.1441556E-001	-1.3279532E+000	0
3.4673800E+000	1.213618971790493E+002	-1.3298789E+000	-3.835400025327349E+002	5.1006174E-001	-1.3296591E+000	0
3.4884281E+000	1.215225971749896E+002	-1.3314786E+000	-3.816843914114766E+002	5.0820458E-001	-1.3312658E+000	0
3.4796560E+000	1.216431971719430E+002	-1.3326689E+000	-3.829886958706948E+002	5.1039714E-001	-1.3324720E+000	0
3.3867583E+000	1.217934971681461E+002	-1.3341758E+000	-3.939389032911035E+002	5.2558374E-001	-1.3339752E+000	0
3.2962863E+000	1.219242971648418E+002	-1.3354871E+000	-4.051490060798797E+002	5.4107130E-001	-1.3352833E+000	0
3.3392818E+000	1.220647971612925E+002	-1.3369000E+000	-4.003555369457977E+002	5.3523535E-001	-1.3366882E+000	0
3.3090289E+000	1.222152971574906E+002	-1.3384025E+000	-4.044698855884662E+002	5.4134351E-001	-1.3381933E+000	0
3.3239365E+000	1.223858971531808E+002	-1.3401052E+000	-4.031681032337547E+002	5.4028767E-001	-1.3398993E+000	0
3.3436601E+000	1.225664971486185E+002	-1.3419049E+000	-4.013281393128209E+002	5.3854418E-001	-1.3417051E+000	0
3.3164845E+000	1.227370971443088E+002	-1.3436160E+000	-4.051326059689195E+002	5.4434264E-001	-1.3434111E+000	0
3.2877190E+000	1.229076971399991E+002	-1.3453348E+000	-4.092000358874648E+002	5.5051106E-001	-1.3451172E+000	0
3.2855606E+000	1.230781971356919E+002	-1.3470371E+000	-4.099869861217112E+002	5.5226767E-001	-1.3468223E+000	0
3.2730727E+000	1.232187971321400E+002	-1.3484389E+000	-4.119795013297880E+002	5.5552918E-001	-1.3482282E+000	0
3.2096512E+000	1.233992971275802E+002	-1.3502518E+000	-4.206848989230875E+002	5.6803054E-001	-1.3500332E+000	0
3.1781313E+000	1.235798971230179E+002	-1.3520563E+000	-4.254249031101208E+002	5.7519841E-001	-1.3518393E+000	0
3.1909430E+000	1.237403971189633E+002	-1.3536583E+000	-4.242188920671160E+002	5.7424742E-001	-1.3534446E+000	0
3.1629078E+000	1.238908971151614E+002	-1.3551637E+000	-4.284550197082410E+002	5.8062667E-001	-1.3549490E+000	0
3.1614487E+000	1.240412971113619E+002	-1.3566810E+000	-4.291327024469128E+002	5.8219618E-001	-1.3564531E+000	0
3.0387917E+000	1.242118971070522E+002	-1.3583740E+000	-4.470112222687585E+002	6.0720843E-001	-1.3581594E+000	0
3.0649636E+000	1.243723971029976E+002	-1.3599944E+000	-4.437228449824734E+002	6.0346061E-001	-1.3597640E+000	0
3.0621223E+000	1.245328970989431E+002	-1.3615801E+000	-4.446524365673166E+002	6.0542995E-001	-1.3613695E+000	0
3.0250702E+000	1.247129970943934E+002	-1.3633888E+000	-4.506965778198173E+002	6.1447465E-001	-1.3631700E+000	0
3.0337300E+000	1.248634970905914E+002	-1.3649142E+000	-4.499128835649835E+002	6.1409247E-001	-1.3646750E+000	0
3.0144293E+000	1.250140970867869E+002	-1.3664235E+000	-4.532942351303154E+002	6.1939192E-001	-1.3661809E+000	0
3.0416455E+000	1.251644970829875E+002	-1.3679047E+000	-4.497252145814846E+002	6.1518121E-001	-1.3676851E+000	0
3.0608530E+000	1.253249970789329E+002	-1.3695223E+000	-4.474315917301756E+002	6.1276758E-001	-1.3692902E+000	0
3.0309942E+000	1.254753970751335E+002	-1.3710175E+000	-4.523325785759532E+002	6.2015587E-001	-1.3707943E+000	0
3.0290434E+000	1.256354970710890E+002	-1.3726360E+000	-4.531582234674070E+002	6.2202126E-001	-1.3723955E+000	0
2.9778011E+000	1.257959970670345E+002	-1.3742038E+000	-4.614827397502895E+002	6.3417131E-001	-1.3739998E+000	0
2.9692330E+000	1.259465970632300E+002	-1.3757542E+000	-4.633365570173355E+002	6.3743722E-001	-1.3755062E+000	0
3.0052283E+000	1.261170970589228E+002	-1.3774474E+000	-4.583503103400379E+002	6.3135344E-001	-1.3772111E+000	0
3.0223689E+000	1.262775970548682E+002	-1.3790466E+000	-4.562800196622084E+002	6.2923139E-001	-1.3788160E+000	0
3.0378034E+000	1.264180970513189E+002	-1.3804638E+000	-4.544282916520724E+002	6.2732184E-001	-1.3802215E+000	0
3.0551522E+000	1.265784970472669E+002	-1.3820571E+000	-4.523693025165603E+002	6.2520021E-001	-1.3818250E+000	0
3.0067782E+000	1.267390970432098E+002	-1.3836817E+000	-4.601874825609684E+002	6.3675296E-001	-1.3834313E+000	0
3.0101519E+000	1.268991970391653E+002	-1.3852830E+000	-4.602037005584248E+002	6.3751239E-001	-1.3850322E+000	0
2.9086680E+000	1.270395970356185E+002	-1.3866239E+000	-4.767212408841651E+002	6.6103303E-001	-1.3864360E+000	0
2.8484511E+000	1.271600970325744E+002	-1.3878914E+000	-4.872442559711426E+002	6.7624211E-001	-1.3876410E+000	0
2.8961368E+000	1.273005970290251E+002	-1.3893222E+000	-4.797156559915820E+002	6.6647959E-001	-1.3890461E+000	0
2.9112689E+000	1.274808970244703E+002	-1.3911208E+000	-4.778400068644632E+002	6.6473317E-001	-1.3908494E+000	0
2.8873250E+000	1.276512970201657E+002	-1.3928126E+000	-4.823885741108124E+002	6.7187691E-001	-1.3925532E+000	0
2.8487017E+000	1.278019970163587E+002	-1.3943305E+000	-4.894617509602786E+002	6.8247145E-001	-1.3940600E+000	0
2.8088379E+000	1.279523970125592E+002	-1.3958316E+000	-4.969427491808474E+002	6.9364840E-001	-1.3955637E+000	0
2.8348866E+000	1.281027970087598E+002	-1.3973342E+000	-4.929065762715054E+002	6.8875521E-001	-1.3970681E+000	0
2.8312738E+000	1.282633970047027E+002	-1.3989389E+000	-4.941023138171977E+002	6.9121897E-001	-1.3986741E+000	0
2.7871919E+000	1.284138970009008E+002	-1.4004123E+000	-5.024456038841345E+002	7.0363104E-001	-1.4001788E+000	0
2.7690647E+000	1.285641969971039E+002	-1.4019591E+000	-5.062933796874931E+002	7.0980257E-001	-1.4016824E+000	0
2.7900007E+000	1.287146969933019E+002	-1.4034604E+000	-5.030322702758131E+002	7.0598584E-001	-1.4031870E+000	0
2.7930856E+000	1.288650969895025E+002	-1.4049717E+000	-5.030177722315348E+002	7.0672572E-001	-1.4046911E+000	0
2.7368922E+000	1.290057969859481E+002	-1.4063406E+000	-5.138458293522158E+002	7.2264224E-001	-1.4060978E+000	0
2.7565703E+000	1.291561969821487E+002	-1.4078778E+000	-5.107352869543802E+002	7.1905285E-001	-1.4076028E+000	0
2.7706671E+000	1.293162969781042E+002	-1.4094896E+000	-5.087185239898899E+002	7.1703351E-001	-1.4092036E+000	0
2.7209697E+000	1.294567969745549E+002	-1.4108583E+000	-5.185130398738547E+002	7.3154843E-001	-1.4106081E+000	0
2.6955597E+000	1.295972969710056E+002	-1.4122992E+000	-5.239353793872015E+002	7.3995352E-001	-1.4120132E+000	0
2.6729500E+000	1.297477969672036E+002	-1.4137908E+000	-5.289252799758933E+002	7.4778968E-001	-1.4135180E+000	0
2.7016561E+000	1.299083969631465E+002	-1.4154253E+000	-5.239102309420459E+002	7.4155581E-001	-1.4151239E+000	0
2.7340329E+000	1.300687969590945E+002	-1.4169979E+000	-5.182812413500715E+002	7.3440343E-001	-1.4167284E+000	0
2.7348719E+000	1.302490969545397E+002	-1.4188007E+000	-5.187814341419655E+002	7.3604745E-001	-1.4185313E+000	0
2.7280538E+000	1.303995969507378E+002	-1.4203231E+000	-5.206360428741559E+002	7.3947144E-001	-1.4200356E+000	0
2.7462237E+000	1.305398969471935E+002	-1.4217141E+000	-5.176978186916167E+002	7.3601830E-001	-1.4214396E+000	0
2.7396703E+000	1.307102969428888E+002	-1.4234104E+000	-5.195553820024634E+002	7.3954052E-001	-1.4231433E+000	0
2.6724045E+000	1.308708969388317E+002	-1.4250033E+000	-5.332288911616042E+002	7.5985295E-001	-1.4247493E+000	0
2.7047012E+000	1.310413969345245E+002	-1.4267048E+000	-5.274907205171507E+002	7.5257355E-001	-1.4264541E+000	0
2.6841116E+000	1.311918969307226E+002	-1.4281939E+000	-5.320918798904750E+002	7.5993037E-001	-1.4279588E+000	0
2.6598349E+000	1.313324969271707E+002	-1.4296263E+000	-5.374868971655105E+002	7.6840544E-001	-1.4293652E+000	0
2.6923554E+000	1.314927969231212E+002	-1.4312272E+000	-5.315892439773943E+002	7.6082498E-001	-1.4309680E+000	0
2.6540871E+000	1.316632969188140E+002	-1.4329379E+000	-5.398985683729179E+002	7.7364111E-001	-1.4326729E+000	0
2.6278198E+000	1.318138969150095E+002	-1.4344299E+000	-5.458631262010222E+002	7.8300238E-001	-1.4341789E+000	0
2.6077383E+000	1.319643969112076E+002	-1.4359483E+000	-5.506489402181505E+002	7.9070336E-001	-1.4356842E+000	0
2.6320059E+000	1.321351969068928E+002	-1.4376866E+000	-5.462322865091310E+002	7.8531080E-001	-1.4373922E+000	0
2.6495845E+000	1.322658969035911E+002	-1.4389925E+000	-5.431012021796078E+002	7.8151858E-001	-1.4386989E+000	0
2.6361368E+000	1.323961969002994E+002	-1.4402575E+000	-5.463515995838825E+002	7.8688699E-001	-1.4400018E+000	0
2.6209745E+000	1.325466968964975E+002	-1.4417868E+000	-5.500956563619175E+002	7.9312062E-001	-1.4415070E+000	0
2.6725206E+000	1.327171968921903E+002	-1.4435004E+000	-5.401269303955905E+002	7.7967346E-001	-1.4432123E+000	0
2.6845698E+000	1.328374968891512E+002	-1.4447154E+000	-5.381552667754404E+002	7.7748120E-001	-1.4444147E+000	0
2.6861074E+000	1.328647968884616E+002	-1.4451168E+000	-5.379966328938808E+002	7.7746797E-001	-1.4448166E+000	0