EC-Lab ASCII FILE
Nb header lines : 61                          

Linear Sweep Voltammetry

Run on channel : 1 (SN 1340)
User : 
Electrode connection : standard
Potential control : Ewe
Ewe ctrl range : min = -5.00 V, max = 5.00 V
Ewe,I filtering : 50 kHz
Channel : Grounded
Acquisition started on : 02/25/2026 11:34:47.177
Technique started on : 02/25/2026 11:34:50.389
Loaded Setting File :  NONE
Saved on :
	File : PtPdNiCoCr_sqmagnet_2_25_02_LSV_C01.mpr
	Directory : C:\Users\volt\Documents\Platalytix\
	Host : 127.0.0.1
Device : SP-200 (SN 0262)
Address : USB
EC-LAB for windows v11.60 (software)
Internet server v11.60 (firmware)
Command interpretor v11.60 (firmware)
Electrode material : PtPdNiCoCr
Initial state : 
Electrolyte : KOH (1M)
Comments : with magnet
Cable : standard
Reference electrode : Hg/HgO (0.140 V)
Electrode surface area : 1.000 cm˛
Characteristic mass : 0.001 g
Equivalent Weight : 0.000 g/eq.
Density : 0.000 g/cm3
Volume (V) : 0.001 cmł
Cycle Definition : Charge/Discharge alternance
tR (h:m:s)          0:00:5.0000         
dER/dt (mV/h)       0.0                 
dER (mV)            0                   
dtR (s)             0.0000              
dE/dt               10.000              
dE/dt unit          mV/s                
Ei (V)              -0.200              
vs.                 Ref                 
EL (V)              -2.500              
vs.                 Ref                 
record              <I>                 
dI                  0.000               
unit dI             µA                  
tI (s)              0.0000              
step percent        50                  
N                   10                  
E range min (V)     -5.000              
E range max (V)     5.000               
I Range             Auto                
I Range min         Unset               
I Range max         Unset               
I Range init        Unset               
Bandwidth           8                   

Rwe/Ohm	time/s	Ewe/V	<I>/mA	Pwe/W	control/V	error	
0.0000000E+000	3.212400152551709E+000	-1.4971271E-001	0.000000000000000E+000	0.0000000E+000	0.0000000E+000	0
0.0000000E+000	8.212200026246137E+000	-2.4940057E-002	0.000000000000000E+000	0.0000000E+000	-1.9981824E-001	0
3.4779090E+004	8.352200022709440E+000	-2.0108536E-001	-5.781789192681311E-003	1.1626331E-006	-2.0111802E-001	0
1.2513643E+003	8.472200019677985E+000	-2.0228936E-001	-1.616550584193139E-001	3.2701097E-005	-2.0231807E-001	0
1.1751760E+003	8.682200014372938E+000	-2.0439604E-001	-1.739280127345801E-001	3.5550198E-005	-2.0441808E-001	0
1.2289700E+003	8.882200009320513E+000	-2.0639803E-001	-1.679439133987712E-001	3.4663291E-005	-2.0641807E-001	0
1.2840536E+003	9.082200004268088E+000	-2.0841041E-001	-1.623066254086845E-001	3.3826389E-005	-2.0841807E-001	0
1.3350497E+003	9.282199999215663E+000	-2.1041282E-001	-1.576067368244400E-001	3.3162476E-005	-2.1041809E-001	0
1.3812200E+003	9.482199994163238E+000	-2.1241376E-001	-1.537870615308933E-001	3.2666489E-005	-2.1241806E-001	0
1.4236272E+003	9.682199989110813E+000	-2.1440935E-001	-1.506077915043602E-001	3.2291719E-005	-2.1441807E-001	0
1.4624812E+003	9.882199984058389E+000	-2.1640900E-001	-1.479738625220512E-001	3.2022876E-005	-2.1641809E-001	0
1.4985956E+003	1.008219997900596E+001	-2.1841526E-001	-1.457466340186645E-001	3.1833290E-005	-2.1841805E-001	0
1.5322920E+003	1.028219997395354E+001	-2.2042342E-001	-1.438520966317345E-001	3.1708369E-005	-2.2041808E-001	0
1.5639928E+003	1.048219996890111E+001	-2.2244197E-001	-1.422269782674439E-001	3.1637250E-005	-2.2241808E-001	0
1.5947770E+003	1.068219996384869E+001	-2.2441316E-001	-1.407175798406249E-001	3.1578875E-005	-2.2441806E-001	0
1.6240455E+003	1.088219995879626E+001	-2.2641538E-001	-1.394144297997697E-001	3.1565571E-005	-2.2641808E-001	0
1.6509713E+003	1.108219995374384E+001	-2.2840525E-001	-1.383459836533902E-001	3.1598949E-005	-2.2841808E-001	0
1.6767246E+003	1.128219994869141E+001	-2.3040363E-001	-1.374129254620127E-001	3.1660438E-005	-2.3041809E-001	0
1.7018086E+003	1.148219994363899E+001	-2.3241135E-001	-1.365672751063749E-001	3.1739786E-005	-2.3241806E-001	0
1.7262524E+003	1.168219993858656E+001	-2.3441294E-001	-1.357929678095291E-001	3.1831627E-005	-2.3441809E-001	0
1.7495365E+003	1.188219993353414E+001	-2.3640981E-001	-1.351271146536721E-001	3.1945376E-005	-2.3641805E-001	0
1.7724781E+003	1.208219992848171E+001	-2.3840523E-001	-1.345039039803770E-001	3.2066433E-005	-2.3841806E-001	0
1.7942006E+003	1.228219992342929E+001	-2.4039556E-001	-1.339847748389548E-001	3.2209344E-005	-2.4041809E-001	0
1.8160544E+003	1.248219991837686E+001	-2.4239922E-001	-1.334757455297311E-001	3.2354415E-005	-2.4241805E-001	0
1.8364642E+003	1.268219991332444E+001	-2.4439593E-001	-1.330796043470909E-001	3.2524113E-005	-2.4441807E-001	0
1.8564694E+003	1.288219990827201E+001	-2.4639453E-001	-1.327221105191979E-001	3.2702002E-005	-2.4641807E-001	0
1.8756119E+003	1.308219990321959E+001	-2.4838655E-001	-1.324296007270751E-001	3.2893731E-005	-2.4841806E-001	0
1.8938251E+003	1.328219989816716E+001	-2.5040105E-001	-1.322197333641367E-001	3.3107961E-005	-2.5041807E-001	0
1.9114476E+003	1.348219989311474E+001	-2.5239348E-001	-1.320431060611762E-001	3.3326818E-005	-2.5241807E-001	0
1.9289282E+003	1.368219988806231E+001	-2.5441116E-001	-1.318925016225990E-001	3.3554923E-005	-2.5441808E-001	0
1.9460199E+003	1.388219988300989E+001	-2.5639662E-001	-1.317543703386915E-001	3.3781376E-005	-2.5641808E-001	0
1.9637589E+003	1.408219987795746E+001	-2.5838140E-001	-1.315749105025938E-001	3.3996508E-005	-2.5841808E-001	0
1.9804388E+003	1.428219987290504E+001	-2.6037872E-001	-1.314752649002693E-001	3.4233362E-005	-2.6041806E-001	0
1.9964380E+003	1.448219986785261E+001	-2.6238665E-001	-1.314273972091713E-001	3.4484794E-005	-2.6241809E-001	0
2.0120928E+003	1.468219986280019E+001	-2.6438865E-001	-1.313998300176698E-001	3.4740624E-005	-2.6441807E-001	0
2.0280665E+003	1.488219985774776E+001	-2.6638958E-001	-1.313515024559567E-001	3.4990673E-005	-2.6641807E-001	0
2.0426819E+003	1.508219985269534E+001	-2.6836440E-001	-1.313784613713307E-001	3.5257301E-005	-2.6841807E-001	0
2.0567869E+003	1.528219984764291E+001	-2.7040204E-001	-1.314681869574619E-001	3.5549267E-005	-2.7041808E-001	0
2.0696638E+003	1.548219984259049E+001	-2.7239025E-001	-1.316108686190580E-001	3.5849516E-005	-2.7241808E-001	0
2.0832803E+003	1.568219983753806E+001	-2.7437544E-001	-1.317035687935291E-001	3.6136225E-005	-2.7441809E-001	0
2.0969131E+003	1.588219983248564E+001	-2.7637491E-001	-1.318008432021183E-001	3.6426445E-005	-2.7641806E-001	0
2.1093420E+003	1.608219982743321E+001	-2.7838051E-001	-1.319750438216238E-001	3.6739282E-005	-2.7841806E-001	0
2.1231843E+003	1.628219982238079E+001	-2.8038061E-001	-1.320566550539187E-001	3.7026126E-005	-2.8041807E-001	0
2.1359849E+003	1.648219981732836E+001	-2.8237665E-001	-1.321997446928784E-001	3.7330119E-005	-2.8241807E-001	0
2.1499033E+003	1.668219981227594E+001	-2.8437734E-001	-1.322744816833104E-001	3.7615864E-005	-2.8441805E-001	0
2.1622693E+003	1.688219980722351E+001	-2.8637594E-001	-1.324423094968524E-001	3.7928290E-005	-2.8641805E-001	0
2.1753489E+003	1.708219980217109E+001	-2.8836650E-001	-1.325610315537000E-001	3.8226161E-005	-2.8841808E-001	0
2.1879414E+003	1.728219979711866E+001	-2.9038671E-001	-1.327214221018129E-001	3.8540536E-005	-2.9041806E-001	0
2.2000659E+003	1.748219979206624E+001	-2.9237002E-001	-1.328914751142443E-001	3.8853483E-005	-2.9241806E-001	0
2.2121887E+003	1.768219978701381E+001	-2.9438093E-001	-1.330722457076718E-001	3.9173930E-005	-2.9441804E-001	0
2.2235249E+003	1.788219978196139E+001	-2.9637676E-001	-1.332914100436163E-001	3.9504477E-005	-2.9641807E-001	0
2.2337393E+003	1.808219977690896E+001	-2.9838300E-001	-1.335800553454491E-001	3.9858016E-005	-2.9841807E-001	0
2.2439604E+003	1.828219977185654E+001	-3.0037609E-001	-1.338597982372164E-001	4.0208284E-005	-3.0041811E-001	0
2.2544746E+003	1.848219976680411E+001	-3.0237532E-001	-1.341222994580713E-001	4.0555271E-005	-3.0241805E-001	0
2.2650972E+003	1.868219976175169E+001	-3.0438304E-001	-1.343796899544332E-001	4.0902898E-005	-3.0441806E-001	0
2.2749363E+003	1.888219975669927E+001	-3.0637696E-001	-1.346749643976808E-001	4.1261308E-005	-3.0641806E-001	0
2.2838462E+003	1.908219975164684E+001	-3.0837917E-001	-1.350262424530557E-001	4.1639280E-005	-3.0841807E-001	0
2.2920327E+003	1.928219974659442E+001	-3.1038156E-001	-1.354176003175480E-001	4.2031126E-005	-3.1041807E-001	0
2.3008865E+003	1.948219974154199E+001	-3.1235597E-001	-1.357546159448498E-001	4.2403764E-005	-3.1241807E-001	0
2.3086108E+003	1.968219973648957E+001	-3.1438407E-001	-1.361788986979349E-001	4.2812477E-005	-3.1441808E-001	0
2.3163411E+003	1.988219973143714E+001	-3.1636292E-001	-1.365787249613895E-001	4.3208445E-005	-3.1641808E-001	0
2.3264265E+003	2.008219972638472E+001	-3.1837490E-001	-1.368514725963783E-001	4.3570075E-005	-3.1841809E-001	0
2.3367449E+003	2.028219972133229E+001	-3.2036775E-001	-1.371000154786519E-001	4.3922424E-005	-3.2041806E-001	0
2.3465637E+003	2.048219971627987E+001	-3.2235870E-001	-1.373747854140879E-001	4.4283956E-005	-3.2241809E-001	0
2.3574175E+003	2.068219971122744E+001	-3.2437003E-001	-1.375954998984446E-001	4.4631855E-005	-3.2441807E-001	0
2.3682075E+003	2.088219970617502E+001	-3.2638431E-001	-1.378191374696347E-001	4.4982004E-005	-3.2641807E-001	0
2.3788472E+003	2.108219970112259E+001	-3.2837635E-001	-1.380401261883643E-001	4.5329114E-005	-3.2841808E-001	0
2.3891062E+003	2.128219969607017E+001	-3.3038384E-001	-1.382876363405516E-001	4.5688001E-005	-3.3041808E-001	0
2.3985254E+003	2.148219969101774E+001	-3.3237630E-001	-1.385752701785526E-001	4.6059136E-005	-3.3241808E-001	0
2.4082083E+003	2.168219968596532E+001	-3.3437911E-001	-1.388497517102079E-001	4.6428457E-005	-3.3441809E-001	0
2.4178696E+003	2.188219968091289E+001	-3.3639386E-001	-1.391282109913252E-001	4.6801877E-005	-3.3641806E-001	0
2.4254761E+003	2.208219967586047E+001	-3.3839199E-001	-1.395157012959647E-001	4.7210997E-005	-3.3841807E-001	0
2.4340015E+003	2.228219967080804E+001	-3.4038126E-001	-1.398443098659381E-001	4.7600384E-005	-3.4041807E-001	0
2.4449590E+003	2.248219966575562E+001	-3.4240171E-001	-1.400439548464556E-001	4.7951289E-005	-3.4241807E-001	0
2.4562134E+003	2.268219966070319E+001	-3.4439290E-001	-1.402129412664612E-001	4.8288341E-005	-3.4441805E-001	0
2.4682561E+003	2.288219965565077E+001	-3.4639043E-001	-1.403381270388158E-001	4.8611782E-005	-3.4641805E-001	0
2.4784063E+003	2.308219965059834E+001	-3.4838903E-001	-1.405697776935995E-001	4.8972968E-005	-3.4841809E-001	0
2.4907744E+003	2.328219964554592E+001	-3.5039061E-001	-1.406753644190910E-001	4.9291328E-005	-3.5041809E-001	0
2.5034875E+003	2.348219964049349E+001	-3.5238832E-001	-1.407589629015833E-001	4.9601815E-005	-3.5241809E-001	0
2.5162476E+003	2.368219963544107E+001	-3.5438612E-001	-1.408391310231522E-001	4.9911432E-005	-3.5441807E-001	0
2.5267239E+003	2.388219963038864E+001	-3.5638890E-001	-1.410478168724703E-001	5.0267874E-005	-3.5641810E-001	0
2.5385984E+003	2.408219962533622E+001	-3.5838178E-001	-1.411730948806044E-001	5.0593866E-005	-3.5841808E-001	0
2.5497903E+003	2.428219962028379E+001	-3.6040077E-001	-1.413452581306096E-001	5.0940940E-005	-3.6041811E-001	0
2.5608059E+003	2.448219961523137E+001	-3.6237133E-001	-1.415067478927812E-001	5.1277988E-005	-3.6241809E-001	0
2.5705400E+003	2.468219961017894E+001	-3.6438033E-001	-1.417524476837611E-001	5.1651805E-005	-3.6441806E-001	0
2.5805623E+003	2.488219960512652E+001	-3.6637613E-001	-1.419753176212963E-001	5.2016367E-005	-3.6641806E-001	0
2.5923181E+003	2.508219960007409E+001	-3.6839533E-001	-1.421103812374025E-001	5.2352800E-005	-3.6841807E-001	0
2.6049316E+003	2.528219959502167E+001	-3.7037465E-001	-1.421820999085144E-001	5.2660645E-005	-3.7041810E-001	0
2.6158435E+003	2.548219958996924E+001	-3.7238023E-001	-1.423556924662432E-001	5.3010444E-005	-3.7241808E-001	0
2.6281946E+003	2.568219958491682E+001	-3.7439576E-001	-1.424535948037677E-001	5.3334021E-005	-3.7441808E-001	0
2.6408965E+003	2.588219957986439E+001	-3.7638402E-001	-1.425213026011658E-001	5.3642740E-005	-3.7641811E-001	0
2.6556624E+003	2.608219957481197E+001	-3.7839147E-001	-1.424847892612275E-001	5.3915028E-005	-3.7841809E-001	0
2.6697217E+003	2.628219956975954E+001	-3.8039285E-001	-1.424840885254635E-001	5.4199929E-005	-3.8041806E-001	0
2.6842742E+003	2.648219956470712E+001	-3.8239145E-001	-1.424561786822252E-001	5.4474025E-005	-3.8241810E-001	0
2.6994802E+003	2.668219955965469E+001	-3.8437963E-001	-1.423902350927702E-001	5.4731907E-005	-3.8441807E-001	0
2.7150540E+003	2.688219955460227E+001	-3.8640344E-001	-1.423188857776432E-001	5.4992506E-005	-3.8641807E-001	0
2.7293987E+003	2.708219954954984E+001	-3.8840482E-001	-1.423041704818271E-001	5.5271626E-005	-3.8841805E-001	0
2.7384021E+003	2.728219954449742E+001	-3.9040044E-001	-1.425650558970840E-001	5.5657460E-005	-3.9041808E-001	0
2.7476394E+003	2.748219953944499E+001	-3.9239463E-001	-1.428115475635612E-001	5.6038483E-005	-3.9241809E-001	0
2.7600022E+003	2.768219953439257E+001	-3.9438343E-001	-1.428924350916932E-001	5.6354409E-005	-3.9441812E-001	0
2.7725913E+003	2.788219952934014E+001	-3.9638817E-001	-1.429666832412537E-001	5.6670302E-005	-3.9641806E-001	0
2.7791196E+003	2.808219952428772E+001	-3.9838913E-001	-1.433508346699885E-001	5.7109413E-005	-3.9841810E-001	0
2.7923916E+003	2.828219951923529E+001	-4.0039092E-001	-1.433863753174132E-001	5.7410602E-005	-4.0041813E-001	0
2.8086394E+003	2.848219951418287E+001	-4.0240034E-001	-1.432723395596094E-001	5.7652840E-005	-4.0241811E-001	0
2.8234526E+003	2.868219950913044E+001	-4.0437877E-001	-1.432213788163633E-001	5.7915684E-005	-4.0441808E-001	0
2.8386035E+003	2.888219950407802E+001	-4.0637925E-001	-1.431616814849290E-001	5.8177939E-005	-4.0641811E-001	0
2.8528755E+003	2.908219949902559E+001	-4.0838951E-001	-1.431501307271321E-001	5.8461010E-005	-4.0841809E-001	0
2.8660295E+003	2.928219949397317E+001	-4.1039783E-001	-1.431938555870888E-001	5.8766447E-005	-4.1041809E-001	0
2.8792537E+003	2.948219948892074E+001	-4.1242194E-001	-1.432391809692386E-001	5.9074981E-005	-4.1241810E-001	0
2.8914719E+003	2.968219948386832E+001	-4.1442162E-001	-1.433254879542418E-001	5.9397182E-005	-4.1441810E-001	0
2.9048030E+003	2.988219947881589E+001	-4.1642609E-001	-1.433577732375224E-001	5.9697919E-005	-4.1641808E-001	0
2.9168945E+003	3.008219947376347E+001	-4.1844210E-001	-1.434546608072362E-001	6.0027469E-005	-4.1841811E-001	0
2.9287080E+003	3.028219946871104E+001	-4.2043307E-001	-1.435558231422880E-001	6.0355615E-005	-4.2041808E-001	0
2.9401733E+003	3.048219946365862E+001	-4.2243442E-001	-1.436767018856291E-001	6.0693983E-005	-4.2241812E-001	0
2.9546023E+003	3.068219945860619E+001	-4.2443344E-001	-1.436516353068554E-001	6.0970557E-005	-4.2441809E-001	0
2.9672031E+003	3.088219945355377E+001	-4.2642140E-001	-1.437115627330412E-001	6.1281688E-005	-4.2641807E-001	0
2.9787473E+003	3.108219944850134E+001	-4.2842403E-001	-1.438269124919636E-001	6.1618906E-005	-4.2841810E-001	0
2.9907471E+003	3.128219944344892E+001	-4.3043476E-001	-1.439221503979649E-001	6.1949097E-005	-4.3041810E-001	0
3.0044902E+003	3.148219943839649E+001	-4.3241572E-001	-1.439231587056482E-001	6.2234634E-005	-4.3241811E-001	0
3.0199602E+003	3.168219943334407E+001	-4.3443620E-001	-1.438549457776809E-001	6.2495797E-005	-4.3441811E-001	0
3.0335193E+003	3.188219942829164E+001	-4.3640614E-001	-1.438613382670733E-001	6.2781968E-005	-4.3641812E-001	0
3.0470454E+003	3.208219942323922E+001	-4.3841806E-001	-1.438830094517560E-001	6.3080908E-005	-4.3841806E-001	0
3.0630632E+003	3.228219941818679E+001	-4.4043279E-001	-1.437883405067670E-001	6.3329098E-005	-4.4041809E-001	0
3.0808069E+003	3.248219941313437E+001	-4.4241655E-001	-1.436041150835521E-001	6.3532840E-005	-4.4241813E-001	0
3.0970898E+003	3.268219940808194E+001	-4.4442132E-001	-1.434964243314163E-001	6.3772874E-005	-4.4441810E-001	0
3.1082026E+003	3.288219940302952E+001	-4.4642958E-001	-1.436294955233128E-001	6.4120453E-005	-4.4641808E-001	0
3.1260498E+003	3.308219939797709E+001	-4.4842696E-001	-1.434484402028220E-001	6.4326145E-005	-4.4841811E-001	0
3.1428181E+003	3.328219939292467E+001	-4.5042410E-001	-1.433185385307825E-001	6.4554122E-005	-4.5041808E-001	0
3.1565549E+003	3.348219938787224E+001	-4.5241928E-001	-1.433269131766073E-001	6.4843858E-005	-4.5241809E-001	0
3.1719668E+003	3.368219938281982E+001	-4.5443806E-001	-1.432669715239938E-001	6.5105967E-005	-4.5441812E-001	0
3.1852473E+003	3.388219937776739E+001	-4.5643365E-001	-1.432961423875017E-001	6.5405184E-005	-4.5641813E-001	0
3.1972498E+003	3.408219937271497E+001	-4.5842230E-001	-1.433801956383971E-001	6.5728680E-005	-4.5841807E-001	0
3.2140999E+003	3.428219936766254E+001	-4.6041155E-001	-1.432474281336866E-001	6.5952772E-005	-4.6041811E-001	0
3.2316370E+003	3.448219936261012E+001	-4.6242648E-001	-1.430935697997509E-001	6.6170258E-005	-4.6241814E-001	0
3.2495808E+003	3.468219935755769E+001	-4.6443123E-001	-1.429203484194719E-001	6.6376670E-005	-4.6441808E-001	0
3.2674512E+003	3.488219935250527E+001	-4.6642452E-001	-1.427487381459418E-001	6.6581510E-005	-4.6641809E-001	0
3.2880869E+003	3.508219934745284E+001	-4.6840632E-001	-1.424555743774163E-001	6.6727094E-005	-4.6841812E-001	0
3.3067290E+003	3.528219934240042E+001	-4.7041044E-001	-1.422585420428761E-001	6.6919900E-005	-4.7041816E-001	0
3.3260417E+003	3.548219933734799E+001	-4.7240630E-001	-1.420325783341110E-001	6.7097084E-005	-4.7241810E-001	0
3.3450720E+003	3.568219933229557E+001	-4.7439319E-001	-1.418185275071249E-001	6.7277746E-005	-4.7441810E-001	0
3.3652593E+003	3.588219932724314E+001	-4.7641301E-001	-1.415679915206265E-001	6.7444831E-005	-4.7641811E-001	0
3.3795625E+003	3.608219932219072E+001	-4.7841251E-001	-1.415604843109710E-001	6.7724308E-005	-4.7841808E-001	0
3.3970356E+003	3.628219931713829E+001	-4.8041210E-001	-1.414209774847386E-001	6.7940346E-005	-4.8041806E-001	0
3.4167600E+003	3.648219931208587E+001	-4.8240352E-001	-1.411874178330292E-001	6.8109308E-005	-4.8241815E-001	0
3.4391155E+003	3.668219930703344E+001	-4.8438936E-001	-1.408470757675198E-001	6.8224828E-005	-4.8441812E-001	0
3.4596621E+003	3.688219930198102E+001	-4.8641470E-001	-1.405960146206811E-001	6.8387970E-005	-4.8641810E-001	0
3.4807090E+003	3.708219929692859E+001	-4.8841268E-001	-1.403198863238162E-001	6.8534013E-005	-4.8841810E-001	0
3.5035178E+003	3.728219929187617E+001	-4.9039319E-001	-1.399716561113205E-001	6.8641144E-005	-4.9041811E-001	0
3.5268425E+003	3.748219928682374E+001	-4.9241367E-001	-1.396188439216360E-001	6.8750225E-005	-4.9241805E-001	0
3.5478608E+003	3.768219928177132E+001	-4.9441883E-001	-1.393568821593514E-001	6.8900670E-005	-4.9441808E-001	0
3.5646865E+003	3.788219927671889E+001	-4.9640706E-001	-1.392568659497729E-001	6.9128095E-005	-4.9641812E-001	0
3.5874209E+003	3.808219927166647E+001	-4.9840456E-001	-1.389311667248738E-001	6.9243928E-005	-4.9841812E-001	0
3.6129299E+003	3.828219926661404E+001	-5.0040525E-001	-1.385040005886518E-001	6.9308131E-005	-5.0041807E-001	0
3.6362615E+003	3.848219926156162E+001	-5.0242215E-001	-1.381699699885264E-001	6.9419657E-005	-5.0241810E-001	0
3.6610698E+003	3.868219925650919E+001	-5.0440782E-001	-1.377760741126861E-001	6.9495327E-005	-5.0441808E-001	0
3.6868220E+003	3.888219925145677E+001	-5.0641149E-001	-1.373571881785765E-001	6.9559261E-005	-5.0641811E-001	0
3.7130476E+003	3.908219924640434E+001	-5.0840479E-001	-1.369238532097619E-001	6.9612746E-005	-5.0841808E-001	0
3.7344734E+003	3.928219924135192E+001	-5.1040357E-001	-1.366735070166678E-001	6.9758644E-005	-5.1041812E-001	0
3.7610928E+003	3.948219923629949E+001	-5.1240581E-001	-1.362385447981792E-001	6.9809423E-005	-5.1241815E-001	0
3.7874387E+003	3.968219923124707E+001	-5.1439923E-001	-1.358171737438190E-001	6.9864247E-005	-5.1441807E-001	0
3.8100176E+003	3.988219922619464E+001	-5.1641548E-001	-1.355414961416128E-001	6.9995724E-005	-5.1641810E-001	0
3.8351343E+003	4.008219922114222E+001	-5.1840621E-001	-1.351729003837128E-001	7.0074471E-005	-5.1841813E-001	0
3.8622510E+003	4.028219921608979E+001	-5.2041602E-001	-1.347442296641945E-001	7.0123053E-005	-5.2041805E-001	0
3.8880776E+003	4.048219921103737E+001	-5.2241319E-001	-1.343628487194937E-001	7.0192924E-005	-5.2241814E-001	0
3.9164258E+003	4.068219920598494E+001	-5.2440143E-001	-1.338979577774486E-001	7.0216280E-005	-5.2441818E-001	0
3.9464260E+003	4.088219920093252E+001	-5.2641433E-001	-1.333901407820113E-001	7.0218484E-005	-5.2641815E-001	0
3.9776360E+003	4.108219919588009E+001	-5.2842534E-001	-1.328490953142762E-001	7.0200826E-005	-5.2841806E-001	0
4.0071902E+003	4.128219919082767E+001	-5.3039801E-001	-1.323615746845039E-001	7.0204318E-005	-5.3041810E-001	0
4.0374163E+003	4.148219918577524E+001	-5.3241485E-001	-1.318701915147282E-001	7.0209651E-005	-5.3241819E-001	0
4.0671838E+003	4.168219918072282E+001	-5.3439963E-001	-1.313930322477366E-001	7.0216389E-005	-5.3441805E-001	0
4.1002827E+003	4.188219917567039E+001	-5.3641200E-001	-1.308231701231777E-001	7.0175120E-005	-5.3641808E-001	0
4.1340229E+003	4.208219917061797E+001	-5.3840297E-001	-1.302370554133996E-001	7.0120019E-005	-5.3841817E-001	0
4.1670371E+003	4.228219916556554E+001	-5.4041481E-001	-1.296880251533711E-001	7.0085327E-005	-5.4041809E-001	0
4.1979009E+003	4.248219916051312E+001	-5.4242843E-001	-1.292142011805986E-001	7.0089460E-005	-5.4241812E-001	0
4.2315469E+003	4.268219915546069E+001	-5.4442042E-001	-1.286575375156493E-001	7.0043789E-005	-5.4441810E-001	0
4.2665112E+003	4.288219915040827E+001	-5.4641926E-001	-1.280716817990758E-001	6.9980837E-005	-5.4641819E-001	0
4.3001719E+003	4.308219914535584E+001	-5.4841936E-001	-1.275342889151232E-001	6.9942274E-005	-5.4841810E-001	0
4.3316816E+003	4.328219914030342E+001	-5.5041599E-001	-1.270675095022060E-001	6.9939990E-005	-5.5041808E-001	0
4.3683115E+003	4.348219913525099E+001	-5.5242777E-001	-1.264625360562024E-001	6.9861417E-005	-5.5241817E-001	0
4.4043315E+003	4.368219913019857E+001	-5.5440897E-001	-1.258781203206061E-001	6.9787959E-005	-5.5441803E-001	0
4.4405186E+003	4.388219912514614E+001	-5.5642128E-001	-1.253054704403080E-001	6.9722628E-005	-5.5641812E-001	0
4.4761147E+003	4.408219912009372E+001	-5.5842710E-001	-1.247571018554033E-001	6.9667745E-005	-5.5841815E-001	0
4.5125371E+003	4.428219911504129E+001	-5.6041771E-001	-1.241912666049338E-001	6.9598987E-005	-5.6041813E-001	0
4.5501396E+003	4.448219910998887E+001	-5.6242162E-001	-1.236053552391965E-001	6.9518326E-005	-5.6241810E-001	0
4.5897261E+003	4.468219910493644E+001	-5.6441426E-001	-1.229734078362208E-001	6.9407943E-005	-5.6441808E-001	0
4.6299668E+003	4.488219909988402E+001	-5.6639987E-001	-1.223334605106551E-001	6.9289657E-005	-5.6641817E-001	0
4.6689634E+003	4.508219909483159E+001	-5.6839508E-001	-1.217390292423384E-001	6.9195863E-005	-5.6841803E-001	0
4.7086230E+003	4.528219908977917E+001	-5.7038432E-001	-1.211361242342071E-001	6.9094145E-005	-5.7041806E-001	0
4.7462891E+003	4.548219908472674E+001	-5.7240939E-001	-1.206014652666800E-001	6.9033413E-005	-5.7241815E-001	0
4.7853569E+003	4.568219907967432E+001	-5.7441080E-001	-1.200350998634740E-001	6.8949455E-005	-5.7441807E-001	0
4.8248389E+003	4.588219907462189E+001	-5.7638329E-001	-1.194616640060545E-001	6.8855705E-005	-5.7641810E-001	0
4.8644292E+003	4.608219906956947E+001	-5.7840437E-001	-1.189048766874441E-001	6.8775102E-005	-5.7841808E-001	0
4.9066431E+003	4.628219906451704E+001	-5.8037686E-001	-1.182839020858610E-001	6.8649242E-005	-5.8041817E-001	0
4.9532505E+003	4.648219905946462E+001	-5.8238864E-001	-1.175770584098967E-001	6.8475543E-005	-5.8241808E-001	0
4.9989443E+003	4.668219905441219E+001	-5.8440989E-001	-1.169066558784200E-001	6.8321409E-005	-5.8441812E-001	0
5.0466392E+003	4.688219904935977E+001	-5.8638048E-001	-1.161922776190953E-001	6.8132882E-005	-5.8641815E-001	0
5.0914463E+003	4.708219904430734E+001	-5.8840704E-001	-1.155677575210443E-001	6.8000882E-005	-5.8841807E-001	0
5.1345332E+003	4.728219903925492E+001	-5.9039336E-001	-1.149848160194553E-001	6.7886271E-005	-5.9041810E-001	0
5.1796548E+003	4.748219903420249E+001	-5.9239322E-001	-1.143692446505132E-001	6.7751564E-005	-5.9241813E-001	0
5.2272642E+003	4.768219902915007E+001	-5.9440780E-001	-1.137129776654950E-001	6.7591878E-005	-5.9441811E-001	0
5.2724980E+003	4.788219902409764E+001	-5.9639472E-001	-1.131142654737076E-001	6.7460751E-005	-5.9641814E-001	0
5.3191182E+003	4.808219901904522E+001	-5.9838730E-001	-1.124974681706485E-001	6.7317058E-005	-5.9841812E-001	0
5.3671157E+003	4.828219901399279E+001	-6.0038888E-001	-1.118643464818347E-001	6.7162109E-005	-6.0041815E-001	0
5.4094849E+003	4.848219900894037E+001	-6.0239494E-001	-1.113590161715237E-001	6.7082110E-005	-6.0241812E-001	0
5.4578418E+003	4.868219900388794E+001	-6.0439986E-001	-1.107397129085514E-001	6.6931068E-005	-6.0441804E-001	0
5.5057461E+003	4.888219899883552E+001	-6.0638851E-001	-1.101373942165537E-001	6.6786051E-005	-6.0641813E-001	0
5.5581797E+003	4.908219899378309E+001	-6.0839474E-001	-1.094593557184919E-001	6.6594497E-005	-6.0841811E-001	0
5.6067690E+003	4.928219898873067E+001	-6.1039126E-001	-1.088668452702513E-001	6.6451372E-005	-6.1041808E-001	0
5.6569448E+003	4.948219898367825E+001	-6.1241806E-001	-1.082595101359156E-001	6.6300076E-005	-6.1241812E-001	0
5.7081265E+003	4.968219897862582E+001	-6.1440581E-001	-1.076370373974367E-001	6.6132823E-005	-6.1441815E-001	0
5.7554316E+003	4.988219897357340E+001	-6.1639422E-001	-1.070978235645543E-001	6.6014480E-005	-6.1641806E-001	0
5.8040479E+003	5.008219896852097E+001	-6.1841148E-001	-1.065483043696773E-001	6.5890694E-005	-6.1841810E-001	0
5.8526279E+003	5.028219896346855E+001	-6.2041050E-001	-1.060054601326396E-001	6.5766901E-005	-6.2041813E-001	0
5.9006465E+003	5.048219895841612E+001	-6.2242568E-001	-1.054843152015810E-001	6.5656146E-005	-6.2241811E-001	0
5.9511392E+003	5.068219895336370E+001	-6.2443161E-001	-1.049263982552097E-001	6.5519358E-005	-6.2441808E-001	0
6.0012163E+003	5.088219894831127E+001	-6.2641799E-001	-1.043818364861736E-001	6.5386659E-005	-6.2641811E-001	0
6.0493467E+003	5.108219894325885E+001	-6.2840980E-001	-1.038806066920139E-001	6.5279593E-005	-6.2841815E-001	0
6.0978506E+003	5.128219893820642E+001	-6.3040853E-001	-1.033820896905741E-001	6.5172950E-005	-6.3041812E-001	0
6.1425449E+003	5.148219893315400E+001	-6.3241708E-001	-1.029568497385083E-001	6.5111672E-005	-6.3241810E-001	0
6.1867412E+003	5.168219892810157E+001	-6.3441151E-001	-1.025437311788862E-001	6.5054926E-005	-6.3441813E-001	0
6.2303506E+003	5.188219892304915E+001	-6.3641620E-001	-1.021477339045901E-001	6.5008469E-005	-6.3641816E-001	0
6.2707671E+003	5.208219891799672E+001	-6.3841182E-001	-1.018076112046162E-001	6.4995183E-005	-6.3841808E-001	0
6.3079912E+003	5.228219891294430E+001	-6.4040428E-001	-1.015227013056395E-001	6.5015571E-005	-6.4041811E-001	0
6.3411084E+003	5.248219890789187E+001	-6.4242107E-001	-1.013105316045368E-001	6.5084023E-005	-6.4241815E-001	0
6.3759321E+003	5.268219890283945E+001	-6.4441550E-001	-1.010700063716601E-001	6.5131077E-005	-6.4441806E-001	0
6.4072314E+003	5.288219889778702E+001	-6.4640874E-001	-1.008873699178032E-001	6.5214481E-005	-6.4641809E-001	0
6.4349507E+003	5.308219889273460E+001	-6.4840692E-001	-1.007633074756944E-001	6.5335626E-005	-6.4841819E-001	0
6.4579849E+003	5.328219888768217E+001	-6.5040129E-001	-1.007127277183506E-001	6.5503686E-005	-6.5041810E-001	0
6.4807280E+003	5.348219888262975E+001	-6.5241283E-001	-1.006696857226901E-001	6.5678192E-005	-6.5241814E-001	0
6.4961450E+003	5.368219887757732E+001	-6.5440971E-001	-1.007381580028759E-001	6.5924025E-005	-6.5441811E-001	0
6.5077363E+003	5.388219887252490E+001	-6.5641993E-001	-1.008676252372211E-001	6.6211520E-005	-6.5641814E-001	0
6.5161982E+003	5.408219886747247E+001	-6.5841687E-001	-1.010431002650218E-001	6.6528482E-005	-6.5841806E-001	0
6.5129546E+003	5.428219886242005E+001	-6.6042179E-001	-1.014012616041144E-001	6.6967601E-005	-6.6041809E-001	0
6.5075298E+003	5.448219885736762E+001	-6.6240728E-001	-1.017908933466876E-001	6.7427027E-005	-6.6241819E-001	0
6.4940825E+003	5.468219885231520E+001	-6.6441411E-001	-1.023106936211201E-001	6.7976667E-005	-6.6441810E-001	0
6.4722817E+003	5.488219884726277E+001	-6.6641629E-001	-1.029646594770033E-001	6.8617323E-005	-6.6641814E-001	0
6.4521382E+003	5.508219884221035E+001	-6.6839772E-001	-1.035932116770097E-001	6.9241469E-005	-6.6841811E-001	0
6.4207319E+003	5.528219883715792E+001	-6.7040652E-001	-1.044127886656616E-001	6.9999012E-005	-6.7041814E-001	0
6.3910894E+003	5.548219883210550E+001	-6.7239320E-001	-1.052079157367380E-001	7.0741087E-005	-6.7241812E-001	0
6.3514385E+003	5.568219882705307E+001	-6.7438567E-001	-1.061784180637256E-001	7.1605202E-005	-6.7441809E-001	0
6.3047539E+003	5.588219882200065E+001	-6.7638379E-001	-1.072815505707479E-001	7.2563504E-005	-6.7641819E-001	0
6.2573525E+003	5.608219881694822E+001	-6.7838943E-001	-1.084147725136031E-001	7.3547439E-005	-6.7841810E-001	0
6.2036387E+003	5.628219881189580E+001	-6.8039691E-001	-1.096770725679708E-001	7.4623938E-005	-6.8041807E-001	0
6.1456030E+003	5.648219880684337E+001	-6.8240231E-001	-1.110391160990630E-001	7.5773351E-005	-6.8241817E-001	0
6.0841587E+003	5.668219880179095E+001	-6.8438542E-001	-1.124864470175642E-001	7.6984084E-005	-6.8441808E-001	0
6.0174658E+003	5.688219879673852E+001	-6.8639141E-001	-1.140665217627967E-001	7.8294281E-005	-6.8641812E-001	0
5.9473779E+003	5.708219879168610E+001	-6.8839622E-001	-1.157478540628940E-001	7.9680387E-005	-6.8841809E-001	0
5.8725503E+003	5.728219878663367E+001	-6.9039083E-001	-1.175623479681487E-001	8.1163969E-005	-6.9041818E-001	0
5.7952124E+003	5.748219878158125E+001	-6.9238871E-001	-1.194759880133445E-001	8.2723825E-005	-6.9241810E-001	0
5.7134805E+003	5.768219877652882E+001	-6.9440973E-001	-1.215388275653366E-001	8.4397747E-005	-6.9441807E-001	0
5.6324604E+003	5.788219877147640E+001	-6.9638616E-001	-1.236380000879607E-001	8.6099790E-005	-6.9641817E-001	0
5.5485874E+003	5.808219876642397E+001	-6.9839281E-001	-1.258685773443389E-001	8.7905712E-005	-6.9841814E-001	0
5.4639482E+003	5.828219876137155E+001	-7.0039636E-001	-1.281850236423674E-001	8.9780326E-005	-7.0041811E-001	0
5.3798789E+003	5.848219875631912E+001	-7.0238101E-001	-1.305570335089401E-001	9.1700778E-005	-7.0241815E-001	0
5.2933999E+003	5.868219875126670E+001	-7.0439094E-001	-1.330696678310714E-001	9.3733070E-005	-7.0441818E-001	0
5.2079805E+003	5.888219874621427E+001	-7.0640665E-001	-1.356392650201902E-001	9.5816482E-005	-7.0641816E-001	0
5.1234917E+003	5.908219874116185E+001	-7.0841187E-001	-1.382674021327488E-001	9.7950266E-005	-7.0841813E-001	0
5.0379014E+003	5.928219873610942E+001	-7.1039480E-001	-1.410100618884170E-001	1.0017282E-004	-7.1041822E-001	0
4.9529385E+003	5.948219873105700E+001	-7.1240652E-001	-1.438351162485443E-001	1.0246907E-004	-7.1241814E-001	0
4.8666895E+003	5.968219872600457E+001	-7.1439642E-001	-1.467930976366898E-001	1.0486846E-004	-7.1441811E-001	0
4.7791519E+003	5.988219872095215E+001	-7.1640515E-001	-1.499021536091980E-001	1.0739068E-004	-7.1641815E-001	0
4.6856099E+003	6.008219871589972E+001	-7.1839929E-001	-1.533203302341981E-001	1.1014521E-004	-7.1841818E-001	0
4.6010005E+003	6.028219871084730E+001	-7.2040862E-001	-1.565765119273888E-001	1.1279907E-004	-7.2041816E-001	0
4.5168418E+003	6.048219870579487E+001	-7.2240210E-001	-1.599352187160272E-001	1.1553754E-004	-7.2241813E-001	0
4.4291494E+003	6.068219870074245E+001	-7.2440571E-001	-1.635541358821171E-001	1.1847955E-004	-7.2441822E-001	0
4.3468193E+003	6.088219869569002E+001	-7.2640234E-001	-1.671112360719955E-001	1.2139000E-004	-7.2641820E-001	0
4.2661396E+003	6.108219869063760E+001	-7.2839588E-001	-1.707388711966522E-001	1.2436548E-004	-7.2841805E-001	0
4.1862056E+003	6.128219868558517E+001	-7.3039466E-001	-1.744765493429581E-001	1.2743674E-004	-7.3041815E-001	0
4.1103262E+003	6.148219868053275E+001	-7.3240703E-001	-1.781870884379441E-001	1.3050548E-004	-7.3241812E-001	0
4.0280024E+003	6.168219867548032E+001	-7.3438871E-001	-1.823208203080986E-001	1.3389435E-004	-7.3441809E-001	0
3.9515933E+003	6.188219867042790E+001	-7.3639113E-001	-1.863529632182659E-001	1.3722866E-004	-7.3641813E-001	0
3.8718047E+003	6.208219866537547E+001	-7.3840308E-001	-1.907128937618463E-001	1.4082299E-004	-7.3841816E-001	0
3.8003179E+003	6.228219866032305E+001	-7.4039298E-001	-1.948239577832784E-001	1.4424630E-004	-7.4041814E-001	0
3.7351663E+003	6.248219865527062E+001	-7.4239331E-001	-1.987577732441226E-001	1.4755643E-004	-7.4241811E-001	0
3.6656035E+003	6.268219865021820E+001	-7.4441624E-001	-2.030814965033825E-001	1.5117717E-004	-7.4441820E-001	0
3.5844045E+003	6.288219864516577E+001	-7.4642044E-001	-2.082411315853872E-001	1.5543544E-004	-7.4641812E-001	0
3.5145459E+003	6.308219864011335E+001	-7.4840510E-001	-2.129450411009948E-001	1.5936916E-004	-7.4841809E-001	0
3.4562649E+003	6.328219863506092E+001	-7.5039876E-001	-2.171126355811985E-001	1.6292105E-004	-7.5041813E-001	0
3.3920911E+003	6.348219863000850E+001	-7.5240737E-001	-2.218122630128782E-001	1.6689318E-004	-7.5241816E-001	0
3.3285732E+003	6.368219862495607E+001	-7.5440556E-001	-2.266453242229303E-001	1.7098249E-004	-7.5441813E-001	0
3.2556125E+003	6.388219861990365E+001	-7.5640559E-001	-2.323389404839800E-001	1.7574248E-004	-7.5641811E-001	0
3.1932942E+003	6.408219861485122E+001	-7.5840718E-001	-2.374999369758592E-001	1.8012166E-004	-7.5841820E-001	0
3.1331956E+003	6.428219860979880E+001	-7.6040912E-001	-2.426944242604504E-001	1.8454705E-004	-7.6041818E-001	0
3.0770764E+003	6.448219860474637E+001	-7.6241559E-001	-2.477727175337550E-001	1.8890577E-004	-7.6241815E-001	0
3.0256213E+003	6.468219859969395E+001	-7.6441276E-001	-2.526465362960023E-001	1.9312624E-004	-7.6441813E-001	0
2.9780789E+003	6.488219859464152E+001	-7.6642358E-001	-2.573550333228818E-001	1.9724296E-004	-7.6641822E-001	0
2.9352202E+003	6.508219858958910E+001	-7.6841801E-001	-2.617922768169971E-001	2.0116589E-004	-7.6841807E-001	0
2.8994773E+003	6.528219858453667E+001	-7.7042186E-001	-2.657105930174898E-001	2.0470926E-004	-7.7041817E-001	0
2.8563445E+003	6.548219857948425E+001	-7.7240795E-001	-2.704183447455601E-001	2.0887327E-004	-7.7241814E-001	0
2.8145339E+003	6.568219857443182E+001	-7.7439725E-001	-2.751422775993775E-001	2.1306942E-004	-7.7441806E-001	0
2.7848894E+003	6.588219856937940E+001	-7.7640891E-001	-2.787934541850097E-001	2.1645772E-004	-7.7641809E-001	0
2.7449375E+003	6.608219856432697E+001	-7.7840412E-001	-2.835780911067349E-001	2.2073835E-004	-7.7841818E-001	0
2.7033457E+003	6.628219855927455E+001	-7.8040767E-001	-2.886821634670425E-001	2.2528977E-004	-7.8041816E-001	0
2.6683909E+003	6.648219855422212E+001	-7.8240365E-001	-2.932117817133588E-001	2.2940997E-004	-7.8241813E-001	0
2.6414675E+003	6.668219854916970E+001	-7.8440970E-001	-2.969598156862527E-001	2.3293815E-004	-7.8441817E-001	0
2.6279692E+003	6.688219854411727E+001	-7.8641355E-001	-2.992476193960794E-001	2.3533238E-004	-7.8641820E-001	0
2.6055012E+003	6.708219853906485E+001	-7.8840381E-001	-3.025920054159399E-001	2.3856469E-004	-7.8841817E-001	0
2.5805627E+003	6.728219853401242E+001	-7.9040164E-001	-3.062904266505386E-001	2.4209246E-004	-7.9041809E-001	0
2.5562822E+003	6.748219852896000E+001	-7.9240799E-001	-3.099845373969268E-001	2.4563423E-004	-7.9241824E-001	0
2.5226658E+003	6.768219852390757E+001	-7.9439867E-001	-3.149044514378181E-001	2.5015968E-004	-7.9441822E-001	0
2.4857827E+003	6.788219851885515E+001	-7.9641438E-001	-3.203877603673204E-001	2.5516143E-004	-7.9641813E-001	0
2.4711448E+003	6.808219851380272E+001	-7.9841441E-001	-3.230949554744429E-001	2.5796366E-004	-7.9841816E-001	0
2.4550371E+003	6.828219850875030E+001	-8.0041999E-001	-3.260317244852082E-001	2.6096232E-004	-8.0041820E-001	0
2.4293350E+003	6.848219850369787E+001	-8.0242079E-001	-3.303047157633987E-001	2.6504337E-004	-8.0241817E-001	0
2.4056064E+003	6.868219849864545E+001	-8.0440152E-001	-3.343861651418911E-001	2.6898074E-004	-8.0441815E-001	0
2.3936726E+003	6.888219849359302E+001	-8.0640793E-001	-3.368914722720510E-001	2.7167195E-004	-8.0641824E-001	0
2.3791702E+003	6.908219848854060E+001	-8.0841142E-001	-3.397871248440951E-001	2.7468780E-004	-8.0841810E-001	0
2.3739048E+003	6.928219848348817E+001	-8.1041414E-001	-3.413844324116182E-001	2.7666276E-004	-8.1041819E-001	0
2.3394346E+003	6.948219847843575E+001	-8.1241649E-001	-3.472704485612113E-001	2.8212825E-004	-8.1241816E-001	0
2.3151482E+003	6.968219847338332E+001	-8.1442893E-001	-3.517826224577998E-001	2.8650195E-004	-8.1441814E-001	0
2.2832583E+003	6.988219846833090E+001	-8.1643277E-001	-3.575735498925088E-001	2.9193476E-004	-8.1641823E-001	0
2.2737795E+003	7.008219846327847E+001	-8.1844872E-001	-3.599507785856289E-001	2.9460125E-004	-8.1841815E-001	0
2.2725911E+003	7.028219845822605E+001	-8.2043821E-001	-3.610144647307134E-001	2.9619006E-004	-8.2041824E-001	0
2.2567468E+003	7.048219845317362E+001	-8.2242554E-001	-3.644296703416696E-001	2.9971628E-004	-8.2241815E-001	0
2.2481357E+003	7.068219844812120E+001	-8.2442504E-001	-3.667149592081151E-001	3.0232899E-004	-8.2441807E-001	0
2.2495015E+003	7.088219844306877E+001	-8.2641464E-001	-3.673767812968207E-001	3.0360554E-004	-8.2641822E-001	0
2.2636736E+003	7.108219843801635E+001	-8.2842600E-001	-3.659653049152413E-001	3.0317518E-004	-8.2841820E-001	0
2.2425620E+003	7.128219843296392E+001	-8.3042699E-001	-3.703028049738153E-001	3.0750944E-004	-8.3041817E-001	0
2.2093608E+003	7.148219842791150E+001	-8.3241385E-001	-3.767668078305073E-001	3.1362590E-004	-8.3241814E-001	0
2.1853491E+003	7.168219842285907E+001	-8.3442330E-001	-3.818260986260782E-001	3.1860461E-004	-8.3441818E-001	0
2.1819868E+003	7.188219841780665E+001	-8.3643174E-001	-3.833349143723019E-001	3.2063349E-004	-8.3641815E-001	0
2.1818586E+003	7.208219841275422E+001	-8.3843321E-001	-3.842747411933516E-001	3.2218872E-004	-8.3841813E-001	0
2.1694722E+003	7.228219840770180E+001	-8.4043378E-001	-3.873908911196011E-001	3.2557640E-004	-8.4041822E-001	0
2.1553630E+003	7.248219840264937E+001	-8.4243232E-001	-3.908540048486562E-001	3.2926805E-004	-8.4241819E-001	0
2.1383542E+003	7.268219839759695E+001	-8.4442645E-001	-3.948954750367726E-001	3.3346019E-004	-8.4441817E-001	0
2.1218770E+003	7.288219839254452E+001	-8.4642905E-001	-3.989058278644650E-001	3.3764547E-004	-8.4641814E-001	0
2.1123650E+003	7.308219838749210E+001	-8.4842765E-001	-4.016482334736047E-001	3.4076947E-004	-8.4841812E-001	0
2.1125884E+003	7.328219838243967E+001	-8.5043883E-001	-4.025577704534111E-001	3.4235077E-004	-8.5041821E-001	0
2.1025139E+003	7.348219837738725E+001	-8.5244805E-001	-4.054422873471459E-001	3.4561849E-004	-8.5241812E-001	0
2.0809441E+003	7.368219837233482E+001	-8.5443258E-001	-4.105985397071730E-001	3.5082878E-004	-8.5441828E-001	0
2.0640786E+003	7.388219836728240E+001	-8.5645241E-001	-4.149320538909675E-001	3.5536956E-004	-8.5641825E-001	0
2.0480037E+003	7.408219836222997E+001	-8.5844696E-001	-4.191627982716657E-001	3.5982902E-004	-8.5841805E-001	0
2.0061136E+003	7.428219835717755E+001	-8.6044759E-001	-4.289126792403088E-001	3.6905688E-004	-8.6041820E-001	0
1.9920126E+003	7.448219835212512E+001	-8.6244047E-001	-4.329493180500190E-001	3.7339301E-004	-8.6241817E-001	0
1.9762151E+003	7.468219834707270E+001	-8.6442858E-001	-4.374162473899572E-001	3.7811510E-004	-8.6441815E-001	0
1.9626104E+003	7.488219834202027E+001	-8.6644423E-001	-4.414754326195549E-001	3.8251386E-004	-8.6641818E-001	0
1.9573505E+003	7.508219833696785E+001	-8.6843091E-001	-4.436767592417965E-001	3.8530261E-004	-8.6841822E-001	0
1.9639885E+003	7.528219833191542E+001	-8.7043434E-001	-4.431972609845563E-001	3.8577412E-004	-8.7041819E-001	0
1.9719054E+003	7.548219832686300E+001	-8.7243193E-001	-4.424309211945712E-001	3.8599086E-004	-8.7241811E-001	0
1.9618115E+003	7.568219832181057E+001	-8.7442440E-001	-4.457229368701203E-001	3.8975102E-004	-8.7441820E-001	0
1.9505011E+003	7.588219831675815E+001	-8.7642354E-001	-4.493324914250234E-001	3.9380556E-004	-8.7641817E-001	0
1.9333113E+003	7.608219831170572E+001	-8.7841326E-001	-4.543568607960387E-001	3.9911308E-004	-8.7841815E-001	0
1.9193610E+003	7.628219830665330E+001	-8.8042974E-001	-4.587098361413219E-001	4.0386178E-004	-8.8041812E-001	0
1.9073323E+003	7.648219830160087E+001	-8.8242400E-001	-4.626482836184120E-001	4.0825194E-004	-8.8241822E-001	0
1.8946890E+003	7.668219829654845E+001	-8.8441610E-001	-4.667869558612763E-001	4.1283391E-004	-8.8441819E-001	0
1.8737709E+003	7.688219829149602E+001	-8.8642365E-001	-4.730693870129006E-001	4.1933989E-004	-8.8641816E-001	0
1.8545164E+003	7.708219828644360E+001	-8.8842046E-001	-4.790577796834805E-001	4.2560473E-004	-8.8841826E-001	0
1.8318723E+003	7.728219828139117E+001	-8.9042133E-001	-4.860717226326665E-001	4.3280862E-004	-8.9041823E-001	0
1.8079481E+003	7.748219827633875E+001	-8.9241177E-001	-4.936047329265385E-001	4.4049867E-004	-8.9241809E-001	0
1.7782339E+003	7.768219827128632E+001	-8.9441222E-001	-5.029778302290246E-001	4.4986952E-004	-8.9441818E-001	0
1.7379993E+003	7.788219826623390E+001	-8.9642543E-001	-5.157800811404138E-001	4.6235838E-004	-8.9641827E-001	0
1.6930247E+003	7.808219826118147E+001	-8.9842421E-001	-5.306621930961120E-001	4.7675977E-004	-8.9841813E-001	0
1.6545377E+003	7.828219825612905E+001	-9.0043098E-001	-5.442190696348064E-001	4.9003173E-004	-9.0041816E-001	0
1.6224669E+003	7.848219825107662E+001	-9.0241075E-001	-5.561967060823125E-001	5.0191791E-004	-9.0241820E-001	0
1.5767297E+003	7.868219824602420E+001	-9.0442574E-001	-5.736086233614044E-001	5.1878643E-004	-9.0441817E-001	0
1.5308345E+003	7.888219824097177E+001	-9.0642238E-001	-5.921099640285385E-001	5.3670170E-004	-9.0641814E-001	0
1.5026316E+003	7.908219823591935E+001	-9.0842247E-001	-6.045543499409201E-001	5.4919074E-004	-9.0841818E-001	0
1.4660186E+003	7.928219823086692E+001	-9.1043389E-001	-6.210248000717105E-001	5.6540204E-004	-9.1041815E-001	0
1.4098745E+003	7.948219822581450E+001	-9.1243565E-001	-6.471750700039600E-001	5.9050560E-004	-9.1241813E-001	0
1.3574214E+003	7.968219822076207E+001	-9.1443783E-001	-6.736580604759128E-001	6.1601843E-004	-9.1441822E-001	0
1.3126514E+003	7.988219821570965E+001	-9.1643268E-001	-6.981538765622375E-001	6.3981104E-004	-9.1641825E-001	0
1.2570768E+003	8.008219821065723E+001	-9.1841751E-001	-7.305977687940786E-001	6.7099376E-004	-9.1841817E-001	0
1.1981625E+003	8.028219820560480E+001	-9.2042565E-001	-7.681976783209699E-001	7.0706883E-004	-9.2041820E-001	0
1.1476698E+003	8.048219820055238E+001	-9.2241794E-001	-8.037311187153318E-001	7.4137602E-004	-9.2241824E-001	0
1.1034080E+003	8.068219819549995E+001	-9.2441380E-001	-8.377806036785849E-001	7.7445596E-004	-9.2441827E-001	0
1.0464537E+003	8.088219819044753E+001	-9.2640209E-001	-8.852776681282108E-001	8.2012307E-004	-9.2641819E-001	0
9.9718701E+002	8.108219818539510E+001	-9.2840242E-001	-9.310213975574548E-001	8.6436252E-004	-9.2841816E-001	0
9.3503510E+002	8.128219818034268E+001	-9.3039250E-001	-9.950348354723957E-001	9.2577294E-004	-9.3041825E-001	0
8.6871375E+002	8.149219817503763E+001	-9.3247902E-001	-1.073401948091934E+000	1.0009249E-003	-9.3251818E-001	0
8.1071082E+002	8.170219816973258E+001	-9.3458259E-001	-1.152794011883318E+000	1.0773812E-003	-9.3461823E-001	0
7.5329865E+002	8.190219816468016E+001	-9.3656731E-001	-1.243288174178665E+000	1.1644231E-003	-9.3661821E-001	0
7.0037897E+002	8.210219815962773E+001	-9.3856347E-001	-1.340079406610020E+000	1.2577496E-003	-9.3861818E-001	0
6.5076624E+002	8.230219815457531E+001	-9.4055903E-001	-1.445310069480378E+000	1.3593994E-003	-9.4061816E-001	0
6.0090509E+002	8.250219814952288E+001	-9.4257677E-001	-1.568595105178169E+000	1.4785213E-003	-9.4261825E-001	0
5.5393066E+002	8.270219814447046E+001	-9.4458032E-001	-1.705232045564655E+000	1.6107287E-003	-9.4461828E-001	0
5.0826068E+002	8.290219813941803E+001	-9.4659549E-001	-1.862421297719557E+000	1.7629596E-003	-9.4661820E-001	0
4.6739877E+002	8.310219813436561E+001	-9.4859779E-001	-2.029525675555334E+000	1.9252036E-003	-9.4861817E-001	0
4.2862372E+002	8.330219812931318E+001	-9.5060605E-001	-2.217810170872820E+000	2.1082638E-003	-9.5061827E-001	0
3.9424942E+002	8.350219812426076E+001	-9.5260704E-001	-2.416254827140278E+000	2.3017414E-003	-9.5261812E-001	0
3.6282114E+002	8.370219811920833E+001	-9.5459753E-001	-2.631041607838512E+000	2.5115858E-003	-9.5461816E-001	0
3.3377896E+002	8.390219811415591E+001	-9.5661014E-001	-2.865998983923807E+000	2.7416437E-003	-9.5661819E-001	0
3.0698212E+002	8.410219810910348E+001	-9.5859838E-001	-3.122652193907300E+000	2.9933692E-003	-9.5861816E-001	0
2.8254608E+002	8.430219810405106E+001	-9.6060467E-001	-3.399815936038578E+000	3.2658791E-003	-9.6061814E-001	0
2.6005078E+002	8.450219809899863E+001	-9.6261358E-001	-3.701636795013673E+000	3.5632458E-003	-9.6261817E-001	0
2.3961220E+002	8.470219809394621E+001	-9.6458822E-001	-4.025622348429934E+000	3.8830680E-003	-9.6461815E-001	0
2.2136720E+002	8.490219808889378E+001	-9.6660852E-001	-4.366539105941939E+000	4.2207339E-003	-9.6661812E-001	0
2.0482333E+002	8.510219808384136E+001	-9.6858972E-001	-4.728903296921010E+000	4.5803674E-003	-9.6861821E-001	0
1.8990536E+002	8.530219807878893E+001	-9.7058761E-001	-5.110901316209709E+000	4.9605775E-003	-9.7061825E-001	0
1.7616899E+002	8.550219807373651E+001	-9.7259009E-001	-5.520779179641448E+000	5.3694551E-003	-9.7261816E-001	0
1.6379047E+002	8.570219806868408E+001	-9.7460741E-001	-5.950330614638162E+000	5.7992362E-003	-9.7461814E-001	0
1.5273152E+002	8.590219806363166E+001	-9.7660494E-001	-6.394259174124187E+000	6.2446650E-003	-9.7661823E-001	0
1.4250098E+002	8.610219805857923E+001	-9.7860539E-001	-6.867359361545837E+000	6.7204349E-003	-9.7861826E-001	0
1.3321402E+002	8.630219805352681E+001	-9.8060155E-001	-7.361098800386674E+000	7.2183050E-003	-9.8061818E-001	0
1.2479851E+002	8.650219804847438E+001	-9.8261368E-001	-7.873601447427628E+000	7.7367085E-003	-9.8261815E-001	0
1.1698983E+002	8.670219804342196E+001	-9.8461866E-001	-8.416275759673141E+000	8.2868226E-003	-9.8461813E-001	0
1.0987199E+002	8.690219803836953E+001	-9.8660636E-001	-8.979597976959184E+000	8.8593289E-003	-9.8661810E-001	0
1.0336245E+002	8.710219803331711E+001	-9.8861557E-001	-9.564552509595472E+000	9.4556659E-003	-9.8861814E-001	0
9.7462067E+001	8.730219802826468E+001	-9.9062800E-001	-1.016424155262320E+001	1.0068982E-002	-9.9061817E-001	0
9.1686432E+001	8.751219802295964E+001	-9.9269748E-001	-1.082709268015265E+001	1.0748028E-002	-9.9271822E-001	0
8.6091599E+001	8.772219801765459E+001	-9.9477917E-001	-1.155489233872783E+001	1.1494566E-002	-9.9481815E-001	0
8.1504089E+001	8.792219801260217E+001	-9.9677962E-001	-1.222981170995707E+001	1.2190427E-002	-9.9681813E-001	0
7.7358414E+001	8.812219800754974E+001	-9.9876821E-001	-1.291091888318525E+001	1.2895015E-002	-9.9881810E-001	0
7.3470985E+001	8.832219800249732E+001	-1.0007869E+000	-1.362152482700998E+001	1.3632243E-002	-1.0008181E+000	0
6.9892746E+001	8.852219799744489E+001	-1.0028089E+000	-1.434782611661489E+001	1.4388128E-002	-1.0028182E+000	0
6.6601875E+001	8.872219799239247E+001	-1.0048060E+000	-1.508675305819021E+001	1.5159260E-002	-1.0048182E+000	0
6.3502869E+001	8.892219798734004E+001	-1.0068185E+000	-1.585469381082081E+001	1.5962800E-002	-1.0068181E+000	0
6.0660740E+001	8.912219798228762E+001	-1.0088214E+000	-1.663054812441069E+001	1.6777253E-002	-1.0088181E+000	0
5.7993832E+001	8.932219797723519E+001	-1.0108210E+000	-1.742980151462982E+001	1.7618408E-002	-1.0108182E+000	0
5.5471462E+001	8.952219797218277E+001	-1.0128177E+000	-1.825835602394304E+001	1.8492388E-002	-1.0128181E+000	0
5.3167595E+001	8.972219796713034E+001	-1.0148213E+000	-1.908721512610137E+001	1.9370113E-002	-1.0148181E+000	0
5.0946037E+001	8.992219796207792E+001	-1.0168332E+000	-1.995902461746110E+001	2.0294998E-002	-1.0168182E+000	0
4.8876095E+001	9.012219795702549E+001	-1.0188372E+000	-2.084530803635536E+001	2.1237975E-002	-1.0188181E+000	0
4.6961544E+001	9.032219795197307E+001	-1.0208219E+000	-2.173740177941164E+001	2.2190016E-002	-1.0208182E+000	0
4.5114544E+001	9.052219794692064E+001	-1.0228447E+000	-2.267217120210603E+001	2.3190109E-002	-1.0228181E+000	0
4.3348370E+001	9.072219794186822E+001	-1.0248287E+000	-2.364168993807709E+001	2.4228681E-002	-1.0248181E+000	0
4.1662792E+001	9.092219793681579E+001	-1.0268384E+000	-2.464641337992117E+001	2.5307884E-002	-1.0268182E+000	0
4.0048389E+001	9.112219793176337E+001	-1.0288198E+000	-2.568941803962451E+001	2.6429782E-002	-1.0288181E+000	0
3.8573135E+001	9.132219792671094E+001	-1.0308119E+000	-2.672357143106905E+001	2.7546976E-002	-1.0308182E+000	0
3.7130394E+001	9.152219792165852E+001	-1.0328095E+000	-2.781574394319054E+001	2.8728364E-002	-1.0328182E+000	0
3.5766434E+001	9.172219791660609E+001	-1.0348084E+000	-2.893239034060183E+001	2.9939480E-002	-1.0348182E+000	0
3.4484180E+001	9.192219791155367E+001	-1.0368065E+000	-3.006614771694831E+001	3.1172777E-002	-1.0368181E+000	0
3.3300377E+001	9.212219790650124E+001	-1.0388067E+000	-3.119504439290148E+001	3.2405619E-002	-1.0388182E+000	0
3.2103878E+001	9.232219790144882E+001	-1.0408174E+000	-3.242029892641403E+001	3.3743609E-002	-1.0408181E+000	0
3.0988596E+001	9.252219789639639E+001	-1.0428041E+000	-3.365122098041491E+001	3.5091631E-002	-1.0428182E+000	0
2.9935776E+001	9.272219789134397E+001	-1.0447974E+000	-3.490129834318927E+001	3.6464788E-002	-1.0448182E+000	0
2.8967173E+001	9.292219788629154E+001	-1.0468302E+000	-3.613850061017646E+001	3.7830874E-002	-1.0468181E+000	0
2.8082138E+001	9.312219788123912E+001	-1.0488160E+000	-3.734815132726072E+001	3.9171338E-002	-1.0488182E+000	0
2.7233902E+001	9.332219787618669E+001	-1.0508327E+000	-3.858546342655097E+001	4.0546868E-002	-1.0508182E+000	0
2.6422052E+001	9.352219787113427E+001	-1.0528295E+000	-3.984661943571916E+001	4.1951697E-002	-1.0528182E+000	0
2.5615286E+001	9.372219786608184E+001	-1.0548314E+000	-4.117976303408733E+001	4.3437708E-002	-1.0548182E+000	0
2.4845230E+001	9.392219786102942E+001	-1.0568277E+000	-4.253644160159325E+001	4.4953689E-002	-1.0568181E+000	0
2.4140732E+001	9.412219785597699E+001	-1.0588337E+000	-4.386087918984379E+001	4.6441376E-002	-1.0588182E+000	0
2.3472149E+001	9.432219785092457E+001	-1.0608339E+000	-4.519543465248847E+001	4.7944851E-002	-1.0608182E+000	0
2.2851490E+001	9.452219784587214E+001	-1.0628227E+000	-4.650999413677351E+001	4.9431879E-002	-1.0628182E+000	0
2.2279179E+001	9.472219784081972E+001	-1.0648233E+000	-4.779454626653194E+001	5.0892744E-002	-1.0648181E+000	0
2.1681889E+001	9.492219783576729E+001	-1.0668378E+000	-4.920409741477368E+001	5.2492790E-002	-1.0668182E+000	0
2.1148188E+001	9.512219783071487E+001	-1.0688272E+000	-5.053989187443858E+001	5.4018408E-002	-1.0688182E+000	0
2.0609472E+001	9.532219782566244E+001	-1.0708467E+000	-5.195895888475604E+001	5.5640079E-002	-1.0708182E+000	0
2.0087406E+001	9.552219782061002E+001	-1.0728290E+000	-5.340804322776873E+001	5.7297699E-002	-1.0728183E+000	0
1.9565945E+001	9.572219781555759E+001	-1.0748287E+000	-5.493364819431520E+001	5.9044264E-002	-1.0748181E+000	0
1.9105457E+001	9.592219781050517E+001	-1.0768446E+000	-5.636319194521218E+001	6.0694396E-002	-1.0768182E+000	0
1.8680914E+001	9.612219780545274E+001	-1.0788161E+000	-5.774964269651014E+001	6.2301241E-002	-1.0788182E+000	0
1.8276884E+001	9.632219780040032E+001	-1.0808189E+000	-5.913583898328056E+001	6.3915133E-002	-1.0808183E+000	0
1.7891369E+001	9.652219779534789E+001	-1.0828112E+000	-6.052143174882912E+001	6.5533288E-002	-1.0828182E+000	0
1.7488562E+001	9.672219779029547E+001	-1.0848167E+000	-6.203006990264066E+001	6.7291252E-002	-1.0848181E+000	0
1.7110205E+001	9.692219778524304E+001	-1.0868349E+000	-6.351968886900909E+001	6.9035418E-002	-1.0868182E+000	0
1.6772770E+001	9.712219778019062E+001	-1.0888343E+000	-6.491678065615747E+001	7.0683613E-002	-1.0888183E+000	0
1.6437458E+001	9.732219777513819E+001	-1.0908313E+000	-6.636253218910315E+001	7.2390325E-002	-1.0908182E+000	0
1.6060265E+001	9.752219777008577E+001	-1.0928519E+000	-6.804693719535192E+001	7.4365221E-002	-1.0928181E+000	0
1.5738163E+001	9.772219776503334E+001	-1.0948448E+000	-6.956623842440473E+001	7.6164238E-002	-1.0948182E+000	0
1.5412802E+001	9.792219775998092E+001	-1.0968547E+000	-7.116517134588617E+001	7.8057855E-002	-1.0968181E+000	0
1.5088087E+001	9.812219775492849E+001	-1.0988519E+000	-7.282910922649471E+001	8.0028407E-002	-1.0988182E+000	0
1.4819584E+001	9.832219774987607E+001	-1.1008799E+000	-7.428548262989739E+001	8.1779398E-002	-1.1008183E+000	0
1.4509051E+001	9.852219774482364E+001	-1.1028892E+000	-7.601387208659617E+001	8.3834879E-002	-1.1028181E+000	0
1.4211390E+001	9.872219773977122E+001	-1.1048895E+000	-7.774676320666322E+001	8.5901581E-002	-1.1048181E+000	0
1.3991531E+001	9.892219773471879E+001	-1.1068841E+000	-7.911100774611477E+001	8.7566718E-002	-1.1068182E+000	0
1.3765425E+001	9.912219772966637E+001	-1.1088842E+000	-8.055575618614131E+001	8.9327008E-002	-1.1088183E+000	0
1.3413177E+001	9.932219772461394E+001	-1.1109008E+000	-8.282160297110522E+001	9.2006579E-002	-1.1108183E+000	0
1.3124872E+001	9.952219771956152E+001	-1.1128885E+000	-8.479232640061002E+001	9.4364405E-002	-1.1128181E+000	0
1.2889129E+001	9.972219771450909E+001	-1.1148951E+000	-8.649887058145606E+001	9.6437171E-002	-1.1148181E+000	0
1.2685374E+001	9.992219770945667E+001	-1.1168886E+000	-8.804538599433806E+001	9.8336890E-002	-1.1168182E+000	0
1.2474615E+001	1.001221977044042E+002	-1.1188961E+000	-8.969383987385635E+001	1.0035809E-001	-1.1188182E+000	0
1.2283237E+001	1.003221976993518E+002	-1.1208775E+000	-9.125262172908742E+001	1.0228301E-001	-1.1208181E+000	0
1.2090223E+001	1.005221976942994E+002	-1.1228693E+000	-9.287415560789441E+001	1.0428553E-001	-1.1228182E+000	0
1.1911534E+001	1.007221976892470E+002	-1.1248714E+000	-9.443547475959690E+001	1.0622776E-001	-1.1248182E+000	0
1.1679869E+001	1.009221976841945E+002	-1.1268660E+000	-9.647933645529565E+001	1.0871928E-001	-1.1268182E+000	0
1.1472399E+001	1.011221976791421E+002	-1.1288685E+000	-9.839864627736483E+001	1.1107913E-001	-1.1288183E+000	0
1.1266604E+001	1.013221976740897E+002	-1.1308751E+000	-1.003740860837389E+002	1.1351056E-001	-1.1308182E+000	0
1.1084222E+001	1.015221976690373E+002	-1.1328723E+000	-1.022058507104036E+002	1.1578618E-001	-1.1328182E+000	0
1.0888632E+001	1.017221976639848E+002	-1.1348678E+000	-1.042250092975680E+002	1.1828160E-001	-1.1348182E+000	0
1.0704647E+001	1.019221976589324E+002	-1.1368835E+000	-1.062046705114051E+002	1.2074234E-001	-1.1368182E+000	0
1.0499664E+001	1.021221976538800E+002	-1.1388882E+000	-1.084690101087230E+002	1.2353408E-001	-1.1388183E+000	0
1.0204231E+001	1.023321976485749E+002	-1.1409326E+000	-1.118097522258764E+002	1.2756738E-001	-1.1409183E+000	0
9.9821901E+000	1.025421976432699E+002	-1.1430426E+000	-1.145081990776152E+002	1.3088775E-001	-1.1430182E+000	0
9.7647600E+000	1.027421976382175E+002	-1.1450597E+000	-1.172644995842929E+002	1.3427486E-001	-1.1450181E+000	0
9.6031494E+000	1.029421976331651E+002	-1.1470664E+000	-1.194468887279359E+002	1.3701351E-001	-1.1470182E+000	0
9.4786844E+000	1.031421976281126E+002	-1.1490651E+000	-1.212262293194963E+002	1.3929683E-001	-1.1490183E+000	0
9.3585567E+000	1.033421976230602E+002	-1.1510725E+000	-1.229968028944365E+002	1.4157824E-001	-1.1510183E+000	0
9.2517843E+000	1.035421976180078E+002	-1.1530637E+000	-1.246314878798939E+002	1.4370804E-001	-1.1530182E+000	0
9.1170845E+000	1.037421976129554E+002	-1.1550635E+000	-1.266922026923990E+002	1.4633754E-001	-1.1550182E+000	0
8.9728279E+000	1.039421976079029E+002	-1.1570569E+000	-1.289512068246772E+002	1.4920388E-001	-1.1570182E+000	0
8.8513165E+000	1.041421976028505E+002	-1.1590679E+000	-1.309486363436893E+002	1.5177836E-001	-1.1590183E+000	0
8.7687025E+000	1.043421975977981E+002	-1.1610621E+000	-1.324098007608704E+002	1.5373601E-001	-1.1610183E+000	0
8.6916561E+000	1.045421975927457E+002	-1.1630776E+000	-1.338154188272911E+002	1.5563771E-001	-1.1630182E+000	0
8.5247049E+000	1.047421975876932E+002	-1.1650738E+000	-1.366702766104888E+002	1.5923095E-001	-1.1650182E+000	0
8.4085274E+000	1.049421975826408E+002	-1.1670794E+000	-1.387971331246041E+002	1.6198727E-001	-1.1670182E+000	0
8.3300915E+000	1.051421975775884E+002	-1.1690757E+000	-1.403436880901015E+002	1.6407239E-001	-1.1690183E+000	0
8.1544914E+000	1.053421975725360E+002	-1.1710591E+000	-1.436090995362558E+002	1.6817474E-001	-1.1710182E+000	0
8.0035963E+000	1.055421975674835E+002	-1.1730798E+000	-1.465690964895584E+002	1.7193726E-001	-1.1730181E+000	0
7.9158568E+000	1.057421975624311E+002	-1.1750846E+000	-1.484469259850298E+002	1.7443770E-001	-1.1750182E+000	0
7.7835674E+000	1.059421975573787E+002	-1.1770980E+000	-1.512286078005421E+002	1.7801090E-001	-1.1770182E+000	0
7.7327213E+000	1.061421975523263E+002	-1.1790792E+000	-1.524792021688693E+002	1.7978506E-001	-1.1790183E+000	0
7.6120129E+000	1.063421975472738E+002	-1.1810812E+000	-1.551601612173240E+002	1.8325675E-001	-1.1810182E+000	0
7.4934912E+000	1.065421975422214E+002	-1.1830839E+000	-1.578815345699281E+002	1.8678710E-001	-1.1830182E+000	0
7.4317899E+000	1.067421975371690E+002	-1.1850898E+000	-1.594622304790951E+002	1.8897706E-001	-1.1850181E+000	0
7.3988953E+000	1.069421975321166E+002	-1.1870846E+000	-1.604407787247303E+002	1.9045678E-001	-1.1870182E+000	0
7.3284101E+000	1.071421975270641E+002	-1.1891088E+000	-1.622601363188551E+002	1.9294496E-001	-1.1890182E+000	0
7.3078003E+000	1.073421975220117E+002	-1.1910810E+000	-1.629876286361759E+002	1.9413148E-001	-1.1910181E+000	0
7.2679901E+000	1.075421975169593E+002	-1.1930782E+000	-1.641551678640230E+002	1.9584994E-001	-1.1930182E+000	0
7.2243295E+000	1.077421975119069E+002	-1.1950753E+000	-1.654236904228626E+002	1.9769377E-001	-1.1950182E+000	0
7.1192412E+000	1.079421975068544E+002	-1.1970674E+000	-1.681453594058548E+002	2.0128132E-001	-1.1970183E+000	0
6.9784842E+000	1.081421975018020E+002	-1.1990910E+000	-1.718268561406474E+002	2.0603603E-001	-1.1990182E+000	0
6.8365474E+000	1.083421974967496E+002	-1.2010832E+000	-1.756856345405918E+002	2.1101306E-001	-1.2010181E+000	0
6.6901135E+000	1.085421974916972E+002	-1.2030864E+000	-1.798304878070505E+002	2.1635161E-001	-1.2030182E+000	0
6.5817041E+000	1.087421974866447E+002	-1.2051052E+000	-1.830992683618260E+002	2.2065388E-001	-1.2050182E+000	0
6.4967341E+000	1.089421974815923E+002	-1.2070918E+000	-1.857997917296393E+002	2.2427741E-001	-1.2070181E+000	0
6.4234991E+000	1.091421974765399E+002	-1.2091086E+000	-1.882320771033542E+002	2.2759302E-001	-1.2090182E+000	0
6.3919420E+000	1.093421974714875E+002	-1.2110819E+000	-1.894700999919523E+002	2.2946380E-001	-1.2110182E+000	0
6.3806663E+000	1.095421974664350E+002	-1.2130927E+000	-1.901200611261547E+002	2.3063326E-001	-1.2130182E+000	0
6.3863649E+000	1.097421974613826E+002	-1.2151058E+000	-1.902656331451572E+002	2.3119287E-001	-1.2150182E+000	0
6.3721671E+000	1.099421974563302E+002	-1.2170988E+000	-1.910023378666292E+002	2.3246872E-001	-1.2170182E+000	0
6.2261338E+000	1.101421974512778E+002	-1.2191101E+000	-1.958053214847364E+002	2.3870826E-001	-1.2190182E+000	0
6.1923819E+000	1.103421974462253E+002	-1.2211142E+000	-1.971962050245470E+002	2.4079908E-001	-1.2210182E+000	0
6.0940666E+000	1.105421974411729E+002	-1.2231128E+000	-2.007055293902804E+002	2.4548550E-001	-1.2230182E+000	0
5.9872384E+000	1.107421974361205E+002	-1.2251031E+000	-2.046190731779516E+002	2.5067946E-001	-1.2250181E+000	0
5.9161410E+000	1.109421974310681E+002	-1.2270919E+000	-2.074142395612048E+002	2.5451633E-001	-1.2270182E+000	0
5.8764553E+000	1.111421974260156E+002	-1.2290924E+000	-2.091554011520075E+002	2.5707132E-001	-1.2290182E+000	0
5.8525867E+000	1.113421974209632E+002	-1.2310967E+000	-2.103508685083898E+002	2.5896227E-001	-1.2310182E+000	0
5.8137302E+000	1.115421974159108E+002	-1.2330984E+000	-2.121010655729674E+002	2.6154149E-001	-1.2330182E+000	0
5.7239175E+000	1.117421974108584E+002	-1.2351196E+000	-2.157822131721341E+002	2.6651683E-001	-1.2350181E+000	0
5.6279430E+000	1.119421974058059E+002	-1.2371247E+000	-2.198182666804512E+002	2.7194262E-001	-1.2370182E+000	0
5.4957438E+000	1.121424974007459E+002	-1.2391454E+000	-2.254736403879033E+002	2.7939463E-001	-1.2390205E+000	0
5.4224620E+000	1.123429973956809E+002	-1.2411366E+000	-2.288880085346937E+002	2.8408128E-001	-1.2410258E+000	0
5.3759303E+000	1.125431973906234E+002	-1.2431369E+000	-2.312412644760802E+002	2.8746456E-001	-1.2430280E+000	0
5.3730130E+000	1.127433973855659E+002	-1.2451310E+000	-2.317379481988153E+002	2.8854412E-001	-1.2450302E+000	0
5.3730001E+000	1.129433973805135E+002	-1.2471281E+000	-2.321101920783112E+002	2.8947115E-001	-1.2470301E+000	0
5.2985649E+000	1.131433973754611E+002	-1.2491475E+000	-2.357520582562389E+002	2.9448912E-001	-1.2490302E+000	0
5.2382317E+000	1.133435973704036E+002	-1.2511537E+000	-2.388503982692359E+002	2.9883856E-001	-1.2510318E+000	0
5.2036028E+000	1.135437973653461E+002	-1.2531681E+000	-2.408270134287895E+002	3.0179673E-001	-1.2530344E+000	0
5.1856136E+000	1.137438973602912E+002	-1.2551323E+000	-2.420412236980660E+002	3.0379376E-001	-1.2550352E+000	0
5.1675839E+000	1.139439973552362E+002	-1.2571543E+000	-2.432770018847896E+002	3.0583674E-001	-1.2570362E+000	0
5.0926075E+000	1.141439973501838E+002	-1.2591298E+000	-2.472465752560547E+002	3.1131554E-001	-1.2590362E+000	0
4.9703765E+000	1.143440973451288E+002	-1.2611499E+000	-2.537332799770775E+002	3.1999570E-001	-1.2610371E+000	0
4.9252219E+000	1.145441973400739E+002	-1.2631595E+000	-2.564675352697736E+002	3.2395941E-001	-1.2630383E+000	0
4.8902717E+000	1.147441973350215E+002	-1.2651571E+000	-2.587089539117219E+002	3.2730746E-001	-1.2650380E+000	0
4.8951273E+000	1.149441973299690E+002	-1.2671528E+000	-2.588600182262960E+002	3.2801521E-001	-1.2670382E+000	0
4.8570361E+000	1.151441973249166E+002	-1.2691532E+000	-2.613020030798011E+002	3.3163229E-001	-1.2690382E+000	0
4.7645397E+000	1.153441973198642E+002	-1.2711592E+000	-2.667957997030130E+002	3.3913994E-001	-1.2710382E+000	0
4.7091579E+000	1.155441973148118E+002	-1.2731493E+000	-2.703560440275396E+002	3.4420359E-001	-1.2730383E+000	0
4.7075996E+000	1.157443973097543E+002	-1.2751530E+000	-2.708711787109096E+002	3.4540221E-001	-1.2750398E+000	0
4.6856480E+000	1.159445973046968E+002	-1.2771555E+000	-2.725675457891703E+002	3.4811115E-001	-1.2770422E+000	0
4.7181883E+000	1.161445972996444E+002	-1.2791548E+000	-2.711114199350747E+002	3.4679347E-001	-1.2790422E+000	0
4.7029586E+000	1.163445972945919E+002	-1.2811643E+000	-2.724166579127578E+002	3.4901050E-001	-1.2810422E+000	0
4.6818905E+000	1.165445972895395E+002	-1.2831645E+000	-2.740697300471945E+002	3.5167655E-001	-1.2830423E+000	0
4.6738677E+000	1.167445972844871E+002	-1.2851474E+000	-2.749644438879834E+002	3.5336986E-001	-1.2850423E+000	0
4.6520357E+000	1.169445972794347E+002	-1.2871524E+000	-2.766858461643837E+002	3.5613686E-001	-1.2870421E+000	0
4.4787560E+000	1.171446972743797E+002	-1.2891451E+000	-2.878355406312880E+002	3.7106177E-001	-1.2890431E+000	0
4.3985367E+000	1.173448972693222E+002	-1.2911470E+000	-2.935401102271144E+002	3.7900344E-001	-1.2910450E+000	0
4.3770237E+000	1.175450972642648E+002	-1.2931507E+000	-2.954406332503931E+002	3.8204926E-001	-1.2930470E+000	0
4.3954449E+000	1.177452972592073E+002	-1.2951530E+000	-2.946579943042375E+002	3.8162720E-001	-1.2950491E+000	0
4.3673630E+000	1.179453972541523E+002	-1.2971462E+000	-2.970090048999748E+002	3.8526410E-001	-1.2970502E+000	0
4.3173590E+000	1.181453972490999E+002	-1.2991627E+000	-3.009160665135805E+002	3.9093894E-001	-1.2990502E+000	0
4.2932262E+000	1.183454972440450E+002	-1.3011793E+000	-3.030772674779632E+002	3.9435786E-001	-1.3010509E+000	0
4.2843289E+000	1.185455972389900E+002	-1.3031791E+000	-3.041734634408065E+002	3.9639252E-001	-1.3030522E+000	0
4.2542830E+000	1.187455972339376E+002	-1.3051661E+000	-3.067887577467991E+002	4.0041029E-001	-1.3050520E+000	0
4.2588849E+000	1.189457972288801E+002	-1.3071762E+000	-3.069292213835251E+002	4.0121058E-001	-1.3070540E+000	0
4.2511649E+000	1.191457972238277E+002	-1.3091762E+000	-3.079570372055991E+002	4.0317002E-001	-1.3090541E+000	0
4.2401190E+000	1.193457972187753E+002	-1.3111801E+000	-3.092319054095374E+002	4.0545872E-001	-1.3110542E+000	0
4.1672831E+000	1.195459972137178E+002	-1.3131785E+000	-3.151162362911946E+002	4.1380388E-001	-1.3130558E+000	0
4.1954060E+000	1.197461972086603E+002	-1.3151948E+000	-3.134845198179328E+002	4.1229323E-001	-1.3150582E+000	0
4.2136059E+000	1.199461972036079E+002	-1.3171941E+000	-3.126049560105730E+002	4.1176140E-001	-1.3170582E+000	0
4.1134043E+000	1.201462971985529E+002	-1.3191758E+000	-3.207017309331559E+002	4.2306197E-001	-1.3190589E+000	0
4.0619173E+000	1.203463971934980E+002	-1.3211869E+000	-3.252618942152612E+002	4.2973176E-001	-1.3210602E+000	0
4.0618472E+000	1.205463971884456E+002	-1.3231666E+000	-3.257548814630827E+002	4.3102798E-001	-1.3230603E+000	0
4.0012097E+000	1.207463971833931E+002	-1.3251770E+000	-3.311940930424906E+002	4.3889078E-001	-1.3250602E+000	0
3.8597105E+000	1.209463971783407E+002	-1.3271997E+000	-3.438599208217631E+002	4.5637077E-001	-1.3270603E+000	0
3.8921871E+000	1.211463971732883E+002	-1.3291901E+000	-3.415021070082441E+002	4.5392123E-001	-1.3290602E+000	0
3.9231837E+000	1.213463971682359E+002	-1.3311858E+000	-3.393126478930453E+002	4.5168817E-001	-1.3310602E+000	0
3.9493344E+000	1.215464971631809E+002	-1.3331599E+000	-3.375657260468543E+002	4.5002910E-001	-1.3330609E+000	0
3.9652679E+000	1.217465971581260E+002	-1.3351876E+000	-3.367206358228409E+002	4.4958520E-001	-1.3350623E+000	0
3.9743402E+000	1.219465971530735E+002	-1.3371935E+000	-3.364567175344000E+002	4.4990772E-001	-1.3370622E+000	0
3.9285347E+000	1.221465971480211E+002	-1.3391823E+000	-3.408859291336166E+002	4.5650840E-001	-1.3390622E+000	0
3.8910663E+000	1.223465971429687E+002	-1.3411839E+000	-3.446828611745846E+002	4.6228310E-001	-1.3410622E+000	0
3.9105544E+000	1.225465971379163E+002	-1.3431534E+000	-3.434687784761529E+002	4.6133125E-001	-1.3430622E+000	0
3.9091609E+000	1.227465971328638E+002	-1.3451608E+000	-3.441047640430686E+002	4.6287626E-001	-1.3450623E+000	0
3.8781934E+000	1.229465971278114E+002	-1.3471797E+000	-3.473729872584618E+002	4.6797383E-001	-1.3470622E+000	0
3.8677294E+000	1.231465971227590E+002	-1.3491690E+000	-3.488271529744807E+002	4.7062680E-001	-1.3490622E+000	0
3.8387218E+000	1.233465971177066E+002	-1.3511814E+000	-3.519873266198465E+002	4.7559872E-001	-1.3510622E+000	0
3.7953064E+000	1.235465971126541E+002	-1.3531561E+000	-3.565340779146663E+002	4.8244625E-001	-1.3530622E+000	0
3.7506151E+000	1.237465971076017E+002	-1.3551482E+000	-3.613135778509313E+002	4.8963344E-001	-1.3550620E+000	0
3.7373297E+000	1.239465971025493E+002	-1.3571745E+000	-3.631401549856164E+002	4.9284455E-001	-1.3570620E+000	0
3.7327924E+000	1.241465970974969E+002	-1.3591660E+000	-3.641150812637774E+002	4.9489284E-001	-1.3590621E+000	0
3.7251549E+000	1.243465970924444E+002	-1.3611734E+000	-3.654004900558211E+002	4.9737343E-001	-1.3610619E+000	0
3.6918881E+000	1.245465970873920E+002	-1.3631921E+000	-3.692398225542111E+002	5.0334477E-001	-1.3630619E+000	0
3.6322021E+000	1.247465970823396E+002	-1.3651969E+000	-3.758592890265841E+002	5.1312196E-001	-1.3650619E+000	0
3.6526403E+000	1.249465970772872E+002	-1.3671888E+000	-3.743015043405712E+002	5.1174080E-001	-1.3670620E+000	0
3.6720438E+000	1.251465970722347E+002	-1.3691612E+000	-3.728608202966698E+002	5.1050657E-001	-1.3690619E+000	0
3.6508405E+000	1.253465970671823E+002	-1.3712006E+000	-3.755848895481649E+002	5.1500219E-001	-1.3710620E+000	0
3.5655346E+000	1.255465970621299E+002	-1.3732167E+000	-3.851362843870293E+002	5.2887559E-001	-1.3730619E+000	0
3.4140935E+000	1.257465970570775E+002	-1.3752040E+000	-4.028020821547580E+002	5.5393505E-001	-1.3750619E+000	0
3.4276514E+000	1.259465970520250E+002	-1.3772018E+000	-4.017916703472893E+002	5.5334818E-001	-1.3770620E+000	0
3.4158890E+000	1.261465970469726E+002	-1.3792049E+000	-4.037616214103427E+002	5.5686998E-001	-1.3790621E+000	0
3.3728628E+000	1.263465970419202E+002	-1.3811929E+000	-4.095016579271160E+002	5.6560081E-001	-1.3810619E+000	0
3.4115005E+000	1.265465970368678E+002	-1.3831964E+000	-4.054510236467640E+002	5.6081837E-001	-1.3830620E+000	0
3.4669626E+000	1.267465970318153E+002	-1.3851970E+000	-3.995419691825409E+002	5.5344433E-001	-1.3850619E+000	0
3.4963708E+000	1.269465970267629E+002	-1.3871855E+000	-3.967501033255321E+002	5.5036598E-001	-1.3870620E+000	0
3.4697342E+000	1.271465970217105E+002	-1.3891897E+000	-4.003735200834381E+002	5.5619478E-001	-1.3890620E+000	0
3.4127092E+000	1.273465970166581E+002	-1.3911848E+000	-4.076482138255287E+002	5.6711400E-001	-1.3910619E+000	0
3.3951893E+000	1.275465970116056E+002	-1.3931987E+000	-4.103449468374806E+002	5.7169205E-001	-1.3930620E+000	0
3.3475699E+000	1.277465970065532E+002	-1.3951924E+000	-4.167776781285434E+002	5.8148503E-001	-1.3950619E+000	0
3.2332969E+000	1.279465970015008E+002	-1.3971938E+000	-4.321266512708578E+002	6.0376465E-001	-1.3970619E+000	0
3.2440681E+000	1.281465969964484E+002	-1.3991784E+000	-4.313036479949931E+002	6.0347074E-001	-1.3990620E+000	0
3.2439432E+000	1.283465969913959E+002	-1.4011869E+000	-4.319394153759322E+002	6.0522789E-001	-1.4010619E+000	0
3.2025855E+000	1.285465969863435E+002	-1.4033909E+000	-4.382056020100895E+002	6.1497372E-001	-1.4030620E+000	0
3.1422050E+000	1.287465969812911E+002	-1.4058199E+000	-4.473991646539594E+002	6.2896264E-001	-1.4050620E+000	0
3.1524909E+000	1.289465969762387E+002	-1.4078070E+000	-4.465697349842440E+002	6.2868398E-001	-1.4070619E+000	0
3.1741211E+000	1.291465969711862E+002	-1.4098105E+000	-4.441577568573221E+002	6.2617826E-001	-1.4090620E+000	0
3.1770260E+000	1.293465969661338E+002	-1.4118075E+000	-4.443802090210174E+002	6.2737936E-001	-1.4110621E+000	0
3.2105725E+000	1.295465969610814E+002	-1.4137896E+000	-4.403543877071806E+002	6.2256849E-001	-1.4130620E+000	0
3.2093353E+000	1.297465969560290E+002	-1.4157851E+000	-4.411458979972085E+002	6.2456781E-001	-1.4150620E+000	0
3.1700993E+000	1.299465969509765E+002	-1.4177948E+000	-4.472398934872522E+002	6.3409442E-001	-1.4170619E+000	0
3.0901423E+000	1.301465969459241E+002	-1.4198149E+000	-4.594658822818678E+002	6.5235651E-001	-1.4190620E+000	0
3.0579834E+000	1.303465969408717E+002	-1.4218445E+000	-4.649614752771649E+002	6.6110289E-001	-1.4210621E+000	0
3.0597353E+000	1.305465969358193E+002	-1.4238359E+000	-4.653461067433245E+002	6.6257650E-001	-1.4230620E+000	0
3.0798671E+000	1.307465969307668E+002	-1.4258336E+000	-4.629529438321542E+002	6.6009384E-001	-1.4250619E+000	0
3.0687442E+000	1.309465969257144E+002	-1.4278162E+000	-4.652770176452850E+002	6.6433007E-001	-1.4270620E+000	0
3.0866222E+000	1.311465969206620E+002	-1.4298162E+000	-4.632300828254702E+002	6.6233391E-001	-1.4290620E+000	0
3.0982423E+000	1.313465969156096E+002	-1.4318413E+000	-4.621463170992301E+002	6.6172016E-001	-1.4310620E+000	0
3.1323099E+000	1.315465969105571E+002	-1.4338155E+000	-4.577501877116492E+002	6.5632933E-001	-1.4330621E+000	0
3.1285052E+000	1.317465969055047E+002	-1.4358374E+000	-4.589531754387745E+002	6.5898216E-001	-1.4350619E+000	0
3.1027212E+000	1.319465969004523E+002	-1.4378320E+000	-4.634099965992968E+002	6.6630572E-001	-1.4370620E+000	0
3.0680079E+000	1.321465968953999E+002	-1.4398389E+000	-4.693074164444633E+002	6.7572707E-001	-1.4390620E+000	0
3.0668137E+000	1.323465968903474E+002	-1.4418347E+000	-4.701409277494263E+002	6.7786551E-001	-1.4410620E+000	0
3.0480428E+000	1.325465968852950E+002	-1.4438375E+000	-4.736933170457005E+002	6.8393618E-001	-1.4430621E+000	0
3.0211308E+000	1.327465968802426E+002	-1.4458334E+000	-4.785736031997203E+002	6.9193774E-001	-1.4450620E+000	0
2.9336472E+000	1.329465968751902E+002	-1.4478527E+000	-4.935333409471586E+002	7.1456361E-001	-1.4470620E+000	0
2.8538935E+000	1.331465968701377E+002	-1.4498410E+000	-5.080220950422911E+002	7.3655128E-001	-1.4490621E+000	0
2.8040907E+000	1.333465968650853E+002	-1.4518577E+000	-5.177641717214437E+002	7.5171989E-001	-1.4510620E+000	0
2.8414385E+000	1.335465968600329E+002	-1.4538656E+000	-5.116653523391069E+002	7.4389267E-001	-1.4530621E+000	0
2.8840272E+000	1.337465968549805E+002	-1.4558564E+000	-5.047998191634542E+002	7.3491609E-001	-1.4550619E+000	0
2.9166679E+000	1.339465968499280E+002	-1.4578437E+000	-4.998319005555313E+002	7.2867680E-001	-1.4570620E+000	0
2.9425759E+000	1.341465968448756E+002	-1.4598558E+000	-4.961149145891877E+002	7.2425622E-001	-1.4590621E+000	0
2.9491782E+000	1.343465968398232E+002	-1.4618384E+000	-4.956765281564803E+002	7.2459894E-001	-1.4610620E+000	0
2.9363461E+000	1.345465968347708E+002	-1.4638546E+000	-4.985293156760072E+002	7.2977442E-001	-1.4630620E+000	0
2.9218435E+000	1.347465968297183E+002	-1.4658270E+000	-5.016788223422291E+002	7.3537433E-001	-1.4650619E+000	0
2.9218252E+000	1.349465968246659E+002	-1.4678493E+000	-5.023740909126604E+002	7.3740941E-001	-1.4670620E+000	0
2.9013352E+000	1.351465968196135E+002	-1.4698490E+000	-5.066112148129205E+002	7.4464196E-001	-1.4690621E+000	0
2.9080341E+000	1.353465968145611E+002	-1.4718482E+000	-5.061317046245440E+002	7.4494904E-001	-1.4710619E+000	0
2.9290407E+000	1.355465968095086E+002	-1.4738528E+000	-5.031861573303618E+002	7.4162233E-001	-1.4730620E+000	0
2.9095502E+000	1.357465968044562E+002	-1.4758520E+000	-5.072440277670521E+002	7.4861711E-001	-1.4750619E+000	0
2.8876250E+000	1.359465967994038E+002	-1.4778467E+000	-5.117862398056768E+002	7.5634164E-001	-1.4770620E+000	0
2.8651168E+000	1.361465967943514E+002	-1.4798241E+000	-5.164969294714556E+002	7.6432461E-001	-1.4790621E+000	0
2.7963364E+000	1.363465967892989E+002	-1.4818652E+000	-5.299309233278364E+002	7.8528619E-001	-1.4810619E+000	0
2.7991436E+000	1.365465967842465E+002	-1.4838527E+000	-5.301095446718527E+002	7.8660452E-001	-1.4830620E+000	0
2.7816217E+000	1.367465967791941E+002	-1.4858626E+000	-5.341713673944105E+002	7.9370528E-001	-1.4850619E+000	0
2.8055787E+000	1.369465967741417E+002	-1.4878560E+000	-5.303205675527370E+002	7.8904063E-001	-1.4870620E+000	0
2.8018503E+000	1.371465967690892E+002	-1.4898535E+000	-5.317391382636918E+002	7.9221344E-001	-1.4890621E+000	0
2.7921684E+000	1.373465967640368E+002	-1.4918777E+000	-5.343079266623849E+002	7.9712206E-001	-1.4910619E+000	0
2.7853980E+000	1.375365967592370E+002	-1.4937588E+000	-5.362819783298328E+002	8.0107594E-001	-1.4929619E+000	0
2.7839072E+000	1.376335967567866E+002	-1.4947511E+000	-5.369256107105930E+002	8.0257016E-001	-1.4939617E+000	0