EC-Lab ASCII FILE
Nb header lines : 61                          

Linear Sweep Voltammetry

Run on channel : 1 (SN 1340)
User : 
Electrode connection : standard
Potential control : Ewe
Ewe ctrl range : min = -5.00 V, max = 5.00 V
Ewe,I filtering : 50 kHz
Channel : Grounded
Acquisition started on : 02/26/2026 17:24:55.936
Technique started on : 02/26/2026 17:24:58.774
Loaded Setting File :  NONE
Saved on :
	File : PtPdCoNiCr_sqmagnet_2_26_02_LSV_C01.mpr
	Directory : C:\Users\volt\Documents\Platalytix\
	Host : 127.0.0.1
Device : SP-200 (SN 0262)
Address : USB
EC-LAB for windows v11.60 (software)
Internet server v11.60 (firmware)
Command interpretor v11.60 (firmware)
Electrode material : PtPdCoNiCr_mag
Initial state : 
Electrolyte : KOH (1M)
Comments : 
Cable : standard
Reference electrode : Hg/HgO (0.140 V)
Electrode surface area : 1.000 cm˛
Characteristic mass : 0.001 g
Equivalent Weight : 0.000 g/eq.
Density : 0.000 g/cm3
Volume (V) : 0.001 cmł
Cycle Definition : Charge/Discharge alternance
tR (h:m:s)          0:00:5.0000         
dER/dt (mV/h)       0.0                 
dER (mV)            0                   
dtR (s)             0.0000              
dE/dt               10.000              
dE/dt unit          mV/s                
Ei (V)              -0.200              
vs.                 Ref                 
EL (V)              -2.500              
vs.                 Ref                 
record              <I>                 
dI                  0.000               
unit dI             µA                  
tI (s)              0.0000              
step percent        50                  
N                   10                  
E range min (V)     -5.000              
E range max (V)     5.000               
I Range             Auto                
I Range min         Unset               
I Range max         Unset               
I Range init        Unset               
Bandwidth           8                   

Rwe/Ohm	time/s	Ewe/V	<I>/mA	Pwe/W	control/V	error	
0.0000000E+000	2.838400134787662E+000	-1.4157701E-001	0.000000000000000E+000	0.0000000E+000	0.0000000E+000	0
0.0000000E+000	7.838200008482090E+000	-4.6416417E-002	0.000000000000000E+000	0.0000000E+000	-1.9994903E-001	0
4.1822725E+003	7.978200004945393E+000	-2.0112811E-001	-4.809062804663367E-002	9.6723770E-006	-2.0124881E-001	0
9.3390289E+002	8.098200001913938E+000	-2.0231736E-001	-2.166363907913064E-001	4.3829303E-005	-2.0244886E-001	0
9.1617798E+002	8.308199996608892E+000	-2.0441604E-001	-2.231182653959545E-001	4.5608951E-005	-2.0454884E-001	0
9.6454413E+002	8.508199991556467E+000	-2.0643589E-001	-2.140243111617548E-001	4.4182299E-005	-2.0654885E-001	0
1.0110461E+003	8.708199986504042E+000	-2.0842920E-001	-2.061520154944829E-001	4.2968099E-005	-2.0854884E-001	0
1.0538264E+003	8.908199981451617E+000	-2.1042547E-001	-1.996775440842153E-001	4.2017240E-005	-2.1054885E-001	0
1.0938070E+003	9.108199976399192E+000	-2.1241243E-001	-1.941955318651214E-001	4.1249546E-005	-2.1254885E-001	0
1.1312108E+003	9.308199971346767E+000	-2.1441783E-001	-1.895471947107146E-001	4.0642299E-005	-2.1454886E-001	0
1.1674287E+003	9.508199966294342E+000	-2.1641921E-001	-1.853810839635873E-001	4.0120027E-005	-2.1654885E-001	0
1.2025129E+003	9.708199961241917E+000	-2.1841761E-001	-1.816343120045856E-001	3.9672133E-005	-2.1854885E-001	0
1.2361842E+003	9.908199956189492E+000	-2.2042856E-001	-1.783136823446880E-001	3.9305429E-005	-2.2054888E-001	0
1.2698992E+003	1.010819995113707E+001	-2.2243543E-001	-1.751599107676789E-001	3.8961771E-005	-2.2254884E-001	0
1.3029363E+003	1.030819994608464E+001	-2.2441092E-001	-1.722347699052946E-001	3.8651364E-005	-2.2454886E-001	0
1.3365696E+003	1.050819994103222E+001	-2.2640528E-001	-1.693928060428052E-001	3.8351427E-005	-2.2654887E-001	0
1.3701088E+003	1.070819993597979E+001	-2.2842279E-001	-1.667187325455792E-001	3.8082359E-005	-2.2854884E-001	0
1.4038368E+003	1.090819993092737E+001	-2.3041990E-001	-1.641358186579529E-001	3.7820158E-005	-2.3054884E-001	0
1.4377811E+003	1.110819992587494E+001	-2.3242161E-001	-1.616529866539853E-001	3.7571648E-005	-2.3254871E-001	0
1.4720210E+003	1.130819992082252E+001	-2.3443323E-001	-1.592594366562883E-001	3.7335703E-005	-2.3454858E-001	0
1.5079229E+003	1.150819991577009E+001	-2.3643538E-001	-1.567954159438896E-001	3.7071983E-005	-2.3654848E-001	0
1.5436836E+003	1.170819991071767E+001	-2.3844066E-001	-1.544621394664181E-001	3.6830053E-005	-2.3854838E-001	0
1.5806763E+003	1.190819990566524E+001	-2.4043195E-001	-1.521070116324150E-001	3.6571386E-005	-2.4054824E-001	0
1.6180828E+003	1.210819990061282E+001	-2.4241748E-001	-1.498177335935466E-001	3.6318437E-005	-2.4254814E-001	0
1.6572222E+003	1.230819989556039E+001	-2.4442470E-001	-1.474906095829440E-001	3.6050347E-005	-2.4454801E-001	0
1.6978433E+003	1.250819989050797E+001	-2.4642597E-001	-1.451405841401039E-001	3.5766410E-005	-2.4654791E-001	0
1.7385026E+003	1.270819988545554E+001	-2.4844271E-001	-1.429061477870814E-001	3.5503992E-005	-2.4854781E-001	0
1.7808164E+003	1.290819988040312E+001	-2.5041452E-001	-1.406178201861308E-001	3.5212743E-005	-2.5054771E-001	0
1.8234886E+003	1.310819987535069E+001	-2.5243616E-001	-1.384358289873318E-001	3.4946210E-005	-2.5254756E-001	0
1.8684611E+003	1.330819987029827E+001	-2.5443995E-001	-1.361762126495893E-001	3.4648670E-005	-2.5454745E-001	0
1.9151709E+003	1.350819986524584E+001	-2.5642955E-001	-1.338938205036215E-001	3.4334331E-005	-2.5654733E-001	0
1.9623865E+003	1.370819986019342E+001	-2.5841722E-001	-1.316851806687508E-001	3.4029719E-005	-2.5854722E-001	0
2.0116058E+003	1.390809985514352E+001	-2.6039153E-001	-1.294446096174271E-001	3.3706281E-005	-2.6054686E-001	0
2.0624231E+003	1.410799985009362E+001	-2.6240128E-001	-1.272296016938697E-001	3.3385211E-005	-2.6254702E-001	0
2.1148572E+003	1.430799984504119E+001	-2.6440060E-001	-1.250205448197197E-001	3.3055509E-005	-2.6454687E-001	0
2.1692688E+003	1.450799983998877E+001	-2.6640886E-001	-1.228104472728420E-001	3.2717791E-005	-2.6654676E-001	0
2.2247578E+003	1.470799983493635E+001	-2.6840782E-001	-1.206458629153313E-001	3.2382293E-005	-2.6854664E-001	0
2.2838545E+003	1.490799982988392E+001	-2.7039275E-001	-1.183931635483650E-001	3.2012653E-005	-2.7054656E-001	0
2.3443530E+003	1.510799982483150E+001	-2.7239019E-001	-1.161899136351906E-001	3.1648993E-005	-2.7254641E-001	0
2.4058125E+003	1.530799981977907E+001	-2.7440059E-001	-1.140573459947712E-001	3.1297404E-005	-2.7454630E-001	0
2.4694021E+003	1.550799981472665E+001	-2.7640736E-001	-1.119329072049318E-001	3.0939078E-005	-2.7654618E-001	0
2.5364019E+003	1.570799980967422E+001	-2.7839059E-001	-1.097580760985601E-001	3.0555617E-005	-2.7854607E-001	0
2.6037693E+003	1.590799980462180E+001	-2.8039119E-001	-1.076866481009695E-001	3.0194387E-005	-2.8054595E-001	0
2.6740676E+003	1.610799979956937E+001	-2.8240263E-001	-1.056078887046171E-001	2.9823947E-005	-2.8254583E-001	0
2.7464246E+003	1.630799979451695E+001	-2.8440830E-001	-1.035558381001731E-001	2.9452140E-005	-2.8454572E-001	0
2.8199932E+003	1.650799978946452E+001	-2.8639835E-001	-1.015599492299548E-001	2.9086603E-005	-2.8654560E-001	0
2.8956987E+003	1.670799978441210E+001	-2.8840536E-001	-9.959784688960194E-002	2.8724553E-005	-2.8854549E-001	0
2.9730525E+003	1.690799977935967E+001	-2.9040536E-001	-9.767919479575760E-002	2.8366561E-005	-2.9054534E-001	0
3.0540942E+003	1.710799977430725E+001	-2.9239750E-001	-9.573951614028076E-002	2.7993996E-005	-2.9254523E-001	0
3.1341135E+003	1.730789976925735E+001	-2.9441014E-001	-9.393729024918018E-002	2.7656091E-005	-2.9454425E-001	0
3.2160598E+003	1.750779976420745E+001	-2.9641548E-001	-9.216728057108323E-002	2.7319809E-005	-2.9654503E-001	0
3.2997256E+003	1.770779975915502E+001	-2.9838660E-001	-9.042770058537553E-002	2.6982414E-005	-2.9854488E-001	0
3.3867991E+003	1.790779975410260E+001	-3.0039889E-001	-8.869698928783087E-002	2.6644477E-005	-3.0054477E-001	0
3.4726753E+003	1.810779974905017E+001	-3.0239379E-001	-8.707805161782534E-002	2.6331862E-005	-3.0254465E-001	0
3.5576646E+003	1.830779974399775E+001	-3.0440864E-001	-8.556417533029681E-002	2.6046475E-005	-3.0454454E-001	0
3.6442874E+003	1.850779973894532E+001	-3.0640227E-001	-8.407741866249768E-002	2.5761512E-005	-3.0654442E-001	0
3.7319402E+003	1.870779973389290E+001	-3.0841500E-001	-8.264199624528648E-002	2.5488031E-005	-3.0854431E-001	0
3.8223528E+003	1.890779972884047E+001	-3.1040648E-001	-8.120822178330808E-002	2.5207559E-005	-3.1054419E-001	0
3.9088335E+003	1.910779972378805E+001	-3.1241810E-001	-7.992617257442047E-002	2.4970383E-005	-3.1254408E-001	0
3.9960291E+003	1.930779971873562E+001	-3.1439435E-001	-7.867669380985853E-002	2.4735509E-005	-3.1454396E-001	0
4.0830957E+003	1.950779971368320E+001	-3.1639072E-001	-7.748795405469500E-002	2.4516470E-005	-3.1654385E-001	0
4.1705859E+003	1.970779970863077E+001	-3.1840408E-001	-7.634516919925061E-002	2.4308612E-005	-3.1854373E-001	0
4.2559370E+003	1.990779970357835E+001	-3.2037926E-001	-7.527819199248903E-002	2.4117571E-005	-3.2054362E-001	0
4.3411318E+003	2.010779969852592E+001	-3.2239452E-001	-7.426508377800312E-002	2.3942655E-005	-3.2254350E-001	0
4.4265874E+003	2.030779969347350E+001	-3.2440490E-001	-7.328555049203672E-002	2.3774192E-005	-3.2454339E-001	0
4.5070352E+003	2.050779968842107E+001	-3.2640448E-001	-7.242111193624384E-002	2.3638575E-005	-3.2654324E-001	0
4.5882476E+003	2.070769968337117E+001	-3.2839951E-001	-7.157405951942608E-002	2.3504886E-005	-3.2854226E-001	0
4.6684229E+003	2.090769967831875E+001	-3.3040383E-001	-7.077419065098550E-002	2.3384064E-005	-3.3054391E-001	0
4.7448013E+003	2.110759967326885E+001	-3.3238918E-001	-7.005334015811060E-002	2.3284972E-005	-3.3254290E-001	0
4.8229790E+003	2.130759966821643E+001	-3.3439928E-001	-6.933458927066399E-002	2.3185437E-005	-3.3454278E-001	0
4.8992290E+003	2.150759966316400E+001	-3.3639845E-001	-6.866355254335944E-002	2.3098313E-005	-3.3654267E-001	0
4.9656021E+003	2.170759965811158E+001	-3.3840713E-001	-6.815026852760508E-002	2.3062537E-005	-3.3854255E-001	0
5.0405566E+003	2.190759965305915E+001	-3.4040755E-001	-6.753372224712983E-002	2.2988988E-005	-3.4054244E-001	0
5.1093545E+003	2.210759964800673E+001	-3.4241432E-001	-6.701713979725743E-002	2.2947628E-005	-3.4254232E-001	0
5.1774482E+003	2.230759964295430E+001	-3.4439605E-001	-6.651849463548254E-002	2.2908707E-005	-3.4454221E-001	0
5.2430532E+003	2.250759963790188E+001	-3.4641343E-001	-6.607093477290105E-002	2.2887860E-005	-3.4654209E-001	0
5.3056113E+003	2.270759963284945E+001	-3.4841919E-001	-6.566993935274415E-002	2.2880668E-005	-3.4854195E-001	0
5.3665996E+003	2.290759962779703E+001	-3.5042298E-001	-6.529702040706820E-002	2.2881577E-005	-3.5054186E-001	0
5.4244458E+003	2.310759962274460E+001	-3.5240218E-001	-6.496556142193019E-002	2.2894006E-005	-3.5254177E-001	0
5.4834512E+003	2.330759961769218E+001	-3.5441151E-001	-6.463292776026219E-002	2.2906654E-005	-3.5454163E-001	0
5.5364600E+003	2.350759961263975E+001	-3.5641512E-001	-6.437599629347465E-002	2.2944578E-005	-3.5654151E-001	0
5.5943013E+003	2.370759960758733E+001	-3.5842738E-001	-6.407009017423598E-002	2.2964474E-005	-3.5854137E-001	0
5.6457002E+003	2.390759960253490E+001	-3.6041427E-001	-6.383871876575542E-002	2.3008384E-005	-3.6054128E-001	0
5.6977964E+003	2.410759959748248E+001	-3.6239830E-001	-6.360323694080552E-002	2.3049704E-005	-3.6254120E-001	0
5.7452573E+003	2.430749959243258E+001	-3.6441296E-001	-6.342848383931807E-002	2.3114162E-005	-3.6454195E-001	0
5.7965557E+003	2.450739958738268E+001	-3.6639744E-001	-6.320951090092930E-002	2.3159802E-005	-3.6654091E-001	0
5.8442935E+003	2.470739958233025E+001	-3.6840528E-001	-6.303675544539000E-002	2.3223074E-005	-3.6854079E-001	0
5.8922183E+003	2.490739957727783E+001	-3.7038511E-001	-6.286004788343658E-002	2.3282426E-005	-3.7054068E-001	0
5.9364922E+003	2.510739957222540E+001	-3.7239823E-001	-6.273035134628091E-002	2.3360672E-005	-3.7254056E-001	0
5.9809004E+003	2.530739956717298E+001	-3.7440097E-001	-6.259943536364494E-002	2.3437289E-005	-3.7454048E-001	0
6.0240830E+003	2.550739956212055E+001	-3.7640584E-001	-6.248350726396174E-002	2.3519156E-005	-3.7654033E-001	0
6.0646206E+003	2.570739955706813E+001	-3.7840161E-001	-6.239493236013291E-002	2.3610342E-005	-3.7854022E-001	0
6.1123062E+003	2.590739955201570E+001	-3.8038757E-001	-6.223306915239180E-002	2.3672686E-005	-3.8054010E-001	0
6.1482456E+003	2.610739954696328E+001	-3.8239053E-001	-6.219506548778830E-002	2.3782804E-005	-3.8253999E-001	0
6.1879150E+003	2.630739954191085E+001	-3.8439560E-001	-6.212037394156936E-002	2.3878798E-005	-3.8453984E-001	0
6.2245845E+003	2.650739953685843E+001	-3.8641173E-001	-6.207831477949100E-002	2.3987788E-005	-3.8653976E-001	0
6.2682539E+003	2.670739953180600E+001	-3.8841084E-001	-6.196475568884241E-002	2.4067782E-005	-3.8853967E-001	0
6.3033760E+003	2.690739952675358E+001	-3.9041829E-001	-6.193796699114873E-002	2.4181716E-005	-3.9053953E-001	0
6.3390352E+003	2.710739952170115E+001	-3.9240238E-001	-6.190254207692053E-002	2.4290704E-005	-3.9253941E-001	0
6.3727466E+003	2.730739951664873E+001	-3.9439917E-001	-6.188841160310776E-002	2.4408739E-005	-3.9453933E-001	0
6.4132920E+003	2.750739951159630E+001	-3.9640975E-001	-6.181065208023051E-002	2.4502346E-005	-3.9653918E-001	0
6.4478667E+003	2.770729950654641E+001	-3.9842063E-001	-6.179107697125721E-002	2.4618839E-005	-3.9853954E-001	0
6.4843057E+003	2.790719950149651E+001	-4.0042096E-001	-6.175232795753494E-002	2.4726927E-005	-4.0053895E-001	0
6.5138511E+003	2.810719949644408E+001	-4.0241799E-001	-6.177881153779796E-002	2.4860905E-005	-4.0253881E-001	0
6.5498877E+003	2.830719949139166E+001	-4.0439171E-001	-6.174025059172938E-002	2.4967245E-005	-4.0453875E-001	0
6.5803325E+003	2.850719948633923E+001	-4.0642139E-001	-6.176304966084611E-002	2.5101825E-005	-4.0653861E-001	0
6.6138608E+003	2.870719948128681E+001	-4.0839931E-001	-6.174900518443072E-002	2.5218251E-005	-4.0853852E-001	0
6.6452104E+003	2.890719947623438E+001	-4.1039801E-001	-6.175846459667156E-002	2.5345551E-005	-4.1053838E-001	0
6.6727412E+003	2.910719947118196E+001	-4.1243348E-001	-6.180870417418927E-002	2.5491978E-005	-4.1253823E-001	0
6.7072690E+003	2.930719946612953E+001	-4.1443449E-001	-6.178885848100912E-002	2.5607435E-005	-4.1453817E-001	0
6.7370112E+003	2.950719946107711E+001	-4.1642681E-001	-6.181180132542433E-002	2.5740092E-005	-4.1653803E-001	0
6.7642896E+003	2.970719945602468E+001	-4.1845334E-001	-6.186212856816686E-002	2.5886415E-005	-4.1853794E-001	0
6.7976445E+003	2.990719945097226E+001	-4.2043766E-001	-6.185049095609207E-002	2.6004276E-005	-4.2053780E-001	0
6.8231733E+003	3.010719944591983E+001	-4.2243782E-001	-6.191222261438933E-002	2.6154064E-005	-4.2253765E-001	0
6.8547676E+003	3.030719944086741E+001	-4.2444161E-001	-6.191918386733519E-002	2.6281077E-005	-4.2453754E-001	0
6.8869805E+003	3.050719943581498E+001	-4.2642316E-001	-6.191728951234171E-002	2.6402966E-005	-4.2653742E-001	0
6.9125845E+003	3.070719943076256E+001	-4.2843118E-001	-6.197843778415957E-002	2.6553495E-005	-4.2853731E-001	0
6.9413164E+003	3.090719942571013E+001	-4.3043029E-001	-6.200989438938886E-002	2.6690937E-005	-4.3053722E-001	0
6.9692407E+003	3.110709942066023E+001	-4.3243030E-001	-6.204840772521703E-002	2.6831611E-005	-4.3253687E-001	0
6.9993301E+003	3.130699941561033E+001	-4.3443072E-001	-6.206747087757669E-002	2.6964017E-005	-4.3453696E-001	0
7.0261934E+003	3.150699941055791E+001	-4.3644303E-001	-6.211656902952623E-002	2.7110344E-005	-4.3653685E-001	0
7.0551084E+003	3.170699940550548E+001	-4.3843073E-001	-6.214372558274273E-002	2.7245718E-005	-4.3853673E-001	0
7.0866826E+003	3.190699940045306E+001	-4.4043308E-001	-6.214940243468220E-002	2.7372653E-005	-4.4053659E-001	0
7.1117524E+003	3.210699939540064E+001	-4.4243494E-001	-6.221180042154803E-002	2.7524675E-005	-4.4253650E-001	0
7.1370767E+003	3.230699939034821E+001	-4.4443303E-001	-6.227101984828731E-002	2.7675298E-005	-4.4453639E-001	0
7.1686631E+003	3.250699938529579E+001	-4.4644767E-001	-6.227767641673021E-002	2.7803724E-005	-4.4653627E-001	0
7.1894258E+003	3.270699938024336E+001	-4.4844022E-001	-6.237497065182507E-002	2.7971446E-005	-4.4853622E-001	0
7.2201460E+003	3.290699937519094E+001	-4.5044571E-001	-6.238734086578457E-002	2.8102109E-005	-4.5053601E-001	0
7.2476396E+003	3.310699937013851E+001	-4.5243973E-001	-6.242580430227396E-002	2.8243914E-005	-4.5253593E-001	0
7.2724863E+003	3.330699936508609E+001	-4.5442766E-001	-6.248587342042491E-002	2.8395309E-005	-4.5453584E-001	0
7.3003994E+003	3.350699936003366E+001	-4.5643872E-001	-6.252243154673742E-002	2.8537659E-005	-4.5653570E-001	0
7.3268516E+003	3.370699935498124E+001	-4.5845416E-001	-6.257178448826939E-002	2.8686294E-005	-4.5853558E-001	0
7.3598262E+003	3.390699934992881E+001	-4.6044141E-001	-6.256145087510034E-002	2.8805882E-005	-4.6053544E-001	0
7.3838911E+003	3.410699934487639E+001	-4.6243039E-001	-6.262692304480133E-002	2.8960592E-005	-4.6253532E-001	0
7.4127988E+003	3.430699933982396E+001	-4.6442524E-001	-6.265180559602912E-002	2.9097080E-005	-4.6453527E-001	0
7.4367153E+003	3.450689933477406E+001	-4.6641931E-001	-6.271845847561058E-002	2.9253100E-005	-4.6653464E-001	0
7.4622515E+003	3.470679932972416E+001	-4.6841949E-001	-6.277187309722054E-002	2.9403569E-005	-4.6853501E-001	0
7.4913735E+003	3.490679932467174E+001	-4.7043368E-001	-6.279671777413509E-002	2.9541690E-005	-4.7053486E-001	0
7.5191079E+003	3.510679931961931E+001	-4.7242433E-001	-6.282983872038461E-002	2.9682344E-005	-4.7253475E-001	0
7.5442422E+003	3.530679931456689E+001	-4.7440889E-001	-6.288357232454456E-002	2.9832527E-005	-4.7453469E-001	0
7.5746436E+003	3.550679930951446E+001	-4.7643012E-001	-6.289802604542882E-002	2.9966513E-005	-4.7653449E-001	0
7.5990840E+003	3.570679930446204E+001	-4.7841862E-001	-6.295740792037874E-002	3.0119996E-005	-4.7853440E-001	0
7.6288843E+003	3.590679929940961E+001	-4.8041731E-001	-6.297347066256620E-002	3.0253546E-005	-4.8053429E-001	0
7.6576597E+003	3.610679929435719E+001	-4.8242411E-001	-6.299889603177755E-002	3.0392186E-005	-4.8253417E-001	0
7.6841348E+003	3.630679928930476E+001	-4.8440644E-001	-6.303981559661531E-002	3.0536892E-005	-4.8453405E-001	0
7.7089175E+003	3.650679928425234E+001	-4.8641577E-001	-6.309780400708881E-002	3.0691768E-005	-4.8653391E-001	0
7.7359370E+003	3.670679927919991E+001	-4.8841280E-001	-6.313557249215135E-002	3.0836221E-005	-4.8853382E-001	0
7.7649829E+003	3.690679927414749E+001	-4.9041575E-001	-6.315734978636400E-002	3.0973359E-005	-4.9053371E-001	0
7.7912939E+003	3.710679926909506E+001	-4.9241152E-001	-6.320022227498145E-002	3.1120519E-005	-4.9253359E-001	0
7.8226504E+003	3.730679926404264E+001	-4.9441805E-001	-6.320339522447005E-002	3.1248899E-005	-4.9453348E-001	0
7.8488311E+003	3.750679925899021E+001	-4.9641550E-001	-6.324706202089916E-002	3.1396823E-005	-4.9653333E-001	0
7.8718730E+003	3.770679925393779E+001	-4.9843141E-001	-6.331801925027691E-002	3.1559692E-005	-4.9853325E-001	0
7.9092974E+003	3.790669924888789E+001	-5.0043166E-001	-6.327131471537240E-002	3.1662970E-005	-5.0053298E-001	0
7.9340137E+003	3.810659924383799E+001	-5.0242442E-001	-6.332537704812657E-002	3.1816217E-005	-5.0253308E-001	0
7.9664155E+003	3.830659923878557E+001	-5.0443333E-001	-6.331998658368621E-002	3.1940712E-005	-5.0453299E-001	0
7.9944009E+003	3.850659923373314E+001	-5.0642478E-001	-6.334743550302824E-002	3.2080712E-005	-5.0653279E-001	0
8.0233564E+003	3.870659922868072E+001	-5.0842947E-001	-6.336867597055451E-002	3.2218501E-005	-5.0853270E-001	0
8.0533159E+003	3.890659922362829E+001	-5.1042080E-001	-6.338020272039790E-002	3.2350574E-005	-5.1053256E-001	0
8.0829717E+003	3.910659921857587E+001	-5.1242137E-001	-6.339517231057079E-002	3.2485041E-005	-5.1253247E-001	0
8.1134785E+003	3.930659921352344E+001	-5.1443410E-001	-6.340487544053164E-002	3.2617630E-005	-5.1453233E-001	0
8.1386470E+003	3.950659920847102E+001	-5.1643384E-001	-6.345450766110061E-002	3.2770055E-005	-5.1653218E-001	0
8.1717749E+003	3.970659920341859E+001	-5.1841986E-001	-6.344030256216304E-002	3.2888714E-005	-5.1853216E-001	0
8.1956523E+003	3.990659919836617E+001	-5.2044618E-001	-6.350271576749433E-002	3.3049746E-005	-5.2053195E-001	0
8.2335381E+003	4.010659919331374E+001	-5.2241772E-001	-6.344996403286116E-002	3.3147386E-005	-5.2253187E-001	0
8.2628555E+003	4.030659918826132E+001	-5.2442473E-001	-6.346773559886465E-002	3.3284050E-005	-5.2453178E-001	0
8.2904258E+003	4.050659918320889E+001	-5.2643174E-001	-6.349875545129180E-002	3.3427761E-005	-5.2653164E-001	0
8.3171719E+003	4.070659917815647E+001	-5.2841997E-001	-6.353360906722716E-002	3.3572429E-005	-5.2853155E-001	0
8.3549463E+003	4.090659917310404E+001	-5.3042090E-001	-6.348585219506819E-002	3.3674223E-005	-5.3053147E-001	0
8.3808271E+003	4.110659916805162E+001	-5.3241509E-001	-6.352774679709361E-002	3.3823129E-005	-5.3253126E-001	0
8.4095107E+003	4.130659916299919E+001	-5.3442341E-001	-6.354988318584998E-002	3.3962544E-005	-5.3453118E-001	0
8.4401895E+003	4.150639915795182E+001	-5.3642720E-001	-6.355629945775748E-002	3.4093329E-005	-5.3653103E-001	0
8.4695537E+003	4.170639915289939E+001	-5.3842759E-001	-6.357213169391240E-002	3.4228990E-005	-5.3853095E-001	0
8.4988506E+003	4.190639914784697E+001	-5.4045302E-001	-6.359130958023390E-002	3.4368117E-005	-5.4053080E-001	0
8.5306201E+003	4.210639914279454E+001	-5.4242778E-001	-6.358597346828587E-002	3.4490797E-005	-5.4253072E-001	0
8.5619346E+003	4.230639913774212E+001	-5.4444367E-001	-6.358885969185279E-002	3.4620552E-005	-5.4453063E-001	0
8.5949658E+003	4.250639913268969E+001	-5.4643053E-001	-6.357564721647146E-002	3.4739674E-005	-5.4653049E-001	0
8.6235293E+003	4.270639912763727E+001	-5.4843092E-001	-6.359703997741362E-002	3.4878583E-005	-5.4853040E-001	0
8.6475596E+003	4.290639912258484E+001	-5.5043834E-001	-6.365245069290548E-002	3.5036748E-005	-5.5053031E-001	0
8.6891221E+003	4.310639911753242E+001	-5.5243158E-001	-6.357737524960760E-002	3.5122150E-005	-5.5253011E-001	0
8.7128379E+003	4.330639911247999E+001	-5.5443704E-001	-6.363449415219458E-002	3.5281322E-005	-5.5453002E-001	0
8.7401572E+003	4.350639910742757E+001	-5.5642086E-001	-6.366256864101572E-002	3.5423182E-005	-5.5652988E-001	0
8.7709229E+003	4.370639910237514E+001	-5.5843598E-001	-6.366901168052724E-002	3.5555066E-005	-5.5852979E-001	0
8.7988721E+003	4.390639909732272E+001	-5.6042451E-001	-6.369276452110539E-002	3.5694986E-005	-5.6052965E-001	0
8.8256934E+003	4.410639909227029E+001	-5.6244296E-001	-6.372790822396029E-002	3.5843314E-005	-5.6252956E-001	0
8.8618564E+003	4.430639908721787E+001	-5.6445420E-001	-6.369480607311018E-002	3.5952802E-005	-5.6452948E-001	0
8.8887588E+003	4.450639908216544E+001	-5.6642199E-001	-6.372340631517059E-002	3.6094338E-005	-5.6652933E-001	0
8.9123066E+003	4.470639907711302E+001	-5.6842232E-001	-6.377948563104541E-002	3.6253685E-005	-5.6852919E-001	0
8.9489990E+003	4.490629907206312E+001	-5.7040882E-001	-6.373995535678383E-002	3.6357833E-005	-5.7052982E-001	0
8.9739258E+003	4.510619906701322E+001	-5.7242739E-001	-6.378784539049165E-002	3.6513909E-005	-5.7252890E-001	0
9.0013105E+003	4.530619906196080E+001	-5.7441860E-001	-6.381499609179253E-002	3.6656522E-005	-5.7452887E-001	0
9.0277881E+003	4.550619905690837E+001	-5.7642668E-001	-6.385026988678932E-002	3.6804999E-005	-5.7652873E-001	0
9.0580869E+003	4.570619905185595E+001	-5.7841974E-001	-6.385672013824417E-002	3.6935988E-005	-5.7852864E-001	0
9.0823281E+003	4.590619904680352E+001	-5.8041078E-001	-6.390550713922807E-002	3.7091446E-005	-5.8052850E-001	0
9.1097734E+003	4.610619904175110E+001	-5.8241338E-001	-6.393280580572253E-002	3.7235321E-005	-5.8252835E-001	0
9.1349912E+003	4.630619903669867E+001	-5.8441228E-001	-6.397513502547736E-002	3.7387854E-005	-5.8452827E-001	0
9.1679756E+003	4.650619903164625E+001	-5.8639860E-001	-6.396162537741706E-002	3.7507009E-005	-5.8652812E-001	0
9.1914873E+003	4.670619902659382E+001	-5.8840352E-001	-6.401613580016519E-002	3.7667320E-005	-5.8852798E-001	0
9.2099551E+003	4.690619902154140E+001	-5.9041727E-001	-6.410642032555885E-002	3.7849539E-005	-5.9052795E-001	0
9.2375615E+003	4.710619901648897E+001	-5.9243959E-001	-6.413376413796795E-002	3.7995382E-005	-5.9252775E-001	0
9.2666777E+003	4.730619901143655E+001	-5.9443146E-001	-6.414720427895360E-002	3.8131115E-005	-5.9452772E-001	0
9.2934746E+003	4.750619900638412E+001	-5.9641594E-001	-6.417577689230589E-002	3.8275455E-005	-5.9652758E-001	0
9.3199004E+003	4.770619900133170E+001	-5.9840155E-001	-6.420685869457876E-002	3.8421484E-005	-5.9852743E-001	0
9.3365068E+003	4.790619899627927E+001	-6.0042089E-001	-6.430894678116394E-002	3.8612434E-005	-6.0052735E-001	0
9.3636279E+003	4.810619899122685E+001	-6.0241407E-001	-6.433553926914909E-002	3.8756632E-005	-6.0252720E-001	0
9.3864326E+003	4.830609898617695E+001	-6.0443467E-001	-6.439450447413370E-002	3.8922270E-005	-6.0452777E-001	0
9.4082754E+003	4.850599898112705E+001	-6.0642171E-001	-6.445620234003993E-002	3.9087641E-005	-6.0652697E-001	0
9.4399941E+003	4.870599897607462E+001	-6.0843265E-001	-6.445264986921062E-002	3.9215098E-005	-6.0852683E-001	0
9.4576699E+003	4.890599897102220E+001	-6.1041552E-001	-6.454185194804696E-002	3.9397350E-005	-6.1052674E-001	0
9.4813691E+003	4.910599896596977E+001	-6.1241674E-001	-6.459159321255137E-002	3.9556973E-005	-6.1252660E-001	0
9.5059209E+003	4.930599896091735E+001	-6.1442393E-001	-6.463591978344607E-002	3.9713857E-005	-6.1452651E-001	0
9.5258066E+003	4.950599895586492E+001	-6.1641973E-001	-6.471049972828880E-002	3.9888830E-005	-6.1652642E-001	0
9.5424805E+003	4.970599895081250E+001	-6.1844623E-001	-6.480979751225335E-002	4.0081373E-005	-6.1852628E-001	0
9.5746016E+003	4.990599894576008E+001	-6.2044150E-001	-6.480076328466944E-002	4.0205083E-005	-6.2052619E-001	0
9.5909746E+003	5.010599894070765E+001	-6.2243408E-001	-6.489789537037982E-002	4.0394661E-005	-6.2252605E-001	0
9.6124980E+003	5.030599893565523E+001	-6.2442875E-001	-6.496009004540970E-002	4.0562947E-005	-6.2452596E-001	0
9.6319404E+003	5.050599893060280E+001	-6.2643254E-001	-6.503700302193649E-002	4.0741295E-005	-6.2652582E-001	0
9.6523086E+003	5.070599892555038E+001	-6.2843633E-001	-6.510735800132883E-002	4.0915827E-005	-6.2852567E-001	0
9.6730928E+003	5.090599892049795E+001	-6.3042951E-001	-6.517351973989771E-002	4.1087311E-005	-6.3052559E-001	0
9.6893115E+003	5.110599891544553E+001	-6.3244063E-001	-6.527199101731496E-002	4.1280658E-005	-6.3252550E-001	0
9.7093008E+003	5.130599891039310E+001	-6.3441640E-001	-6.534109945839806E-002	4.1453466E-005	-6.3452542E-001	0
9.7252549E+003	5.150599890534068E+001	-6.3642401E-001	-6.544034227321227E-002	4.1647803E-005	-6.3652527E-001	0
9.7468330E+003	5.170589890029078E+001	-6.3843668E-001	-6.550196302903322E-002	4.1818854E-005	-6.3852537E-001	0
9.7610273E+003	5.190579889524088E+001	-6.4041996E-001	-6.560989423568359E-002	4.2017888E-005	-6.4052504E-001	0
9.7697100E+003	5.210579889018845E+001	-6.4242816E-001	-6.575713923217852E-002	4.2244239E-005	-6.4252490E-001	0
9.7898115E+003	5.230579888513603E+001	-6.4444625E-001	-6.582825879467147E-002	4.2422776E-005	-6.4452481E-001	0
9.8098994E+003	5.250579888008360E+001	-6.4643961E-001	-6.589665938255340E-002	4.2598211E-005	-6.4652467E-001	0
9.8120684E+003	5.270579887503118E+001	-6.4843708E-001	-6.608566633729727E-002	4.2852396E-005	-6.4852452E-001	0
9.8205918E+003	5.290579886997875E+001	-6.5043759E-001	-6.623201856237587E-002	4.3079795E-005	-6.5052444E-001	0
9.8287988E+003	5.310579886492633E+001	-6.5244019E-001	-6.638045753077781E-002	4.3309279E-005	-6.5252429E-001	0
9.8381582E+003	5.330579885987390E+001	-6.5443259E-001	-6.651982510844667E-002	4.3532742E-005	-6.5452427E-001	0
9.8480078E+003	5.350579885482148E+001	-6.5643722E-001	-6.665685178306524E-002	4.3756037E-005	-6.5652406E-001	0
9.8491133E+003	5.370579884976905E+001	-6.5844023E-001	-6.685274249986017E-002	4.4018536E-005	-6.5852398E-001	0
9.8465684E+003	5.390579884471663E+001	-6.6042852E-001	-6.707194978645803E-002	4.4296230E-005	-6.6052383E-001	0
9.8470928E+003	5.410579883966420E+001	-6.6243869E-001	-6.727251488780889E-002	4.4563916E-005	-6.6252369E-001	0
9.8491689E+003	5.430579883461178E+001	-6.6442490E-001	-6.745999414302728E-002	4.4822100E-005	-6.6452360E-001	0
9.8389980E+003	5.450579882955935E+001	-6.6643590E-001	-6.773412429258818E-002	4.5140452E-005	-6.6652352E-001	0
9.8345811E+003	5.470579882450693E+001	-6.6842836E-001	-6.796714449206331E-002	4.5431167E-005	-6.6852337E-001	0
9.8142432E+003	5.490579881945450E+001	-6.7040187E-001	-6.830907653955970E-002	4.5794532E-005	-6.7052329E-001	0
9.8028486E+003	5.510569881440460E+001	-6.7241848E-001	-6.859419334730121E-002	4.6124002E-005	-6.7252296E-001	0
9.7864863E+003	5.530559880935471E+001	-6.7441589E-001	-6.891297398170948E-002	4.6476005E-005	-6.7452306E-001	0
9.7631289E+003	5.550559880430228E+001	-6.7641020E-001	-6.928211339916246E-002	4.6863130E-005	-6.7652291E-001	0
9.7404023E+003	5.570559879924986E+001	-6.7840904E-001	-6.964897172886642E-002	4.7250491E-005	-6.7852277E-001	0
9.7164385E+003	5.590559879419743E+001	-6.8041021E-001	-7.002671133165095E-002	4.7646889E-005	-6.8052268E-001	0
9.6878574E+003	5.610559878914501E+001	-6.8241644E-001	-7.044038869590480E-002	4.8069680E-005	-6.8252254E-001	0
9.6519102E+003	5.630559878409258E+001	-6.8442261E-001	-7.091058614397694E-002	4.8532809E-005	-6.8452245E-001	0
9.6172383E+003	5.650559877904016E+001	-6.8640178E-001	-7.137202403440557E-002	4.8989885E-005	-6.8652236E-001	0
9.5803193E+003	5.670559877398773E+001	-6.8840075E-001	-7.185571732436646E-002	4.9465529E-005	-6.8852222E-001	0
9.5380801E+003	5.690559876893531E+001	-6.9041157E-001	-7.238475256969062E-002	4.9975271E-005	-6.9052213E-001	0
9.4901270E+003	5.710559876388288E+001	-6.9242805E-001	-7.296299297191500E-002	5.0521623E-005	-6.9252199E-001	0
9.4472607E+003	5.730559875883046E+001	-6.9442445E-001	-7.350537428619730E-002	5.1043928E-005	-6.9452190E-001	0
9.3981025E+003	5.750559875377803E+001	-6.9642407E-001	-7.410262506022254E-002	5.1606850E-005	-6.9652182E-001	0
9.3440566E+003	5.770559874872561E+001	-6.9841534E-001	-7.474434231207316E-002	5.2202595E-005	-6.9852161E-001	0
9.2898740E+003	5.790559874367318E+001	-7.0043975E-001	-7.539819768321632E-002	5.2811894E-005	-7.0052153E-001	0
9.2310352E+003	5.810559873862076E+001	-7.0243061E-001	-7.609445545579491E-002	5.3451073E-005	-7.0252144E-001	0
9.1720586E+003	5.830559873356833E+001	-7.0443392E-001	-7.680215858146910E-002	5.4102045E-005	-7.0452124E-001	0
9.1073574E+003	5.850549872851843E+001	-7.0643228E-001	-7.756720722060506E-002	5.4795979E-005	-7.0652074E-001	0
9.0394600E+003	5.870539872346853E+001	-7.0842338E-001	-7.837010080379159E-002	5.5519213E-005	-7.0852107E-001	0
8.9842725E+003	5.890539871841611E+001	-7.1042186E-001	-7.907394166664128E-002	5.6175857E-005	-7.1052098E-001	0
8.9117090E+003	5.910539871336368E+001	-7.1242499E-001	-7.994257547953865E-002	5.6953089E-005	-7.1252084E-001	0
8.8374805E+003	5.930539870831126E+001	-7.1442401E-001	-8.084023686795327E-002	5.7754205E-005	-7.1452075E-001	0
8.7700820E+003	5.950539870325883E+001	-7.1641183E-001	-8.168815309709765E-002	5.8522361E-005	-7.1652067E-001	0
8.6874355E+003	5.970539869820641E+001	-7.1842992E-001	-8.269758416443240E-002	5.9412418E-005	-7.1852046E-001	0
8.6178135E+003	5.990539869315398E+001	-7.2042519E-001	-8.359721374419221E-002	6.0225539E-005	-7.2052038E-001	0
8.5454512E+003	6.010539868810156E+001	-7.2241068E-001	-8.453745455291034E-002	6.1070758E-005	-7.2252017E-001	0
8.4572695E+003	6.030539868304913E+001	-7.2441643E-001	-8.565606201825729E-002	6.2050662E-005	-7.2452009E-001	0
8.3757314E+003	6.050539867799671E+001	-7.2640753E-001	-8.672764980605890E-002	6.2999621E-005	-7.2652000E-001	0
8.2900342E+003	6.070539867294428E+001	-7.2841430E-001	-8.786626390230001E-002	6.4003041E-005	-7.2851992E-001	0
8.2021787E+003	6.090539866789186E+001	-7.3040748E-001	-8.905041696347515E-002	6.5043088E-005	-7.3051983E-001	0
8.1115273E+003	6.110539866283943E+001	-7.3241574E-001	-9.029319855361290E-002	6.6132161E-005	-7.3251963E-001	0
8.0284243E+003	6.130539865778701E+001	-7.3442376E-001	-9.147794266356035E-002	6.7183573E-005	-7.3451954E-001	0
7.9419844E+003	6.150539865273458E+001	-7.3641610E-001	-9.272444506266631E-002	6.8283771E-005	-7.3651946E-001	0
7.8489561E+003	6.170539864768216E+001	-7.3841703E-001	-9.407837345167702E-002	6.9469075E-005	-7.3851925E-001	0
7.7545674E+003	6.190539864262973E+001	-7.4040747E-001	-9.548017469980208E-002	7.0694237E-005	-7.4051940E-001	0
7.6696792E+003	6.210519863758236E+001	-7.4242103E-001	-9.679949002214494E-002	7.1865979E-005	-7.4251902E-001	0
7.5717671E+003	6.230519863252994E+001	-7.4442631E-001	-9.831606307491381E-002	7.3189061E-005	-7.4451894E-001	0
7.4817881E+003	6.250519862747751E+001	-7.4643284E-001	-9.976663869064373E-002	7.4469099E-005	-7.4651885E-001	0
7.3878159E+003	6.270519862242509E+001	-7.4841952E-001	-1.013045725190924E-001	7.5818323E-005	-7.4851865E-001	0
7.2980605E+003	6.290519861737266E+001	-7.5041586E-001	-1.028240120350947E-001	7.7160767E-005	-7.5051868E-001	0
7.2092441E+003	6.310519861232024E+001	-7.5242168E-001	-1.043690092652576E-001	7.8529505E-005	-7.5251848E-001	0
7.1186929E+003	6.330519860726781E+001	-7.5441706E-001	-1.059769061446829E-001	7.9950783E-005	-7.5451839E-001	0
7.0296304E+003	6.350519860221539E+001	-7.5639892E-001	-1.076015205409737E-001	8.1389677E-005	-7.5651830E-001	0
6.9376128E+003	6.370519859716296E+001	-7.5841671E-001	-1.093195502766642E-001	8.2909777E-005	-7.5851810E-001	0
6.8629468E+003	6.390519859211054E+001	-7.6042145E-001	-1.108010098192408E-001	8.4255465E-005	-7.6051807E-001	0
6.7907900E+003	6.410519858705811E+001	-7.6241022E-001	-1.122712148311213E-001	8.5596723E-005	-7.6251787E-001	0
6.7138813E+003	6.430519858200569E+001	-7.6441979E-001	-1.138566139749680E-001	8.7034248E-005	-7.6451778E-001	0
6.6284097E+003	6.450519857695326E+001	-7.6642209E-001	-1.156268456745928E-001	8.8618966E-005	-7.6651770E-001	0
6.5425181E+003	6.470519857190084E+001	-7.6842505E-001	-1.174509594651982E-001	9.0252259E-005	-7.6851749E-001	0
6.4631050E+003	6.490519856684841E+001	-7.7042037E-001	-1.192028257286260E-001	9.1836286E-005	-7.7051741E-001	0
6.3779609E+003	6.510519856179599E+001	-7.7241147E-001	-1.211063365078198E-001	9.3543924E-005	-7.7251732E-001	0
6.2981665E+003	6.530519855674356E+001	-7.7440596E-001	-1.229573602301541E-001	9.5218915E-005	-7.7451742E-001	0
6.2204746E+003	6.550499855169619E+001	-7.7640271E-001	-1.248140602959680E-001	9.6905977E-005	-7.7651715E-001	0
6.1352119E+003	6.570499854664376E+001	-7.7841991E-001	-1.268774276069212E-001	9.8763914E-005	-7.7851695E-001	0
6.1348281E+003	6.590499854159134E+001	-7.8041434E-001	-1.272104697950324E-001	9.9276876E-005	-7.8051686E-001	0
6.1997686E+003	6.610499853653891E+001	-7.8241867E-001	-1.262012721100596E-001	9.8742232E-005	-7.8251678E-001	0
6.1026860E+003	6.630499853148649E+001	-7.8442055E-001	-1.285369358830097E-001	1.0082701E-004	-7.8451663E-001	0
5.9816797E+003	6.650499852643406E+001	-7.8638959E-001	-1.314663488519239E-001	1.0338377E-004	-7.8651655E-001	0
5.8712715E+003	6.670499852138164E+001	-7.8840435E-001	-1.342817095705981E-001	1.0586828E-004	-7.8851646E-001	0
5.7722285E+003	6.690499851632921E+001	-7.9041576E-001	-1.369342483366822E-001	1.0823499E-004	-7.9051638E-001	0
5.6714282E+003	6.710499851127679E+001	-7.9241151E-001	-1.397199223690211E-001	1.1071567E-004	-7.9251617E-001	0
5.5846084E+003	6.730499850622437E+001	-7.9442114E-001	-1.422518978841487E-001	1.1300791E-004	-7.9451597E-001	0
5.4996108E+003	6.750499850117194E+001	-7.9642135E-001	-1.448141223362429E-001	1.1533306E-004	-7.9651600E-001	0
5.4182422E+003	6.770499849611952E+001	-7.9841828E-001	-1.473574385927598E-001	1.1765287E-004	-7.9851586E-001	0
5.3432891E+003	6.790499849106709E+001	-8.0041605E-001	-1.497983753220806E-001	1.1990102E-004	-8.0051577E-001	0
5.2726309E+003	6.810499848601467E+001	-8.0242699E-001	-1.521872117695167E-001	1.2211912E-004	-8.0251563E-001	0
5.1995405E+003	6.830499848096224E+001	-8.0441904E-001	-1.547096405894224E-001	1.2445138E-004	-8.0451548E-001	0
5.1370444E+003	6.850499847590982E+001	-8.0641377E-001	-1.569801001944695E-001	1.2659091E-004	-8.0651540E-001	0
5.0668467E+003	6.870499847085739E+001	-8.0842423E-001	-1.595517396588984E-001	1.2898550E-004	-8.0851531E-001	0
5.0210098E+003	6.890489846580749E+001	-8.1041020E-001	-1.614038362092441E-001	1.3080331E-004	-8.1051612E-001	0
4.9692900E+003	6.910479846075759E+001	-8.1241286E-001	-1.634866992569193E-001	1.3281869E-004	-8.1251502E-001	0
4.9128813E+003	6.930479845570517E+001	-8.1441981E-001	-1.657723381359331E-001	1.3500827E-004	-8.1451494E-001	0
4.9882109E+003	6.950479845065274E+001	-8.1641150E-001	-1.636681989597700E-001	1.3362060E-004	-8.1651491E-001	0
4.9561011E+003	6.970479844560032E+001	-8.1841099E-001	-1.651320182676097E-001	1.3514586E-004	-8.1851488E-001	0
4.9263022E+003	6.990479844054789E+001	-8.2039863E-001	-1.665343610958419E-001	1.3662456E-004	-8.2051498E-001	0
4.8426938E+003	7.010479843549547E+001	-8.2241744E-001	-1.698264299496974E-001	1.3966822E-004	-8.2251495E-001	0
4.7535044E+003	7.030479843044304E+001	-8.2442361E-001	-1.734349160178517E-001	1.4298384E-004	-8.2451493E-001	0
4.6727617E+003	7.050479842539062E+001	-8.2641125E-001	-1.768571398275860E-001	1.4615673E-004	-8.2651490E-001	0
4.5962661E+003	7.070479842033819E+001	-8.2841605E-001	-1.802367416470230E-001	1.4931100E-004	-8.2851499E-001	0
4.5206431E+003	7.090479841528577E+001	-8.3041894E-001	-1.836948743187183E-001	1.5254370E-004	-8.3051497E-001	0
4.4607510E+003	7.110479841023334E+001	-8.3241856E-001	-1.866095126110250E-001	1.5533723E-004	-8.3251500E-001	0
4.4221416E+003	7.130479840518092E+001	-8.3442098E-001	-1.886915923296852E-001	1.5744823E-004	-8.3451504E-001	0
4.3791968E+003	7.150479840012849E+001	-8.3640921E-001	-1.909960233564156E-001	1.5975084E-004	-8.3651489E-001	0
4.3119307E+003	7.170479839507607E+001	-8.3840829E-001	-1.944391896247089E-001	1.6301943E-004	-8.3851498E-001	0
4.2481016E+003	7.190479839002364E+001	-8.4041387E-001	-1.978328154272404E-001	1.6626144E-004	-8.4051496E-001	0
4.1807075E+003	7.210479838497122E+001	-8.4242201E-001	-2.015022516351972E-001	1.6974992E-004	-8.4251493E-001	0
4.1109517E+003	7.230479837991879E+001	-8.4441429E-001	-2.054060292968751E-001	1.7344778E-004	-8.4451497E-001	0
4.0495659E+003	7.250479837486637E+001	-8.4641171E-001	-2.090129510472085E-001	1.7691101E-004	-8.4651500E-001	0
4.0046348E+003	7.270479836981394E+001	-8.4842020E-001	-2.118595643665921E-001	1.7974594E-004	-8.4851497E-001	0
4.0241741E+003	7.290479836476152E+001	-8.5042202E-001	-2.113283448208485E-001	1.7971828E-004	-8.5051495E-001	0
3.9842388E+003	7.310479835970909E+001	-8.5241860E-001	-2.139476755878928E-001	1.8237298E-004	-8.5251498E-001	0
3.9185464E+003	7.330479835465667E+001	-8.5442054E-001	-2.180452863654110E-001	1.8630238E-004	-8.5451496E-001	0
3.8503650E+003	7.350479834960424E+001	-8.5643554E-001	-2.224296972075321E-001	1.9049669E-004	-8.5651493E-001	0
3.7756646E+003	7.370479834455182E+001	-8.5844737E-001	-2.273632509595886E-001	1.9517938E-004	-8.5851490E-001	0
3.6986274E+003	7.390479833949939E+001	-8.6042964E-001	-2.326348476521578E-001	2.0016592E-004	-8.6051500E-001	0
3.6450295E+003	7.410479833444697E+001	-8.6242980E-001	-2.366043425602271E-001	2.0405464E-004	-8.6251497E-001	0
3.5941470E+003	7.430479832939454E+001	-8.6441404E-001	-2.405060303403816E-001	2.0789680E-004	-8.6451495E-001	0
3.5091614E+003	7.450479832434212E+001	-8.6644298E-001	-2.469088355366491E-001	2.1393242E-004	-8.6651504E-001	0
3.4987815E+003	7.470479831928969E+001	-8.6842483E-001	-2.482077959532130E-001	2.1554981E-004	-8.6851501E-001	0
3.4136802E+003	7.490479831423727E+001	-8.7042862E-001	-2.549824789060859E-001	2.2194405E-004	-8.7051487E-001	0
3.3179500E+003	7.510479830918484E+001	-8.7241083E-001	-2.629367053411618E-001	2.2938882E-004	-8.7251496E-001	0
3.2325232E+003	7.530479830413242E+001	-8.7441230E-001	-2.705045664311303E-001	2.3653252E-004	-8.7451506E-001	0
3.1242195E+003	7.550479829907999E+001	-8.7641507E-001	-2.805228880786097E-001	2.4585449E-004	-8.7651491E-001	0
3.0221038E+003	7.570479829402757E+001	-8.7840790E-001	-2.906610754628982E-001	2.5531897E-004	-8.7851495E-001	0
2.9259067E+003	7.590479828897514E+001	-8.8040173E-001	-3.008987613681217E-001	2.6491180E-004	-8.8051498E-001	0
2.8352600E+003	7.610479828392272E+001	-8.8240653E-001	-3.112259748689565E-001	2.7462785E-004	-8.8251495E-001	0
2.7662549E+003	7.630479827887029E+001	-8.8440412E-001	-3.197117216437380E-001	2.8275436E-004	-8.8451493E-001	0
2.6846753E+003	7.650479827381787E+001	-8.8642597E-001	-3.301799600234336E-001	2.9268008E-004	-8.8651496E-001	0
2.6162373E+003	7.670479826876544E+001	-8.8841921E-001	-3.395789829726890E-001	3.0168850E-004	-8.8851500E-001	0
2.5466060E+003	7.690479826371302E+001	-8.9039791E-001	-3.496410374164309E-001	3.1131966E-004	-8.9051491E-001	0
2.4853757E+003	7.710479825866059E+001	-8.9241993E-001	-3.590684357350549E-001	3.2043984E-004	-8.9251488E-001	0
2.4310918E+003	7.730479825360817E+001	-8.9441931E-001	-3.679084891343560E-001	3.2906447E-004	-8.9451504E-001	0
2.3678665E+003	7.750479824855574E+001	-8.9641160E-001	-3.785735595709481E-001	3.3935774E-004	-8.9651495E-001	0
2.3072964E+003	7.770479824350332E+001	-8.9842105E-001	-3.893825755139941E-001	3.4982950E-004	-8.9851499E-001	0
2.2494070E+003	7.790479823845089E+001	-9.0041184E-001	-4.002885318439366E-001	3.6042454E-004	-9.0051502E-001	0
2.1884797E+003	7.810479823339847E+001	-9.0242326E-001	-4.123516754245156E-001	3.7211576E-004	-9.0251505E-001	0
2.1261875E+003	7.830479822834604E+001	-9.0441465E-001	-4.253691830239390E-001	3.8471012E-004	-9.0451497E-001	0
2.0569548E+003	7.850479822329362E+001	-9.0641654E-001	-4.406594429460799E-001	3.9942100E-004	-9.0651494E-001	0
2.0019359E+003	7.870479821824119E+001	-9.0842009E-001	-4.537708193671941E-001	4.1221452E-004	-9.0851504E-001	0
1.9272076E+003	7.890479821318877E+001	-9.1042358E-001	-4.724055577339841E-001	4.3008916E-004	-9.1051489E-001	0
1.8311874E+003	7.910479820813634E+001	-9.1241586E-001	-4.982646045500996E-001	4.5462453E-004	-9.1251493E-001	0
1.7362917E+003	7.930479820308392E+001	-9.1441262E-001	-5.266468634495256E-001	4.8157253E-004	-9.1451496E-001	0
1.6518470E+003	7.950479819803149E+001	-9.1641527E-001	-5.547821601966820E-001	5.0841086E-004	-9.1651493E-001	0
1.5600149E+003	7.970479819297907E+001	-9.1841412E-001	-5.887213982937358E-001	5.4069003E-004	-9.1851491E-001	0
1.4654694E+003	7.990479818792664E+001	-9.2041236E-001	-6.280665977767178E-001	5.7808025E-004	-9.2051500E-001	0
1.3544192E+003	8.010479818287422E+001	-9.2241168E-001	-6.810385542552146E-001	6.2819791E-004	-9.2251498E-001	0
1.2642871E+003	8.030479817782179E+001	-9.2441779E-001	-7.311770743785466E-001	6.7591312E-004	-9.2451495E-001	0
1.1767013E+003	8.050479817276937E+001	-9.2640930E-001	-7.872935125811260E-001	7.2935602E-004	-9.2651498E-001	0
1.0749658E+003	8.070479816771694E+001	-9.2838031E-001	-8.636370728852523E-001	8.0178364E-004	-9.2851502E-001	0
9.9783704E+002	8.090479816266452E+001	-9.3039638E-001	-9.324131298075375E-001	8.6751382E-004	-9.3051493E-001	0
9.1001855E+002	8.111479815735947E+001	-9.3246096E-001	-1.024661510969910E+000	9.5545687E-004	-9.3261498E-001	0
8.3346271E+002	8.132479815205443E+001	-9.3453991E-001	-1.121273851389587E+000	1.0478752E-003	-9.3471497E-001	0
7.5602350E+002	8.152479814700200E+001	-9.3654203E-001	-1.238773667183864E+000	1.1601637E-003	-9.3671495E-001	0
6.9204242E+002	8.172479814194958E+001	-9.3854129E-001	-1.356190437902938E+000	1.2728408E-003	-9.3871492E-001	0
6.3090912E+002	8.192479813689715E+001	-9.4055772E-001	-1.490797447188505E+000	1.4021810E-003	-9.4071496E-001	0
5.7467603E+002	8.212479813184473E+001	-9.4253480E-001	-1.640115077296901E+000	1.5458656E-003	-9.4271493E-001	0
5.2250122E+002	8.232479812679230E+001	-9.4455498E-001	-1.807756481341634E+000	1.7075253E-003	-9.4471496E-001	0
4.7499966E+002	8.252479812173988E+001	-9.4655794E-001	-1.992754900908242E+000	1.8862580E-003	-9.4671500E-001	0
4.3208408E+002	8.272479811668745E+001	-9.4856405E-001	-2.195322925237569E+000	2.0824044E-003	-9.4871503E-001	0
3.9346039E+002	8.292479811163503E+001	-9.5056570E-001	-2.415912089248479E+000	2.2964831E-003	-9.5071495E-001	0
3.5893930E+002	8.312479810658260E+001	-9.5257318E-001	-2.653855820479965E+000	2.5279918E-003	-9.5271498E-001	0
3.2804422E+002	8.332479810153018E+001	-9.5457655E-001	-2.909902180048753E+000	2.7777243E-003	-9.5471501E-001	0
2.9951892E+002	8.352479809647775E+001	-9.5657223E-001	-3.193695632035499E+000	3.0550007E-003	-9.5671505E-001	0
2.7380118E+002	8.372479809142533E+001	-9.5858705E-001	-3.501033152886521E+000	3.3560451E-003	-9.5871496E-001	0
2.5073201E+002	8.392479808637290E+001	-9.6057671E-001	-3.831089358278412E+000	3.6800553E-003	-9.6071494E-001	0
2.3035533E+002	8.412479808132048E+001	-9.6257317E-001	-4.178645085855955E+000	4.0222518E-003	-9.6271503E-001	0
2.1104292E+002	8.432479807626805E+001	-9.6458560E-001	-4.570566121142459E+000	4.4087023E-003	-9.6471500E-001	0
1.9409578E+002	8.452479807121563E+001	-9.6659213E-001	-4.979975163700090E+000	4.8136050E-003	-9.6671492E-001	0
1.7881697E+002	8.472479806616320E+001	-9.6860403E-001	-5.416734126081806E+000	5.2466705E-003	-9.6871495E-001	0
1.6486926E+002	8.492479806111078E+001	-9.7059113E-001	-5.887035219543634E+000	5.7139043E-003	-9.7071493E-001	0
1.5246024E+002	8.512479805605835E+001	-9.7258639E-001	-6.379278902902072E+000	6.2043997E-003	-9.7271502E-001	0
1.4118365E+002	8.532479805100593E+001	-9.7457445E-001	-6.902884615859733E+000	6.7273751E-003	-9.7471499E-001	0
1.3085960E+002	8.552479804595350E+001	-9.7657746E-001	-7.462787482676333E+000	7.2879898E-003	-9.7671497E-001	0
1.2149433E+002	8.572479804090108E+001	-9.7858715E-001	-8.054590989064749E+000	7.8821192E-003	-9.7871494E-001	0
1.1310925E+002	8.592479803584865E+001	-9.8058754E-001	-8.669384170078672E+000	8.5010901E-003	-9.8071498E-001	0
1.0544390E+002	8.612479803079623E+001	-9.8260581E-001	-9.318754263340495E+000	9.1566620E-003	-9.8271501E-001	0
9.8572159E+001	8.632479802574380E+001	-9.8458874E-001	-9.988507112813394E+000	9.8345717E-003	-9.8471498E-001	0
9.1992096E+001	8.653479802043876E+001	-9.8669916E-001	-1.072591219824189E+001	1.0583249E-002	-9.8681492E-001	0
8.5622192E+001	8.674479801513371E+001	-9.8877424E-001	-1.154810723696165E+001	1.1418471E-002	-9.8891497E-001	0
8.0426445E+001	8.694479801008129E+001	-9.9076605E-001	-1.231890886129978E+001	1.2205156E-002	-9.9091488E-001	0
7.5613594E+001	8.714479800502886E+001	-9.9275964E-001	-1.312938021964760E+001	1.3034319E-002	-9.9291486E-001	0
7.1228233E+001	8.734479799997644E+001	-9.9474877E-001	-1.396565214117095E+001	1.3892315E-002	-9.9491495E-001	0
6.7128242E+001	8.754479799492401E+001	-9.9677557E-001	-1.484882538213210E+001	1.4800946E-002	-9.9691492E-001	0
6.3433144E+001	8.774479798987159E+001	-9.9875772E-001	-1.574504491274590E+001	1.5725486E-002	-9.9891484E-001	0
5.9988762E+001	8.794479798481916E+001	-1.0007693E+000	-1.668261195661802E+001	1.6695445E-002	-1.0009151E+000	0
5.6792534E+001	8.814479797976674E+001	-1.0027790E+000	-1.765688135280627E+001	1.7705949E-002	-1.0029150E+000	0
5.3897949E+001	8.834479797471431E+001	-1.0047888E+000	-1.864243000853901E+001	1.8731704E-002	-1.0049150E+000	0
5.1268913E+001	8.854479796966189E+001	-1.0067925E+000	-1.963748515449680E+001	1.9770874E-002	-1.0069150E+000	0
4.8896610E+001	8.874479796460946E+001	-1.0087861E+000	-2.063100297813241E+001	2.0812269E-002	-1.0089151E+000	0
4.6664211E+001	8.894479795955704E+001	-1.0107839E+000	-2.166079495391054E+001	2.1894382E-002	-1.0109150E+000	0
4.4580379E+001	8.914479795450461E+001	-1.0127873E+000	-2.271823102141182E+001	2.3008738E-002	-1.0129150E+000	0
4.2615253E+001	8.934479794945219E+001	-1.0147812E+000	-2.381262985135432E+001	2.4164610E-002	-1.0149150E+000	0
4.0826134E+001	8.954479794439976E+001	-1.0167941E+000	-2.490547148670470E+001	2.5323736E-002	-1.0169150E+000	0
3.9134167E+001	8.974479793934734E+001	-1.0187961E+000	-2.603341805340204E+001	2.6522744E-002	-1.0189149E+000	0
3.7543995E+001	8.994479793429491E+001	-1.0208099E+000	-2.718969722453704E+001	2.7755512E-002	-1.0209149E+000	0
3.6041458E+001	9.014479792924249E+001	-1.0228003E+000	-2.837844045470356E+001	2.9025478E-002	-1.0229150E+000	0
3.4633160E+001	9.034479792419006E+001	-1.0247946E+000	-2.958998237121148E+001	3.0323654E-002	-1.0249150E+000	0
3.3279293E+001	9.054479791913764E+001	-1.0268008E+000	-3.085404468339590E+001	3.1680956E-002	-1.0269148E+000	0
3.1999285E+001	9.074479791408521E+001	-1.0288002E+000	-3.215072677303070E+001	3.3076677E-002	-1.0289149E+000	0
3.0820759E+001	9.094479790903279E+001	-1.0307965E+000	-3.344487815703405E+001	3.4474865E-002	-1.0309150E+000	0
2.9687496E+001	9.114479790398036E+001	-1.0328187E+000	-3.478968548180046E+001	3.5931438E-002	-1.0329150E+000	0
2.8575863E+001	9.134479789892794E+001	-1.0348071E+000	-3.621262726383689E+001	3.7473083E-002	-1.0349150E+000	0
2.7566751E+001	9.154479789387551E+001	-1.0368172E+000	-3.761114898749766E+001	3.8995884E-002	-1.0369149E+000	0
2.6610868E+001	9.174479788882309E+001	-1.0387954E+000	-3.903650769381841E+001	4.0550943E-002	-1.0389149E+000	0
2.5669828E+001	9.194479788377066E+001	-1.0407859E+000	-4.054510559030126E+001	4.2198773E-002	-1.0409149E+000	0
2.4828180E+001	9.214479787871824E+001	-1.0428019E+000	-4.200073694209675E+001	4.3798447E-002	-1.0429150E+000	0
2.4051632E+001	9.234479787366581E+001	-1.0448172E+000	-4.344059436013112E+001	4.5387480E-002	-1.0449150E+000	0
2.3278229E+001	9.254479786861339E+001	-1.0468025E+000	-4.496916545788989E+001	4.7073837E-002	-1.0469149E+000	0
2.2565117E+001	9.274479786356096E+001	-1.0487959E+000	-4.647864008977035E+001	4.8746608E-002	-1.0489149E+000	0
2.1890491E+001	9.294479785850854E+001	-1.0508119E+000	-4.800312132927291E+001	5.0442252E-002	-1.0509150E+000	0
2.1277664E+001	9.314479785345611E+001	-1.0528169E+000	-4.947991017203196E+001	5.2093282E-002	-1.0529151E+000	0
2.0675488E+001	9.334479784840369E+001	-1.0548291E+000	-5.101834483157466E+001	5.3815637E-002	-1.0549150E+000	0
2.0087391E+001	9.354479784335126E+001	-1.0568088E+000	-5.261055550337403E+001	5.5599298E-002	-1.0569149E+000	0
1.9554203E+001	9.374479783829884E+001	-1.0588161E+000	-5.414774630777947E+001	5.7332505E-002	-1.0589149E+000	0
1.9065723E+001	9.394479783324641E+001	-1.0608206E+000	-5.564019549460613E+001	5.9024263E-002	-1.0609150E+000	0
1.8600855E+001	9.414479782819399E+001	-1.0628272E+000	-5.713862165626216E+001	6.0728483E-002	-1.0629150E+000	0
1.8088953E+001	9.434479782314156E+001	-1.0648415E+000	-5.886694914359373E+001	6.2683970E-002	-1.0649149E+000	0
1.7588455E+001	9.454479781808914E+001	-1.0668390E+000	-6.065563866610978E+001	6.4709798E-002	-1.0669149E+000	0
1.7175625E+001	9.474479781303671E+001	-1.0688331E+000	-6.222964616589502E+001	6.6513106E-002	-1.0689149E+000	0
1.6793541E+001	9.494479780798429E+001	-1.0708226E+000	-6.376395752262351E+001	6.8279885E-002	-1.0709150E+000	0
1.6391521E+001	9.514479780293186E+001	-1.0728312E+000	-6.545037235640643E+001	7.0217200E-002	-1.0729150E+000	0
1.6003790E+001	9.534479779787944E+001	-1.0748364E+000	-6.716136343517019E+001	7.2187476E-002	-1.0749151E+000	0
1.5651896E+001	9.554479779282701E+001	-1.0768378E+000	-6.879919290758858E+001	7.4085571E-002	-1.0769150E+000	0
1.5307990E+001	9.574479778777459E+001	-1.0788463E+000	-7.047602648151155E+001	7.6032802E-002	-1.0789150E+000	0
1.4963886E+001	9.594479778272216E+001	-1.0808570E+000	-7.223103848714663E+001	7.8071423E-002	-1.0809150E+000	0
1.4645312E+001	9.614479777766974E+001	-1.0828300E+000	-7.393696505520626E+001	8.0061160E-002	-1.0829151E+000	0
1.4315116E+001	9.634479777261731E+001	-1.0848470E+000	-7.578331548016081E+001	8.2213297E-002	-1.0849150E+000	0
1.4034296E+001	9.654479776756489E+001	-1.0868452E+000	-7.744208760380479E+001	8.4167555E-002	-1.0869150E+000	0
1.3726859E+001	9.674479776251246E+001	-1.0888511E+000	-7.932266865349663E+001	8.6370572E-002	-1.0889150E+000	0
1.3414672E+001	9.694479775746004E+001	-1.0908306E+000	-8.131622912445823E+001	8.8702232E-002	-1.0909150E+000	0
1.3106027E+001	9.714479775240761E+001	-1.0928172E+000	-8.338279789105025E+001	9.1122158E-002	-1.0929151E+000	0
1.2823507E+001	9.734479774735519E+001	-1.0948355E+000	-8.537722642027040E+001	9.3474023E-002	-1.0949150E+000	0
1.2517847E+001	9.754479774230276E+001	-1.0968307E+000	-8.762135865736968E+001	9.6105799E-002	-1.0969150E+000	0
1.2286510E+001	9.774479773725034E+001	-1.0988362E+000	-8.943435531787031E+001	9.8273702E-002	-1.0989150E+000	0
1.2064094E+001	9.794479773219791E+001	-1.1008335E+000	-9.124875395097979E+001	1.0044969E-001	-1.1009150E+000	0
1.1846220E+001	9.814479772714549E+001	-1.1028290E+000	-9.309543124185961E+001	1.0266834E-001	-1.1029150E+000	0
1.1615037E+001	9.834479772209306E+001	-1.1048388E+000	-9.512142699970445E+001	1.0509384E-001	-1.1049150E+000	0
1.1374272E+001	9.854479771704064E+001	-1.1068445E+000	-9.731124380007850E+001	1.0770842E-001	-1.1069150E+000	0
1.1157720E+001	9.874479771198821E+001	-1.1088263E+000	-9.937749955389199E+001	1.1019238E-001	-1.1089149E+000	0
1.0931696E+001	9.894479770693579E+001	-1.1108665E+000	-1.016188700474847E+002	1.1288501E-001	-1.1109151E+000	0
1.0711674E+001	9.914479770188336E+001	-1.1128732E+000	-1.038934961370869E+002	1.1562029E-001	-1.1129150E+000	0
1.0537423E+001	9.934479769683094E+001	-1.1148715E+000	-1.058011527439905E+002	1.1795469E-001	-1.1149149E+000	0
1.0333509E+001	9.954479769177851E+001	-1.1168761E+000	-1.080829450894914E+002	1.2071526E-001	-1.1169150E+000	0
1.0070597E+001	9.975479768647347E+001	-1.1189396E+000	-1.111095701089191E+002	1.2432490E-001	-1.1190150E+000	0
9.8805189E+000	9.996479768116842E+001	-1.1210431E+000	-1.134599348541826E+002	1.2719348E-001	-1.1211150E+000	0
9.7219982E+000	1.001647976761160E+002	-1.1230294E+000	-1.155142572082900E+002	1.2972590E-001	-1.1231149E+000	0
9.5417957E+000	1.003647976710636E+002	-1.1250671E+000	-1.179093737731987E+002	1.3265596E-001	-1.1251150E+000	0
9.4054708E+000	1.005647976660111E+002	-1.1270607E+000	-1.198303266371731E+002	1.3505605E-001	-1.1271150E+000	0
9.2815561E+000	1.007647976609587E+002	-1.1290678E+000	-1.216463897925657E+002	1.3734701E-001	-1.1291149E+000	0
9.1521435E+000	1.009647976559063E+002	-1.1310776E+000	-1.235860859239451E+002	1.3978545E-001	-1.1311150E+000	0
9.0542717E+000	1.011647976508539E+002	-1.1330547E+000	-1.251403546387373E+002	1.4179087E-001	-1.1331151E+000	0
8.9394922E+000	1.013647976458014E+002	-1.1350554E+000	-1.269709026743226E+002	1.4411901E-001	-1.1351149E+000	0
8.7375336E+000	1.015647976407490E+002	-1.1370461E+000	-1.301335259240773E+002	1.4796782E-001	-1.1371150E+000	0
8.6069202E+000	1.017647976356966E+002	-1.1390563E+000	-1.323419225826831E+002	1.5074490E-001	-1.1391150E+000	0
8.4988546E+000	1.019647976306442E+002	-1.1410618E+000	-1.342606491004526E+002	1.5319970E-001	-1.1411151E+000	0
8.3532057E+000	1.021647976255917E+002	-1.1430595E+000	-1.368408179056078E+002	1.5641719E-001	-1.1431150E+000	0
8.1403046E+000	1.023647976205393E+002	-1.1450665E+000	-1.406662939627427E+002	1.6107225E-001	-1.1451149E+000	0
8.0383120E+000	1.025647976154869E+002	-1.1470799E+000	-1.427016002110068E+002	1.6369015E-001	-1.1471149E+000	0
7.9491301E+000	1.027647976104345E+002	-1.1490754E+000	-1.445536022997223E+002	1.6610299E-001	-1.1491150E+000	0
7.8469415E+000	1.029647976053820E+002	-1.1510795E+000	-1.466914877653667E+002	1.6885357E-001	-1.1511149E+000	0
7.7083917E+000	1.031647976003296E+002	-1.1530856E+000	-1.495883476696317E+002	1.7248817E-001	-1.1531150E+000	0
7.6383061E+000	1.033647975952772E+002	-1.1550809E+000	-1.512221267888344E+002	1.7467380E-001	-1.1551150E+000	0
7.5764599E+000	1.035647975902248E+002	-1.1570705E+000	-1.527191507194593E+002	1.7670682E-001	-1.1571150E+000	0
7.4725361E+000	1.037647975851723E+002	-1.1590967E+000	-1.551142378361587E+002	1.7979240E-001	-1.1591150E+000	0
7.4204416E+000	1.039647975801199E+002	-1.1610862E+000	-1.564713087298151E+002	1.8167667E-001	-1.1611151E+000	0
7.3319268E+000	1.041647975750675E+002	-1.1630754E+000	-1.586316179353357E+002	1.8450055E-001	-1.1631150E+000	0
7.2648149E+000	1.043647975700151E+002	-1.1650771E+000	-1.603725773147448E+002	1.8684642E-001	-1.1651150E+000	0
7.1634145E+000	1.045647975649626E+002	-1.1670649E+000	-1.629201960239286E+002	1.9013844E-001	-1.1671150E+000	0
7.0874033E+000	1.047647975599102E+002	-1.1690800E+000	-1.649518093435677E+002	1.9284186E-001	-1.1691149E+000	0
6.9932256E+000	1.049647975548578E+002	-1.1710703E+000	-1.674578240052913E+002	1.9610488E-001	-1.1711150E+000	0
6.8820043E+000	1.051647975498054E+002	-1.1730936E+000	-1.704581292946044E+002	1.9996333E-001	-1.1731150E+000	0
6.7579174E+000	1.053647975447529E+002	-1.1750844E+000	-1.738826177709493E+002	2.0432675E-001	-1.1751150E+000	0
6.6830716E+000	1.055647975397005E+002	-1.1770641E+000	-1.761262025952060E+002	2.0731182E-001	-1.1771150E+000	0
6.6371050E+000	1.057647975346481E+002	-1.1790627E+000	-1.776471449977416E+002	2.0945713E-001	-1.1791149E+000	0
6.5409827E+000	1.059647975295957E+002	-1.1810833E+000	-1.805666536971282E+002	2.1326426E-001	-1.1811150E+000	0
6.4181137E+000	1.061647975245432E+002	-1.1830850E+000	-1.843353068834012E+002	2.1808434E-001	-1.1831150E+000	0
6.2671690E+000	1.063647975194908E+002	-1.1850915E+000	-1.890951938023641E+002	2.2409511E-001	-1.1851150E+000	0
6.1600575E+000	1.065647975144384E+002	-1.1870847E+000	-1.927067465965984E+002	2.2875923E-001	-1.1871150E+000	0
6.1366067E+000	1.067647975093860E+002	-1.1890754E+000	-1.937675682130584E+002	2.3040424E-001	-1.1891150E+000	0
6.1375532E+000	1.069647975043335E+002	-1.1910702E+000	-1.940627099781075E+002	2.3114231E-001	-1.1911150E+000	0
6.0794792E+000	1.071647974992811E+002	-1.1930832E+000	-1.962476010095500E+002	2.3413971E-001	-1.1931150E+000	0
5.9866772E+000	1.073647974942287E+002	-1.1950850E+000	-1.996240988221028E+002	2.3856777E-001	-1.1951150E+000	0
5.8608260E+000	1.075647974891763E+002	-1.1971071E+000	-2.042556968265112E+002	2.4451594E-001	-1.1971148E+000	0
5.8522010E+000	1.077647974841238E+002	-1.1990950E+000	-2.048964104360468E+002	2.4569026E-001	-1.1991149E+000	0
5.7965956E+000	1.079647974790714E+002	-1.2011075E+000	-2.072091247684023E+002	2.4888043E-001	-1.2011150E+000	0
5.7174711E+000	1.081647974740190E+002	-1.2031062E+000	-2.104262757809524E+002	2.5316516E-001	-1.2031151E+000	0
5.6545634E+000	1.083647974689666E+002	-1.2051184E+000	-2.131231519370390E+002	2.5683865E-001	-1.2051150E+000	0
5.5818095E+000	1.085647974639141E+002	-1.2071170E+000	-2.162590783912846E+002	2.6105002E-001	-1.2071149E+000	0
5.5324063E+000	1.087647974588617E+002	-1.2091279E+000	-2.185536996945229E+002	2.6425937E-001	-1.2091150E+000	0
5.5586195E+000	1.089647974538093E+002	-1.2111137E+000	-2.178802997519911E+002	2.6387781E-001	-1.2111150E+000	0
5.5196700E+000	1.091647974487569E+002	-1.2131128E+000	-2.197799467813411E+002	2.6661786E-001	-1.2131149E+000	0
5.4530363E+000	1.093647974437044E+002	-1.2151226E+000	-2.228341167000149E+002	2.7077076E-001	-1.2151150E+000	0
5.3294992E+000	1.095647974386520E+002	-1.2171103E+000	-2.283723587741108E+002	2.7795434E-001	-1.2171149E+000	0
5.2806053E+000	1.097647974335996E+002	-1.2191014E+000	-2.308639504741923E+002	2.8144658E-001	-1.2191149E+000	0
5.2790785E+000	1.099647974285472E+002	-1.2211127E+000	-2.313117296149667E+002	2.8245771E-001	-1.2211150E+000	0
5.2791352E+000	1.101647974234947E+002	-1.2231214E+000	-2.316897214989003E+002	2.8338465E-001	-1.2231150E+000	0
5.2640166E+000	1.103647974184423E+002	-1.2251112E+000	-2.327331746808536E+002	2.8512403E-001	-1.2251149E+000	0
5.2410817E+000	1.105647974133899E+002	-1.2271122E+000	-2.341333713747763E+002	2.8730792E-001	-1.2271149E+000	0
5.2590880E+000	1.107647974083375E+002	-1.2291158E+000	-2.337127392308250E+002	2.8726003E-001	-1.2291150E+000	0
5.1605239E+000	1.109647974032850E+002	-1.2311225E+000	-2.385653989774570E+002	2.9370323E-001	-1.2311150E+000	0
4.9611778E+000	1.111647973982326E+002	-1.2331109E+000	-2.485520388112309E+002	3.0649224E-001	-1.2331150E+000	0
4.9237294E+000	1.113647973931802E+002	-1.2351316E+000	-2.508528625613710E+002	3.0983630E-001	-1.2351149E+000	0
4.8257790E+000	1.115647973881278E+002	-1.2371389E+000	-2.563604443976126E+002	3.1715348E-001	-1.2371149E+000	0
4.8089876E+000	1.117647973830753E+002	-1.2391363E+000	-2.576709286285367E+002	3.1928942E-001	-1.2391150E+000	0
4.7662458E+000	1.119647973780229E+002	-1.2411326E+000	-2.604004534788411E+002	3.2319149E-001	-1.2411150E+000	0
4.6834726E+000	1.121647973729705E+002	-1.2431402E+000	-2.654313031324189E+002	3.2996833E-001	-1.2431149E+000	0
4.6549129E+000	1.123647973679181E+002	-1.2451626E+000	-2.674942844308680E+002	3.3307388E-001	-1.2451150E+000	0
4.6780171E+000	1.125647973628656E+002	-1.2471508E+000	-2.665981508177156E+002	3.3248809E-001	-1.2471149E+000	0
4.6691709E+000	1.127647973578132E+002	-1.2491549E+000	-2.675324981369388E+002	3.3418953E-001	-1.2491150E+000	0
4.6526165E+000	1.129647973527608E+002	-1.2511474E+000	-2.689126382966151E+002	3.3644935E-001	-1.2511151E+000	0
4.6486745E+000	1.131647973477084E+002	-1.2531515E+000	-2.695718057117740E+002	3.3781433E-001	-1.2531151E+000	0
4.6614032E+000	1.133647973426559E+002	-1.2551618E+000	-2.692669292047731E+002	3.3797356E-001	-1.2551150E+000	0
4.6766548E+000	1.135647973376035E+002	-1.2571548E+000	-2.688149811167305E+002	3.3794206E-001	-1.2571150E+000	0
4.6151853E+000	1.137647973325511E+002	-1.2591455E+000	-2.728266561036744E+002	3.4352845E-001	-1.2591150E+000	0
4.5830884E+000	1.139647973274987E+002	-1.2611378E+000	-2.751720579324664E+002	3.4702989E-001	-1.2611151E+000	0
4.5279746E+000	1.141647973224462E+002	-1.2631323E+000	-2.789618749942911E+002	3.5236576E-001	-1.2631150E+000	0
4.4819942E+000	1.143647973173938E+002	-1.2651526E+000	-2.822744741785808E+002	3.5712028E-001	-1.2651149E+000	0
4.4421210E+000	1.145647973123414E+002	-1.2671490E+000	-2.852576519496861E+002	3.6146393E-001	-1.2671150E+000	0
4.3479657E+000	1.147647973072890E+002	-1.2691611E+000	-2.918976835155709E+002	3.7046519E-001	-1.2691151E+000	0
4.2965856E+000	1.149647973022365E+002	-1.2711620E+000	-2.958540103505807E+002	3.7607840E-001	-1.2711151E+000	0
4.2854233E+000	1.151647972971841E+002	-1.2731742E+000	-2.970941385541646E+002	3.7825260E-001	-1.2731152E+000	0
4.2729735E+000	1.153647972921317E+002	-1.2751635E+000	-2.984253253742138E+002	3.8054109E-001	-1.2751150E+000	0
4.2105541E+000	1.155649972870742E+002	-1.2771556E+000	-3.033224551067315E+002	3.8738999E-001	-1.2771164E+000	0
4.1744237E+000	1.157653972820117E+002	-1.2791526E+000	-3.064261780278043E+002	3.9196587E-001	-1.2791206E+000	0
4.1630411E+000	1.159658972769466E+002	-1.2811611E+000	-3.077464336640237E+002	3.9427274E-001	-1.2811254E+000	0
4.1451211E+000	1.161662972718841E+002	-1.2831789E+000	-3.095636930720084E+002	3.9722562E-001	-1.2831298E+000	0
4.0921216E+000	1.163665972668241E+002	-1.2851729E+000	-3.140602994919736E+002	4.0362179E-001	-1.2851325E+000	0
4.0720525E+000	1.165667972617666E+002	-1.2871687E+000	-3.160982574432619E+002	4.0687180E-001	-1.2871350E+000	0
4.0479579E+000	1.167468972572169E+002	-1.2889757E+000	-3.184261833061096E+002	4.1044360E-001	-1.2889360E+000	0
4.0600986E+000	1.169069972531724E+002	-1.2905799E+000	-3.178691087686402E+002	4.1023549E-001	-1.2905360E+000	0
4.0636182E+000	1.170870972486227E+002	-1.2923813E+000	-3.180370887827548E+002	4.1102520E-001	-1.2923378E+000	0
4.0559044E+000	1.172871972435678E+002	-1.2943816E+000	-3.191351231274421E+002	4.1308263E-001	-1.2943389E+000	0
3.9778717E+000	1.174873972385103E+002	-1.2963897E+000	-3.259003289375985E+002	4.2249382E-001	-1.2963406E+000	0
3.9452720E+000	1.176875972334528E+002	-1.2983900E+000	-3.291002520779645E+002	4.2730048E-001	-1.2983429E+000	0
3.9288290E+000	1.178877972283954E+002	-1.3003725E+000	-3.309822082828175E+002	4.3040016E-001	-1.3003445E+000	0
3.8466334E+000	1.180781972235854E+002	-1.3022939E+000	-3.385541976599462E+002	4.4089708E-001	-1.3022481E+000	0
3.8279135E+000	1.182684972187781E+002	-1.3041961E+000	-3.407067951412537E+002	4.4434848E-001	-1.3041518E+000	0
3.7567623E+000	1.184685972137231E+002	-1.3062005E+000	-3.476931544755862E+002	4.5415697E-001	-1.3061529E+000	0
3.7360752E+000	1.186687972086656E+002	-1.3081995E+000	-3.501534331791891E+002	4.5807055E-001	-1.3081545E+000	0
3.6961091E+000	1.188690972036056E+002	-1.3102182E+000	-3.544858040936965E+002	4.6445376E-001	-1.3101578E+000	0
3.7186935E+000	1.190692971985482E+002	-1.3122205E+000	-3.528713708982871E+002	4.6304503E-001	-1.3121598E+000	0
3.7363081E+000	1.192696971934856E+002	-1.3142182E+000	-3.517424560290201E+002	4.6226633E-001	-1.3141634E+000	0
3.7339990E+000	1.194699971884256E+002	-1.3162179E+000	-3.524955038334901E+002	4.6396089E-001	-1.3161666E+000	0
3.6970456E+000	1.196701971833681E+002	-1.3182194E+000	-3.565602312217770E+002	4.7002462E-001	-1.3181689E+000	0
3.6431310E+000	1.198702971783132E+002	-1.3202173E+000	-3.623853356212185E+002	4.7842738E-001	-1.3201697E+000	0
3.6524570E+000	1.200705971732532E+002	-1.3222265E+000	-3.620101588071500E+002	4.7865942E-001	-1.3221725E+000	0
3.6319270E+000	1.202508971686984E+002	-1.3240265E+000	-3.645520612852221E+002	4.8267657E-001	-1.3239757E+000	0
3.5191290E+000	1.204410971638936E+002	-1.3259230E+000	-3.767758809804757E+002	4.9957579E-001	-1.3258775E+000	0
3.5080984E+000	1.206314971590837E+002	-1.3278527E+000	-3.785106809061455E+002	5.0260645E-001	-1.3277814E+000	0
3.4869995E+000	1.208317971540237E+002	-1.3298503E+000	-3.813738134164601E+002	5.0717008E-001	-1.3297846E+000	0
3.4694417E+000	1.210321971489611E+002	-1.3318532E+000	-3.838811088792800E+002	5.1127326E-001	-1.3317884E+000	0
3.4813328E+000	1.212325971438986E+002	-1.3338759E+000	-3.831509179591694E+002	5.1107579E-001	-1.3337924E+000	0
3.4588985E+000	1.214231971390836E+002	-1.3357655E+000	-3.861823222504390E+002	5.1584899E-001	-1.3356982E+000	0
3.4766169E+000	1.215936971347764E+002	-1.3374846E+000	-3.847086667552530E+002	5.1454192E-001	-1.3374035E+000	0
3.4769185E+000	1.217739971302217E+002	-1.3392680E+000	-3.851881906023482E+002	5.1587021E-001	-1.3392063E+000	0
3.4369462E+000	1.219744971251566E+002	-1.3412671E+000	-3.902496684984917E+002	5.2342904E-001	-1.3412114E+000	0
3.4004645E+000	1.221649971203442E+002	-1.3431839E+000	-3.950001121696823E+002	5.3055775E-001	-1.3431163E+000	0
3.4013627E+000	1.223553971155343E+002	-1.3451023E+000	-3.954598293151330E+002	5.3193390E-001	-1.3450207E+000	0
3.3961244E+000	1.225557971104718E+002	-1.3470956E+000	-3.966567268314557E+002	5.3433454E-001	-1.3470244E+000	0
3.3316419E+000	1.227463971056568E+002	-1.3489934E+000	-4.049034843268146E+002	5.4621214E-001	-1.3489302E+000	0
3.3656776E+000	1.229367971008469E+002	-1.3508998E+000	-4.013752969587667E+002	5.4221779E-001	-1.3508344E+000	0
3.3604143E+000	1.231073970965372E+002	-1.3526036E+000	-4.025109633438979E+002	5.4443777E-001	-1.3525400E+000	0
3.3747993E+000	1.232777970922325E+002	-1.3543056E+000	-4.012996162443505E+002	5.4348230E-001	-1.3542440E+000	0
3.3757055E+000	1.234579970876803E+002	-1.3561159E+000	-4.017281442845479E+002	5.4478991E-001	-1.3560470E+000	0
3.4021788E+000	1.236582970826203E+002	-1.3581233E+000	-3.991922316256719E+002	5.4215229E-001	-1.3580493E+000	0
3.4095700E+000	1.238390970780529E+002	-1.3599384E+000	-3.988592128115743E+002	5.4242396E-001	-1.3598570E+000	0
3.3708308E+000	1.240394970729903E+002	-1.3619559E+000	-4.040416067716706E+002	5.5028683E-001	-1.3618617E+000	0
3.3519499E+000	1.242296970681855E+002	-1.3638719E+000	-4.068891159636714E+002	5.5494463E-001	-1.3637633E+000	0
3.2765231E+000	1.244202970633705E+002	-1.3657602E+000	-4.168321669064189E+002	5.6929278E-001	-1.3656693E+000	0
3.1409938E+000	1.246207970583055E+002	-1.3677944E+000	-4.354654728181358E+002	5.9562725E-001	-1.3676745E+000	0
3.1841011E+000	1.248211970532429E+002	-1.3697920E+000	-4.301973786545668E+002	5.8928090E-001	-1.3696787E+000	0
3.1908643E+000	1.250212970481880E+002	-1.3717753E+000	-4.299070982969915E+002	5.8973593E-001	-1.3716798E+000	0
3.1688006E+000	1.252217970431229E+002	-1.3737886E+000	-4.335358146517701E+002	5.9558654E-001	-1.3736845E+000	0
2.9695024E+000	1.254219970380655E+002	-1.3757935E+000	-4.633077381851987E+002	6.3741577E-001	-1.3756870E+000	0
2.9050412E+000	1.256222970330055E+002	-1.3778185E+000	-4.742853395920545E+002	6.5347910E-001	-1.3776892E+000	0
2.9197881E+000	1.258225970279454E+002	-1.3798082E+000	-4.725713226043074E+002	6.5205777E-001	-1.3796928E+000	0
2.8914640E+000	1.260227970228880E+002	-1.3817992E+000	-4.778891309298242E+002	6.6034681E-001	-1.3816946E+000	0
2.8599911E+000	1.262229970178305E+002	-1.3838128E+000	-4.838521421263808E+002	6.6956079E-001	-1.3836969E+000	0
2.8629897E+000	1.264230970127755E+002	-1.3858116E+000	-4.840435026268915E+002	6.7079306E-001	-1.3856978E+000	0
2.8696511E+000	1.266233970077155E+002	-1.3878134E+000	-4.836174691596643E+002	6.7117083E-001	-1.3877006E+000	0
2.8768456E+000	1.268237970026530E+002	-1.3898162E+000	-4.831042071374550E+002	6.7142606E-001	-1.3897046E+000	0
2.8933041E+000	1.270241969975905E+002	-1.3918159E+000	-4.810472246267791E+002	6.6952920E-001	-1.3917090E+000	0
2.9183180E+000	1.272244969925305E+002	-1.3938096E+000	-4.776071574389298E+002	6.6569340E-001	-1.3937117E+000	0
2.9491720E+000	1.274245969874755E+002	-1.3958094E+000	-4.732885561702997E+002	6.6062063E-001	-1.3957130E+000	0
2.9536033E+000	1.276248969824155E+002	-1.3977982E+000	-4.732518561914007E+002	6.6151059E-001	-1.3977157E+000	0
2.9764903E+000	1.278251969773555E+002	-1.3998197E+000	-4.702920615683006E+002	6.5832412E-001	-1.3997186E+000	0
2.9515793E+000	1.280254969722955E+002	-1.4018368E+000	-4.749446277758670E+002	6.6579485E-001	-1.4017220E+000	0
2.9586921E+000	1.282257969672355E+002	-1.4038280E+000	-4.744758691006246E+002	6.6608250E-001	-1.4037244E+000	0
2.9743326E+000	1.284260969621755E+002	-1.4058393E+000	-4.726570884655757E+002	6.6447991E-001	-1.4057279E+000	0
2.9446476E+000	1.286263969571155E+002	-1.4078274E+000	-4.780970659231480E+002	6.7307812E-001	-1.4077306E+000	0
2.9599280E+000	1.288267969520530E+002	-1.4098288E+000	-4.763050984314305E+002	6.7150861E-001	-1.4097345E+000	0
2.9709978E+000	1.290271969469904E+002	-1.4118334E+000	-4.752051364193601E+002	6.7091048E-001	-1.4117385E+000	0
2.9647739E+000	1.292274969419304E+002	-1.4138359E+000	-4.768781629970872E+002	6.7422748E-001	-1.4137417E+000	0
2.8612590E+000	1.294275969368755E+002	-1.4158398E+000	-4.948310710751275E+002	7.0060152E-001	-1.4157428E+000	0
2.7757537E+000	1.296275969318231E+002	-1.4178362E+000	-5.107932079384395E+002	7.2422111E-001	-1.4177428E+000	0
2.7736230E+000	1.298275969267706E+002	-1.4198407E+000	-5.119083101657507E+002	7.2682828E-001	-1.4197428E+000	0
2.7904828E+000	1.300275969217182E+002	-1.4218379E+000	-5.095311420682865E+002	7.2447067E-001	-1.4217428E+000	0
2.8171237E+000	1.302275969166658E+002	-1.4238366E+000	-5.054221223627908E+002	7.1963853E-001	-1.4237429E+000	0
2.7592747E+000	1.304275969116134E+002	-1.4258395E+000	-5.167443410393316E+002	7.3679453E-001	-1.4257427E+000	0
2.7508235E+000	1.306275969065609E+002	-1.4278665E+000	-5.190687457493386E+002	7.4116087E-001	-1.4277428E+000	0
2.7199731E+000	1.308275969015085E+002	-1.4298664E+000	-5.256914096797666E+002	7.5166851E-001	-1.4297428E+000	0
2.7346640E+000	1.310275968964561E+002	-1.4318676E+000	-5.235991154106282E+002	7.4972463E-001	-1.4317428E+000	0
2.7486856E+000	1.312275968914037E+002	-1.4338691E+000	-5.216563094046097E+002	7.4798685E-001	-1.4337429E+000	0
2.7390611E+000	1.314275968863512E+002	-1.4358841E+000	-5.242249111599401E+002	7.5272620E-001	-1.4357429E+000	0
2.7519314E+000	1.316275968812988E+002	-1.4378629E+000	-5.224922614540928E+002	7.5127220E-001	-1.4377428E+000	0
2.7519524E+000	1.318275968762464E+002	-1.4398705E+000	-5.232177763136613E+002	7.5336581E-001	-1.4397429E+000	0
2.7532222E+000	1.320275968711940E+002	-1.4418790E+000	-5.237060124144264E+002	7.5512069E-001	-1.4417428E+000	0
2.7605922E+000	1.322275968661415E+002	-1.4438680E+000	-5.230283678837641E+002	7.5518394E-001	-1.4437426E+000	0
2.7747204E+000	1.324275968610891E+002	-1.4458792E+000	-5.210900684365333E+002	7.5343329E-001	-1.4457427E+000	0
2.7762020E+000	1.326275968560367E+002	-1.4478790E+000	-5.215323036306309E+002	7.5511563E-001	-1.4477428E+000	0
2.7551949E+000	1.328275968509843E+002	-1.4498711E+000	-5.262317397232218E+002	7.6296818E-001	-1.4497429E+000	0
2.7461727E+000	1.330275968459318E+002	-1.4518697E+000	-5.286884111893128E+002	7.6758671E-001	-1.4517428E+000	0
2.7049358E+000	1.332275968408794E+002	-1.4538591E+000	-5.374837790811407E+002	7.8142565E-001	-1.4537426E+000	0
2.6935103E+000	1.334275968358270E+002	-1.4558603E+000	-5.405066574382140E+002	7.8690219E-001	-1.4557427E+000	0
2.6220155E+000	1.336275968307746E+002	-1.4578621E+000	-5.560082351399110E+002	8.1058335E-001	-1.4577428E+000	0
2.5993729E+000	1.338275968257221E+002	-1.4598618E+000	-5.616207433644340E+002	8.1988865E-001	-1.4597427E+000	0
2.5801396E+000	1.340275968206697E+002	-1.4618665E+000	-5.665842721337904E+002	8.2827055E-001	-1.4617428E+000	0
2.5991175E+000	1.342275968156173E+002	-1.4638784E+000	-5.632213271869841E+002	8.2448751E-001	-1.4637427E+000	0
2.5589209E+000	1.344275968105649E+002	-1.4658744E+000	-5.728486755613285E+002	8.3972424E-001	-1.4657427E+000	0
2.5092990E+000	1.345575968072808E+002	-1.4671495E+000	-5.846850209528129E+002	8.5782033E-001	-1.4670424E+000	0
2.5181217E+000	1.345823968066543E+002	-1.4675667E+000	-5.828021189371743E+002	8.5530102E-001	-1.4674425E+000	1