EC-Lab ASCII FILE
Nb header lines : 61                          

Linear Sweep Voltammetry

Run on channel : 1 (SN 1340)
User : 
Electrode connection : standard
Potential control : Ewe
Ewe ctrl range : min = -5.00 V, max = 5.00 V
Ewe,I filtering : <None>
Channel : Grounded
Acquisition started on : 02/09/2026 18:28:17.995
Technique started on : 02/09/2026 18:28:20.679
Loaded Setting File :  NONE
Saved on :
	File : PtPdNiCo_40_01_02_LSV_C01.mpr
	Directory : C:\Users\volt\Documents\Platalytix\
	Host : 127.0.0.1
Device : SP-200 (SN 0262)
Address : USB
EC-LAB for windows v11.60 (software)
Internet server v11.60 (firmware)
Command interpretor v11.60 (firmware)
Electrode material : Pt20Pd20Ni20Co40
Initial state : 
Electrolyte : 1 M KOH
Comments : 
Cable : standard
Reference electrode : Hg/HgO (0.140 V)
Electrode surface area : 1.000 cm˛
Characteristic mass : 0.001 g
Equivalent Weight : 0.000 g/eq.
Density : 0.000 g/cm3
Volume (V) : 0.001 cmł
Cycle Definition : Charge/Discharge alternance
tR (h:m:s)          0:00:5.0000         
dER/dt (mV/h)       0.0                 
dER (mV)            0                   
dtR (s)             0.0000              
dE/dt               10.000              
dE/dt unit          mV/s                
Ei (V)              -0.200              
vs.                 Ref                 
EL (V)              -2.000              
vs.                 Ref                 
record              <I>                 
dI                  0.000               
unit dI             µA                  
tI (s)              0.0000              
step percent        50                  
N                   10                  
E range min (V)     -5.000              
E range max (V)     5.000               
I Range             Auto                
I Range min         Unset               
I Range max         Unset               
I Range init        Unset               
Bandwidth           8                   

Rwe/Ohm	time/s	Ewe/V	<I>/mA	Pwe/W	control/V	error	
0.0000000E+000	2.684400127473054E+000	-1.6778603E-001	0.000000000000000E+000	0.0000000E+000	0.0000000E+000	0
0.0000000E+000	7.684200001167483E+000	-3.4628436E-002	0.000000000000000E+000	0.0000000E+000	-1.9998682E-001	0
1.6189315E+003	7.884199996115058E+000	-2.0174867E-001	-1.246184047311545E-001	2.5141597E-005	-2.0188659E-001	0
1.2262576E+003	8.004199993083603E+000	-2.0290931E-001	-1.654703849422923E-001	3.3575481E-005	-2.0308664E-001	0
1.4576440E+003	8.214199987778557E+000	-2.0503029E-001	-1.406586786125985E-001	2.8839289E-005	-2.0518661E-001	0
1.6545059E+003	8.414199982726132E+000	-2.0702392E-001	-1.251273442412426E-001	2.5904354E-005	-2.0718651E-001	0
1.8181223E+003	8.614199977673707E+000	-2.0904407E-001	-1.149780043757729E-001	2.4035469E-005	-2.0918640E-001	0
1.9609838E+003	8.814199972621282E+000	-2.1103685E-001	-1.076178440851612E-001	2.2711331E-005	-2.1118629E-001	0
2.0833252E+003	9.014199967568857E+000	-2.1303429E-001	-1.022568538725857E-001	2.1784215E-005	-2.1318617E-001	0
2.1969268E+003	9.214199962516432E+000	-2.1500413E-001	-9.786586554313431E-002	2.1041566E-005	-2.1518607E-001	0
2.3016033E+003	9.414199957464007E+000	-2.1702383E-001	-9.429246462647134E-002	2.0463713E-005	-2.1718596E-001	0
2.4010181E+003	9.614199952411582E+000	-2.1902025E-001	-9.121974306909642E-002	1.9978970E-005	-2.1918586E-001	0
2.4898955E+003	9.814199947359157E+000	-2.2103743E-001	-8.877377935881611E-002	1.9622328E-005	-2.2118576E-001	0
2.5772319E+003	1.001419994230673E+001	-2.2305118E-001	-8.654680014260574E-002	1.9304365E-005	-2.2318564E-001	0
2.6563735E+003	1.021419993725431E+001	-2.2501215E-001	-8.470652214316918E-002	1.9059997E-005	-2.2518554E-001	0
2.7344792E+003	1.041419993220188E+001	-2.2702102E-001	-8.302166960740676E-002	1.8847664E-005	-2.2718541E-001	0
2.8064270E+003	1.061419992714946E+001	-2.2901106E-001	-8.160235593676135E-002	1.8687842E-005	-2.2918530E-001	0
2.8769573E+003	1.081419992209703E+001	-2.3103693E-001	-8.030599899972235E-002	1.8553652E-005	-2.3118520E-001	0
2.9463374E+003	1.101419991704461E+001	-2.3302144E-001	-7.908851124743288E-002	1.8429319E-005	-2.3318508E-001	0
3.0056707E+003	1.121419991199218E+001	-2.3505577E-001	-7.820410326190827E-002	1.8382327E-005	-2.3518500E-001	0
3.0739045E+003	1.141409990694228E+001	-2.3705198E-001	-7.711754698218126E-002	1.8280867E-005	-2.3718420E-001	0
3.1351819E+003	1.161399990189238E+001	-2.3901904E-001	-7.623769300292901E-002	1.8222259E-005	-2.3918477E-001	0
3.1924011E+003	1.181399989683996E+001	-2.4104598E-001	-7.550616778249597E-002	1.8200459E-005	-2.4118465E-001	0
3.2594460E+003	1.201399989178753E+001	-2.4303007E-001	-7.456176971505668E-002	1.8120752E-005	-2.4318455E-001	0
3.3137017E+003	1.221399988673511E+001	-2.4503450E-001	-7.394585557189037E-002	1.8119286E-005	-2.4518444E-001	0
3.3574424E+003	1.241399988168268E+001	-2.4705954E-001	-7.358563717670100E-002	1.8180033E-005	-2.4718434E-001	0
3.4120300E+003	1.261399987663026E+001	-2.4902321E-001	-7.298388841188164E-002	1.8174682E-005	-2.4918421E-001	0
3.4682490E+003	1.281399987157783E+001	-2.5108135E-001	-7.239426647591704E-002	1.8176850E-005	-2.5118411E-001	0
3.5156475E+003	1.301399986652541E+001	-2.5305673E-001	-7.198012014270239E-002	1.8215054E-005	-2.5318399E-001	0
3.5626729E+003	1.321399986147298E+001	-2.5505462E-001	-7.159080850425048E-002	1.8259567E-005	-2.5518388E-001	0
3.6092566E+003	1.341399985642056E+001	-2.5711274E-001	-7.123703663416914E-002	1.8315950E-005	-2.5718379E-001	0
3.6567446E+003	1.361399985136813E+001	-2.5902614E-001	-7.083517147699059E-002	1.8348161E-005	-2.5918368E-001	0
3.7037012E+003	1.381399984631571E+001	-2.6102358E-001	-7.047641278527569E-002	1.8396006E-005	-2.6118356E-001	0
3.7548000E+003	1.401399984126328E+001	-2.6300871E-001	-7.004599884583240E-002	1.8422708E-005	-2.6318344E-001	0
3.7976982E+003	1.421399983621086E+001	-2.6508319E-001	-6.980101554865703E-002	1.8503077E-005	-2.6518336E-001	0
3.8129482E+003	1.441399983115844E+001	-2.6702353E-001	-7.003072759637063E-002	1.8699853E-005	-2.6718321E-001	0
3.8533513E+003	1.461399982610601E+001	-2.6901546E-001	-6.981337639342655E-002	1.8780878E-005	-2.6918313E-001	0
3.9009111E+003	1.481399982105359E+001	-2.7101675E-001	-6.947524341397737E-002	1.8828954E-005	-2.7118298E-001	0
3.9557507E+003	1.501399981600116E+001	-2.7303118E-001	-6.902132864540977E-002	1.8844974E-005	-2.7318290E-001	0
4.0058521E+003	1.521389981095126E+001	-2.7501827E-001	-6.865412631893519E-002	1.8881139E-005	-2.7518368E-001	0
4.0588774E+003	1.541379980590136E+001	-2.7704597E-001	-6.825679352521785E-002	1.8910268E-005	-2.7718270E-001	0
4.1126650E+003	1.561379980084894E+001	-2.7900735E-001	-6.784100767938822E-002	1.8928140E-005	-2.7918258E-001	0
4.1666084E+003	1.581379979579651E+001	-2.8106189E-001	-6.745579335870255E-002	1.8959252E-005	-2.8118247E-001	0
4.2158994E+003	1.601379979074409E+001	-2.8299755E-001	-6.712625739893241E-002	1.8996567E-005	-2.8318235E-001	0
4.2736978E+003	1.621379978569166E+001	-2.8499159E-001	-6.668501379033814E-002	1.9004669E-005	-2.8518224E-001	0
4.3250669E+003	1.641379978063924E+001	-2.8702769E-001	-6.636375780407400E-002	1.9048235E-005	-2.8718212E-001	0
4.3785225E+003	1.661379977558681E+001	-2.8903592E-001	-6.601220460306606E-002	1.9079898E-005	-2.8918201E-001	0
4.4299404E+003	1.681379977053439E+001	-2.9104376E-001	-6.569925149693612E-002	1.9121357E-005	-2.9118192E-001	0
4.4849326E+003	1.701379976548196E+001	-2.9306221E-001	-6.534372400671928E-002	1.9149777E-005	-2.9318181E-001	0
4.5314644E+003	1.721379976042954E+001	-2.9499298E-001	-6.509881723321631E-002	1.9203695E-005	-2.9518169E-001	0
4.5877246E+003	1.741379975537711E+001	-2.9705775E-001	-6.475055973360204E-002	1.9234656E-005	-2.9718158E-001	0
4.6360981E+003	1.761379975032469E+001	-2.9905793E-001	-6.450638363070271E-002	1.9291145E-005	-2.9918146E-001	0
4.6902681E+003	1.781379974527226E+001	-3.0103138E-001	-6.418212392006284E-002	1.9320833E-005	-3.0118138E-001	0
4.7361328E+003	1.801379974021984E+001	-3.0301207E-001	-6.397879330806711E-002	1.9386347E-005	-3.0318126E-001	0
4.7912949E+003	1.821379973516741E+001	-3.0508843E-001	-6.367556832397098E-002	1.9426680E-005	-3.0518115E-001	0
4.8455059E+003	1.841379973011499E+001	-3.0701119E-001	-6.335998899958029E-002	1.9452225E-005	-3.0718103E-001	0
4.8887754E+003	1.861379972506256E+001	-3.0903009E-001	-6.321216984060674E-002	1.9534462E-005	-3.0918095E-001	0
4.9418618E+003	1.881369972001266E+001	-3.1104878E-001	-6.294161589387204E-002	1.9577912E-005	-3.1118104E-001	0
4.9892725E+003	1.901359971496277E+001	-3.1304744E-001	-6.274410473317971E-002	1.9641880E-005	-3.1318074E-001	0
5.0397280E+003	1.921359970991034E+001	-3.1509075E-001	-6.252138155128140E-002	1.9699908E-005	-3.1518060E-001	0
5.0885083E+003	1.941359970485792E+001	-3.1697336E-001	-6.229199724833667E-002	1.9744904E-005	-3.1718048E-001	0
5.1390083E+003	1.961359969980549E+001	-3.1898245E-001	-6.207081924990887E-002	1.9799501E-005	-3.1918037E-001	0
5.1784946E+003	1.981359969475307E+001	-3.2106820E-001	-6.200029816934660E-002	1.9906323E-005	-3.2118028E-001	0
5.2231094E+003	2.001359968970064E+001	-3.2298431E-001	-6.183755357196469E-002	1.9972560E-005	-3.2318017E-001	0
5.2703682E+003	2.021359968464822E+001	-3.2496461E-001	-6.165880655770589E-002	2.0036930E-005	-3.2518005E-001	0
5.3138003E+003	2.041359967959579E+001	-3.2705241E-001	-6.154774134459132E-002	2.0129337E-005	-3.2717994E-001	0
5.3626553E+003	2.061359967454337E+001	-3.2908171E-001	-6.136544295238200E-002	2.0194246E-005	-3.2917982E-001	0
5.4067681E+003	2.081359966949094E+001	-3.3104286E-001	-6.122749541408901E-002	2.0268924E-005	-3.3117974E-001	0
5.4581382E+003	2.101359966443852E+001	-3.3298764E-001	-6.100755228023202E-002	2.0314761E-005	-3.3317959E-001	0
5.4968115E+003	2.121359965938609E+001	-3.3501929E-001	-6.094793232354221E-002	2.0418733E-005	-3.3517951E-001	0
5.5417417E+003	2.141359965433367E+001	-3.3702713E-001	-6.081610045642893E-002	2.0496676E-005	-3.3717939E-001	0
5.5945586E+003	2.161359964928124E+001	-3.3901352E-001	-6.059701045945537E-002	2.0543206E-005	-3.3917928E-001	0
5.6329966E+003	2.181359964422882E+001	-3.4102687E-001	-6.054093387577675E-002	2.0646085E-005	-3.4117919E-001	0
5.6798638E+003	2.201359963917639E+001	-3.4301180E-001	-6.039085055705651E-002	2.0714775E-005	-3.4317908E-001	0
5.7221133E+003	2.221359963412397E+001	-3.4507716E-001	-6.030589441849099E-002	2.0810186E-005	-3.4517896E-001	0
5.7696357E+003	2.241349962907407E+001	-3.4706616E-001	-6.015391013899529E-002	2.0877387E-005	-3.4717864E-001	0
5.8108809E+003	2.261339962402417E+001	-3.4902662E-001	-6.006432139492091E-002	2.0964048E-005	-3.4917873E-001	0
5.8532827E+003	2.281339961897174E+001	-3.5100052E-001	-5.996644028827802E-002	2.1048252E-005	-3.5117865E-001	0
5.8893931E+003	2.301339961391932E+001	-3.5305080E-001	-5.994689198212955E-002	2.1164298E-005	-3.5317853E-001	0
5.9251318E+003	2.321339960886689E+001	-3.5501412E-001	-5.991666339910129E-002	2.1271262E-005	-3.5517845E-001	0
5.9729253E+003	2.341339960381447E+001	-3.5705993E-001	-5.977974304836442E-002	2.1344951E-005	-3.5717830E-001	0
6.0232842E+003	2.361339959876204E+001	-3.5902253E-001	-5.960577621141583E-002	2.1399817E-005	-3.5917822E-001	0
6.0727412E+003	2.381339959370962E+001	-3.6104608E-001	-5.945355765671473E-002	2.1465474E-005	-3.6117807E-001	0
6.1151470E+003	2.401339958865719E+001	-3.6304691E-001	-5.936846996777945E-002	2.1553540E-005	-3.6317801E-001	0
6.1555850E+003	2.421339958360477E+001	-3.6500442E-001	-5.929646283322665E-002	2.1643471E-005	-3.6517787E-001	0
6.1953540E+003	2.441339957855234E+001	-3.6703053E-001	-5.924286695868783E-002	2.1743941E-005	-3.6717775E-001	0
6.2365645E+003	2.461339957349992E+001	-3.6903730E-001	-5.917317207212114E-002	2.1837108E-005	-3.6917764E-001	0
6.2940205E+003	2.481339956844749E+001	-3.7096751E-001	-5.893967268553457E-002	2.1864704E-005	-3.7117752E-001	0
6.3408716E+003	2.501339956339507E+001	-3.7302497E-001	-5.882865885249383E-002	2.1944559E-005	-3.7317744E-001	0
6.3724541E+003	2.521339955834264E+001	-3.7502584E-001	-5.885108398292616E-002	2.2070677E-005	-3.7517732E-001	0
6.4182935E+003	2.541339955329022E+001	-3.7697318E-001	-5.873417627655619E-002	2.2141210E-005	-3.7717718E-001	0
6.4664409E+003	2.561339954823779E+001	-3.7904492E-001	-5.861724181947542E-002	2.2218568E-005	-3.7917709E-001	0
6.5035796E+003	2.581339954318537E+001	-3.8101813E-001	-5.858591033986316E-002	2.2322294E-005	-3.8117698E-001	0
6.5263740E+003	2.601329953813547E+001	-3.8302404E-001	-5.868864285353781E-002	2.2479160E-005	-3.8317618E-001	0
6.5745776E+003	2.621319953308557E+001	-3.8500878E-001	-5.856023159811508E-002	2.2546203E-005	-3.8517681E-001	0
6.6119351E+003	2.641319952803315E+001	-3.8704270E-001	-5.853697784876433E-002	2.2656310E-005	-3.8717666E-001	0
6.6640977E+003	2.661319952298072E+001	-3.8901472E-001	-5.837470344204432E-002	2.2708618E-005	-3.8917655E-001	0
6.7057329E+003	2.681319951792830E+001	-3.9104399E-001	-5.831487706805372E-002	2.2803682E-005	-3.9117646E-001	0
6.7549468E+003	2.701319951287587E+001	-3.9302343E-001	-5.818305200107327E-002	2.2867303E-005	-3.9317632E-001	0
6.7995234E+003	2.721319950782345E+001	-3.9505500E-001	-5.810039641880449E-002	2.2952852E-005	-3.9517626E-001	0
6.8309282E+003	2.741319950277102E+001	-3.9704078E-001	-5.812398541788377E-002	2.3077593E-005	-3.9717612E-001	0
6.8742925E+003	2.761319949771860E+001	-3.9899448E-001	-5.804153401911494E-002	2.3158251E-005	-3.9917597E-001	0
6.9190767E+003	2.781319949266617E+001	-4.0100998E-001	-5.795715249813016E-002	2.3241397E-005	-4.0117592E-001	0
6.9657539E+003	2.801319948761375E+001	-4.0303516E-001	-5.785951971513559E-002	2.3319421E-005	-4.0317577E-001	0
7.0094526E+003	2.821319948256132E+001	-4.0503520E-001	-5.778414026629207E-002	2.3404611E-005	-4.0517569E-001	0
7.0544824E+003	2.841319947750890E+001	-4.0702054E-001	-5.769672547572635E-002	2.3483752E-005	-4.0717554E-001	0
7.0960771E+003	2.861319947245647E+001	-4.0901670E-001	-5.763983359040858E-002	2.3575654E-005	-4.0917549E-001	0
7.1271875E+003	2.881319946740405E+001	-4.1102225E-001	-5.766962666556574E-002	2.3703500E-005	-4.1117534E-001	0
7.1689189E+003	2.901319946235162E+001	-4.1303959E-001	-5.761532642447786E-002	2.3797411E-005	-4.1317526E-001	0
7.2095781E+003	2.921319945729920E+001	-4.1509503E-001	-5.757549563327768E-002	2.3899302E-005	-4.1517514E-001	0
7.2645186E+003	2.941319945224677E+001	-4.1702980E-001	-5.740639217706865E-002	2.3940176E-005	-4.1717502E-001	0
7.2743721E+003	2.961319944719435E+001	-4.1912657E-001	-5.761687145906319E-002	2.4148761E-005	-4.1917491E-001	0
7.2552598E+003	2.981309944214445E+001	-4.2104864E-001	-5.803357202125592E-002	2.4434956E-005	-4.2117503E-001	0
7.3246885E+003	3.001299943709455E+001	-4.2302576E-001	-5.775341240249898E-002	2.4431181E-005	-4.2317468E-001	0
7.3849775E+003	3.021299943204212E+001	-4.2508009E-001	-5.756010640309106E-002	2.4467656E-005	-4.2517462E-001	0
7.4406045E+003	3.041299942698970E+001	-4.2705184E-001	-5.739477852331965E-002	2.4510546E-005	-4.2717448E-001	0
7.4696968E+003	3.061299942193727E+001	-4.2903849E-001	-5.743720454307472E-002	2.4642772E-005	-4.2917439E-001	0
7.4969043E+003	3.081299941688485E+001	-4.3110186E-001	-5.750398161132597E-002	2.4790073E-005	-4.3117425E-001	0
7.4938442E+003	3.101299941183242E+001	-4.3312162E-001	-5.779698683115764E-002	2.5033125E-005	-4.3317413E-001	0
7.5205459E+003	3.121299940678000E+001	-4.3508175E-001	-5.785241472701674E-002	2.5170530E-005	-4.3517405E-001	0
7.5617651E+003	3.141299940172757E+001	-4.3705770E-001	-5.779836906591118E-002	2.5261223E-005	-4.3717390E-001	0
7.5974409E+003	3.161299939667515E+001	-4.3907362E-001	-5.779230438147498E-002	2.5375077E-005	-4.3917385E-001	0
7.6546113E+003	3.181299939162272E+001	-4.4107214E-001	-5.762175452006370E-002	2.5415351E-005	-4.4117370E-001	0
7.7068760E+003	3.201299938657030E+001	-4.4307017E-001	-5.749024294238669E-002	2.5472213E-005	-4.4317362E-001	0
7.7449648E+003	3.221299938151788E+001	-4.4506824E-001	-5.746549535320988E-002	2.5576066E-005	-4.4517350E-001	0
7.7555449E+003	3.241299937646545E+001	-4.4710603E-001	-5.764985404689038E-002	2.5775598E-005	-4.4717342E-001	0
7.7951089E+003	3.261299937141303E+001	-4.4905022E-001	-5.760666511027890E-002	2.5868285E-005	-4.4917327E-001	0
7.8425781E+003	3.281299936636060E+001	-4.5106548E-001	-5.751494818859137E-002	2.5943007E-005	-4.5117313E-001	0
7.8923442E+003	3.301299936130818E+001	-4.5309708E-001	-5.740969647946932E-002	2.6012165E-005	-4.5317307E-001	0
7.9587085E+003	3.321299935625575E+001	-4.5508942E-001	-5.718131466133025E-002	2.6022612E-005	-4.5517293E-001	0
8.0002490E+003	3.341289935120585E+001	-4.5710170E-001	-5.713593340419265E-002	2.6116932E-005	-4.5717263E-001	0
8.0470605E+003	3.361279934615595E+001	-4.5907071E-001	-5.704824785942653E-002	2.6189180E-005	-4.5917273E-001	0
8.0740977E+003	3.381279934110353E+001	-4.6113589E-001	-5.711299439368434E-002	2.6336851E-005	-4.6117261E-001	0
8.1204731E+003	3.401279933605110E+001	-4.6307346E-001	-5.702542754570161E-002	2.6406962E-005	-4.6317255E-001	0
8.1524556E+003	3.421279933099868E+001	-4.6507260E-001	-5.704693624046508E-002	2.6530966E-005	-4.6517235E-001	0
8.1894126E+003	3.441279932594625E+001	-4.6711671E-001	-5.703909916311167E-002	2.6643916E-005	-4.6717235E-001	0
8.1970215E+003	3.461279932089383E+001	-4.6905348E-001	-5.722242748932904E-002	2.6840378E-005	-4.6917215E-001	0
8.2137080E+003	3.481279931584140E+001	-4.7105384E-001	-5.734971573665026E-002	2.7014803E-005	-4.7117206E-001	0
8.2742744E+003	3.501279931078898E+001	-4.7310972E-001	-5.717839248628337E-002	2.7051654E-005	-4.7317198E-001	0
8.3266162E+003	3.521279930573655E+001	-4.7507301E-001	-5.705475003792215E-002	2.7105172E-005	-4.7517183E-001	0
8.3664824E+003	3.541279930068413E+001	-4.7706655E-001	-5.702115834982058E-002	2.7202886E-005	-4.7717178E-001	0
8.3980557E+003	3.561279929563170E+001	-4.7905445E-001	-5.704349644805266E-002	2.7326942E-005	-4.7917163E-001	0
8.4871787E+003	3.581279929057928E+001	-4.8104554E-001	-5.667908549310885E-002	2.7265221E-005	-4.8117152E-001	0
8.5507686E+003	3.601279928552685E+001	-4.8303410E-001	-5.649013992487673E-002	2.7286664E-005	-4.8317143E-001	0
8.6236602E+003	3.621279928047443E+001	-4.8508349E-001	-5.625030454174285E-002	2.7286094E-005	-4.8517129E-001	0
8.6720146E+003	3.641279927542200E+001	-4.8709154E-001	-5.616821226813862E-002	2.7359061E-005	-4.8717123E-001	0
8.6460029E+003	3.661279927036958E+001	-4.8904654E-001	-5.656330855383762E-002	2.7662090E-005	-4.8917109E-001	0
8.5594043E+003	3.681279926531715E+001	-4.9109814E-001	-5.737527043404497E-002	2.8176888E-005	-4.9117103E-001	0
8.6123262E+003	3.701279926026473E+001	-4.9303663E-001	-5.724778912875705E-002	2.8225257E-005	-4.9317130E-001	0
8.6667510E+003	3.721259925521736E+001	-4.9509144E-001	-5.712538000059997E-002	2.8282286E-005	-4.9517077E-001	0
8.7281484E+003	3.741259925016493E+001	-4.9706092E-001	-5.694918204552990E-002	2.8307213E-005	-4.9717066E-001	0
8.7819082E+003	3.761259924511251E+001	-4.9907938E-001	-5.683040526292193E-002	2.8362883E-005	-4.9917051E-001	0
8.8250908E+003	3.781259924006008E+001	-5.0110310E-001	-5.678163824049633E-002	2.8453454E-005	-5.0117046E-001	0
8.8729736E+003	3.801259923500766E+001	-5.0305438E-001	-5.669512960409369E-002	2.8520733E-005	-5.0317031E-001	0
8.9404609E+003	3.821259922995523E+001	-5.0503987E-001	-5.648924199686878E-002	2.8529319E-005	-5.0517023E-001	0
8.9983984E+003	3.841259922490281E+001	-5.0708699E-001	-5.635302816200871E-002	2.8575887E-005	-5.0717014E-001	0
9.0814727E+003	3.861259921985038E+001	-5.0912368E-001	-5.606179562547275E-002	2.8542388E-005	-5.0916994E-001	0
9.1610410E+003	3.881259921479796E+001	-5.1110291E-001	-5.579091812264370E-002	2.8514902E-005	-5.1116997E-001	0
9.2476846E+003	3.901259920974553E+001	-5.1309693E-001	-5.548382627771414E-002	2.8468581E-005	-5.1316977E-001	0
9.3010625E+003	3.921259920469311E+001	-5.1507634E-001	-5.537822432002945E-002	2.8524013E-005	-5.1516968E-001	0
9.3588369E+003	3.941259919964068E+001	-5.1708227E-001	-5.525069828768170E-002	2.8569157E-005	-5.1716954E-001	0
9.3701748E+003	3.961259919458826E+001	-5.1905549E-001	-5.539443076201744E-002	2.8752784E-005	-5.1916945E-001	0
9.3977832E+003	3.981259918953583E+001	-5.2110595E-001	-5.544988182320543E-002	2.8895263E-005	-5.2116936E-001	0
9.4460586E+003	4.001259918448341E+001	-5.2310747E-001	-5.537838700318243E-002	2.8968849E-005	-5.2316922E-001	0
9.4301484E+003	4.021259917943098E+001	-5.2504635E-001	-5.567741929870196E-002	2.9233226E-005	-5.2516919E-001	0
9.4725918E+003	4.041259917437856E+001	-5.2707624E-001	-5.564224258246836E-002	2.9327704E-005	-5.2716899E-001	0
9.5057627E+003	4.061259916932613E+001	-5.2906841E-001	-5.565765241631926E-002	2.9446706E-005	-5.2916890E-001	0
9.5534580E+003	4.081239916427876E+001	-5.3102994E-001	-5.558510194891841E-002	2.9517354E-005	-5.3116858E-001	0
9.5435391E+003	4.101239915922633E+001	-5.3311682E-001	-5.586154479005495E-002	2.9780729E-005	-5.3316867E-001	0
9.5999805E+003	4.121239915417391E+001	-5.3511631E-001	-5.574139714285375E-002	2.9828130E-005	-5.3516859E-001	0
9.6060381E+003	4.141239914912148E+001	-5.3710401E-001	-5.591316424392556E-002	3.0031184E-005	-5.3716844E-001	0
9.6527480E+003	4.161239914406906E+001	-5.3913128E-001	-5.585262005147729E-002	3.0111894E-005	-5.3916842E-001	0
9.6804854E+003	4.181239913901663E+001	-5.4108995E-001	-5.589492229613872E-002	3.0244180E-005	-5.4116827E-001	0
9.7117061E+003	4.201239913396421E+001	-5.4311585E-001	-5.592383533904149E-002	3.0373121E-005	-5.4316819E-001	0
9.7183779E+003	4.221239912891178E+001	-5.4509717E-001	-5.608931798255590E-002	3.0574127E-005	-5.4516804E-001	0
9.7626211E+003	4.241239912385936E+001	-5.4716039E-001	-5.604646229259092E-002	3.0666404E-005	-5.4716790E-001	0
9.7967920E+003	4.261239911880693E+001	-5.4902750E-001	-5.604156234846469E-002	3.0768359E-005	-5.4916781E-001	0
9.8100400E+003	4.281239911375451E+001	-5.5106825E-001	-5.617390442829640E-002	3.0955656E-005	-5.5116767E-001	0
9.8593838E+003	4.301239910870208E+001	-5.5312467E-001	-5.610134288121660E-002	3.1031035E-005	-5.5316758E-001	0
9.9039160E+003	4.321239910364966E+001	-5.5505699E-001	-5.604419652678816E-002	3.1107724E-005	-5.5516750E-001	0
9.9200479E+003	4.341239909859723E+001	-5.5702829E-001	-5.615177690083162E-002	3.1278127E-005	-5.5716735E-001	0
9.9794941E+003	4.361239909354481E+001	-5.5909902E-001	-5.602478538798239E-002	3.1323401E-005	-5.5916727E-001	0
1.0019229E+004	4.381239908849238E+001	-5.6107610E-001	-5.599993332014608E-002	3.1420226E-005	-5.6116712E-001	0
1.0068274E+004	4.401239908343996E+001	-5.6308770E-001	-5.592693313650043E-002	3.1491767E-005	-5.6316710E-001	0
1.0070718E+004	4.421239907838753E+001	-5.6504905E-001	-5.610812319782643E-002	3.1703843E-005	-5.6516695E-001	0
1.0116585E+004	4.441229907333764E+001	-5.6711400E-001	-5.605784699882532E-002	3.1791191E-005	-5.6716704E-001	0
1.0154503E+004	4.461219906828774E+001	-5.6907219E-001	-5.604136411719374E-002	3.1891581E-005	-5.6916678E-001	0
1.0201598E+004	4.481219906323531E+001	-5.7104731E-001	-5.597626188370786E-002	3.1965094E-005	-5.7116657E-001	0
1.0239582E+004	4.501219905818289E+001	-5.7302415E-001	-5.596167339717351E-002	3.2067390E-005	-5.7316655E-001	0
1.0286452E+004	4.521219905313046E+001	-5.7508105E-001	-5.590664754281693E-002	3.2150852E-005	-5.7516640E-001	0
1.0320436E+004	4.541219904807804E+001	-5.7702994E-001	-5.591139309805160E-002	3.2262549E-005	-5.7716626E-001	0
1.0361202E+004	4.561219904302561E+001	-5.7904583E-001	-5.588597217796465E-002	3.2360538E-005	-5.7916617E-001	0
1.0415171E+004	4.581219903797319E+001	-5.8106196E-001	-5.578996047489504E-002	3.2417425E-005	-5.8116603E-001	0
1.0442269E+004	4.601219903292076E+001	-5.8308589E-001	-5.583900330290470E-002	3.2558935E-005	-5.8316600E-001	0
1.0489898E+004	4.621219902786834E+001	-5.8501458E-001	-5.576932864937323E-002	3.2625871E-005	-5.8516586E-001	0
1.0534605E+004	4.641219902281591E+001	-5.8707595E-001	-5.572832563032470E-002	3.2716758E-005	-5.8716577E-001	0
1.0567924E+004	4.661219901776349E+001	-5.8899885E-001	-5.573458685339028E-002	3.2827607E-005	-5.8916563E-001	0
1.0601445E+004	4.681219901271106E+001	-5.9107286E-001	-5.575398648371011E-002	3.2954667E-005	-5.9116548E-001	0
1.0638787E+004	4.701219900765864E+001	-5.9303552E-001	-5.574277461962582E-002	3.3057444E-005	-5.9316546E-001	0
1.0667495E+004	4.721219900260621E+001	-5.9503853E-001	-5.578052763280195E-002	3.3191562E-005	-5.9516525E-001	0
1.0701330E+004	4.741219899755379E+001	-5.9700388E-001	-5.578781923600185E-002	3.3305543E-005	-5.9716523E-001	0
1.0751252E+004	4.761219899250136E+001	-5.9913588E-001	-5.572708121125003E-002	3.3388093E-005	-5.9916508E-001	0
1.0762598E+004	4.781219898744894E+001	-6.0109872E-001	-5.585070844431350E-002	3.3571789E-005	-6.0116500E-001	0
1.0805313E+004	4.801209898239904E+001	-6.0302550E-001	-5.580824178968580E-002	3.3653792E-005	-6.0316449E-001	0
1.0833366E+004	4.821199897734914E+001	-6.0499597E-001	-5.584561207137440E-002	3.3786371E-005	-6.0516471E-001	0
1.0849934E+004	4.841199897229671E+001	-6.0701990E-001	-5.594687927049710E-002	3.3960870E-005	-6.0716468E-001	0
1.0887583E+004	4.861199896724429E+001	-6.0902905E-001	-5.593794802902752E-002	3.4067834E-005	-6.0916448E-001	0
1.0909287E+004	4.881199896219186E+001	-6.1103857E-001	-5.601086032359326E-002	3.4224795E-005	-6.1116445E-001	0
1.0931314E+004	4.901199895713944E+001	-6.1306846E-001	-5.608368882394121E-002	3.4383142E-005	-6.1316437E-001	0
1.0965600E+004	4.921199895208701E+001	-6.1514294E-001	-5.609752201525889E-002	3.4507993E-005	-6.1516416E-001	0
1.0979433E+004	4.941199894703459E+001	-6.1707276E-001	-5.620260964529983E-002	3.4681099E-005	-6.1716408E-001	0
1.0998119E+004	4.961199894198217E+001	-6.1903554E-001	-5.628558247436738E-002	3.4842775E-005	-6.1916399E-001	0
1.1014109E+004	4.981199893692974E+001	-6.2108797E-001	-5.639021065193839E-002	3.5023280E-005	-6.2116390E-001	0
1.1047178E+004	5.001199893187732E+001	-6.2305301E-001	-5.639929170857561E-002	3.5139750E-005	-6.2316376E-001	0
1.1072942E+004	5.021199892682489E+001	-6.2501138E-001	-5.644492293727033E-002	3.5278721E-005	-6.2516367E-001	0
1.1095796E+004	5.041199892177247E+001	-6.2709898E-001	-5.651680674813581E-002	3.5441633E-005	-6.2716359E-001	0
1.1102158E+004	5.061199891672004E+001	-6.2910938E-001	-5.666550342679921E-002	3.5648798E-005	-6.2916344E-001	0
1.1125676E+004	5.081199891166762E+001	-6.3101596E-001	-5.671708836841094E-002	3.5789388E-005	-6.3116336E-001	0
1.1150490E+004	5.101199890661519E+001	-6.3304967E-001	-5.677325626974605E-002	3.5940291E-005	-6.3316321E-001	0
1.1152899E+004	5.121199890156277E+001	-6.3505667E-001	-5.694094674910963E-002	3.6160727E-005	-6.3516319E-001	0
1.1175059E+004	5.141199889651034E+001	-6.3705325E-001	-5.700670345950365E-002	3.6316305E-005	-6.3716298E-001	0
1.1184766E+004	5.161199889145792E+001	-6.3903379E-001	-5.713430513857998E-002	3.6510752E-005	-6.3916296E-001	0
1.1201099E+004	5.181179888641054E+001	-6.4106387E-001	-5.723223245673803E-002	3.6689515E-005	-6.4116281E-001	0
1.1209734E+004	5.201179888135812E+001	-6.4306086E-001	-5.736629147285321E-002	3.6890018E-005	-6.4316267E-001	0
1.1208904E+004	5.221179887630569E+001	-6.4502352E-001	-5.754563687242509E-002	3.7118290E-005	-6.4516258E-001	0
1.1233755E+004	5.241179887125327E+001	-6.4702374E-001	-5.759639229547325E-002	3.7266233E-005	-6.4716244E-001	0
1.1229033E+004	5.261179886620084E+001	-6.4906842E-001	-5.780269615267686E-002	3.7517904E-005	-6.4916235E-001	0
1.1235578E+004	5.281179886114842E+001	-6.5108603E-001	-5.794860278055614E-002	3.7729526E-005	-6.5116227E-001	0
1.1239619E+004	5.301179885609599E+001	-6.5308350E-001	-5.810548249175995E-002	3.7947731E-005	-6.5316206E-001	0
1.1238129E+004	5.321179885104357E+001	-6.5503442E-001	-5.828678422626488E-002	3.8179849E-005	-6.5516204E-001	0
1.1240739E+004	5.341179884599114E+001	-6.5708351E-001	-5.845554090525246E-002	3.8410173E-005	-6.5716189E-001	0
1.1229991E+004	5.361179884093872E+001	-6.5912211E-001	-5.869302270002685E-002	3.8685870E-005	-6.5916181E-001	0
1.1225334E+004	5.381179883588629E+001	-6.6108912E-001	-5.889259907153011E-002	3.8933256E-005	-6.6116166E-001	0
1.1224816E+004	5.401179883083387E+001	-6.6307771E-001	-5.907247835704799E-002	3.9169645E-005	-6.6316158E-001	0
1.1206836E+004	5.421179882578144E+001	-6.6507345E-001	-5.934533618428584E-002	3.9469007E-005	-6.6516149E-001	0
1.1206958E+004	5.441179882072902E+001	-6.6705543E-001	-5.952154391322723E-002	3.9704169E-005	-6.6716135E-001	0
1.1206841E+004	5.461179881567659E+001	-6.6902548E-001	-5.969795391761834E-002	3.9939452E-005	-6.6916132E-001	0
1.1177363E+004	5.481179881062417E+001	-6.7111689E-001	-6.004250301903458E-002	4.0295537E-005	-6.7116117E-001	0
1.1169740E+004	5.501179880557174E+001	-6.7304206E-001	-6.025583854751870E-002	4.0554714E-005	-6.7316103E-001	0
1.1182928E+004	5.521179880051932E+001	-6.7505538E-001	-6.036481651099493E-002	4.0749594E-005	-6.7516094E-001	0
1.1179000E+004	5.541169879546942E+001	-6.7707980E-001	-6.056711588199248E-002	4.1008770E-005	-6.7716128E-001	0
1.1158386E+004	5.561159879041952E+001	-6.7899501E-001	-6.085065046067675E-002	4.1317289E-005	-6.7916071E-001	0
1.1152112E+004	5.581159878536710E+001	-6.8113017E-001	-6.107633563852490E-002	4.1600935E-005	-6.8116057E-001	0
1.1129400E+004	5.601159878031467E+001	-6.8307501E-001	-6.137572690662929E-002	4.1924224E-005	-6.8316048E-001	0
1.1121644E+004	5.621159877526225E+001	-6.8499839E-001	-6.159147420579181E-002	4.2190062E-005	-6.8516040E-001	0
1.1100902E+004	5.641159877020982E+001	-6.8704802E-001	-6.189118805626526E-002	4.2522217E-005	-6.8716025E-001	0
1.1075529E+004	5.661159876515740E+001	-6.8906844E-001	-6.221539303058554E-002	4.2870663E-005	-6.8916017E-001	0
1.1065351E+004	5.681159876010497E+001	-6.9104743E-001	-6.245147325774303E-002	4.3156931E-005	-6.9116002E-001	0
1.1047008E+004	5.701159875505255E+001	-6.9305289E-001	-6.273670685150212E-002	4.3479857E-005	-6.9316000E-001	0
1.1035733E+004	5.721159875000012E+001	-6.9510531E-001	-6.298678120135670E-002	4.3782446E-005	-6.9515985E-001	0
1.1013422E+004	5.741159874494770E+001	-6.9706714E-001	-6.329251131435620E-002	4.4119130E-005	-6.9715977E-001	0
1.0992326E+004	5.761159873989527E+001	-6.9908828E-001	-6.359784442576655E-002	4.4460507E-005	-6.9915962E-001	0
1.0969234E+004	5.781159873484285E+001	-7.0107502E-001	-6.391284681166076E-002	4.4807701E-005	-7.0115954E-001	0
1.0964063E+004	5.801159872979042E+001	-7.0304924E-001	-6.412306321043604E-002	4.5081670E-005	-7.0315945E-001	0
1.0939425E+004	5.821159872473800E+001	-7.0507401E-001	-6.445256874752991E-002	4.5443830E-005	-7.0515925E-001	0
1.0924021E+004	5.841159871968557E+001	-7.0711946E-001	-6.473069518800323E-002	4.5772336E-005	-7.0715916E-001	0
1.0920497E+004	5.861159871463315E+001	-7.0902270E-001	-6.492586598769590E-002	4.6033914E-005	-7.0915908E-001	0
1.0902763E+004	5.881159870958072E+001	-7.1103513E-001	-6.521605163107291E-002	4.6370904E-005	-7.1115899E-001	0
1.0858395E+004	5.901149870453082E+001	-7.1310383E-001	-6.567304411645503E-002	4.6831698E-005	-7.1315891E-001	0
1.0856546E+004	5.921139869948092E+001	-7.1502203E-001	-6.586091216260781E-002	4.7092002E-005	-7.1515870E-001	0
1.0838702E+004	5.941139869442850E+001	-7.1703136E-001	-6.615472418444068E-002	4.7435013E-005	-7.1715868E-001	0
1.0819609E+004	5.961139868937607E+001	-7.1906298E-001	-6.645923907934054E-002	4.7788380E-005	-7.1915847E-001	0
1.0804551E+004	5.981139868432365E+001	-7.2109473E-001	-6.673991045958960E-002	4.8125796E-005	-7.2115839E-001	0
1.0787957E+004	6.001139867927122E+001	-7.2307843E-001	-6.702644569543792E-002	4.8465376E-005	-7.2315830E-001	0
1.0754794E+004	6.021139867421880E+001	-7.2504109E-001	-6.741561886406766E-002	4.8879094E-005	-7.2515821E-001	0
1.0732214E+004	6.041139866916637E+001	-7.2705412E-001	-6.774502847863184E-002	4.9254300E-005	-7.2715813E-001	0
1.0716832E+004	6.061139866411395E+001	-7.2909343E-001	-6.803255357469129E-002	4.9602088E-005	-7.2915798E-001	0
1.0688305E+004	6.081139865906152E+001	-7.3098093E-001	-6.839072479879138E-002	4.9992315E-005	-7.3115790E-001	0
1.0666146E+004	6.101139865400910E+001	-7.3301280E-001	-6.872330863364540E-002	5.0375063E-005	-7.3315781E-001	0
1.0645149E+004	6.121139864895667E+001	-7.3501468E-001	-6.904690789191847E-002	5.0750492E-005	-7.3515761E-001	0
1.0624961E+004	6.141139864390425E+001	-7.3704129E-001	-6.936884760622219E-002	5.1127707E-005	-7.3715752E-001	0
1.0607470E+004	6.161139863885182E+001	-7.3903030E-001	-6.967074465526099E-002	5.1488791E-005	-7.3915744E-001	0
1.0579027E+004	6.181139863379940E+001	-7.4110734E-001	-7.005439134992575E-002	5.1917825E-005	-7.4115735E-001	0
1.0547160E+004	6.201139862874697E+001	-7.4304599E-001	-7.044986573411177E-002	5.2347488E-005	-7.4315721E-001	0
1.0514793E+004	6.221139862369455E+001	-7.4509448E-001	-7.086154217662854E-002	5.2798543E-005	-7.4515706E-001	0
1.0495692E+004	6.241139861864212E+001	-7.4710536E-001	-7.118209442039301E-002	5.3180524E-005	-7.4715704E-001	0
1.0482970E+004	6.261139861358970E+001	-7.4910116E-001	-7.145886703688531E-002	5.3529919E-005	-7.4915761E-001	0
1.0453909E+004	6.281119860854233E+001	-7.5104964E-001	-7.184390114051542E-002	5.3958334E-005	-7.5115675E-001	0
1.0425660E+004	6.301119860348990E+001	-7.5310880E-001	-7.223607651264241E-002	5.4401626E-005	-7.5315666E-001	0
1.0421894E+004	6.321119859843748E+001	-7.5504935E-001	-7.244838174546553E-002	5.4702105E-005	-7.5515658E-001	0
1.0413873E+004	6.341119859338505E+001	-7.5706691E-001	-7.269791718688534E-002	5.5037188E-005	-7.5715643E-001	0
1.0390733E+004	6.361119858833263E+001	-7.5906730E-001	-7.305233361983032E-002	5.5451637E-005	-7.5915635E-001	0
1.0383072E+004	6.381119858328020E+001	-7.6111042E-001	-7.330300447070615E-002	5.5791679E-005	-7.6115626E-001	0
1.0352302E+004	6.401119857822778E+001	-7.6304948E-001	-7.370819351340208E-002	5.6243000E-005	-7.6315606E-001	0
1.0343944E+004	6.421119857317535E+001	-7.6507264E-001	-7.396333696755683E-002	5.6587327E-005	-7.6515597E-001	0
1.0348682E+004	6.441119856812293E+001	-7.6704180E-001	-7.411975913909186E-002	5.6852954E-005	-7.6715589E-001	0
1.0334243E+004	6.461119856307050E+001	-7.6906496E-001	-7.441908804976433E-002	5.7233112E-005	-7.6915580E-001	0
1.0341495E+004	6.481119855801808E+001	-7.7101606E-001	-7.455556775029304E-002	5.7483539E-005	-7.7115571E-001	0
1.0333574E+004	6.501119855296565E+001	-7.7306020E-001	-7.481053509684002E-002	5.7833047E-005	-7.7315551E-001	0
1.0321689E+004	6.521119854791323E+001	-7.7504218E-001	-7.508869361514625E-002	5.8196903E-005	-7.7515543E-001	0
1.0319755E+004	6.541119854286080E+001	-7.7706534E-001	-7.529881661610000E-002	5.8512102E-005	-7.7715534E-001	0
1.0300354E+004	6.561119853780838E+001	-7.7905977E-001	-7.563427039960602E-002	5.8923619E-005	-7.7915519E-001	0
1.0314569E+004	6.581119853275595E+001	-7.8107417E-001	-7.572533252866548E-002	5.9147100E-005	-7.8115511E-001	0
1.0317312E+004	6.601119852770353E+001	-7.8304070E-001	-7.589580755851821E-002	5.9429505E-005	-7.8315502E-001	0
1.0305307E+004	6.621109852265363E+001	-7.8507453E-001	-7.618157540858206E-002	5.9808215E-005	-7.8515410E-001	0
1.0294339E+004	6.641099851760373E+001	-7.8706294E-001	-7.645589881946191E-002	6.0175604E-005	-7.8715479E-001	0
1.0315374E+004	6.661099851255130E+001	-7.8902262E-001	-7.648996426037580E-002	6.0352311E-005	-7.8915471E-001	0
1.0299658E+004	6.681099850749888E+001	-7.9104525E-001	-7.680305993277392E-002	6.0754697E-005	-7.9115462E-001	0
1.0272636E+004	6.701099850244646E+001	-7.9300815E-001	-7.719617361855396E-002	6.1217193E-005	-7.9315454E-001	0
1.0272016E+004	6.721099849739403E+001	-7.9509276E-001	-7.740377623782146E-002	6.1543185E-005	-7.9515445E-001	0
1.0280256E+004	6.741099849234161E+001	-7.9704404E-001	-7.753153892430355E-002	6.1796054E-005	-7.9715425E-001	0
1.0274302E+004	6.761099848728918E+001	-7.9908466E-001	-7.777508546475786E-002	6.2148880E-005	-7.9915416E-001	0
1.0259969E+004	6.781099848223676E+001	-8.0106813E-001	-7.807705375205387E-002	6.2545041E-005	-8.0115414E-001	0
1.0242166E+004	6.801099847718433E+001	-8.0302632E-001	-7.840395132301481E-002	6.2960433E-005	-8.0315393E-001	0
1.0232491E+004	6.821099847213191E+001	-8.0505651E-001	-7.867649106610802E-002	6.3339023E-005	-8.0515385E-001	0
1.0212360E+004	6.841099846707948E+001	-8.0705243E-001	-7.902702051024779E-002	6.3778949E-005	-8.0715364E-001	0
1.0197078E+004	6.861099846202706E+001	-8.0902660E-001	-7.933906261236867E-002	6.4187414E-005	-8.0915368E-001	0
1.0187938E+004	6.881099845697463E+001	-8.1107169E-001	-7.961097458597100E-002	6.4570209E-005	-8.1115353E-001	0
1.0165223E+004	6.901099845192221E+001	-8.1303287E-001	-7.998180247488462E-002	6.5027831E-005	-8.1315345E-001	0
1.0128056E+004	6.921099844686978E+001	-8.1501973E-001	-8.047149314327562E-002	6.5585853E-005	-8.1515330E-001	0
1.0100313E+004	6.941099844181736E+001	-8.1703961E-001	-8.089250098341605E-002	6.6092376E-005	-8.1715316E-001	0
1.0065361E+004	6.961099843676493E+001	-8.1908602E-001	-8.137671526018819E-002	6.6654531E-005	-8.1915307E-001	0
1.0041034E+004	6.981099843171251E+001	-8.2109326E-001	-8.177377486890802E-002	6.7143897E-005	-8.2115299E-001	0
1.0013267E+004	7.001089842666261E+001	-8.2305932E-001	-8.219688328507319E-002	6.7652909E-005	-8.2315248E-001	0
9.9814785E+003	7.021079842161271E+001	-8.2505286E-001	-8.265837977530494E-002	6.8197529E-005	-8.2515270E-001	0
9.9279531E+003	7.041079841656028E+001	-8.2705635E-001	-8.330582700883060E-002	6.8898611E-005	-8.2715261E-001	0
9.8559492E+003	7.061079841150786E+001	-8.2903087E-001	-8.411476936068807E-002	6.9733738E-005	-8.2915252E-001	0
9.8237012E+003	7.081079840645543E+001	-8.3108723E-001	-8.460021137456342E-002	7.0310154E-005	-8.3115238E-001	0
9.7284385E+003	7.101079840140301E+001	-8.3307201E-001	-8.563265148571392E-002	7.1338167E-005	-8.3315229E-001	0
9.6011162E+003	7.121079839635058E+001	-8.3504528E-001	-8.697376712626648E-002	7.2627030E-005	-8.3515221E-001	0
9.4564482E+003	7.141079839129816E+001	-8.3702022E-001	-8.851317469296704E-002	7.4087315E-005	-8.3715200E-001	0
9.1966904E+003	7.161079838624573E+001	-8.3901942E-001	-9.123058308469223E-002	7.6544231E-005	-8.3915204E-001	0
8.8663535E+003	7.181079838119331E+001	-8.4106857E-001	-9.486070792919299E-002	7.9784360E-005	-8.4115183E-001	0
8.4511631E+003	7.201079837614088E+001	-8.4310681E-001	-9.976221717442157E-002	8.4110201E-005	-8.4315181E-001	0
8.0251675E+003	7.221079837108846E+001	-8.4500486E-001	-1.052943571848701E-001	8.8974244E-005	-8.4515160E-001	0
7.6181733E+003	7.241079836603603E+001	-8.4707636E-001	-1.111915319336498E-001	9.4187715E-005	-8.4715152E-001	0
7.2671650E+003	7.261079836098361E+001	-8.4906560E-001	-1.168358788451773E-001	9.9201323E-005	-8.4915143E-001	0
6.9800425E+003	7.281079835593118E+001	-8.5106128E-001	-1.219278094833904E-001	1.0376804E-004	-8.5115135E-001	0
6.7613955E+003	7.301079835087876E+001	-8.5301036E-001	-1.261589209403415E-001	1.0761487E-004	-8.5315126E-001	0
6.5836436E+003	7.321079834582633E+001	-8.5503936E-001	-1.298732797904560E-001	1.1104676E-004	-8.5515106E-001	0
6.4787153E+003	7.341079834077391E+001	-8.5707265E-001	-1.322905287450671E-001	1.1338259E-004	-8.5715097E-001	0
6.3868413E+003	7.361079833572148E+001	-8.5907668E-001	-1.345072819874239E-001	1.1555207E-004	-8.5915112E-001	0
6.3613760E+003	7.381059833067411E+001	-8.6102611E-001	-1.353521812430736E-001	1.1654176E-004	-8.6115062E-001	0
6.4013633E+003	7.401059832562169E+001	-8.6310148E-001	-1.348308816830932E-001	1.1637274E-004	-8.6315066E-001	0
6.4583608E+003	7.421059832056926E+001	-8.6507946E-001	-1.339472131814197E-001	1.1587498E-004	-8.6515045E-001	0
6.5210850E+003	7.441059831551684E+001	-8.6704361E-001	-1.329600256561494E-001	1.1528214E-004	-8.6715049E-001	0
6.5902124E+003	7.461059831046441E+001	-8.6902469E-001	-1.318659602459560E-001	1.1459478E-004	-8.6915034E-001	0
6.6346196E+003	7.481059830541199E+001	-8.7107533E-001	-1.312924318201414E-001	1.1436560E-004	-8.7115026E-001	0
6.6257681E+003	7.501059830035956E+001	-8.7305158E-001	-1.317660907862068E-001	1.1503859E-004	-8.7315011E-001	0
6.6289263E+003	7.521059829530714E+001	-8.7501109E-001	-1.319989159549095E-001	1.1550052E-004	-8.7514997E-001	0
6.6092129E+003	7.541059829025471E+001	-8.7703943E-001	-1.326995237229931E-001	1.1638272E-004	-8.7715000E-001	0
6.5424810E+003	7.561059828520229E+001	-8.7903214E-001	-1.343576171258021E-001	1.1810466E-004	-8.7914979E-001	0
6.4639590E+003	7.581059828014986E+001	-8.8108373E-001	-1.363071369687249E-001	1.2009800E-004	-8.8114977E-001	0
6.3802290E+003	7.601059827509744E+001	-8.8306725E-001	-1.384068316296421E-001	1.2222254E-004	-8.8314950E-001	0
6.2737695E+003	7.621059827004501E+001	-8.8505703E-001	-1.410726054313924E-001	1.2485730E-004	-8.8514942E-001	0
6.1454893E+003	7.641059826499259E+001	-8.8705361E-001	-1.443422314343457E-001	1.2803930E-004	-8.8714939E-001	0
6.0161748E+003	7.661059825994016E+001	-8.8904178E-001	-1.477752592807420E-001	1.3137839E-004	-8.8914919E-001	0
5.8682070E+003	7.681059825488774E+001	-8.9106345E-001	-1.518459513946064E-001	1.3530438E-004	-8.9115059E-001	0
5.6837798E+003	7.701059824983531E+001	-8.9297849E-001	-1.571099794735862E-001	1.4029583E-004	-8.9315087E-001	0
5.5017773E+003	7.721059824478289E+001	-8.9502203E-001	-1.626787050194251E-001	1.4560102E-004	-8.9515072E-001	0
5.3142505E+003	7.741059823973046E+001	-8.9710450E-001	-1.688111106898893E-001	1.5144121E-004	-8.9715070E-001	0
5.1223921E+003	7.761059823467804E+001	-8.9906114E-001	-1.755158713059979E-001	1.5779950E-004	-8.9915079E-001	0
4.9270098E+003	7.781059822962561E+001	-9.0107691E-001	-1.828851462806451E-001	1.6479359E-004	-9.0115076E-001	0
4.7177954E+003	7.801059822457319E+001	-9.0306133E-001	-1.914159666140756E-001	1.7286035E-004	-9.0315074E-001	0
4.5113687E+003	7.821059821952076E+001	-9.0506142E-001	-2.006179326680622E-001	1.8157155E-004	-9.0515077E-001	0
4.3060337E+003	7.841059821446834E+001	-9.0705729E-001	-2.106479845641187E-001	1.9106979E-004	-9.0715080E-001	0
4.0983071E+003	7.861059820941591E+001	-9.0903616E-001	-2.218077243696426E-001	2.0163124E-004	-9.0915078E-001	0
3.8888540E+003	7.881059820436349E+001	-9.1105044E-001	-2.342722216333835E-001	2.1343381E-004	-9.1115069E-001	0
3.6955237E+003	7.901059819931106E+001	-9.1299963E-001	-2.470555405793480E-001	2.2556161E-004	-9.1315079E-001	0
3.5246086E+003	7.921059819425864E+001	-9.1505903E-001	-2.596200444775714E-001	2.3756767E-004	-9.1515076E-001	0
3.3216689E+003	7.941059818920621E+001	-9.1707945E-001	-2.760899605107010E-001	2.5319643E-004	-9.1715074E-001	0
3.1192949E+003	7.961059818415379E+001	-9.1902786E-001	-2.946268034900402E-001	2.7077025E-004	-9.1915083E-001	0
2.8912422E+003	7.981059817910136E+001	-9.2103243E-001	-3.185594154568276E-001	2.9340354E-004	-9.2115068E-001	0
2.7268276E+003	8.001059817404894E+001	-9.2307097E-001	-3.385145864016499E-001	3.1247298E-004	-9.2315078E-001	0
2.5671746E+003	8.021059816899651E+001	-9.2508459E-001	-3.603512446592436E-001	3.3335539E-004	-9.2515075E-001	0
2.4138093E+003	8.041059816394409E+001	-9.2705578E-001	-3.840633985922248E-001	3.5604820E-004	-9.2715085E-001	0
2.2717969E+003	8.061059815889166E+001	-9.2901278E-001	-4.089330390830623E-001	3.7990403E-004	-9.2915082E-001	0
2.1360173E+003	8.081059815383924E+001	-9.3105859E-001	-4.358852976160197E-001	4.0583475E-004	-9.3115073E-001	0
1.9776021E+003	8.101059814878681E+001	-9.3306243E-001	-4.718150656222626E-001	4.4023292E-004	-9.3315077E-001	0
1.8688232E+003	8.121059814373439E+001	-9.3506038E-001	-5.003471462786742E-001	4.6785478E-004	-9.3515086E-001	0
1.7612668E+003	8.141059813868196E+001	-9.3709064E-001	-5.320549048779029E-001	4.9858366E-004	-9.3715072E-001	0
1.6635782E+003	8.161059813362954E+001	-9.3908113E-001	-5.644947338401605E-001	5.3010636E-004	-9.3915075E-001	0
1.5611160E+003	8.181059812857711E+001	-9.4106418E-001	-6.028150226414004E-001	5.6728761E-004	-9.4115078E-001	0
1.4704811E+003	8.201059812352469E+001	-9.4311267E-001	-6.413633723377901E-001	6.0487795E-004	-9.4315076E-001	0
1.3944780E+003	8.221059811847226E+001	-9.4507110E-001	-6.777238874588485E-001	6.4049725E-004	-9.4515073E-001	0
1.3212954E+003	8.241059811341984E+001	-9.4710356E-001	-7.167992429583947E-001	6.7888311E-004	-9.4715077E-001	0
1.2401224E+003	8.261059810836741E+001	-9.4907391E-001	-7.653066057441515E-001	7.2633254E-004	-9.4915074E-001	0
1.1747196E+003	8.281059810331499E+001	-9.5109767E-001	-8.096380231821746E-001	7.7004486E-004	-9.5115072E-001	0
1.1196152E+003	8.301059809826256E+001	-9.5309389E-001	-8.512691193072262E-001	8.1133941E-004	-9.5315081E-001	0
1.0629171E+003	8.321059809321014E+001	-9.5513833E-001	-8.986009689567425E-001	8.5828820E-004	-9.5515078E-001	0
1.0093630E+003	8.341059808815771E+001	-9.5709777E-001	-9.482195951095251E-001	9.0753887E-004	-9.5715076E-001	0
9.6472516E+002	8.361059808310529E+001	-9.5907581E-001	-9.941440620406823E-001	9.5345953E-004	-9.5915073E-001	0
9.1432428E+002	8.382059807780024E+001	-9.6116847E-001	-1.051233663466403E+000	1.0104127E-003	-9.6125084E-001	0
8.6845245E+002	8.403059807249520E+001	-9.6330756E-001	-1.109223122904898E+000	1.0685230E-003	-9.6335077E-001	0
8.3188904E+002	8.423059806744277E+001	-9.6523821E-001	-1.160296818972174E+000	1.1199628E-003	-9.6535069E-001	0
7.9285516E+002	8.443059806239035E+001	-9.6724015E-001	-1.219945579175912E+000	1.1799803E-003	-9.6735078E-001	0
7.6010535E+002	8.463059805733792E+001	-9.6926898E-001	-1.275177146648129E+000	1.2359896E-003	-9.6935076E-001	0
7.2989679E+002	8.483059805228550E+001	-9.7126812E-001	-1.330692428132508E+000	1.2924591E-003	-9.7135073E-001	0
6.9798895E+002	8.503059804723307E+001	-9.7324938E-001	-1.394362136958136E+000	1.3570620E-003	-9.7335082E-001	0
6.7225183E+002	8.523059804218065E+001	-9.7524375E-001	-1.450711920308347E+000	1.4147977E-003	-9.7535080E-001	0
6.4442627E+002	8.543059803712822E+001	-9.7724706E-001	-1.516460575230944E+000	1.4819567E-003	-9.7735077E-001	0
6.2077069E+002	8.563059803207580E+001	-9.7926372E-001	-1.577496670651126E+000	1.5447852E-003	-9.7935075E-001	0
5.9747046E+002	8.583059802702337E+001	-9.8124409E-001	-1.642330772245554E+000	1.6115274E-003	-9.8135084E-001	0
5.7485583E+002	8.603059802197095E+001	-9.8325610E-001	-1.710439365787977E+000	1.6818000E-003	-9.8335081E-001	0
5.5476740E+002	8.623059801691852E+001	-9.8530048E-001	-1.776060606921076E+000	1.7499534E-003	-9.8535073E-001	0
5.3404419E+002	8.643059801186610E+001	-9.8724234E-001	-1.848615528504592E+000	1.8250315E-003	-9.8735076E-001	0
5.1672296E+002	8.663059800681367E+001	-9.8922896E-001	-1.914428072502155E+000	1.8938077E-003	-9.8935086E-001	0
4.9769870E+002	8.683059800176125E+001	-9.9122441E-001	-1.991615372129182E+000	1.9741377E-003	-9.9135071E-001	0
4.8206818E+002	8.703059799670882E+001	-9.9326271E-001	-2.060419535657175E+000	2.0465378E-003	-9.9335074E-001	0
4.6503986E+002	8.723059799165640E+001	-9.9530697E-001	-2.140261694146929E+000	2.1302174E-003	-9.9535078E-001	0
4.5030142E+002	8.743059798660397E+001	-9.9726784E-001	-2.214667252486656E+000	2.2086164E-003	-9.9735069E-001	0
4.3507977E+002	8.763059798155155E+001	-9.9925065E-001	-2.296706745177168E+000	2.2949858E-003	-9.9935067E-001	0
4.2156174E+002	8.783059797649912E+001	-1.0012412E+000	-2.375076027768655E+000	2.3780239E-003	-1.0013508E+000	0
4.0821750E+002	8.803059797144670E+001	-1.0032531E+000	-2.457643475898806E+000	2.4656383E-003	-1.0033507E+000	0
3.9610010E+002	8.823059796639427E+001	-1.0052499E+000	-2.537868258752380E+000	2.5511917E-003	-1.0053507E+000	0
3.8416693E+002	8.843059796134185E+001	-1.0072583E+000	-2.621928641365621E+000	2.6409593E-003	-1.0073507E+000	0
3.7265054E+002	8.863059795628942E+001	-1.0092520E+000	-2.708306738663286E+000	2.7333638E-003	-1.0093507E+000	0
3.6185995E+002	8.883059795123700E+001	-1.0112976E+000	-2.794721021775203E+000	2.8262946E-003	-1.0113508E+000	0
3.5078040E+002	8.903059794618457E+001	-1.0132061E+000	-2.888434183181967E+000	2.9265792E-003	-1.0133507E+000	0
3.4107550E+002	8.923059794113215E+001	-1.0152296E+000	-2.976553861448828E+000	3.0218856E-003	-1.0153508E+000	0
3.3114594E+002	8.943059793607972E+001	-1.0172551E+000	-3.071923882765972E+000	3.1249302E-003	-1.0173507E+000	0
3.2180511E+002	8.963059793102730E+001	-1.0192900E+000	-3.167413700160792E+000	3.2285131E-003	-1.0193508E+000	0
3.1311310E+002	8.983079792596982E+001	-1.0212436E+000	-3.261580487005944E+000	3.3308682E-003	-1.0213523E+000	0
3.0420572E+002	9.003109792090982E+001	-1.0232292E+000	-3.363609545042436E+000	3.4417436E-003	-1.0233556E+000	0
2.9602914E+002	9.023119791585486E+001	-1.0252050E+000	-3.463189391355940E+000	3.5504792E-003	-1.0253568E+000	0
2.8867456E+002	9.043119791080244E+001	-1.0272914E+000	-3.558648843343558E+000	3.6557694E-003	-1.0273567E+000	0
2.8075891E+002	9.063119790575001E+001	-1.0292420E+000	-3.665928271994048E+000	3.7731274E-003	-1.0293567E+000	0
2.7312488E+002	9.083119790069759E+001	-1.0312196E+000	-3.775633892910292E+000	3.8935076E-003	-1.0313567E+000	0
2.6581244E+002	9.103119789564516E+001	-1.0332701E+000	-3.887215225942533E+000	4.0165433E-003	-1.0333568E+000	0
2.5875995E+002	9.123119789059274E+001	-1.0352877E+000	-4.000958338244700E+000	4.1421433E-003	-1.0353568E+000	0
2.5183965E+002	9.143119788554031E+001	-1.0372829E+000	-4.118823101494854E+000	4.2723850E-003	-1.0373567E+000	0
2.4499040E+002	9.163119788048789E+001	-1.0391849E+000	-4.241737245567251E+000	4.4079493E-003	-1.0393567E+000	0
2.3861797E+002	9.183119787543546E+001	-1.0412942E+000	-4.363855034146738E+000	4.5440570E-003	-1.0413567E+000	0
2.3253372E+002	9.203129787038051E+001	-1.0432781E+000	-4.486567036233241E+000	4.6807369E-003	-1.0433576E+000	0
2.2649690E+002	9.223139786532556E+001	-1.0452342E+000	-4.614783759492862E+000	4.8235296E-003	-1.0453588E+000	0
2.2061009E+002	9.243139786027314E+001	-1.0472424E+000	-4.747028676459294E+000	4.9712895E-003	-1.0473588E+000	0
2.1458160E+002	9.263139785522071E+001	-1.0493305E+000	-4.890123235327863E+000	5.1313555E-003	-1.0493587E+000	0
2.0852219E+002	9.283149785016576E+001	-1.0512887E+000	-5.041615618241792E+000	5.3001936E-003	-1.0513595E+000	0
2.0321069E+002	9.303159784511081E+001	-1.0532848E+000	-5.183215085003109E+000	5.4594013E-003	-1.0533608E+000	0
1.9786501E+002	9.323159784005838E+001	-1.0552539E+000	-5.333200994566447E+000	5.6278808E-003	-1.0553608E+000	0
1.9285883E+002	9.343159783500596E+001	-1.0572593E+000	-5.482037657850725E+000	5.7959356E-003	-1.0573609E+000	0
1.8806802E+002	9.363159782995353E+001	-1.0592636E+000	-5.632342753463057E+000	5.9661358E-003	-1.0593607E+000	0
1.8340933E+002	9.383159782490111E+001	-1.0613037E+000	-5.786530595010909E+000	6.1412663E-003	-1.0613607E+000	0
1.7878772E+002	9.403169781984616E+001	-1.0632931E+000	-5.947237931110823E+000	6.3236570E-003	-1.0633615E+000	0
1.7436371E+002	9.423179781479121E+001	-1.0653055E+000	-6.109674275529642E+000	6.5086694E-003	-1.0653628E+000	0
1.6999641E+002	9.443189780973626E+001	-1.0672685E+000	-6.278182145275252E+000	6.7005060E-003	-1.0673636E+000	0
1.6584734E+002	9.463209780467878E+001	-1.0692843E+000	-6.447401108852304E+000	6.8941051E-003	-1.0693657E+000	0
1.6182834E+002	9.483219779962383E+001	-1.0712756E+000	-6.619827140080432E+000	7.0916591E-003	-1.0713668E+000	0
1.5776974E+002	9.503219779457140E+001	-1.0732991E+000	-6.802946089076352E+000	7.3015955E-003	-1.0733666E+000	0
1.5381865E+002	9.523239778951393E+001	-1.0752261E+000	-6.990218907329762E+000	7.5160656E-003	-1.0753686E+000	0
1.5010309E+002	9.543259778445645E+001	-1.0773073E+000	-7.177116148804316E+000	7.7319602E-003	-1.0773708E+000	0
1.4641515E+002	9.563269777940150E+001	-1.0792679E+000	-7.371285599187388E+000	7.9555912E-003	-1.0793716E+000	0
1.4277946E+002	9.583279777434655E+001	-1.0812755E+000	-7.573046211212409E+000	8.1885494E-003	-1.0813727E+000	0
1.3931921E+002	9.603289776929159E+001	-1.0832834E+000	-7.775549664653141E+000	8.4231244E-003	-1.0833735E+000	0
1.3587109E+002	9.623309776423412E+001	-1.0852814E+000	-7.987580835316638E+000	8.6687729E-003	-1.0853754E+000	0
1.3252396E+002	9.643319775917917E+001	-1.0872937E+000	-8.204506930918363E+000	8.9207087E-003	-1.0873767E+000	0
1.2929865E+002	9.663319775412674E+001	-1.0892893E+000	-8.424599477628419E+000	9.1768261E-003	-1.0893768E+000	0
1.2609458E+002	9.683319774907432E+001	-1.0913173E+000	-8.654751655331012E+000	9.4450805E-003	-1.0913768E+000	0
1.2306639E+002	9.703319774402189E+001	-1.0932981E+000	-8.883806870164818E+000	9.7126486E-003	-1.0933768E+000	0
1.2006009E+002	9.723319773896947E+001	-1.0953027E+000	-9.122954203495908E+000	9.9923965E-003	-1.0953767E+000	0
1.1711887E+002	9.743329773391451E+001	-1.0972610E+000	-9.368780813089955E+000	1.0279997E-002	-1.0973777E+000	0
1.1436784E+002	9.763349772885704E+001	-1.0992945E+000	-9.611920483199327E+000	1.0566331E-002	-1.0993795E+000	0
1.1167905E+002	9.783359772380209E+001	-1.1013091E+000	-9.861375004999189E+000	1.0860422E-002	-1.1013808E+000	0
1.0898563E+002	9.803379771874461E+001	-1.1033421E+000	-1.012373904152903E+001	1.1169947E-002	-1.1033823E+000	0
1.0639907E+002	9.823419771368208E+001	-1.1052941E+000	-1.038819327976078E+001	1.1482009E-002	-1.1053863E+000	0
1.0408557E+002	9.843449770862208E+001	-1.1073074E+000	-1.063843345643547E+001	1.1780016E-002	-1.1073896E+000	0
1.0136194E+002	9.864469770331198E+001	-1.1094211E+000	-1.094514512392053E+001	1.2142776E-002	-1.1094917E+000	0
9.8728493E+001	9.885489769800188E+001	-1.1115240E+000	-1.125839134439024E+001	1.2513972E-002	-1.1115936E+000	0
9.6208107E+001	9.905509769294440E+001	-1.1135677E+000	-1.157457271231354E+001	1.2889070E-002	-1.1135958E+000	0
9.3614334E+001	9.925519768788945E+001	-1.1155137E+000	-1.191605676132806E+001	1.3292524E-002	-1.1155968E+000	0
9.1293571E+001	9.945529768283450E+001	-1.1174692E+000	-1.224039303000762E+001	1.3678262E-002	-1.1175976E+000	0
8.9055923E+001	9.965539767777955E+001	-1.1195112E+000	-1.257087931705985E+001	1.4073241E-002	-1.1195987E+000	0
8.7001884E+001	9.985579767271702E+001	-1.1214559E+000	-1.289001808878118E+001	1.4455587E-002	-1.1216023E+000	0
8.4906654E+001	1.000560976676570E+002	-1.1234422E+000	-1.323149735218229E+001	1.4864822E-002	-1.1236056E+000	0
8.2921867E+001	1.002562976625995E+002	-1.1255449E+000	-1.357355930522172E+001	1.5277650E-002	-1.1256075E+000	0
8.0944084E+001	1.004563976575446E+002	-1.1275034E+000	-1.392941094742338E+001	1.5705459E-002	-1.1276088E+000	0
7.9067757E+001	1.006564976524896E+002	-1.1295712E+000	-1.428611612275125E+001	1.6137185E-002	-1.1296095E+000	0
7.7170921E+001	1.008567976474296E+002	-1.1315680E+000	-1.466313901390185E+001	1.6592339E-002	-1.1316123E+000	0
7.5466820E+001	1.010571976423671E+002	-1.1335280E+000	-1.502021627232548E+001	1.7025836E-002	-1.1336163E+000	0
7.3745071E+001	1.012574976373071E+002	-1.1355402E+000	-1.539818498735093E+001	1.7485259E-002	-1.1356196E+000	0
7.1950211E+001	1.014577976322471E+002	-1.1375364E+000	-1.581004984534168E+001	1.7984508E-002	-1.1376224E+000	0
7.0054581E+001	1.016579976271896E+002	-1.1395395E+000	-1.626645142002178E+001	1.8536264E-002	-1.1396248E+000	0
6.8318886E+001	1.018580976221347E+002	-1.1415523E+000	-1.670917734711620E+001	1.9074401E-002	-1.1416255E+000	0
6.6612457E+001	1.020583976170747E+002	-1.1435416E+000	-1.716708364906328E+001	1.9631274E-002	-1.1436284E+000	0
6.5089127E+001	1.022587976120121E+002	-1.1454942E+000	-1.759885773971777E+001	2.0159390E-002	-1.1456326E+000	0
6.3620552E+001	1.024588976069572E+002	-1.1475742E+000	-1.803779088008724E+001	2.0699704E-002	-1.1476336E+000	0
6.2262848E+001	1.026590976018997E+002	-1.1494910E+000	-1.846190777719278E+001	2.1221796E-002	-1.1496356E+000	0
6.0781155E+001	1.028591975968448E+002	-1.1515321E+000	-1.894554371087736E+001	2.1816401E-002	-1.1516367E+000	0
5.9335960E+001	1.030593975917873E+002	-1.1535754E+000	-1.944142114493741E+001	2.2427145E-002	-1.1536382E+000	0
5.7953125E+001	1.032595975867298E+002	-1.1554850E+000	-1.993827024730695E+001	2.3038372E-002	-1.1556407E+000	0
5.6545956E+001	1.034597975816723E+002	-1.1575325E+000	-2.047064943535975E+001	2.3695441E-002	-1.1576422E+000	0
5.5180294E+001	1.036599975766148E+002	-1.1595759E+000	-2.101431303851462E+001	2.4367692E-002	-1.1596448E+000	0
5.3880054E+001	1.038601975715574E+002	-1.1615558E+000	-2.155817768824684E+001	2.5041025E-002	-1.1616464E+000	0
5.2598347E+001	1.040604975664974E+002	-1.1635528E+000	-2.212146998971684E+001	2.5739497E-002	-1.1636497E+000	0
5.1377396E+001	1.042606975614399E+002	-1.1655103E+000	-2.268527340087394E+001	2.6439920E-002	-1.1656516E+000	0
5.0153049E+001	1.044607975563849E+002	-1.1675605E+000	-2.327995033950776E+001	2.7180750E-002	-1.1676528E+000	0
4.9006653E+001	1.046608975513300E+002	-1.1695484E+000	-2.386509385183706E+001	2.7911382E-002	-1.1696534E+000	0
4.7860451E+001	1.048610975462725E+002	-1.1715934E+000	-2.447936547408784E+001	2.8679864E-002	-1.1716557E+000	0
4.6696629E+001	1.050613975412125E+002	-1.1736053E+000	-2.513254900076879E+001	2.9495694E-002	-1.1736584E+000	0
4.5659779E+001	1.052615975361550E+002	-1.1755610E+000	-2.574609467258801E+001	3.0266104E-002	-1.1756608E+000	0
4.4667343E+001	1.054616975311001E+002	-1.1775771E+000	-2.636326727563176E+001	3.1044781E-002	-1.1776615E+000	0
4.3689529E+001	1.056618975260426E+002	-1.1795566E+000	-2.699861018952026E+001	3.1846389E-002	-1.1796637E+000	0
4.2672943E+001	1.058621975209826E+002	-1.1815851E+000	-2.768932813190168E+001	3.2717295E-002	-1.1816664E+000	0
4.1807487E+001	1.060623975159251E+002	-1.1835619E+000	-2.830980746491969E+001	3.3506408E-002	-1.1836687E+000	0
4.0966942E+001	1.062624975108702E+002	-1.1855437E+000	-2.893903277962613E+001	3.4308486E-002	-1.1856695E+000	0
4.0109295E+001	1.064625975058152E+002	-1.1875553E+000	-2.960798352510767E+001	3.5161119E-002	-1.1876708E+000	0
3.9196270E+001	1.066626975007603E+002	-1.1896200E+000	-3.035033815348227E+001	3.6105368E-002	-1.1896715E+000	0
3.8252777E+001	1.068629974957003E+002	-1.1916766E+000	-3.115268199170981E+001	3.7123922E-002	-1.1916744E+000	0
3.7370567E+001	1.070634974906352E+002	-1.1935897E+000	-3.193929792260997E+001	3.8122416E-002	-1.1936793E+000	0
3.6569565E+001	1.072635974855802E+002	-1.1956960E+000	-3.269647724666311E+001	3.9095048E-002	-1.1956807E+000	0
3.5741737E+001	1.074638974805202E+002	-1.1976568E+000	-3.350863136125588E+001	4.0131837E-002	-1.1976835E+000	0
3.4896297E+001	1.076644974754527E+002	-1.1996745E+000	-3.437827378597279E+001	4.1242737E-002	-1.1996889E+000	0
3.4112995E+001	1.078647974703927E+002	-1.2016906E+000	-3.522676950679625E+001	4.2331677E-002	-1.2016928E+000	0
3.3351948E+001	1.080648974653377E+002	-1.2036678E+000	-3.608987763800519E+001	4.3440223E-002	-1.2036936E+000	0
3.2606750E+001	1.082650974602802E+002	-1.2056688E+000	-3.697604709226525E+001	4.4580866E-002	-1.2056956E+000	0
3.1881023E+001	1.084653974552202E+002	-1.2076943E+000	-3.788129056906743E+001	4.5749020E-002	-1.2076982E+000	0
3.1166327E+001	1.086656974501602E+002	-1.2096919E+000	-3.881406783768463E+001	4.6953063E-002	-1.2097015E+000	0
3.0477400E+001	1.088657974451053E+002	-1.2116534E+000	-3.975579877478191E+001	4.8170246E-002	-1.2117028E+000	0
2.9758301E+001	1.090658974400503E+002	-1.2136871E+000	-4.078482317728242E+001	4.9500011E-002	-1.2137036E+000	0
2.9101324E+001	1.092661974349903E+002	-1.2156830E+000	-4.177414586492716E+001	5.0784118E-002	-1.2157062E+000	0
2.8437469E+001	1.094665974299278E+002	-1.2176963E+000	-4.282013694281694E+001	5.2141923E-002	-1.2177103E+000	0
2.7835659E+001	1.096668974248678E+002	-1.2197092E+000	-4.381822566562791E+001	5.3445492E-002	-1.2197134E+000	0
2.7256281E+001	1.098669974198128E+002	-1.2216715E+000	-4.482164810303928E+001	5.4757327E-002	-1.2217147E+000	0
2.6726910E+001	1.100669974147604E+002	-1.2236660E+000	-4.578404267223516E+001	5.6024373E-002	-1.2237148E+000	0
2.6280741E+001	1.102669974097080E+002	-1.2256985E+000	-4.663865797968413E+001	5.7164934E-002	-1.2257148E+000	0
2.5679300E+001	1.104670974046530E+002	-1.2276735E+000	-4.780790410751661E+001	5.8692500E-002	-1.2277156E+000	0
2.5046612E+001	1.106673973995930E+002	-1.2296883E+000	-4.909599512359591E+001	6.0372770E-002	-1.2297183E+000	0
2.4478914E+001	1.108676973945330E+002	-1.2317265E+000	-5.031785806606763E+001	6.1977841E-002	-1.2317216E+000	0
2.3949772E+001	1.110679973894730E+002	-1.2336828E+000	-5.151125205683047E+001	6.3548543E-002	-1.2337242E+000	0
2.3205294E+001	1.112684973844080E+002	-1.2357968E+000	-5.325495053613935E+001	6.5812297E-002	-1.2357295E+000	0
2.2717726E+001	1.114687973793480E+002	-1.2376521E+000	-5.447957686715250E+001	6.7426763E-002	-1.2377323E+000	0
2.2274019E+001	1.116689973742905E+002	-1.2396761E+000	-5.565570160591136E+001	6.8995044E-002	-1.2397348E+000	0
2.1828850E+001	1.118689973692381E+002	-1.2417630E+000	-5.688632300435302E+001	7.0639327E-002	-1.2417349E+000	0
2.1418459E+001	1.120689973641856E+002	-1.2437791E+000	-5.807042931753494E+001	7.2226785E-002	-1.2437347E+000	0
2.0964642E+001	1.122689973591332E+002	-1.2457097E+000	-5.941955391511874E+001	7.4019514E-002	-1.2457347E+000	0
2.0570534E+001	1.124691973540757E+002	-1.2476944E+000	-6.065444819734716E+001	7.5678214E-002	-1.2477363E+000	0
2.0033144E+001	1.126694973490157E+002	-1.2497576E+000	-6.238449669754891E+001	7.7965505E-002	-1.2497396E+000	0
1.9672445E+001	1.128696973439583E+002	-1.2517196E+000	-6.362806127719603E+001	7.9644494E-002	-1.2517415E+000	0
1.9357716E+001	1.130698973389008E+002	-1.2537096E+000	-6.476536459610440E+001	8.1196956E-002	-1.2537435E+000	0
1.8940454E+001	1.132699973338458E+002	-1.2556815E+000	-6.629627232108254E+001	8.3247006E-002	-1.2557447E+000	0
1.8444139E+001	1.134701973287883E+002	-1.2577509E+000	-6.819244190046311E+001	8.5769102E-002	-1.2577463E+000	0
1.8086403E+001	1.136705973237258E+002	-1.2597712E+000	-6.965294651942328E+001	8.7746777E-002	-1.2597502E+000	0
1.7597870E+001	1.138710973186608E+002	-1.2617849E+000	-7.170100401198680E+001	9.0471245E-002	-1.2617552E+000	0
1.7135572E+001	1.140714973135982E+002	-1.2637744E+000	-7.375151630050982E+001	9.3205281E-002	-1.2637596E+000	0
1.6852579E+001	1.142716973085408E+002	-1.2657514E+000	-7.510727579068760E+001	9.5067136E-002	-1.2657616E+000	0
1.6395168E+001	1.144718973034833E+002	-1.2678812E+000	-7.733261050267413E+001	9.8048560E-002	-1.2677637E+000	0
1.6031878E+001	1.146721972984233E+002	-1.2697829E+000	-7.920362804579338E+001	1.0057141E-001	-1.2697662E+000	0
1.5724696E+001	1.148723972933658E+002	-1.2717758E+000	-8.087761086184969E+001	1.0285819E-001	-1.2717688E+000	0
1.5346552E+001	1.150724972883108E+002	-1.2737635E+000	-8.299998349893997E+001	1.0572235E-001	-1.2737696E+000	0
1.4987790E+001	1.152726972832534E+002	-1.2757449E+000	-8.511894833671442E+001	1.0859007E-001	-1.2757716E+000	0
1.4728710E+001	1.154727972781984E+002	-1.2777895E+000	-8.675501410869276E+001	1.1085464E-001	-1.2777728E+000	0
1.4458595E+001	1.156727972731460E+002	-1.2798374E+000	-8.851740981121455E+001	1.1328789E-001	-1.2797728E+000	0
1.4135594E+001	1.158729972680885E+002	-1.2817587E+000	-9.067596704398716E+001	1.1622471E-001	-1.2817746E+000	0
1.3843305E+001	1.160732972630285E+002	-1.2837626E+000	-9.273526845731499E+001	1.1905007E-001	-1.2837774E+000	0
1.3572996E+001	1.162736972579660E+002	-1.2858279E+000	-9.473426978198927E+001	1.2181196E-001	-1.2857810E+000	0
1.3289691E+001	1.164739972529060E+002	-1.2877716E+000	-9.690004019672369E+001	1.2478512E-001	-1.2877848E+000	0
1.3101207E+001	1.166739972478535E+002	-1.2898196E+000	-9.845044283477637E+001	1.2698331E-001	-1.2897848E+000	0
1.2842694E+001	1.168740972427986E+002	-1.2917906E+000	-1.005856406377894E+002	1.2993559E-001	-1.2917856E+000	0
1.2642601E+001	1.170743972377386E+002	-1.2937428E+000	-1.023320136809596E+002	1.3239130E-001	-1.2937882E+000	0
1.2360653E+001	1.172745972326811E+002	-1.2957543E+000	-1.048289517383182E+002	1.3583256E-001	-1.2957908E+000	0
1.2031900E+001	1.174747972276236E+002	-1.2977425E+000	-1.078584787689983E+002	1.3997254E-001	-1.2977922E+000	0
1.1773233E+001	1.176851972223085E+002	-1.2999346E+000	-1.104144122553708E+002	1.4353152E-001	-1.2998967E+000	0
1.1488744E+001	1.178954972169959E+002	-1.3019723E+000	-1.133259029803967E+002	1.4754719E-001	-1.3019996E+000	0
1.1247937E+001	1.180955972119409E+002	-1.3039687E+000	-1.159295815026678E+002	1.5116854E-001	-1.3040009E+000	0
1.1010603E+001	1.182956972068860E+002	-1.3060441E+000	-1.186169466104516E+002	1.5491897E-001	-1.3060015E+000	0
1.0783852E+001	1.184959972018260E+002	-1.3079379E+000	-1.212867026642973E+002	1.5863547E-001	-1.3080043E+000	0
1.0664127E+001	1.186962971967660E+002	-1.3100100E+000	-1.228426800994952E+002	1.6092514E-001	-1.3100075E+000	0
1.0487818E+001	1.188964971917085E+002	-1.3120070E+000	-1.250981829837874E+002	1.6412969E-001	-1.3120096E+000	0
1.0183002E+001	1.190969971866434E+002	-1.3140370E+000	-1.290422017322421E+002	1.6956623E-001	-1.3140143E+000	0
9.9450226E+000	1.192972971815834E+002	-1.3160409E+000	-1.323316075106541E+002	1.7415380E-001	-1.3160176E+000	0
9.8789377E+000	1.194974971765259E+002	-1.3179933E+000	-1.334144710006458E+002	1.7583938E-001	-1.3180196E+000	0
9.7639666E+000	1.196975971714710E+002	-1.3200471E+000	-1.351957822829950E+002	1.7846480E-001	-1.3200207E+000	0
9.6175785E+000	1.198976971664160E+002	-1.3220544E+000	-1.374622973009054E+002	1.8173264E-001	-1.3220216E+000	0
9.5104713E+000	1.200979971613560E+002	-1.3240077E+000	-1.392157933772853E+002	1.8432279E-001	-1.3240243E+000	0
9.4003382E+000	1.202982971562960E+002	-1.3260366E+000	-1.410626420890080E+002	1.8705422E-001	-1.3260276E+000	0
9.2612524E+000	1.204983971512411E+002	-1.3280483E+000	-1.433983593084372E+002	1.9043995E-001	-1.3280289E+000	0
9.1142740E+000	1.206984971461861E+002	-1.3299814E+000	-1.459229157524435E+002	1.9407476E-001	-1.3300296E+000	0
9.0295935E+000	1.208987971411261E+002	-1.3320332E+000	-1.475186115077718E+002	1.9649968E-001	-1.3320323E+000	0
8.9343376E+000	1.210991971360636E+002	-1.3340335E+000	-1.493153245741029E+002	1.9919164E-001	-1.3340362E+000	0
8.8585558E+000	1.212993971310061E+002	-1.3360329E+000	-1.508183601113402E+002	2.0149828E-001	-1.3360387E+000	0
8.8051786E+000	1.214993971259537E+002	-1.3380576E+000	-1.519625830769266E+002	2.0333469E-001	-1.3380388E+000	0
8.6191912E+000	1.216994971208987E+002	-1.3400313E+000	-1.554706590803702E+002	2.0833555E-001	-1.3400397E+000	0
8.4567499E+000	1.218995971158438E+002	-1.3420753E+000	-1.586987124494954E+002	2.1298563E-001	-1.3420409E+000	0
8.3001661E+000	1.220996971107888E+002	-1.3440381E+000	-1.619290580648171E+002	2.1763884E-001	-1.3440416E+000	0
8.1459942E+000	1.222997971057339E+002	-1.3460706E+000	-1.652432579010253E+002	2.2242910E-001	-1.3460428E+000	0
8.0449324E+000	1.224999971006764E+002	-1.3480469E+000	-1.675647249958358E+002	2.2588511E-001	-1.3480442E+000	0
7.9957991E+000	1.227001970956189E+002	-1.3500450E+000	-1.688442834250782E+002	2.2794737E-001	-1.3500469E+000	0
7.9124341E+000	1.229002970905640E+002	-1.3520476E+000	-1.708763126554863E+002	2.3103291E-001	-1.3520477E+000	0
7.7128749E+000	1.231003970855090E+002	-1.3540510E+000	-1.755572320998656E+002	2.3771344E-001	-1.3540487E+000	0
7.5447955E+000	1.233005970804516E+002	-1.3560262E+000	-1.797300044980875E+002	2.4371859E-001	-1.3560504E+000	0
7.3494840E+000	1.235010970753865E+002	-1.3580395E+000	-1.847802460854539E+002	2.5093886E-001	-1.3580554E+000	0
7.1338787E+000	1.237013970703265E+002	-1.3600621E+000	-1.906483436920601E+002	2.5929359E-001	-1.3600583E+000	0
6.8653131E+000	1.239018970652614E+002	-1.3620168E+000	-1.983910687539717E+002	2.7021196E-001	-1.3620631E+000	0
6.6910481E+000	1.241022970601989E+002	-1.3640864E+000	-2.038673682134961E+002	2.7809271E-001	-1.3640677E+000	0
6.6741171E+000	1.242927970553865E+002	-1.3659669E+000	-2.046663075758688E+002	2.7956739E-001	-1.3659723E+000	0
6.6603079E+000	1.244432970515845E+002	-1.3674918E+000	-2.053196132702642E+002	2.8077289E-001	-1.3674765E+000	0
6.6491985E+000	1.245838970480327E+002	-1.3689436E+000	-2.058809947966686E+002	2.8183946E-001	-1.3688827E+000	0
6.6024537E+000	1.247244970444808E+002	-1.3702651E+000	-2.075387664188811E+002	2.8438315E-001	-1.3702888E+000	0
6.4827142E+000	1.248648970409340E+002	-1.3717254E+000	-2.115974026867216E+002	2.9025355E-001	-1.3716924E+000	0
6.1574702E+000	1.249854970378874E+002	-1.3729310E+000	-2.229699820672731E+002	3.0612239E-001	-1.3728985E+000	0
6.0836926E+000	1.250862970353410E+002	-1.3739012E+000	-2.258334442157411E+002	3.1027284E-001	-1.3739070E+000	0
6.0304923E+000	1.252265970317967E+002	-1.3752874E+000	-2.280555786219256E+002	3.1364197E-001	-1.3753103E+000	0
5.9735889E+000	1.253970970274895E+002	-1.3770572E+000	-2.305242629451296E+002	3.1744510E-001	-1.3770149E+000	0
5.9639368E+000	1.255278970241852E+002	-1.3783431E+000	-2.311129706463189E+002	3.1855297E-001	-1.3783228E+000	0
5.9509330E+000	1.256385970213887E+002	-1.3794404E+000	-2.318023887299255E+002	3.1975758E-001	-1.3794290E+000	0
5.9714441E+000	1.257691970180895E+002	-1.3807629E+000	-2.312276355055910E+002	3.1927055E-001	-1.3807358E+000	0
5.8970709E+000	1.259195970142900E+002	-1.3822145E+000	-2.343900154852228E+002	3.2397729E-001	-1.3822397E+000	0
5.8451543E+000	1.260302970114935E+002	-1.3833511E+000	-2.366663174531873E+002	3.2739261E-001	-1.3833462E+000	0
5.8445401E+000	1.261808970076891E+002	-1.3848552E+000	-2.369485218519330E+002	3.2813939E-001	-1.3848529E+000	0
5.8507123E+000	1.263213970041397E+002	-1.3863215E+000	-2.369491958100361E+002	3.2848778E-001	-1.3862584E+000	0
5.7983403E+000	1.264718970003378E+002	-1.3878103E+000	-2.393461367562441E+002	3.3216706E-001	-1.3877624E+000	0
5.7770405E+000	1.266125969967834E+002	-1.3891168E+000	-2.404547329485949E+002	3.3401969E-001	-1.3891692E+000	0
5.7799921E+000	1.267628969929865E+002	-1.3907138E+000	-2.406082461335845E+002	3.3461720E-001	-1.3906729E+000	0
5.7777233E+000	1.269232969889345E+002	-1.3923329E+000	-2.409829636064742E+002	3.3552852E-001	-1.3922759E+000	0
5.7987146E+000	1.270638969853826E+002	-1.3937173E+000	-2.403493538134217E+002	3.3497906E-001	-1.3936824E+000	0
5.8269887E+000	1.272044969818307E+002	-1.3950438E+000	-2.394107789016705E+002	3.3398855E-001	-1.3950884E+000	0
5.8490424E+000	1.273449969782814E+002	-1.3965071E+000	-2.387582487404879E+002	3.3342761E-001	-1.3964932E+000	0
5.8116651E+000	1.274655969752348E+002	-1.3977251E+000	-2.405033794149135E+002	3.3615762E-001	-1.3976994E+000	0
5.7460423E+000	1.276062969716804E+002	-1.3991418E+000	-2.434966137286685E+002	3.4068629E-001	-1.3991066E+000	0
5.6938658E+000	1.277467969681311E+002	-1.4005747E+000	-2.459795827819028E+002	3.4451279E-001	-1.4005116E+000	0
5.5895491E+000	1.278774969648293E+002	-1.4018418E+000	-2.507969272316222E+002	3.5157761E-001	-1.4018183E+000	0
5.5477195E+000	1.279983969617751E+002	-1.4030682E+000	-2.529089981614974E+002	3.5484856E-001	-1.4030274E+000	0
5.5042510E+000	1.281289969584759E+002	-1.4043611E+000	-2.551411766224271E+002	3.5831034E-001	-1.4043342E+000	0
5.4875474E+000	1.282498969554217E+002	-1.4055635E+000	-2.561369209151826E+002	3.6001670E-001	-1.4055426E+000	0
5.5118451E+000	1.283504969528803E+002	-1.4066138E+000	-2.551983590037516E+002	3.5896555E-001	-1.4065487E+000	0
5.5220752E+000	1.284810969495811E+002	-1.4078565E+000	-2.549506160680203E+002	3.5893387E-001	-1.4078546E+000	0
5.5421224E+000	1.286416969455240E+002	-1.4095069E+000	-2.543262063967827E+002	3.5847455E-001	-1.4094611E+000	0
5.5591087E+000	1.287524969427250E+002	-1.4105692E+000	-2.537401619907860E+002	3.5791805E-001	-1.4105685E+000	0
5.5289569E+000	1.288630969399310E+002	-1.4117284E+000	-2.553335948003623E+002	3.6046168E-001	-1.4116741E+000	0
5.4779487E+000	1.289638969373846E+002	-1.4126741E+000	-2.578837630661292E+002	3.6430570E-001	-1.4126823E+000	0
5.4121275E+000	1.290845969343354E+002	-1.4139280E+000	-2.612517971282514E+002	3.6939123E-001	-1.4138895E+000	0
5.3656826E+000	1.292052969312863E+002	-1.4151453E+000	-2.637400198128772E+002	3.7323046E-001	-1.4150968E+000	0
5.2892609E+000	1.293458969277344E+002	-1.4165690E+000	-2.678198513349198E+002	3.7938529E-001	-1.4165030E+000	0
5.2559018E+000	1.294370969254305E+002	-1.4175284E+000	-2.697022088636017E+002	3.8231054E-001	-1.4174142E+000	0
5.2343197E+000	1.295181969233818E+002	-1.4182863E+000	-2.709590448519173E+002	3.8429752E-001	-1.4182252E+000	0
5.2619686E+000	1.296287969205878E+002	-1.4194064E+000	-2.697481627858424E+002	3.8288227E-001	-1.4193312E+000	0
5.2348480E+000	1.297295969180414E+002	-1.4203721E+000	-2.713301635496146E+002	3.8538980E-001	-1.4203397E+000	0
5.2237110E+000	1.298502969149922E+002	-1.4215549E+000	-2.721350666449416E+002	3.8685495E-001	-1.4215463E+000	0
5.2107434E+000	1.299607969122007E+002	-1.4226791E+000	-2.730280417780909E+002	3.8843128E-001	-1.4226514E+000	0
5.1966438E+000	1.300714969094042E+002	-1.4238685E+000	-2.739977111304186E+002	3.9013672E-001	-1.4237583E+000	0
5.1839104E+000	1.301821969066077E+002	-1.4248985E+000	-2.748694403919826E+002	3.9166105E-001	-1.4248654E+000	0
5.1284404E+000	1.303227969030559E+002	-1.4262985E+000	-2.781154610725671E+002	3.9667568E-001	-1.4262716E+000	0
5.0943789E+000	1.304635968994990E+002	-1.4276665E+000	-2.802435018991114E+002	4.0009427E-001	-1.4276795E+000	0
5.0714512E+000	1.305845968964422E+002	-1.4288967E+000	-2.817530285769149E+002	4.0259597E-001	-1.4288893E+000	0
5.0117230E+000	1.307153968931380E+002	-1.4302392E+000	-2.853787273952844E+002	4.0815985E-001	-1.4301977E+000	0
4.9635000E+000	1.308357968900964E+002	-1.4314424E+000	-2.883937453530671E+002	4.1281903E-001	-1.4314011E+000	0
4.9690452E+000	1.309366968875474E+002	-1.4323996E+000	-2.882645574614931E+002	4.1291004E-001	-1.4324101E+000	0
4.9652600E+000	1.310576968844907E+002	-1.4336785E+000	-2.887418693820346E+002	4.1396302E-001	-1.4336208E+000	0
4.9768777E+000	1.311985968809313E+002	-1.4351404E+000	-2.883615967670030E+002	4.1383937E-001	-1.4350293E+000	0
4.9716277E+000	1.313192968778822E+002	-1.4363101E+000	-2.889013606056569E+002	4.1495192E-001	-1.4362364E+000	0
4.9374156E+000	1.314398968748355E+002	-1.4374756E+000	-2.911392804135310E+002	4.1850561E-001	-1.4374429E+000	0
4.8906617E+000	1.315704968715363E+002	-1.4388129E+000	-2.941959469135422E+002	4.2329291E-001	-1.4387485E+000	0
4.7720242E+000	1.316811968687398E+002	-1.4399053E+000	-3.017389003860499E+002	4.3447545E-001	-1.4398556E+000	0
4.7056737E+000	1.317820968661908E+002	-1.4409245E+000	-3.062100289580244E+002	4.4122553E-001	-1.4408643E+000	0
4.6895418E+000	1.319028968631392E+002	-1.4421729E+000	-3.075296078627953E+002	4.4351086E-001	-1.4420727E+000	0
4.6310964E+000	1.320138968603351E+002	-1.4432834E+000	-3.116504861349381E+002	4.4979998E-001	-1.4431823E+000	0
4.5488858E+000	1.320948968582888E+002	-1.4439930E+000	-3.174388178079171E+002	4.5837942E-001	-1.4439927E+000	0
4.5502596E+000	1.322253968549921E+002	-1.4454007E+000	-3.176523725867320E+002	4.5913497E-001	-1.4452977E+000	0
4.5695620E+000	1.323560968516904E+002	-1.4467051E+000	-3.165960202982169E+002	4.5802107E-001	-1.4466044E+000	0
4.5863075E+000	1.324869968483836E+002	-1.4479704E+000	-3.157159388143129E+002	4.5714733E-001	-1.4479133E+000	0
4.6140537E+000	1.326276968448292E+002	-1.4493842E+000	-3.141238332155158E+002	4.5528612E-001	-1.4493210E+000	0
4.6010480E+000	1.327878968407822E+002	-1.4509602E+000	-3.153542744699384E+002	4.5756650E-001	-1.4509230E+000	0
4.5951686E+000	1.329182968374880E+002	-1.4523443E+000	-3.160589933790934E+002	4.5902649E-001	-1.4522266E+000	0
4.5978098E+000	1.330588968339362E+002	-1.4536757E+000	-3.161669943543279E+002	4.5960429E-001	-1.4536325E+000	0
4.6158080E+000	1.331696968311371E+002	-1.4548472E+000	-3.151879823822578E+002	4.5855036E-001	-1.4547403E+000	0
4.6223369E+000	1.332209968298412E+002	-1.4552344E+000	-3.148265442450693E+002	4.5814642E-001	-1.4552531E+000	0
4.6212153E+000	1.333019968277949E+002	-1.4561297E+000	-3.150966955034401E+002	4.5882165E-001	-1.4560636E+000	0
4.5907040E+000	1.334224968247509E+002	-1.4572706E+000	-3.174394645253578E+002	4.6259519E-001	-1.4572680E+000	0
4.4306407E+000	1.335233968222019E+002	-1.4583286E+000	-3.291462087148024E+002	4.8000333E-001	-1.4582777E+000	0
4.3015847E+000	1.336539968189027E+002	-1.4596460E+000	-3.393274899052221E+002	4.9529800E-001	-1.4595833E+000	0
4.2685733E+000	1.337847968155984E+002	-1.4610262E+000	-3.422750573918788E+002	5.0007284E-001	-1.4608914E+000	0
4.0708146E+000	1.338660968135446E+002	-1.4617794E+000	-3.590876851822559E+002	5.2490699E-001	-1.4617043E+000	0
3.9038355E+000	1.339372968117459E+002	-1.4624748E+000	-3.746251125373165E+002	5.4787982E-001	-1.4624165E+000	0
3.9395812E+000	1.340380968091995E+002	-1.4635465E+000	-3.714980053144363E+002	5.4370463E-001	-1.4634248E+000	0
3.9879174E+000	1.341188968071583E+002	-1.4642649E+000	-3.671753278687179E+002	5.3764194E-001	-1.4642322E+000	0
3.9493549E+000	1.342296968043593E+002	-1.4654070E+000	-3.710497105500240E+002	5.4373884E-001	-1.4653406E+000	0
3.8993323E+000	1.343601968010626E+002	-1.4667634E+000	-3.761575844978261E+002	5.5173415E-001	-1.4666454E+000	0
3.9306395E+000	1.344908967977608E+002	-1.4681050E+000	-3.735028179580731E+002	5.4834133E-001	-1.4679524E+000	0
3.9658668E+000	1.346016967949618E+002	-1.4690863E+000	-3.704325946572826E+002	5.4419744E-001	-1.4690607E+000	0
3.9756134E+000	1.347222967919151E+002	-1.4704059E+000	-3.698563676932708E+002	5.4383898E-001	-1.4702667E+000	0
3.9271524E+000	1.348330967891161E+002	-1.4713991E+000	-3.746732705627765E+002	5.5129391E-001	-1.4713743E+000	0
3.8896000E+000	1.349440967863120E+002	-1.4725893E+000	-3.785965742759199E+002	5.5751723E-001	-1.4724845E+000	0
3.8429253E+000	1.350646967832654E+002	-1.4737732E+000	-3.835029575655235E+002	5.6519639E-001	-1.4736907E+000	0
3.8393478E+000	1.351752967804714E+002	-1.4748913E+000	-3.841515155333309E+002	5.6658173E-001	-1.4747963E+000	0
3.8357742E+000	1.352956967774298E+002	-1.4761020E+000	-3.848250497902836E+002	5.6804103E-001	-1.4760004E+000	0
3.7725170E+000	1.354360967738830E+002	-1.4774859E+000	-3.916445900253750E+002	5.7864934E-001	-1.4774048E+000	0
3.7889800E+000	1.356261967690807E+002	-1.4793770E+000	-3.904420272671459E+002	5.7761097E-001	-1.4793065E+000	0
3.8253984E+000	1.357666967655314E+002	-1.4808142E+000	-3.871006435858883E+002	5.7322413E-001	-1.4807101E+000	0
3.8356292E+000	1.358772967627374E+002	-1.4818934E+000	-3.863494979264051E+002	5.7252878E-001	-1.4818164E+000	0
3.8461213E+000	1.359583967606886E+002	-1.4827263E+000	-3.855121066661877E+002	5.7160896E-001	-1.4826272E+000	0
3.8469975E+000	1.361087967568892E+002	-1.4842312E+000	-3.858154851281975E+002	5.7263941E-001	-1.4841324E+000	0
3.8699625E+000	1.362492967533399E+002	-1.4856367E+000	-3.838891778327306E+002	5.7031983E-001	-1.4855366E+000	0
3.8860910E+000	1.363700967502882E+002	-1.4868795E+000	-3.826157108435436E+002	5.6890345E-001	-1.4867444E+000	0
3.8529463E+000	1.365204967464888E+002	-1.4883020E+000	-3.862763369534350E+002	5.7489586E-001	-1.4882493E+000	0
3.7690804E+000	1.367103967416915E+002	-1.4902622E+000	-3.953914370590865E+002	5.8923692E-001	-1.4901485E+000	0
3.7901952E+000	1.369103967366391E+002	-1.4922698E+000	-3.937184529942460E+002	5.8753413E-001	-1.4921486E+000	0
3.6674955E+000	1.371103967315867E+002	-1.4942299E+000	-4.074251451254431E+002	6.0878682E-001	-1.4941486E+000	0
3.6007125E+000	1.373103967265342E+002	-1.4962605E+000	-4.155456826346256E+002	6.2176460E-001	-1.4961486E+000	0
3.6026013E+000	1.375103967214818E+002	-1.4983264E+000	-4.159012687449554E+002	6.2315583E-001	-1.4981484E+000	0
3.5830479E+000	1.377103967164294E+002	-1.5002580E+000	-4.187099984486899E+002	6.2817299E-001	-1.5001485E+000	0
3.6041012E+000	1.379103967113770E+002	-1.5022935E+000	-4.168288712014937E+002	6.2619931E-001	-1.5021486E+000	0
3.6434238E+000	1.381103967063245E+002	-1.5042821E+000	-4.128759605208779E+002	6.2108195E-001	-1.5041485E+000	0
3.5826206E+000	1.383103967012721E+002	-1.5062951E+000	-4.204450521879990E+002	6.3331431E-001	-1.5061486E+000	0
3.5484035E+000	1.385103966962197E+002	-1.5082885E+000	-4.250611470799840E+002	6.4111483E-001	-1.5081484E+000	0
3.4992907E+000	1.387103966911673E+002	-1.5103042E+000	-4.316029491900326E+002	6.5185177E-001	-1.5101485E+000	0
3.5374722E+000	1.389103966861148E+002	-1.5122601E+000	-4.274973642604436E+002	6.4648718E-001	-1.5121486E+000	0
3.5321670E+000	1.391103966810624E+002	-1.5143278E+000	-4.287248677234275E+002	6.4922994E-001	-1.5141487E+000	0
3.5428150E+000	1.393103966760100E+002	-1.5162942E+000	-4.279913585732047E+002	6.4896083E-001	-1.5161486E+000	0
3.5507059E+000	1.395103966709576E+002	-1.5182692E+000	-4.275964411218702E+002	6.4920652E-001	-1.5181484E+000	0
3.5563385E+000	1.397103966659051E+002	-1.5203173E+000	-4.274951054839048E+002	6.4992821E-001	-1.5201485E+000	0
3.5338225E+000	1.399103966608527E+002	-1.5223436E+000	-4.307923208829220E+002	6.5581393E-001	-1.5221486E+000	0
3.5634530E+000	1.401103966558003E+002	-1.5242777E+000	-4.277530055100151E+002	6.5201437E-001	-1.5241487E+000	0
3.6018713E+000	1.403103966507479E+002	-1.5262963E+000	-4.237509261669748E+002	6.4676946E-001	-1.5261486E+000	0
3.5226796E+000	1.405103966456954E+002	-1.5283295E+000	-4.338542595082672E+002	6.6307229E-001	-1.5281485E+000	0
3.5180848E+000	1.407103966406430E+002	-1.5302846E+000	-4.349766123851678E+002	6.6563803E-001	-1.5301485E+000	0
3.5680931E+000	1.409103966355906E+002	-1.5322511E+000	-4.294313798285930E+002	6.5799671E-001	-1.5321486E+000	0
3.5751374E+000	1.411103966305382E+002	-1.5342591E+000	-4.291468904499561E+002	6.5842253E-001	-1.5341487E+000	0
3.5463669E+000	1.413103966254857E+002	-1.5363082E+000	-4.332061974661719E+002	6.6553819E-001	-1.5361485E+000	0
3.2787247E+000	1.415103966204333E+002	-1.5383559E+000	-4.691934034689211E+002	7.2178644E-001	-1.5381485E+000	0
3.3143687E+000	1.417103966153809E+002	-1.5402201E+000	-4.647099460376903E+002	7.1575564E-001	-1.5401486E+000	0
3.2493794E+000	1.419103966103285E+002	-1.5423214E+000	-4.746510822789178E+002	7.3206455E-001	-1.5421486E+000	0
3.3056178E+000	1.421103966052760E+002	-1.5442989E+000	-4.671740738918471E+002	7.2145641E-001	-1.5441487E+000	0
3.2511313E+000	1.423103966002236E+002	-1.5462258E+000	-4.755962316898003E+002	7.3537916E-001	-1.5461485E+000	0
3.2101104E+000	1.425103965951712E+002	-1.5482917E+000	-4.823172482990103E+002	7.4676776E-001	-1.5481485E+000	0
3.2497070E+000	1.427103965901188E+002	-1.5502348E+000	-4.770383442080765E+002	7.3952144E-001	-1.5501486E+000	0
3.2809811E+000	1.429103965850663E+002	-1.5522610E+000	-4.731087869224648E+002	7.3438829E-001	-1.5521486E+000	0
3.2953017E+000	1.431103965800139E+002	-1.5542735E+000	-4.716634792708498E+002	7.3309404E-001	-1.5541486E+000	0
3.3379345E+000	1.433103965749615E+002	-1.5562172E+000	-4.662216151879754E+002	7.2554207E-001	-1.5561486E+000	0
3.3695898E+000	1.435103965699091E+002	-1.5582728E+000	-4.624517941464092E+002	7.2062606E-001	-1.5581485E+000	0
3.3197205E+000	1.437103965648566E+002	-1.5602968E+000	-4.700084651073366E+002	7.3335272E-001	-1.5601486E+000	0
3.3037393E+000	1.439103965598042E+002	-1.5622778E+000	-4.728816719444421E+002	7.3877251E-001	-1.5621487E+000	0
3.2946301E+000	1.441103965547518E+002	-1.5646067E+000	-4.748960152753625E+002	7.4302548E-001	-1.5641487E+000	0
3.2725561E+000	1.443103965496994E+002	-1.5667896E+000	-4.787663106507462E+002	7.5012606E-001	-1.5661488E+000	0
3.2628894E+000	1.445103965446469E+002	-1.5688028E+000	-4.808017363732106E+002	7.5428313E-001	-1.5681486E+000	0
3.0341523E+000	1.447103965395945E+002	-1.5708227E+000	-5.177138653580024E+002	8.1323671E-001	-1.5701486E+000	0
2.9993868E+000	1.449103965345421E+002	-1.5727854E+000	-5.243689773672013E+002	8.2471985E-001	-1.5721487E+000	0
3.0248384E+000	1.451103965294897E+002	-1.5748630E+000	-5.206436594792212E+002	8.1994241E-001	-1.5741485E+000	0
3.0513146E+000	1.453103965244372E+002	-1.5768698E+000	-5.167837469053379E+002	8.1490070E-001	-1.5761486E+000	0
3.0483415E+000	1.455103965193848E+002	-1.5788292E+000	-5.179305378704107E+002	8.1772387E-001	-1.5781487E+000	0
3.0693212E+000	1.457103965143324E+002	-1.5808333E+000	-5.150433208353124E+002	8.1419766E-001	-1.5801486E+000	0
3.1031115E+000	1.459103965092800E+002	-1.5828130E+000	-5.100728700944901E+002	8.0734998E-001	-1.5821487E+000	0
3.1691558E+000	1.461103965042275E+002	-1.5848144E+000	-5.000746445385502E+002	7.9252553E-001	-1.5841485E+000	0
3.2108188E+000	1.463103964991751E+002	-1.5868081E+000	-4.942066938914935E+002	7.8421116E-001	-1.5861486E+000	0
3.2021070E+000	1.465103964941227E+002	-1.5887887E+000	-4.961698050682776E+002	7.8830898E-001	-1.5881485E+000	0
3.1651995E+000	1.467103964890703E+002	-1.5908103E+000	-5.025940050570607E+002	7.9953170E-001	-1.5901486E+000	0
3.0783081E+000	1.469103964840178E+002	-1.5928273E+000	-5.174359805308241E+002	8.2418615E-001	-1.5921487E+000	0
2.8893902E+000	1.471103964789654E+002	-1.5948448E+000	-5.519658910833550E+002	8.8029993E-001	-1.5941488E+000	0
2.8442903E+000	1.473103964739130E+002	-1.5968485E+000	-5.614224966313013E+002	8.9650667E-001	-1.5961486E+000	0
2.8773584E+000	1.475103964688606E+002	-1.5988383E+000	-5.556618747624689E+002	8.8841349E-001	-1.5981485E+000	0
2.8904996E+000	1.477103964638081E+002	-1.6008586E+000	-5.538345821536304E+002	8.8661087E-001	-1.6001486E+000	0
2.9177582E+000	1.479103964587557E+002	-1.6028911E+000	-5.493570584018212E+002	8.8055950E-001	-1.6021487E+000	0
2.9306951E+000	1.481103964537033E+002	-1.6048948E+000	-5.476157402116442E+002	8.7886566E-001	-1.6041485E+000	0
2.9443285E+000	1.483103964486509E+002	-1.6068182E+000	-5.457333334276213E+002	8.7689424E-001	-1.6061486E+000	0
2.9472127E+000	1.485103964435984E+002	-1.6088545E+000	-5.458902142410116E+002	8.7825793E-001	-1.6081486E+000	0
2.9619622E+000	1.487103964385460E+002	-1.6108615E+000	-5.438494398502016E+002	8.7606615E-001	-1.6101485E+000	0
2.9145982E+000	1.489103964334936E+002	-1.6128386E+000	-5.533656590606629E+002	8.9248949E-001	-1.6121486E+000	0
2.8325288E+000	1.491103964284412E+002	-1.6149113E+000	-5.701305986088682E+002	9.2071038E-001	-1.6141487E+000	0
2.8523152E+000	1.493103964233887E+002	-1.6168952E+000	-5.668711414207373E+002	9.1657120E-001	-1.6161486E+000	0
2.8713806E+000	1.495103964183363E+002	-1.6188788E+000	-5.637980985187351E+002	9.1272080E-001	-1.6181486E+000	0
2.8861980E+000	1.497103964132839E+002	-1.6208897E+000	-5.616002740103081E+002	9.1029209E-001	-1.6201485E+000	0
2.8814359E+000	1.498403964099998E+002	-1.6221846E+000	-5.629778606064501E+002	9.1325402E-001	-1.6214483E+000	0
2.8865662E+000	1.498609964094794E+002	-1.6224794E+000	-5.620794067382813E+002	9.1196227E-001	-1.6218483E+000	1