EC-Lab ASCII FILE
Nb header lines : 63                          

Linear Sweep Voltammetry

Run on channel : 1 (SN 1340)
User : 
Electrode connection : standard
Potential control : Ewe
Ewe ctrl range : min = -5.00 V, max = 5.00 V
Ewe,I filtering : <None>
Safety Limits :
	Do not start on E overload
Channel : Floating
Acquisition started on : 02/17/2026 15:18:06.716
Technique started on : 02/17/2026 15:18:09.399
Loaded Setting File :  C:\Users\volt\Documents\Platalytix\X18_75_2-17_01_ZIR_C01.mpr
Saved on :
	File : Ni40_2-17_02_LSV_C01.mpr
	Directory : C:\Users\volt\Documents\Platalytix\
	Host : 127.0.0.1
Device : SP-200 (SN 0262)
Address : USB
EC-LAB for windows v11.60 (software)
Internet server v11.60 (firmware)
Command interpretor v11.60 (firmware)
Electrode material : Pt20Pd20Ni40Co20
Initial state : 
Electrolyte : KOH (1M)
Comments : 
Cable : standard
Reference electrode : Hg/HgO (0.140 V)
Electrode surface area : 1.000 cm˛
Characteristic mass : 0.001 g
Equivalent Weight : 0.000 g/eq.
Density : 0.000 g/cm3
Volume (V) : 0.001 cmł
Cycle Definition : Charge/Discharge alternance
tR (h:m:s)          0:00:5.0000         
dER/dt (mV/h)       0.0                 
dER (mV)            0                   
dtR (s)             0.0000              
dE/dt               10.000              
dE/dt unit          mV/s                
Ei (V)              -0.200              
vs.                 Ref                 
EL (V)              -2.500              
vs.                 Ref                 
record              <I>                 
dI                  0.000               
unit dI             µA                  
tI (s)              0.0000              
step percent        50                  
N                   10                  
E range min (V)     -5.000              
E range max (V)     5.000               
I Range             Auto                
I Range min         Unset               
I Range max         Unset               
I Range init        Unset               
Bandwidth           8                   

Rwe/Ohm	time/s	Ewe/V	<I>/mA	Pwe/W	control/V	error	
0.0000000E+000	2.683400127425557E+000	-1.5603317E-001	0.000000000000000E+000	0.0000000E+000	0.0000000E+000	0
0.0000000E+000	7.683200001119985E+000	-5.0378609E-002	0.000000000000000E+000	0.0000000E+000	-1.9988415E-001	0
4.6477920E+003	7.883199996067560E+000	-2.0161378E-001	4.337840004358440E-002	-8.7456838E-006	-2.0178393E-001	0
1.9666533E+003	8.003199993036105E+000	-2.0275395E-001	-1.030959234748761E-001	2.0903106E-005	-2.0298398E-001	0
1.8104982E+003	8.213199987731059E+000	-2.0486134E-001	-1.131519189647181E-001	2.3180453E-005	-2.0508395E-001	0
1.9381693E+003	8.413199982678634E+000	-2.0680360E-001	-1.067004872828110E-001	2.2066046E-005	-2.0708390E-001	0
2.0695063E+003	8.613199977626209E+000	-2.0888445E-001	-1.009344264924046E-001	2.1083632E-005	-2.0908383E-001	0
2.1929465E+003	8.813199972573784E+000	-2.1086065E-001	-9.615403040715598E-002	2.0275102E-005	-2.1108374E-001	0
2.3064844E+003	9.013199967521359E+000	-2.1289864E-001	-9.230439729150142E-002	1.9651481E-005	-2.1308368E-001	0
2.4127480E+003	9.213199962468934E+000	-2.1486957E-001	-8.905595211869732E-002	1.9135414E-005	-2.1508363E-001	0
2.5145625E+003	9.413199957416509E+000	-2.1686128E-001	-8.624215269262758E-002	1.8702583E-005	-2.1708354E-001	0
2.6075605E+003	9.613199952364084E+000	-2.1883050E-001	-8.392153652817799E-002	1.8364592E-005	-2.1908347E-001	0
2.6999436E+003	9.813199947311659E+000	-2.2086124E-001	-8.180216757650333E-002	1.8066929E-005	-2.2108342E-001	0
2.7874639E+003	1.001319994225923E+001	-2.2285019E-001	-7.994729456757887E-002	1.7816270E-005	-2.2308336E-001	0
2.8733027E+003	1.021319993720681E+001	-2.2490069E-001	-7.827253608442752E-002	1.7603548E-005	-2.2508328E-001	0
2.9550359E+003	1.041319993215438E+001	-2.2690110E-001	-7.678455247938687E-002	1.7422499E-005	-2.2708321E-001	0
3.0344202E+003	1.061319992710196E+001	-2.2890110E-001	-7.543487631707357E-002	1.7267126E-005	-2.2908315E-001	0
3.1135615E+003	1.081319992204953E+001	-2.3089451E-001	-7.415768345701756E-002	1.7122602E-005	-2.3108307E-001	0
3.1889788E+003	1.101319991699711E+001	-2.3288621E-001	-7.302845882245512E-002	1.7007322E-005	-2.3308299E-001	0
3.2631047E+003	1.121319991194468E+001	-2.3484038E-001	-7.196838665825434E-002	1.6901084E-005	-2.3508292E-001	0
3.3389487E+003	1.141319990689226E+001	-2.3688513E-001	-7.094602277153927E-002	1.6806058E-005	-2.3708285E-001	0
3.4098433E+003	1.161319990183983E+001	-2.3886243E-001	-7.005084963946218E-002	1.6732516E-005	-2.3908277E-001	0
3.4797559E+003	1.181319989678741E+001	-2.4086918E-001	-6.922013998029486E-002	1.6672999E-005	-2.4108271E-001	0
3.5520791E+003	1.201319989173498E+001	-2.4289164E-001	-6.838013365697926E-002	1.6608963E-005	-2.4308264E-001	0
3.6210911E+003	1.221319988668256E+001	-2.4487510E-001	-6.762467348861534E-002	1.6559599E-005	-2.4508256E-001	0
3.6889561E+003	1.241319988163013E+001	-2.4687830E-001	-6.692361898029708E-002	1.6521990E-005	-2.4708250E-001	0
3.7587122E+003	1.261319987657771E+001	-2.4884723E-001	-6.620544858293742E-002	1.6475042E-005	-2.4908243E-001	0
3.8258445E+003	1.281319987152528E+001	-2.5087255E-001	-6.557311855474066E-002	1.6450496E-005	-2.5108239E-001	0
3.8930259E+003	1.301319986647286E+001	-2.5286320E-001	-6.495286706970227E-002	1.6424190E-005	-2.5308233E-001	0
3.9599585E+003	1.321319986142043E+001	-2.5490007E-001	-6.436937827091072E-002	1.6407759E-005	-2.5508225E-001	0
4.0242634E+003	1.341309985637054E+001	-2.5688761E-001	-6.383469136865472E-002	1.6398342E-005	-2.5708285E-001	0
4.0892161E+003	1.361299985132064E+001	-2.5885338E-001	-6.330146607119236E-002	1.6385799E-005	-2.5908211E-001	0
4.1529551E+003	1.381299984626821E+001	-2.6087439E-001	-6.281656908006550E-002	1.6387234E-005	-2.6108202E-001	0
4.2174028E+003	1.401299984121579E+001	-2.6285782E-001	-6.232694158005324E-002	1.6383125E-005	-2.6308197E-001	0
4.2802935E+003	1.421299983616336E+001	-2.6483998E-001	-6.187425722851669E-002	1.6386777E-005	-2.6508188E-001	0
4.3480371E+003	1.441299983111094E+001	-2.6687416E-001	-6.137808027113363E-002	1.6380223E-005	-2.6708186E-001	0
4.4111553E+003	1.461299982605851E+001	-2.6886246E-001	-6.095057942317439E-002	1.6387323E-005	-2.6908177E-001	0
4.4729692E+003	1.481299982100609E+001	-2.7086711E-001	-6.055644581246455E-002	1.6402750E-005	-2.7108172E-001	0
4.5356631E+003	1.501299981595366E+001	-2.7289894E-001	-6.016737762300073E-002	1.6419614E-005	-2.7308163E-001	0
4.5933442E+003	1.521299981090124E+001	-2.7482912E-001	-5.983203378465896E-002	1.6443586E-005	-2.7508155E-001	0
4.6567129E+003	1.541299980584881E+001	-2.7685922E-001	-5.945378562642481E-002	1.6460330E-005	-2.7708149E-001	0
4.7190146E+003	1.561299980079639E+001	-2.7884671E-001	-5.909002801432961E-002	1.6477061E-005	-2.7908140E-001	0
4.7823774E+003	1.581299979574396E+001	-2.8085327E-001	-5.872670307073324E-002	1.6493586E-005	-2.8108135E-001	0
4.8409517E+003	1.601299979069154E+001	-2.8285366E-001	-5.842935301093147E-002	1.6526956E-005	-2.8308126E-001	0
4.9021431E+003	1.621299978563911E+001	-2.8485981E-001	-5.810923876120484E-002	1.6552987E-005	-2.8508118E-001	0
4.9592432E+003	1.641299978058669E+001	-2.8685766E-001	-5.784303291601528E-002	1.6592718E-005	-2.8708115E-001	0
5.0204146E+003	1.661299977553426E+001	-2.8885594E-001	-5.753627298463182E-002	1.6619695E-005	-2.8908107E-001	0
5.0769570E+003	1.681299977048184E+001	-2.9088181E-001	-5.729451807281266E-002	1.6665934E-005	-2.9108101E-001	0
5.1381528E+003	1.701299976542941E+001	-2.9287246E-001	-5.699956026392873E-002	1.6693601E-005	-2.9308090E-001	0
5.1958843E+003	1.721299976037699E+001	-2.9485658E-001	-5.674810284250265E-002	1.6732551E-005	-2.9508084E-001	0
5.2529316E+003	1.741299975532456E+001	-2.9684913E-001	-5.651113658598583E-002	1.6775282E-005	-2.9708079E-001	0
5.3105054E+003	1.761299975027214E+001	-2.9884127E-001	-5.627360279870369E-002	1.6816875E-005	-2.9908073E-001	0
5.3743042E+003	1.781299974521971E+001	-3.0082959E-001	-5.597554422997320E-002	1.6839100E-005	-3.0108067E-001	0
5.4287246E+003	1.801299974016729E+001	-3.0286777E-001	-5.578985608968434E-002	1.6896949E-005	-3.0308059E-001	0
5.4814785E+003	1.821299973511486E+001	-3.0488643E-001	-5.562120329698475E-002	1.6958151E-005	-3.0508050E-001	0
5.5420337E+003	1.841299973006244E+001	-3.0685416E-001	-5.536851025494816E-002	1.6990058E-005	-3.0708042E-001	0
5.5883184E+003	1.861299972501001E+001	-3.0886793E-001	-5.527028199570361E-002	1.7071217E-005	-3.0908036E-001	0
5.6501162E+003	1.881299971995759E+001	-3.1089339E-001	-5.502424630032365E-002	1.7106675E-005	-3.1108031E-001	0
5.7042720E+003	1.901289971490769E+001	-3.1286275E-001	-5.484709517316595E-002	1.7159613E-005	-3.1307980E-001	0
5.7576753E+003	1.921279970985779E+001	-3.1487238E-001	-5.468741631401453E-002	1.7219558E-005	-3.1508014E-001	0
5.8121064E+003	1.941279970480537E+001	-3.1691182E-001	-5.452615581611231E-002	1.7279983E-005	-3.1708011E-001	0
5.8652104E+003	1.961279969975294E+001	-3.1886682E-001	-5.436579380796847E-002	1.7335447E-005	-3.1908002E-001	0
5.9177363E+003	1.981279969470052E+001	-3.2087591E-001	-5.422274616616629E-002	1.7398774E-005	-3.2107997E-001	0
5.9691470E+003	2.001279968964809E+001	-3.2284579E-001	-5.408574718941872E-002	1.7461356E-005	-3.2307985E-001	0
6.0291226E+003	2.021279968459567E+001	-3.2484064E-001	-5.387859206378476E-002	1.7501956E-005	-3.2507980E-001	0
6.0745332E+003	2.041279967954324E+001	-3.2684487E-001	-5.380575854781089E-002	1.7586137E-005	-3.2707974E-001	0
6.1313657E+003	2.061279967449082E+001	-3.2885039E-001	-5.363411637701010E-002	1.7637600E-005	-3.2907966E-001	0
6.1836514E+003	2.081279966943839E+001	-3.3085334E-001	-5.350452625612970E-002	1.7702152E-005	-3.3107960E-001	0
6.2343633E+003	2.101279966438597E+001	-3.3288538E-001	-5.339524913536968E-002	1.7774499E-005	-3.3307955E-001	0
6.2763457E+003	2.121279965933354E+001	-3.3485395E-001	-5.335173736455205E-002	1.7865041E-005	-3.3507943E-001	0
6.3282139E+003	2.141279965428112E+001	-3.3684057E-001	-5.322838126039753E-002	1.7929478E-005	-3.3707938E-001	0
6.3789370E+003	2.161279964922869E+001	-3.3889255E-001	-5.312680568421446E-002	1.8004279E-005	-3.3907932E-001	0
6.4250005E+003	2.181279964417627E+001	-3.4091884E-001	-5.306129473897181E-002	1.8089595E-005	-3.4107924E-001	0
6.4737310E+003	2.201279963912384E+001	-3.4285837E-001	-5.296148140724677E-002	1.8158287E-005	-3.4307918E-001	0
6.5153750E+003	2.221279963407142E+001	-3.4485304E-001	-5.292911520977467E-002	1.8252766E-005	-3.4507909E-001	0
6.5706641E+003	2.241279962901899E+001	-3.4684986E-001	-5.278764138274872E-002	1.8309385E-005	-3.4707901E-001	0
6.6096885E+003	2.261279962396657E+001	-3.4891689E-001	-5.278870451122596E-002	1.8418870E-005	-3.4907895E-001	0
6.6604639E+003	2.281279961891414E+001	-3.5089436E-001	-5.268317225173780E-002	1.8486227E-005	-3.5107893E-001	0
6.7028560E+003	2.301279961386172E+001	-3.5287866E-001	-5.264601532988622E-002	1.8577655E-005	-3.5307881E-001	0
6.7447661E+003	2.321279960880929E+001	-3.5489053E-001	-5.261717486362105E-002	1.8673336E-005	-3.5507876E-001	0
6.7991768E+003	2.341279960375687E+001	-3.5690495E-001	-5.249237617986727E-002	1.8734789E-005	-3.5707870E-001	0
6.8349653E+003	2.361279959870444E+001	-3.5889480E-001	-5.250864803670677E-002	1.8845081E-005	-3.5907862E-001	0
6.8806802E+003	2.381279959365202E+001	-3.6086208E-001	-5.244569648733033E-002	1.8925663E-005	-3.6107856E-001	0
6.9156519E+003	2.401279958859959E+001	-3.6283109E-001	-5.246520279262556E-002	1.9036006E-005	-3.6307850E-001	0
6.9600532E+003	2.421279958354717E+001	-3.6484784E-001	-5.242026653542048E-002	1.9125420E-005	-3.6507845E-001	0
7.0016265E+003	2.441279957849474E+001	-3.6682576E-001	-5.239150500930290E-002	1.9218554E-005	-3.6707839E-001	0
7.0377520E+003	2.461279957344232E+001	-3.6886859E-001	-5.241284397263879E-002	1.9333453E-005	-3.6907828E-001	0
7.0719468E+003	2.481269956839242E+001	-3.7083808E-001	-5.243790553761496E-002	1.9445972E-005	-3.7107843E-001	0
7.1149941E+003	2.501259956334252E+001	-3.7284017E-001	-5.240203498053836E-002	1.9537583E-005	-3.7307814E-001	0
7.1584004E+003	2.521259955829009E+001	-3.7487814E-001	-5.236898015924804E-002	1.9631985E-005	-3.7507808E-001	0
7.1920830E+003	2.541259955323767E+001	-3.7686133E-001	-5.239946912718585E-002	1.9747335E-005	-3.7707803E-001	0
7.2338975E+003	2.561259954818524E+001	-3.7887171E-001	-5.237449237933189E-002	1.9843214E-005	-3.7907791E-001	0
7.2633784E+003	2.581259954313282E+001	-3.8085157E-001	-5.243449466241734E-002	1.9969759E-005	-3.8107786E-001	0
7.3001641E+003	2.601259953808039E+001	-3.8282928E-001	-5.244118985487667E-002	2.0076022E-005	-3.8307780E-001	0
7.3320825E+003	2.621259953302797E+001	-3.8482779E-001	-5.248546788454189E-002	2.0197867E-005	-3.8507771E-001	0
7.3652822E+003	2.641259952797554E+001	-3.8690856E-001	-5.253139625476599E-002	2.0324847E-005	-3.8707766E-001	0
7.4046670E+003	2.661259952292312E+001	-3.8887081E-001	-5.251698709323205E-002	2.0422323E-005	-3.8907760E-001	0
7.4303574E+003	2.681259951787069E+001	-3.9086634E-001	-5.260397396588901E-002	2.0561123E-005	-3.9107749E-001	0
7.4634272E+003	2.701259951281827E+001	-3.9286417E-001	-5.263857515116971E-002	2.0679810E-005	-3.9307743E-001	0
7.4982080E+003	2.721259950776584E+001	-3.9486781E-001	-5.266162233908656E-002	2.0794379E-005	-3.9507738E-001	0
7.5256714E+003	2.741259950271342E+001	-3.9689437E-001	-5.273873292125109E-002	2.0931706E-005	-3.9707732E-001	0
7.5622300E+003	2.761259949766099E+001	-3.9886481E-001	-5.274433764531916E-002	2.1037860E-005	-3.9907721E-001	0
7.5775415E+003	2.781259949260857E+001	-4.0083402E-001	-5.289763376241352E-002	2.1203172E-005	-4.0107715E-001	0
7.6065283E+003	2.801259948755614E+001	-4.0288687E-001	-5.296593321468301E-002	2.1339280E-005	-4.0307710E-001	0
7.6462593E+003	2.821259948250372E+001	-4.0485400E-001	-5.294798161357206E-002	2.1436203E-005	-4.0507704E-001	0
7.6527881E+003	2.841259947745129E+001	-4.0689510E-001	-5.316952431665278E-002	2.1634420E-005	-4.0707695E-001	0
7.6926865E+003	2.861259947239887E+001	-4.0889871E-001	-5.315421344427262E-002	2.1734690E-005	-4.0907690E-001	0
7.7090508E+003	2.881259946734644E+001	-4.1089571E-001	-5.330042949087865E-002	2.1900918E-005	-4.1107678E-001	0
7.7335884E+003	2.901259946229402E+001	-4.1290584E-001	-5.339123502261778E-002	2.2045553E-005	-4.1307673E-001	0
7.7561006E+003	2.921259945724159E+001	-4.1491818E-001	-5.349571861711044E-002	2.2196346E-005	-4.1507667E-001	0
7.7727354E+003	2.941259945218917E+001	-4.1691118E-001	-5.363764106813407E-002	2.2362132E-005	-4.1707662E-001	0
7.8005220E+003	2.961259944713674E+001	-4.1887680E-001	-5.369855996797845E-002	2.2493081E-005	-4.1907656E-001	0
7.8284614E+003	2.981259944208432E+001	-4.2088956E-001	-5.376401841334255E-002	2.2628714E-005	-4.2107648E-001	0
7.8384580E+003	3.001259943703189E+001	-4.2286018E-001	-5.394685881153216E-002	2.2811979E-005	-4.2307642E-001	0
7.8642373E+003	3.021259943197947E+001	-4.2488036E-001	-5.402690071513327E-002	2.2954970E-005	-4.2507631E-001	0
7.8858198E+003	3.041259942692705E+001	-4.2689437E-001	-5.413443067527102E-002	2.3109684E-005	-4.2707625E-001	0
7.8984385E+003	3.061249942187715E+001	-4.2889667E-001	-5.430145038950274E-002	2.3289711E-005	-4.2907667E-001	0
7.9198896E+003	3.081239941682725E+001	-4.3089494E-001	-5.440668540567473E-002	2.3443565E-005	-4.3107614E-001	0
7.9428955E+003	3.101239941177482E+001	-4.3290070E-001	-5.450162252193705E-002	2.3593790E-005	-4.3307605E-001	0
7.9570259E+003	3.121239940672240E+001	-4.3491784E-001	-5.465834306145434E-002	2.3771889E-005	-4.3507600E-001	0
7.9685479E+003	3.141239940166997E+001	-4.3688875E-001	-5.482664634526391E-002	2.3953146E-005	-4.3707588E-001	0
7.9852554E+003	3.161239939661755E+001	-4.3891358E-001	-5.496550512514897E-002	2.4125107E-005	-4.3907583E-001	0
8.0067046E+003	3.181239939156512E+001	-4.4090676E-001	-5.506719431423857E-002	2.4279498E-005	-4.4107574E-001	0
8.0115918E+003	3.201239938651270E+001	-4.4290167E-001	-5.528260475286445E-002	2.4484758E-005	-4.4307572E-001	0
8.0329419E+003	3.221239938146027E+001	-4.4491142E-001	-5.538586172372389E-002	2.4641802E-005	-4.4507557E-001	0
8.0401470E+003	3.241239937640785E+001	-4.4688615E-001	-5.558183939721995E-002	2.4838755E-005	-4.4707555E-001	0
8.0620728E+003	3.261239937135542E+001	-4.4888428E-001	-5.567852027931761E-002	2.4993213E-005	-4.4907549E-001	0
8.0760645E+003	3.281239936630300E+001	-4.5090416E-001	-5.583216434359417E-002	2.5174955E-005	-4.5107543E-001	0
8.0909795E+003	3.301239936125057E+001	-4.5291439E-001	-5.597769442783107E-002	2.5353103E-005	-4.5307535E-001	0
8.0986611E+003	3.321239935619815E+001	-4.5492494E-001	-5.617285852611925E-002	2.5554435E-005	-4.5507529E-001	0
8.1201040E+003	3.341239935114572E+001	-4.5694068E-001	-5.627276208473453E-002	2.5713314E-005	-4.5707524E-001	0
8.1293164E+003	3.361239934609330E+001	-4.5888716E-001	-5.644843216442741E-002	2.5903460E-005	-4.5907512E-001	0
8.1490229E+003	3.381239934104087E+001	-4.6090987E-001	-5.656013968442883E-002	2.6069127E-005	-4.6107513E-001	0
8.1500298E+003	3.401239933598845E+001	-4.6291491E-001	-5.679916674503510E-002	2.6293181E-005	-4.6307501E-001	0
8.1755225E+003	3.421239933093602E+001	-4.6490961E-001	-5.686604249757816E-002	2.6437570E-005	-4.6507496E-001	0
8.1941064E+003	3.441239932588360E+001	-4.6691930E-001	-5.698233220014559E-002	2.6606151E-005	-4.6707487E-001	0
8.2004482E+003	3.461239932083117E+001	-4.6889579E-001	-5.717928564733454E-002	2.6811127E-005	-4.6907485E-001	0
8.2143662E+003	3.481239931577875E+001	-4.7087711E-001	-5.732360693716909E-002	2.6992375E-005	-4.7107470E-001	0
8.2354307E+003	3.501239931072632E+001	-4.7290573E-001	-5.742331357068831E-002	2.7155813E-005	-4.7307470E-001	0
8.2502393E+003	3.521239930567390E+001	-4.7487924E-001	-5.755945125039341E-002	2.7333788E-005	-4.7507459E-001	0
8.2579619E+003	3.541239930062147E+001	-4.7686389E-001	-5.774595130123017E-002	2.7536958E-005	-4.7707453E-001	0
8.2841289E+003	3.561239929556905E+001	-4.7888973E-001	-5.780809435649198E-002	2.7683704E-005	-4.7907445E-001	0
8.2900840E+003	3.581239929051662E+001	-4.8089042E-001	-5.800790701625341E-002	2.7895447E-005	-4.8107442E-001	0
8.3085908E+003	3.601239928546420E+001	-4.8286897E-001	-5.811683139278045E-002	2.8062814E-005	-4.8307428E-001	0
8.3295381E+003	3.621239928041177E+001	-4.8490265E-001	-5.821483057940502E-002	2.8228525E-005	-4.8507428E-001	0
8.3438291E+003	3.641219927536440E+001	-4.8689520E-001	-5.835393015932361E-002	2.8412249E-005	-4.8707414E-001	0
8.3626553E+003	3.661219927031198E+001	-4.8890325E-001	-5.846268177991221E-002	2.8582595E-005	-4.8907411E-001	0
8.3760742E+003	3.681219926525955E+001	-4.9088904E-001	-5.860610114190890E-002	2.8769093E-005	-4.9107397E-001	0
8.3973193E+003	3.701219926020713E+001	-4.9292427E-001	-5.870019674434204E-002	2.8934752E-005	-4.9307397E-001	0
8.4206533E+003	3.721219925515470E+001	-4.9491704E-001	-5.877418647300625E-002	2.9088345E-005	-4.9507391E-001	0
8.4464688E+003	3.741219925010228E+001	-4.9690518E-001	-5.882993268636794E-002	2.9232899E-005	-4.9707383E-001	0
8.4601436E+003	3.761219924504985E+001	-4.9887460E-001	-5.896762907378328E-002	2.9417453E-005	-4.9907374E-001	0
8.4882480E+003	3.781219923999743E+001	-5.0095010E-001	-5.901690020675732E-002	2.9564522E-005	-5.0107372E-001	0
8.5163730E+003	3.801219923494500E+001	-5.0292766E-001	-5.905420958463647E-002	2.9699995E-005	-5.0307363E-001	0
8.5387236E+003	3.821219922989258E+001	-5.0492084E-001	-5.913305778611777E-002	2.9857512E-005	-5.0507355E-001	0
8.5628457E+003	3.841219922484015E+001	-5.0696832E-001	-5.920559134019648E-002	3.0015359E-005	-5.0707346E-001	0
8.5965488E+003	3.861219921978773E+001	-5.0887454E-001	-5.919521104157943E-002	3.0122936E-005	-5.0907338E-001	0
8.6198066E+003	3.881219921473530E+001	-5.1088047E-001	-5.926820209995304E-002	3.0278967E-005	-5.1107335E-001	0
8.6562344E+003	3.901219920968288E+001	-5.1291108E-001	-5.925337059788727E-002	3.0391710E-005	-5.1307327E-001	0
8.6787646E+003	3.921219920463045E+001	-5.1488304E-001	-5.932676924029356E-002	3.0546347E-005	-5.1507324E-001	0
8.7119229E+003	3.941219919957803E+001	-5.1688868E-001	-5.933117915986019E-002	3.0667616E-005	-5.1707309E-001	0
8.7503125E+003	3.961219919452560E+001	-5.1889944E-001	-5.930067690579310E-002	3.0771087E-005	-5.1907313E-001	0
8.7816953E+003	3.981219918947318E+001	-5.2090925E-001	-5.931761982753558E-002	3.0899097E-005	-5.2107298E-001	0
8.8225615E+003	4.001219918442075E+001	-5.2291137E-001	-5.926979134913091E-002	3.0992847E-005	-5.2307296E-001	0
8.8507930E+003	4.021219917936833E+001	-5.2492243E-001	-5.930795530258536E-002	3.1132076E-005	-5.2507287E-001	0
8.8957354E+003	4.041219917431590E+001	-5.2690881E-001	-5.923161859985204E-002	3.1209664E-005	-5.2707279E-001	0
8.9286172E+003	4.061219916926348E+001	-5.2886313E-001	-5.923236952197070E-002	3.1325817E-005	-5.2907270E-001	0
8.9708496E+003	4.081219916421105E+001	-5.3092939E-001	-5.918384636456625E-002	3.1422442E-005	-5.3107262E-001	0
9.0157354E+003	4.101219915915863E+001	-5.3294039E-001	-5.911224605272736E-002	3.1503303E-005	-5.3307259E-001	0
9.0507578E+003	4.121219915410620E+001	-5.3483343E-001	-5.909266588468187E-002	3.1604734E-005	-5.3507251E-001	0
9.1072295E+003	4.141219914905378E+001	-5.3694040E-001	-5.895760266401728E-002	3.1656720E-005	-5.3707248E-001	0
9.1386484E+003	4.161219914400135E+001	-5.3886485E-001	-5.896548923081778E-002	3.1774431E-005	-5.3907239E-001	0
9.1872217E+003	4.181219913894893E+001	-5.4089743E-001	-5.887497092920313E-002	3.1845320E-005	-5.4107225E-001	0
9.2340596E+003	4.201209913389903E+001	-5.4295319E-001	-5.879897251595249E-002	3.1925090E-005	-5.4307246E-001	0
9.2770801E+003	4.221199912884913E+001	-5.4490554E-001	-5.873675148748281E-002	3.2005981E-005	-5.4507220E-001	0
9.3253281E+003	4.241199912379670E+001	-5.4689741E-001	-5.864645069245389E-002	3.2073593E-005	-5.4707211E-001	0
9.3827988E+003	4.261199911874428E+001	-5.4893535E-001	-5.850443304907060E-002	3.2115153E-005	-5.4907203E-001	0
9.4259443E+003	4.281199911369185E+001	-5.5089551E-001	-5.844459343541111E-002	3.2196866E-005	-5.5107194E-001	0
9.4805791E+003	4.301199910863943E+001	-5.5293113E-001	-5.832250582375254E-002	3.2248328E-005	-5.5307186E-001	0
9.5373730E+003	4.321199910358700E+001	-5.5492520E-001	-5.818427959985040E-002	3.2287924E-005	-5.5507177E-001	0
9.5880342E+003	4.341199909853458E+001	-5.5687636E-001	-5.808034948550608E-002	3.2343574E-005	-5.5707175E-001	0
9.6541396E+003	4.361199909348215E+001	-5.5892241E-001	-5.789458237814360E-002	3.2358581E-005	-5.5907166E-001	0
9.7008359E+003	4.381199908842973E+001	-5.6087679E-001	-5.781736847355323E-002	3.2428419E-005	-5.6107163E-001	0
9.7482178E+003	4.401199908337730E+001	-5.6287926E-001	-5.774176000277431E-002	3.2501641E-005	-5.6307149E-001	0
9.8081045E+003	4.421199907832488E+001	-5.6493717E-001	-5.759901902691184E-002	3.2539829E-005	-5.6507152E-001	0
9.8696846E+003	4.441199907327245E+001	-5.6687051E-001	-5.743552641225036E-002	3.2558506E-005	-5.6707138E-001	0
9.9352031E+003	4.461199906822003E+001	-5.6891620E-001	-5.726266672196979E-002	3.2577660E-005	-5.6907135E-001	0
9.9884775E+003	4.481199906316760E+001	-5.7085490E-001	-5.715134359321764E-002	3.2625125E-005	-5.7107127E-001	0
1.0055138E+004	4.501199905811518E+001	-5.7284909E-001	-5.697078314449333E-002	3.2635660E-005	-5.7307118E-001	0
1.0113835E+004	4.521199905306275E+001	-5.7489830E-001	-5.684276154241585E-002	3.2678807E-005	-5.7507104E-001	0
1.0179785E+004	4.541199904801033E+001	-5.7685119E-001	-5.666633985900743E-002	3.2688047E-005	-5.7707101E-001	0
1.0226145E+004	4.561199904295790E+001	-5.7893729E-001	-5.661344964135367E-002	3.2775639E-005	-5.7907099E-001	0
1.0298335E+004	4.581199903790548E+001	-5.8082610E-001	-5.640000263978728E-002	3.2758595E-005	-5.8107090E-001	0
1.0359205E+004	4.601199903285305E+001	-5.8291799E-001	-5.627053527873149E-002	3.2801108E-005	-5.8307087E-001	0
1.0422979E+004	4.621199902780063E+001	-5.8488977E-001	-5.611541639810724E-002	3.2821332E-005	-5.8507079E-001	0
1.0496525E+004	4.641199902274820E+001	-5.8686090E-001	-5.591001577597243E-002	3.2811400E-005	-5.8707064E-001	0
1.0555285E+004	4.661199901769578E+001	-5.8889401E-001	-5.579138986498128E-002	3.2855216E-005	-5.8907062E-001	0
1.0621184E+004	4.681199901264335E+001	-5.9085447E-001	-5.562981631176009E-002	3.2869124E-005	-5.9107059E-001	0
1.0680742E+004	4.701199900759093E+001	-5.9289438E-001	-5.551059711925144E-002	3.2911921E-005	-5.9307051E-001	0
1.0757530E+004	4.721199900253851E+001	-5.9487534E-001	-5.529850384361981E-002	3.2895718E-005	-5.9507042E-001	0
1.0814726E+004	4.741199899748608E+001	-5.9686780E-001	-5.519028629974587E-002	3.2941305E-005	-5.9707034E-001	0
1.0877552E+004	4.761189899243618E+001	-5.9887999E-001	-5.505650781022264E-002	3.2972242E-005	-5.9906983E-001	0
1.0944317E+004	4.781189898738376E+001	-6.0089231E-001	-5.490450185781037E-002	3.2991691E-005	-6.0107112E-001	0
1.0998918E+004	4.801179898233386E+001	-6.0286629E-001	-5.481141641611409E-002	3.3043954E-005	-6.0307014E-001	0
1.1069951E+004	4.821179897728143E+001	-6.0488284E-001	-5.464186976017554E-002	3.3051929E-005	-6.0507005E-001	0
1.1147711E+004	4.841179897222901E+001	-6.0689473E-001	-5.444119549293053E-002	3.3040076E-005	-6.0707003E-001	0
1.1204812E+004	4.861179896717658E+001	-6.0889769E-001	-5.434252159847386E-002	3.3089036E-005	-6.0906988E-001	0
1.1271553E+004	4.881179896212416E+001	-6.1087513E-001	-5.419618379358448E-002	3.3107102E-005	-6.1106992E-001	0
1.1341938E+004	4.901179895707173E+001	-6.1292398E-001	-5.404049637959729E-002	3.3122717E-005	-6.1306977E-001	0
1.1397698E+004	4.921179895201931E+001	-6.1488748E-001	-5.394839274363328E-002	3.3172189E-005	-6.1506975E-001	0
1.1469229E+004	4.941179894696688E+001	-6.1689246E-001	-5.378674268838685E-002	3.3180637E-005	-6.1706966E-001	0
1.1524663E+004	4.961179894191446E+001	-6.1892247E-001	-5.370417118754633E-002	3.3238717E-005	-6.1906958E-001	0
1.1591960E+004	4.981179893686203E+001	-6.2086725E-001	-5.356016032061946E-002	3.3253749E-005	-6.2106943E-001	0
1.1659253E+004	5.001179893180961E+001	-6.2293535E-001	-5.342840953875772E-002	3.3282446E-005	-6.2306941E-001	0
1.1724371E+004	5.021179892675718E+001	-6.2490821E-001	-5.329993524580212E-002	3.3307566E-005	-6.2506938E-001	0
1.1779942E+004	5.041179892170476E+001	-6.2690711E-001	-5.321818138969003E-002	3.3362856E-005	-6.2706929E-001	0
1.1845368E+004	5.061179891665233E+001	-6.2889332E-001	-5.309191588132878E-002	3.3389151E-005	-6.2906921E-001	0
1.1922646E+004	5.081179891159991E+001	-6.3087738E-001	-5.291420448351825E-002	3.3382374E-005	-6.3106918E-001	0
1.1981150E+004	5.101179890654748E+001	-6.3290071E-001	-5.282470216877443E-002	3.3432792E-005	-6.3306910E-001	0
1.2042229E+004	5.121179890149506E+001	-6.3491422E-001	-5.272397905579695E-002	3.3475204E-005	-6.3506901E-001	0
1.2105083E+004	5.141179889644263E+001	-6.3691366E-001	-5.261538835303636E-002	3.3511460E-005	-6.3706905E-001	0
1.2161481E+004	5.161179889139021E+001	-6.3894457E-001	-5.253838272100042E-002	3.3569115E-005	-6.3906890E-001	0
1.2233135E+004	5.181179888633778E+001	-6.4091998E-001	-5.239212778534175E-002	3.3579163E-005	-6.4106882E-001	0
1.2285709E+004	5.201179888128536E+001	-6.4289975E-001	-5.232907209308824E-002	3.3642347E-005	-6.4306873E-001	0
1.2344949E+004	5.221179887623293E+001	-6.4493990E-001	-5.224321933110554E-002	3.3693737E-005	-6.4506871E-001	0
1.2397618E+004	5.241179887118051E+001	-6.4694351E-001	-5.218288685087446E-002	3.3759381E-005	-6.4706856E-001	0
1.2465853E+004	5.261179886612808E+001	-6.4895064E-001	-5.205826261693225E-002	3.3783243E-005	-6.4906859E-001	0
1.2522240E+004	5.281179886107566E+001	-6.5091646E-001	-5.198083325265968E-002	3.3835178E-005	-6.5106845E-001	0
1.2595387E+004	5.301179885602323E+001	-6.5289545E-001	-5.183607841263227E-002	3.3843538E-005	-6.5306842E-001	0
1.2641777E+004	5.321179885097081E+001	-6.5490079E-001	-5.180448620071160E-002	3.3926797E-005	-6.5506828E-001	0
1.2693027E+004	5.341169884592091E+001	-6.5694058E-001	-5.175602040769971E-002	3.4000630E-005	-6.5706807E-001	0
1.2752506E+004	5.361159884087101E+001	-6.5891969E-001	-5.166982146415025E-002	3.4046261E-005	-6.5906817E-001	0
1.2816469E+004	5.381159883581859E+001	-6.6093045E-001	-5.156884203208789E-002	3.4083419E-005	-6.6106814E-001	0
1.2869435E+004	5.401159883076616E+001	-6.6290498E-001	-5.151002970101759E-002	3.4146255E-005	-6.6306806E-001	0
1.2912505E+004	5.421159882571374E+001	-6.6488773E-001	-5.149176895624796E-002	3.4236244E-005	-6.6506797E-001	0
1.2970021E+004	5.441159882066131E+001	-6.6691959E-001	-5.142008310633706E-002	3.4293062E-005	-6.6706789E-001	0
1.3027145E+004	5.461159881560889E+001	-6.6893965E-001	-5.134967489056119E-002	3.4349832E-005	-6.6906780E-001	0
1.3094987E+004	5.481159881055646E+001	-6.7090088E-001	-5.123341233625811E-002	3.4372541E-005	-6.7106783E-001	0
1.3127744E+004	5.501159880550404E+001	-6.7294014E-001	-5.126091265732058E-002	3.4495526E-005	-6.7306769E-001	0
1.3180820E+004	5.521159880045161E+001	-6.7489916E-001	-5.120312425470517E-002	3.4556946E-005	-6.7506760E-001	0
1.3236496E+004	5.541159879539919E+001	-6.7688346E-001	-5.113766192671898E-002	3.4614237E-005	-6.7706758E-001	0
1.3298452E+004	5.561159879034676E+001	-6.7888576E-001	-5.104998355760948E-002	3.4657107E-005	-6.7906749E-001	0
1.3338952E+004	5.581159878529434E+001	-6.8089676E-001	-5.104574416405061E-002	3.4756882E-005	-6.8106741E-001	0
1.3387145E+004	5.601159878024191E+001	-6.8291354E-001	-5.101263705776204E-002	3.4837220E-005	-6.8306732E-001	0
1.3460456E+004	5.621159877518949E+001	-6.8487340E-001	-5.088040028337593E-002	3.4846631E-005	-6.8506724E-001	0
1.3483313E+004	5.641159877013706E+001	-6.8690819E-001	-5.094505670108762E-002	3.4994577E-005	-6.8706721E-001	0
1.3527874E+004	5.661159876508464E+001	-6.8888587E-001	-5.092343884201334E-002	3.5080437E-005	-6.8906713E-001	0
1.3576708E+004	5.681159876003221E+001	-6.9092298E-001	-5.089031827114415E-002	3.5161291E-005	-6.9106710E-001	0
1.3620422E+004	5.701159875497979E+001	-6.9289625E-001	-5.087186434135146E-002	3.5248922E-005	-6.9306695E-001	0
1.3673435E+004	5.721159874992736E+001	-6.9496018E-001	-5.082557655716713E-002	3.5321751E-005	-6.9506699E-001	0
1.3731570E+004	5.741159874487494E+001	-6.9696647E-001	-5.075649987766839E-002	3.5375579E-005	-6.9706684E-001	0
1.3762122E+004	5.761159873982251E+001	-6.9892734E-001	-5.078630708421972E-002	3.5495937E-005	-6.9906688E-001	0
1.3810592E+004	5.781159873477009E+001	-7.0088834E-001	-5.075005641156394E-002	3.5570123E-005	-7.0106667E-001	0
1.3854325E+004	5.801159872971766E+001	-7.0288604E-001	-5.073405261459807E-002	3.5660258E-005	-7.0306665E-001	0
1.3882598E+004	5.821159872466524E+001	-7.0495242E-001	-5.077957631777252E-002	3.5797184E-005	-7.0506662E-001	0
1.3947695E+004	5.841159871961281E+001	-7.0692629E-001	-5.068409379493527E-002	3.5829918E-005	-7.0706654E-001	0
1.3986820E+004	5.861159871456039E+001	-7.0892733E-001	-5.068538316352347E-002	3.5932255E-005	-7.0906645E-001	0
1.4029325E+004	5.881159870950796E+001	-7.1090889E-001	-5.067306227059176E-002	3.6023932E-005	-7.1106642E-001	0
1.4055845E+004	5.901159870445554E+001	-7.1290439E-001	-5.071942665183382E-002	3.6158101E-005	-7.1306634E-001	0
1.4115368E+004	5.921149869940564E+001	-7.1493500E-001	-5.064940517458905E-002	3.6211033E-005	-7.1506691E-001	0
1.4149627E+004	5.941139869435574E+001	-7.1690017E-001	-5.066565869485884E-002	3.6322221E-005	-7.1706623E-001	0
1.4170397E+004	5.961139868930331E+001	-7.1888590E-001	-5.073152738253772E-002	3.6470181E-005	-7.1906608E-001	0
1.4222693E+004	5.981139868425089E+001	-7.2094065E-001	-5.068946019123344E-002	3.6544094E-005	-7.2106600E-001	0
1.4245834E+004	6.001139867919846E+001	-7.2290200E-001	-5.074480149785138E-002	3.6683519E-005	-7.2306597E-001	0
1.4295978E+004	6.021139867414604E+001	-7.2494066E-001	-5.070941513425356E-002	3.6761317E-005	-7.2506589E-001	0
1.4337701E+004	6.041139866909361E+001	-7.2682482E-001	-5.069325911673095E-002	3.6845118E-005	-7.2706580E-001	0
1.4353910E+004	6.061139866404119E+001	-7.2893041E-001	-5.078270747125696E-002	3.7017060E-005	-7.2906578E-001	0
1.4394839E+004	6.081139865898876E+001	-7.3088479E-001	-5.077408607246656E-002	3.7110007E-005	-7.3106569E-001	0
1.4415549E+004	6.101139865393634E+001	-7.3287433E-001	-5.083915740547185E-002	3.7258713E-005	-7.3306566E-001	0
1.4450170E+004	6.121139864888391E+001	-7.3491848E-001	-5.085881116542368E-002	3.7377082E-005	-7.3506546E-001	0
1.4471981E+004	6.141139864383149E+001	-7.3685354E-001	-5.091587220299609E-002	3.7517540E-005	-7.3706549E-001	0
1.4511786E+004	6.161139863877906E+001	-7.3895419E-001	-5.092096831987436E-002	3.7628262E-005	-7.3906535E-001	0
1.4529719E+004	6.181139863372664E+001	-7.4086177E-001	-5.098941074441421E-002	3.7776106E-005	-7.4106538E-001	0
1.4548688E+004	6.201139862867421E+001	-7.4291825E-001	-5.106427656199419E-002	3.7936585E-005	-7.4306524E-001	0
1.4572856E+004	6.221139862362179E+001	-7.4491358E-001	-5.111651033819825E-002	3.8077382E-005	-7.4506527E-001	0
1.4590477E+004	6.241139861856936E+001	-7.4693561E-001	-5.119336621894921E-002	3.8238148E-005	-7.4706507E-001	0
1.4610972E+004	6.261139861351694E+001	-7.4889338E-001	-5.125554870495175E-002	3.8384940E-005	-7.4906504E-001	0
1.4607664E+004	6.281139860846451E+001	-7.5092369E-001	-5.140614566232693E-002	3.8602091E-005	-7.5106496E-001	0
1.4623701E+004	6.301139860341209E+001	-7.5292736E-001	-5.148678449195854E-002	3.8765807E-005	-7.5306493E-001	0
1.4638282E+004	6.321139859835966E+001	-7.5492495E-001	-5.157196271769682E-002	3.8932962E-005	-7.5506485E-001	0
1.4648405E+004	6.341139859330724E+001	-7.5693601E-001	-5.167361258427755E-002	3.9113620E-005	-7.5706482E-001	0
1.4655322E+004	6.361139858825482E+001	-7.5893128E-001	-5.178537089990076E-002	3.9301536E-005	-7.5906473E-001	0
1.4652897E+004	6.381139858320239E+001	-7.6089799E-001	-5.192816070895534E-002	3.9512033E-005	-7.6106465E-001	0
1.4676451E+004	6.401139857814997E+001	-7.6292700E-001	-5.198307116431455E-002	3.9659288E-005	-7.6306462E-001	0
1.4679979E+004	6.421139857309754E+001	-7.6489478E-001	-5.210462692901163E-002	3.9854556E-005	-7.6506454E-001	0
1.4658144E+004	6.441139856804512E+001	-7.6693511E-001	-5.232143516719856E-002	4.0127146E-005	-7.6706439E-001	0
1.4654624E+004	6.461139856299269E+001	-7.6889861E-001	-5.246798731302177E-002	4.0342562E-005	-7.6906431E-001	0
1.4636309E+004	6.481139855794027E+001	-7.7086943E-001	-5.266829755382352E-002	4.0600382E-005	-7.7106494E-001	0
1.4613208E+004	6.501119855289289E+001	-7.7287328E-001	-5.288867988357596E-002	4.0876246E-005	-7.7306420E-001	0
1.4622535E+004	6.521119854784047E+001	-7.7492124E-001	-5.299499884243575E-002	4.1066949E-005	-7.7506417E-001	0
1.4596836E+004	6.541119854278804E+001	-7.7688426E-001	-5.322278447949724E-002	4.1347943E-005	-7.7706409E-001	0
1.4568163E+004	6.561119853773562E+001	-7.7890784E-001	-5.346644193656291E-002	4.1645431E-005	-7.7906400E-001	0
1.4543167E+004	6.581119853268319E+001	-7.8087300E-001	-5.369346178730200E-002	4.1927775E-005	-7.8106391E-001	0
1.4500668E+004	6.601119852763077E+001	-7.8290296E-001	-5.399082030133751E-002	4.2269574E-005	-7.8306389E-001	0
1.4446215E+004	6.621119852257834E+001	-7.8493363E-001	-5.433489901569089E-002	4.2649288E-005	-7.8506386E-001	0
1.4433354E+004	6.641119851752592E+001	-7.8689784E-001	-5.451940163777813E-002	4.2901200E-005	-7.8706384E-001	0
1.4383954E+004	6.661119851247349E+001	-7.8890502E-001	-5.484618783227324E-002	4.3268432E-005	-7.8906363E-001	0
1.4332051E+004	6.681119850742107E+001	-7.9091477E-001	-5.518503918770762E-002	4.3646662E-005	-7.9106367E-001	0
1.4283630E+004	6.701119850236864E+001	-7.9289144E-001	-5.551050218981590E-002	4.4013803E-005	-7.9306352E-001	0
1.4200354E+004	6.721119849731622E+001	-7.9492533E-001	-5.597925947687656E-002	4.4499331E-005	-7.9506356E-001	0
1.4168059E+004	6.741119849226379E+001	-7.9689312E-001	-5.624575424272060E-002	4.4821856E-005	-7.9706341E-001	0
1.4108999E+004	6.761119848721137E+001	-7.9895669E-001	-5.662745546049031E-002	4.5242883E-005	-7.9906338E-001	0
1.4059470E+004	6.781119848215894E+001	-8.0091262E-001	-5.696606136543814E-002	4.5624838E-005	-8.0106324E-001	0
1.3995118E+004	6.801119847710652E+001	-8.0293000E-001	-5.737214941423713E-002	4.6065819E-005	-8.0306321E-001	0
1.3916377E+004	6.821119847205409E+001	-8.0488902E-001	-5.783754012593834E-002	4.6552803E-005	-8.0506313E-001	0
1.3855964E+004	6.841119846700167E+001	-8.0688518E-001	-5.823378226890852E-002	4.6987978E-005	-8.0706310E-001	0
1.3781637E+004	6.861119846194924E+001	-8.0889577E-001	-5.869373772979691E-002	4.7477115E-005	-8.0906302E-001	0
1.3692420E+004	6.881119845689682E+001	-8.1086820E-001	-5.922022405663374E-002	4.8019796E-005	-8.1106293E-001	0
1.3633818E+004	6.901119845184439E+001	-8.1290805E-001	-5.962438753313992E-002	4.8469145E-005	-8.1306279E-001	0
1.3544283E+004	6.921119844679197E+001	-8.1490284E-001	-6.016581678127353E-002	4.9029295E-005	-8.1506276E-001	0
1.3474575E+004	6.941119844173954E+001	-8.1688899E-001	-6.062447096911705E-002	4.9523464E-005	-8.1706280E-001	0
1.3417992E+004	6.961119843668712E+001	-8.1888235E-001	-6.102868128998742E-002	4.9975311E-005	-8.1906259E-001	0
1.3291196E+004	6.981119843163469E+001	-8.2092822E-001	-6.176481084727053E-002	5.0704475E-005	-8.2106256E-001	0
1.3200061E+004	7.001119842658227E+001	-8.2291925E-001	-6.234208005110919E-002	5.1302497E-005	-8.2306248E-001	0
1.3133021E+004	7.021119842152984E+001	-8.2489109E-001	-6.281045804385228E-002	5.1811789E-005	-8.2506245E-001	0
1.3035624E+004	7.041119841647742E+001	-8.2690883E-001	-6.343453901961382E-002	5.2454579E-005	-8.2706237E-001	0
1.2953237E+004	7.061119841142499E+001	-8.2892072E-001	-6.399332710943974E-002	5.3045394E-005	-8.2906252E-001	0
1.2848930E+004	7.081099840637762E+001	-8.3091009E-001	-6.466764947178358E-002	5.3733002E-005	-8.3106202E-001	0
1.2757769E+004	7.101099840132520E+001	-8.3288705E-001	-6.528469695669492E-002	5.4374777E-005	-8.3306223E-001	0
1.2673950E+004	7.121099839627277E+001	-8.3491153E-001	-6.587618617383173E-002	5.5000786E-005	-8.3506203E-001	0
1.2589531E+004	7.141099839122035E+001	-8.3690965E-001	-6.647663518613253E-002	5.5634937E-005	-8.3706206E-001	0
1.2468256E+004	7.161099838616792E+001	-8.3890665E-001	-6.728339732873789E-002	5.6444489E-005	-8.3906192E-001	0
1.2370079E+004	7.181099838111550E+001	-8.4089530E-001	-6.797816418797675E-002	5.7162517E-005	-8.4106195E-001	0
1.2269723E+004	7.201099837606307E+001	-8.4290719E-001	-6.869814570258259E-002	5.7906160E-005	-8.4306180E-001	0
1.2147811E+004	7.221099837101065E+001	-8.4492970E-001	-6.955407433055505E-002	5.8768303E-005	-8.4506184E-001	0
1.2012478E+004	7.241099836595822E+001	-8.4691501E-001	-7.050294296809667E-002	5.9710001E-005	-8.4706163E-001	0
1.1878412E+004	7.261099836090580E+001	-8.4889638E-001	-7.146547563994932E-002	6.0666785E-005	-8.4906161E-001	0
1.1761140E+004	7.281099835585337E+001	-8.5091358E-001	-7.234958320002916E-002	6.1563245E-005	-8.5106152E-001	0
1.1618199E+004	7.301099835080095E+001	-8.5294265E-001	-7.341435787166617E-002	6.2618237E-005	-8.5306150E-001	0
1.1452684E+004	7.321099834574852E+001	-8.5488206E-001	-7.464469102836380E-002	6.3812404E-005	-8.5506141E-001	0
1.1285186E+004	7.341099834069610E+001	-8.5692453E-001	-7.593357748121798E-002	6.5069347E-005	-8.5706133E-001	0
1.1094894E+004	7.361099833564367E+001	-8.5892290E-001	-7.741605332269041E-002	6.6494424E-005	-8.5906118E-001	0
1.0900129E+004	7.381099833059125E+001	-8.6090946E-001	-7.898158441791858E-002	6.7995992E-005	-8.6106122E-001	0
1.0678533E+004	7.401099832553882E+001	-8.6290175E-001	-8.080714076383622E-002	6.9728623E-005	-8.6306107E-001	0
1.0452081E+004	7.421099832048640E+001	-8.6489636E-001	-8.274872657629634E-002	7.1569069E-005	-8.6506099E-001	0
1.0220837E+004	7.441099831543397E+001	-8.6695808E-001	-8.482260878732129E-002	7.3537645E-005	-8.6706096E-001	0
9.9602432E+003	7.461099831038155E+001	-8.6889923E-001	-8.723674934408132E-002	7.5799944E-005	-8.6906087E-001	0
9.6856318E+003	7.481099830532912E+001	-8.7093610E-001	-8.992042385734401E-002	7.8314944E-005	-8.7106085E-001	0
9.4179941E+003	7.501099830027670E+001	-8.7290722E-001	-9.268504765851882E-002	8.0905447E-005	-8.7306076E-001	0
9.1151768E+003	7.521099829522427E+001	-8.7494922E-001	-9.598817806606474E-002	8.3984778E-005	-8.7506068E-001	0
8.7864775E+003	7.541099829017185E+001	-8.7686461E-001	-9.979705885369494E-002	8.7508510E-005	-8.7706065E-001	0
8.4656162E+003	7.561099828511942E+001	-8.7892270E-001	-1.038226511027422E-001	9.1252085E-005	-8.7906063E-001	0
8.1086982E+003	7.581099828006700E+001	-8.8086009E-001	-1.086315023997912E-001	9.5689153E-005	-8.8106042E-001	0
7.7519468E+003	7.601099827501457E+001	-8.8295072E-001	-1.139005172877336E-001	1.0056854E-004	-8.8306046E-001	0
7.3821934E+003	7.621099826996215E+001	-8.8489938E-001	-1.198694393568823E-001	1.0607240E-004	-8.8506198E-001	0
7.0207808E+003	7.641099826490972E+001	-8.8693422E-001	-1.263298579943610E-001	1.1204628E-004	-8.8706207E-001	0
6.6602891E+003	7.661099825985730E+001	-8.8890392E-001	-1.334632656498982E-001	1.1863602E-004	-8.8906205E-001	0
6.3045718E+003	7.681099825480487E+001	-8.9089787E-001	-1.413098151823018E-001	1.2589262E-004	-8.9106202E-001	0
5.9696738E+003	7.701099824975245E+001	-8.9289683E-001	-1.495721311606213E-001	1.3355249E-004	-8.9306211E-001	0
5.6574917E+003	7.721099824470002E+001	-8.9491105E-001	-1.581815970161946E-001	1.4155846E-004	-8.9506209E-001	0
5.3635337E+003	7.741099823964760E+001	-8.9692366E-001	-1.672262542209498E-001	1.4998918E-004	-8.9706206E-001	0
5.0873730E+003	7.761099823459517E+001	-8.9885974E-001	-1.766844622784500E-001	1.5881455E-004	-8.9906216E-001	0
4.8466475E+003	7.781099822954275E+001	-9.0094042E-001	-1.858894103069426E-001	1.6747529E-004	-9.0106219E-001	0
4.6228984E+003	7.801099822449032E+001	-9.0287226E-001	-1.953043769242548E-001	1.7633490E-004	-9.0306211E-001	0
4.4126831E+003	7.821099821943790E+001	-9.0495920E-001	-2.050813904661448E-001	1.8559030E-004	-9.0506208E-001	0
4.2187222E+003	7.841099821438547E+001	-9.0689898E-001	-2.149700744968768E-001	1.9495614E-004	-9.0706217E-001	0
4.0305425E+003	7.861099820933305E+001	-9.0889734E-001	-2.255024877176224E-001	2.0495862E-004	-9.0906203E-001	0
3.7615664E+003	7.881099820428062E+001	-9.1089839E-001	-2.421593219379721E-001	2.2058253E-004	-9.1106206E-001	0
3.6022727E+003	7.901099819922820E+001	-9.1291451E-001	-2.534273771374833E-001	2.3135752E-004	-9.1306210E-001	0
3.4190532E+003	7.921099819417577E+001	-9.1488999E-001	-2.675857638154620E-001	2.4481153E-004	-9.1506207E-001	0
3.2217117E+003	7.941099818912335E+001	-9.1690958E-001	-2.846032373771876E-001	2.6095542E-004	-9.1706204E-001	0
3.0238950E+003	7.961099818407092E+001	-9.1890466E-001	-3.038811325444053E-001	2.7923778E-004	-9.1906208E-001	0
2.8272461E+003	7.981099817901850E+001	-9.2086864E-001	-3.257122264262668E-001	2.9993817E-004	-9.2106205E-001	0
2.5933889E+003	8.001099817396607E+001	-9.2289859E-001	-3.558658523603331E-001	3.2842808E-004	-9.2306203E-001	0
2.3986763E+003	8.021099816891365E+001	-9.2489129E-001	-3.855840431720576E-001	3.5662332E-004	-9.2506212E-001	0
2.2273352E+003	8.041099816386122E+001	-9.2691779E-001	-4.161555135491688E-001	3.8574194E-004	-9.2706215E-001	0
2.0578413E+003	8.061099815880880E+001	-9.2881703E-001	-4.513550240360624E-001	4.1922624E-004	-9.2906207E-001	0
1.8716031E+003	8.081099815375637E+001	-9.3092340E-001	-4.973935934159552E-001	4.6303534E-004	-9.3106210E-001	0
1.7379252E+003	8.101099814870395E+001	-9.3290341E-001	-5.367914589117735E-001	5.0077459E-004	-9.3306214E-001	0
1.5932925E+003	8.121099814365152E+001	-9.3496430E-001	-5.868127250963644E-001	5.4864894E-004	-9.3506217E-001	0
1.4690422E+003	8.141099813859910E+001	-9.3692112E-001	-6.377768401191650E-001	5.9754658E-004	-9.3706208E-001	0
1.3584917E+003	8.161099813354667E+001	-9.3892920E-001	-6.911556681917990E-001	6.4894621E-004	-9.3906206E-001	0
1.2519966E+003	8.181099812849425E+001	-9.4092166E-001	-7.515369000213195E-001	7.0713734E-004	-9.4106215E-001	0
1.1608223E+003	8.201099812344182E+001	-9.4288319E-001	-8.122545799362921E-001	7.6586119E-004	-9.4306201E-001	0
1.0774897E+003	8.221099811838940E+001	-9.4491494E-001	-8.769595901695144E-001	8.2865224E-004	-9.4506204E-001	0
9.9899945E+002	8.241099811333697E+001	-9.4691342E-001	-9.478618282225000E-001	8.9754310E-004	-9.4706208E-001	0
9.3065027E+002	8.262099810803193E+001	-9.4908631E-001	-1.019809866401390E+000	9.6788758E-004	-9.4916213E-001	0
8.6465869E+002	8.283099810272688E+001	-9.5112729E-001	-1.100003150483920E+000	1.0462430E-003	-9.5126212E-001	0
8.1136176E+002	8.303099809767446E+001	-9.5310831E-001	-1.174702008936951E+000	1.1196183E-003	-9.5326215E-001	0
7.6295740E+002	8.323099809262203E+001	-9.5511693E-001	-1.251861448984699E+000	1.1956741E-003	-9.5526218E-001	0
7.1655371E+002	8.343099808756961E+001	-9.5708221E-001	-1.335674039538006E+000	1.2783499E-003	-9.5726210E-001	0
6.7508203E+002	8.363099808251718E+001	-9.5908362E-001	-1.420692015734929E+000	1.3625624E-003	-9.5926207E-001	0
6.3737506E+002	8.383099807746476E+001	-9.6108252E-001	-1.507875880754462E+000	1.4491931E-003	-9.6126217E-001	0
6.0458148E+002	8.403099807241233E+001	-9.6308506E-001	-1.592978105117947E+000	1.5341734E-003	-9.6326202E-001	0
5.7255493E+002	8.423099806735991E+001	-9.6509671E-001	-1.685596672163392E+000	1.6267638E-003	-9.6526206E-001	0
5.4313928E+002	8.443099806230748E+001	-9.6709096E-001	-1.780557976693522E+000	1.7219615E-003	-9.6726209E-001	0
5.1690375E+002	8.463099805725506E+001	-9.6911645E-001	-1.874849027297266E+000	1.8169470E-003	-9.6926206E-001	0
4.9301801E+002	8.483099805220263E+001	-9.7111642E-001	-1.969738243810842E+000	1.9128452E-003	-9.7126204E-001	0
4.7152390E+002	8.503099804715021E+001	-9.7308433E-001	-2.063700991372272E+000	2.0081550E-003	-9.7326207E-001	0
4.5097748E+002	8.523099804209778E+001	-9.7508961E-001	-2.162169262158645E+000	2.1083087E-003	-9.7526205E-001	0
4.3174103E+002	8.543099803704536E+001	-9.7711134E-001	-2.263188550464140E+000	2.2113873E-003	-9.7726208E-001	0
4.1389825E+002	8.563099803199293E+001	-9.7907978E-001	-2.365508314973904E+000	2.3160214E-003	-9.7926211E-001	0
3.9752081E+002	8.583099802694051E+001	-9.8111993E-001	-2.468097029967655E+000	2.4214992E-003	-9.8126215E-001	0
3.8218970E+002	8.603099802188808E+001	-9.8308414E-001	-2.572241280084295E+000	2.5287296E-003	-9.8326206E-001	0
3.6791986E+002	8.623099801683566E+001	-9.8507661E-001	-2.677421575112276E+000	2.6374653E-003	-9.8526204E-001	0
3.5462378E+002	8.643099801178323E+001	-9.8707891E-001	-2.783453718368431E+000	2.7474884E-003	-9.8726213E-001	0
3.4214032E+002	8.663099800673081E+001	-9.8909646E-001	-2.890908907651212E+000	2.8593878E-003	-9.8926216E-001	0
3.3021448E+002	8.683099800167838E+001	-9.9106497E-001	-3.001276440986022E+000	2.9744599E-003	-9.9126208E-001	0
3.1925238E+002	8.703099799662596E+001	-9.9306661E-001	-3.110600563843235E+000	3.0890335E-003	-9.9326205E-001	0
3.0880872E+002	8.723099799157353E+001	-9.9511468E-001	-3.222430771474393E+000	3.2066882E-003	-9.9526203E-001	0
2.9890289E+002	8.743099798652111E+001	-9.9711531E-001	-3.335917205970024E+000	3.3262942E-003	-9.9726200E-001	0
2.8960477E+002	8.763099798146868E+001	-9.9912912E-001	-3.449974679825260E+000	3.4469701E-003	-9.9926203E-001	0
2.8091919E+002	8.783129797640868E+001	-1.0011361E+000	-3.563786537670531E+000	3.5678353E-003	-1.0012647E+000	0
2.7236331E+002	8.803139797135373E+001	-1.0031139E+000	-3.682999412252521E+000	3.6944677E-003	-1.0032660E+000	0
2.6442340E+002	8.823149796629878E+001	-1.0051280E+000	-3.801206911004797E+000	3.8206996E-003	-1.0052669E+000	0
2.5648758E+002	8.843179796123877E+001	-1.0071346E+000	-3.926640689959594E+000	3.9546555E-003	-1.0072700E+000	0
2.4917879E+002	8.863209795617877E+001	-1.0091146E+000	-4.049761285590685E+000	4.0866733E-003	-1.0092725E+000	0
2.4232266E+002	8.883269795111119E+001	-1.0111160E+000	-4.172602027200981E+000	4.2189849E-003	-1.0112784E+000	0
2.3578508E+002	8.903319794604613E+001	-1.0131471E+000	-4.296909428403758E+000	4.3534013E-003	-1.0132840E+000	0
2.2952536E+002	8.923369794098107E+001	-1.0151459E+000	-4.422804962906099E+000	4.4897925E-003	-1.0152882E+000	0
2.2353305E+002	8.943399793592107E+001	-1.0171777E+000	-4.550457870237118E+000	4.6286243E-003	-1.0172920E+000	0
2.1736697E+002	8.963409793086612E+001	-1.0191790E+000	-4.688747952208949E+000	4.7786734E-003	-1.0192930E+000	0
2.1173532E+002	8.983449792580359E+001	-1.0211488E+000	-4.822760739964721E+000	4.9247565E-003	-1.0212965E+000	0
2.0650401E+002	9.003509792073601E+001	-1.0231947E+000	-4.954841670294098E+000	5.0697676E-003	-1.0233028E+000	0
2.0130226E+002	9.023549791567348E+001	-1.0251603E+000	-5.092641875951855E+000	5.2207746E-003	-1.0253062E+000	0
1.9659879E+002	9.043609791060589E+001	-1.0272065E+000	-5.224887441928892E+000	5.3670388E-003	-1.0273123E+000	0
1.9175880E+002	9.063649790554337E+001	-1.0291928E+000	-5.367121657995440E+000	5.5238032E-003	-1.0293168E+000	0
1.8691789E+002	9.083699790047831E+001	-1.0311524E+000	-5.516605919217831E+000	5.6884615E-003	-1.0313215E+000	0
1.8253644E+002	9.103739789541578E+001	-1.0331688E+000	-5.660068966257912E+000	5.8478066E-003	-1.0333256E+000	0
1.7825426E+002	9.123769789035578E+001	-1.0352156E+000	-5.807522500934752E+000	6.0120379E-003	-1.0353289E+000	0
1.7419215E+002	9.143819788529072E+001	-1.0371675E+000	-5.954157687566081E+000	6.1754594E-003	-1.0373333E+000	0
1.7029509E+002	9.163869788022566E+001	-1.0392274E+000	-6.102509315182729E+000	6.3418946E-003	-1.0393388E+000	0
1.6635875E+002	9.183909787516313E+001	-1.0412210E+000	-6.258889302131500E+000	6.5168873E-003	-1.0413424E+000	0
1.6236476E+002	9.203969787009555E+001	-1.0432335E+000	-6.425245797434695E+000	6.7030317E-003	-1.0433488E+000	0
1.5888098E+002	9.224009786503302E+001	-1.0452446E+000	-6.578789713102800E+000	6.8764444E-003	-1.0453526E+000	0
1.5533203E+002	9.244059785996797E+001	-1.0472103E+000	-6.741754224609707E+000	7.0600347E-003	-1.0473577E+000	0
1.5199319E+002	9.264089785490796E+001	-1.0492316E+000	-6.903148906778796E+000	7.2430023E-003	-1.0493609E+000	0
1.4859161E+002	9.284109784985048E+001	-1.0512626E+000	-7.074844616558337E+000	7.4375197E-003	-1.0513629E+000	0
1.4521120E+002	9.304139784479048E+001	-1.0532500E+000	-7.253228496387024E+000	7.6394626E-003	-1.0533656E+000	0
1.4210008E+002	9.324169783973048E+001	-1.0552524E+000	-7.426121431797228E+000	7.8364331E-003	-1.0553690E+000	0
1.3921837E+002	9.344229783466290E+001	-1.0572747E+000	-7.594362184969420E+000	8.0293268E-003	-1.0573744E+000	0
1.3619232E+002	9.364269782960037E+001	-1.0592523E+000	-7.777620863404458E+000	8.2384627E-003	-1.0593789E+000	0
1.3312631E+002	9.384289782454289E+001	-1.0612589E+000	-7.971819201590108E+000	8.4601641E-003	-1.0613810E+000	0
1.3030566E+002	9.404309781948541E+001	-1.0632676E+000	-8.159795681906324E+000	8.6760465E-003	-1.0633830E+000	0
1.2762415E+002	9.424329781442793E+001	-1.0652233E+000	-8.346565494343054E+000	8.8909566E-003	-1.0653847E+000	0
1.2502152E+002	9.444349780937046E+001	-1.0672615E+000	-8.536621817078654E+000	9.1108074E-003	-1.0673869E+000	0
1.2223911E+002	9.464389780430793E+001	-1.0692561E+000	-8.747249793073209E+000	9.3530500E-003	-1.0693904E+000	0
1.1974852E+002	9.484439779924287E+001	-1.0712601E+000	-8.945914943438112E+000	9.5834015E-003	-1.0713956E+000	0
1.1736292E+002	9.504469779418287E+001	-1.0732598E+000	-9.144795289535566E+000	9.8147411E-003	-1.0733991E+000	0
1.1491875E+002	9.524489778912539E+001	-1.0753096E+000	-9.357130050369078E+000	1.0061812E-002	-1.0754011E+000	0
1.1245917E+002	9.544509778406791E+001	-1.0772949E+000	-9.579432159485918E+000	1.0319874E-002	-1.0774031E+000	0
1.1020638E+002	9.564519777901296E+001	-1.0792947E+000	-9.793395729359560E+000	1.0569960E-002	-1.0794040E+000	0
1.0804673E+002	9.584529777395801E+001	-1.0812660E+000	-1.000739282722618E+001	1.0820654E-002	-1.0814048E+000	0
1.0563234E+002	9.604549776890053E+001	-1.0832545E+000	-1.025495066266870E+001	1.1108721E-002	-1.0834069E+000	0
1.0349986E+002	9.624569776384305E+001	-1.0852935E+000	-1.048594280868847E+001	1.1380326E-002	-1.0854089E+000	0
1.0148228E+002	9.644589775878558E+001	-1.0872725E+000	-1.071391463660343E+001	1.1648945E-002	-1.0874108E+000	0
9.9100945E+001	9.665609775347548E+001	-1.0894161E+000	-1.099299433262753E+001	1.1975946E-002	-1.0895129E+000	0
9.6775345E+001	9.686649774816033E+001	-1.0914603E+000	-1.127828953622748E+001	1.2309805E-002	-1.0916164E+000	0
9.4921600E+001	9.706699774309527E+001	-1.0934517E+000	-1.151952532327901E+001	1.2596045E-002	-1.0936216E+000	0
9.2944450E+001	9.726729773803527E+001	-1.0954930E+000	-1.178653414762265E+001	1.2912065E-002	-1.0956248E+000	0
9.0945122E+001	9.746759773297526E+001	-1.0974927E+000	-1.206763695660089E+001	1.3244144E-002	-1.0976276E+000	0
8.9235191E+001	9.766789772791526E+001	-1.0994834E+000	-1.232118622769352E+001	1.3546939E-002	-1.0996310E+000	0
8.7422119E+001	9.786809772285778E+001	-1.1014565E+000	-1.259928857105280E+001	1.3877569E-002	-1.1016328E+000	0
8.5537491E+001	9.806839771779778E+001	-1.1034862E+000	-1.290061420900446E+001	1.4235649E-002	-1.1036357E+000	0
8.3945259E+001	9.826899771273020E+001	-1.1054963E+000	-1.316925244217684E+001	1.4558559E-002	-1.1056414E+000	0
8.2131386E+001	9.846939770766767E+001	-1.1075480E+000	-1.348507665749847E+001	1.4935370E-002	-1.1076461E+000	0
8.0438240E+001	9.866939770261524E+001	-1.1095264E+000	-1.379351881883031E+001	1.5304273E-002	-1.1096461E+000	0
7.8897125E+001	9.886959769755777E+001	-1.1115080E+000	-1.408806760641713E+001	1.5659001E-002	-1.1116476E+000	0
7.7176445E+001	9.906989769249776E+001	-1.1135061E+000	-1.442805544281401E+001	1.6065728E-002	-1.1136509E+000	0
7.5687531E+001	9.927019768743776E+001	-1.1155216E+000	-1.473851200736124E+001	1.6441127E-002	-1.1156538E+000	0
7.4122604E+001	9.947059768237523E+001	-1.1175222E+000	-1.507667190960348E+001	1.6848516E-002	-1.1176575E+000	0
7.2494148E+001	9.967099767731270E+001	-1.1195621E+000	-1.544348356926999E+001	1.7289940E-002	-1.1196616E+000	0
7.1026093E+001	9.987139767225017E+001	-1.1215330E+000	-1.579043633099320E+001	1.7709495E-002	-1.1216660E+000	0
6.9482422E+001	1.000713976671977E+002	-1.1235123E+000	-1.616973363947710E+001	1.8166894E-002	-1.1236662E+000	0
6.8098015E+001	1.002713976621453E+002	-1.1255413E+000	-1.652825375857539E+001	1.8603234E-002	-1.1256661E+000	0
6.6771233E+001	1.004713976570929E+002	-1.1275728E+000	-1.688710350622665E+001	1.9041438E-002	-1.1276661E+000	0
6.5265968E+001	1.006713976520405E+002	-1.1295358E+000	-1.730665792088921E+001	1.9548489E-002	-1.1296661E+000	0
6.3873684E+001	1.008715976469830E+002	-1.1315484E+000	-1.771540815718804E+001	2.0045841E-002	-1.1316676E+000	0
6.2517445E+001	1.010720976419179E+002	-1.1335552E+000	-1.813182242789446E+001	2.0553421E-002	-1.1336722E+000	0
6.1217407E+001	1.012725976368529E+002	-1.1355255E+000	-1.854906135516899E+001	2.1062931E-002	-1.1356776E+000	0
5.9924156E+001	1.014727976317954E+002	-1.1375425E+000	-1.898303779196037E+001	2.1594012E-002	-1.1376801E+000	0
5.8543186E+001	1.016728976267405E+002	-1.1395638E+000	-1.946535308271719E+001	2.2182012E-002	-1.1396809E+000	0
5.7154842E+001	1.018729976216855E+002	-1.1415416E+000	-1.997278839268660E+001	2.2799769E-002	-1.1416821E+000	0
5.5911190E+001	1.020730976166305E+002	-1.1435231E+000	-2.045249024240749E+001	2.3387896E-002	-1.1436830E+000	0
5.4653191E+001	1.022733976115705E+002	-1.1455401E+000	-2.096016882513315E+001	2.4010714E-002	-1.1456857E+000	0
5.3479359E+001	1.024737976065080E+002	-1.1475834E+000	-2.145843551428840E+001	2.4625344E-002	-1.1476896E+000	0
5.2254990E+001	1.026739976014505E+002	-1.1495451E+000	-2.199876164484459E+001	2.5288569E-002	-1.1496922E+000	0
5.1092690E+001	1.028740975963956E+002	-1.1515744E+000	-2.253892571986876E+001	2.5955249E-002	-1.1516929E+000	0
4.9861149E+001	1.030742975913381E+002	-1.1535250E+000	-2.313474546951812E+001	2.6686506E-002	-1.1536949E+000	0
4.8738743E+001	1.032744975862806E+002	-1.1555383E+000	-2.370882530647179E+001	2.7396455E-002	-1.1556969E+000	0
4.7632671E+001	1.034747975812206E+002	-1.1575698E+000	-2.430201199609843E+001	2.8131275E-002	-1.1576996E+000	0
4.6497776E+001	1.036750975761606E+002	-1.1595051E+000	-2.493678654654425E+001	2.8914332E-002	-1.1597028E+000	0
4.5387951E+001	1.038751975711057E+002	-1.1615398E+000	-2.559136934966998E+001	2.9725393E-002	-1.1617041E+000	0
4.4347450E+001	1.040752975660507E+002	-1.1635849E+000	-2.623792162675704E+001	3.0530050E-002	-1.1637050E+000	0
4.3341396E+001	1.042753975609958E+002	-1.1655458E+000	-2.689220702729250E+001	3.1344101E-002	-1.1657062E+000	0
4.2355999E+001	1.044755975559383E+002	-1.1675699E+000	-2.756563254760840E+001	3.2184802E-002	-1.1677077E+000	0
4.1354675E+001	1.046760975508732E+002	-1.1695803E+000	-2.828169603958571E+001	3.3077717E-002	-1.1697128E+000	0
4.0402180E+001	1.048764975458107E+002	-1.1715801E+000	-2.899794123221216E+001	3.3973411E-002	-1.1717168E+000	0
3.9508579E+001	1.050767975407507E+002	-1.1736081E+000	-2.970514571431556E+001	3.4862198E-002	-1.1737195E+000	0
3.8564850E+001	1.052769975356932E+002	-1.1755493E+000	-3.048240095877041E+001	3.5833564E-002	-1.1757221E+000	0
3.7663170E+001	1.054772975306332E+002	-1.1776251E+000	-3.126728635327200E+001	3.6821138E-002	-1.1777244E+000	0
3.6797852E+001	1.056777975255682E+002	-1.1795976E+000	-3.205615597222291E+001	3.7813365E-002	-1.1797296E+000	0
3.5925190E+001	1.058780975205082E+002	-1.1816541E+000	-3.289207818178778E+001	3.8867060E-002	-1.1817329E+000	0
3.5086418E+001	1.060783975154482E+002	-1.1836301E+000	-3.373471007197787E+001	3.9929420E-002	-1.1837356E+000	0
3.4242577E+001	1.062786975103882E+002	-1.1856031E+000	-3.462365307495892E+001	4.1049913E-002	-1.1857388E+000	0
3.3449902E+001	1.064789975053282E+002	-1.1876764E+000	-3.550612709269154E+001	4.2169791E-002	-1.1877418E+000	0
3.2672928E+001	1.066793975002656E+002	-1.1896853E+000	-3.641196104555834E+001	4.3318778E-002	-1.1897455E+000	0
3.1943790E+001	1.068796974952056E+002	-1.1916187E+000	-3.730360857145899E+001	4.4451676E-002	-1.1917490E+000	0
3.1179283E+001	1.070799974901456E+002	-1.1936865E+000	-3.828460356473050E+001	4.5699812E-002	-1.1937517E+000	0
3.0501125E+001	1.072804974850806E+002	-1.1957353E+000	-3.920299163432540E+001	4.6876401E-002	-1.1957566E+000	0
2.9754417E+001	1.074810974800130E+002	-1.1976967E+000	-4.025273529766578E+001	4.8210569E-002	-1.1977624E+000	0
2.9071432E+001	1.076818974749403E+002	-1.1997014E+000	-4.126736507304287E+001	4.9508516E-002	-1.1997703E+000	0
2.8426870E+001	1.078824974698728E+002	-1.2016832E+000	-4.227279260692931E+001	5.0798502E-002	-1.2017765E+000	0
2.7756639E+001	1.080831974648027E+002	-1.2037139E+000	-4.336670010167865E+001	5.2201100E-002	-1.2037835E+000	0
2.7074722E+001	1.082836974597376E+002	-1.2056911E+000	-4.453198434569731E+001	5.3691816E-002	-1.2057883E+000	0
2.6445581E+001	1.084841974546725E+002	-1.2076854E+000	-4.566680994928100E+001	5.5151138E-002	-1.2077935E+000	0
2.5890001E+001	1.086848974496024E+002	-1.2097030E+000	-4.672471796252353E+001	5.6523029E-002	-1.2098002E+000	0
2.5294640E+001	1.088852974445399E+002	-1.2117152E+000	-4.790403152148031E+001	5.8046043E-002	-1.2118049E+000	0
2.4698112E+001	1.090854974394824E+002	-1.2137047E+000	-4.914159942896413E+001	5.9643392E-002	-1.2138070E+000	0
2.4167070E+001	1.092857974344224E+002	-1.2157395E+000	-5.030562020893058E+001	6.1158530E-002	-1.2158096E+000	0
2.3662266E+001	1.094863974293548E+002	-1.2177267E+000	-5.146281210924712E+001	6.2667638E-002	-1.2178156E+000	0
2.3157854E+001	1.096866974242948E+002	-1.2197391E+000	-5.267064161276380E+001	6.4244442E-002	-1.2198189E+000	0
2.2624691E+001	1.098867974192399E+002	-1.2217923E+000	-5.400261064289396E+001	6.5979972E-002	-1.2218201E+000	0
2.2093517E+001	1.100867974141875E+002	-1.2237203E+000	-5.538820493518642E+001	6.7779675E-002	-1.2238201E+000	0
2.1653547E+001	1.102867974091350E+002	-1.2257689E+000	-5.660822762437431E+001	6.9388606E-002	-1.2258202E+000	0
2.1152634E+001	1.104869974040776E+002	-1.2277467E+000	-5.804226132938743E+001	7.1261197E-002	-1.2278216E+000	0
2.0725668E+001	1.106872973990176E+002	-1.2297466E+000	-5.933447142523539E+001	7.2966367E-002	-1.2298249E+000	0
2.0246986E+001	1.108874973939601E+002	-1.2317938E+000	-6.083837368356603E+001	7.4940331E-002	-1.2318269E+000	0
1.9806929E+001	1.110879973888950E+002	-1.2337568E+000	-6.228915122413605E+001	7.6849662E-002	-1.2338315E+000	0
1.9372341E+001	1.112882973838350E+002	-1.2357970E+000	-6.379182582059639E+001	7.8833751E-002	-1.2358350E+000	0
1.8935976E+001	1.114884973787775E+002	-1.2377378E+000	-6.536435187922871E+001	8.0903925E-002	-1.2378371E+000	0
1.8480816E+001	1.116885973737226E+002	-1.2398033E+000	-6.708596227606972E+001	8.3173402E-002	-1.2398381E+000	0
1.8104115E+001	1.118887973686651E+002	-1.2417759E+000	-6.859081162043833E+001	8.5174412E-002	-1.2418396E+000	0
1.7704741E+001	1.120890973636051E+002	-1.2438056E+000	-7.025269116938830E+001	8.7380692E-002	-1.2438428E+000	0
1.7289541E+001	1.122892973585476E+002	-1.2457615E+000	-7.205289425939739E+001	8.9760721E-002	-1.2458448E+000	0
1.6920734E+001	1.124896973534851E+002	-1.2477956E+000	-7.374358508408659E+001	9.2016920E-002	-1.2478484E+000	0
1.6555981E+001	1.126901973484200E+002	-1.2498153E+000	-7.549026446403002E+001	9.4348893E-002	-1.2498541E+000	0
1.6198404E+001	1.128901973433676E+002	-1.2518148E+000	-7.728013659388586E+001	9.6740425E-002	-1.2518542E+000	0
1.5883611E+001	1.130902973383127E+002	-1.2537743E+000	-7.893509065241710E+001	9.8966785E-002	-1.2538550E+000	0
1.5508265E+001	1.132907973332476E+002	-1.2557701E+000	-8.097424543456304E+001	1.0168503E-001	-1.2558594E+000	0
1.5158555E+001	1.134912973281826E+002	-1.2578239E+000	-8.297782721597525E+001	1.0437150E-001	-1.2578650E+000	0
1.4827086E+001	1.136913973231276E+002	-1.2597920E+000	-8.496557600644155E+001	1.0703895E-001	-1.2598661E+000	0
1.4539482E+001	1.138915973180701E+002	-1.2618183E+000	-8.678564400449852E+001	1.0950771E-001	-1.2618678E+000	0
1.4216003E+001	1.140917973130126E+002	-1.2637943E+000	-8.889940658394167E+001	1.1235056E-001	-1.2638701E+000	0
1.3892317E+001	1.142917973079602E+002	-1.2658417E+000	-9.111811329718375E+001	1.1534111E-001	-1.2658702E+000	0
1.3613500E+001	1.144919973029027E+002	-1.2678387E+000	-9.313099368129997E+001	1.1807508E-001	-1.2678721E+000	0
1.3321734E+001	1.146923972978402E+002	-1.2697976E+000	-9.531773474177169E+001	1.2103423E-001	-1.2698754E+000	0
1.3046426E+001	1.148926972927802E+002	-1.2717928E+000	-9.748208116118622E+001	1.2397701E-001	-1.2718788E+000	0
1.2804352E+001	1.150927972877253E+002	-1.2738211E+000	-9.948345439936838E+001	1.2672412E-001	-1.2738801E+000	0
1.2557915E+001	1.152928972826703E+002	-1.2758193E+000	-1.015948357878874E+002	1.2961665E-001	-1.2758809E+000	0
1.2278807E+001	1.154930972776128E+002	-1.2778360E+000	-1.040684154693365E+002	1.3298236E-001	-1.2778831E+000	0
1.2045485E+001	1.156934972725503E+002	-1.2798272E+000	-1.062495470955146E+002	1.3598107E-001	-1.2798865E+000	0
1.1805294E+001	1.158940972674827E+002	-1.2818288E+000	-1.085808434563855E+002	1.3918205E-001	-1.2818924E+000	0
1.1475546E+001	1.161044972621676E+002	-1.2839278E+000	-1.118838103324275E+002	1.4365074E-001	-1.2839969E+000	0
1.1198373E+001	1.163148972568524E+002	-1.2860159E+000	-1.148395265354839E+002	1.4768545E-001	-1.2861004E+000	0
1.0989733E+001	1.165155972517823E+002	-1.2879924E+000	-1.171996053903995E+002	1.5095219E-001	-1.2881075E+000	0
1.0775743E+001	1.167157972467248E+002	-1.2900108E+000	-1.197143237401573E+002	1.5443277E-001	-1.2901100E+000	0
1.0559382E+001	1.169159972416674E+002	-1.2919952E+000	-1.223551804018806E+002	1.5808231E-001	-1.2921118E+000	0
1.0377633E+001	1.171161972366099E+002	-1.2940003E+000	-1.246912662166587E+002	1.6135053E-001	-1.2941141E+000	0
1.0146222E+001	1.173163972315524E+002	-1.2960486E+000	-1.277370672193081E+002	1.6555345E-001	-1.2961156E+000	0
9.9335947E+000	1.175167972264899E+002	-1.2980483E+000	-1.306725648829356E+002	1.6961929E-001	-1.2981197E+000	0
9.7507076E+000	1.177169972214324E+002	-1.3000684E+000	-1.333306705243458E+002	1.7333899E-001	-1.3001221E+000	0
9.6060333E+000	1.179170972163774E+002	-1.3020167E+000	-1.355415543230965E+002	1.7647737E-001	-1.3021228E+000	0
9.3971109E+000	1.181173972113174E+002	-1.3040732E+000	-1.387738377840674E+002	1.8097125E-001	-1.3041255E+000	0
9.1997700E+000	1.183179972062499E+002	-1.3060418E+000	-1.419646120378848E+002	1.8541172E-001	-1.3061315E+000	0
9.0259199E+000	1.185185972011823E+002	-1.3080690E+000	-1.449236196500892E+002	1.8957010E-001	-1.3081375E+000	0
8.8656273E+000	1.187187971961248E+002	-1.3100810E+000	-1.477708231391812E+002	1.9359174E-001	-1.3101401E+000	0
8.7204618E+000	1.189188971910698E+002	-1.3120937E+000	-1.504614978936738E+002	1.9741958E-001	-1.3121411E+000	0
8.5578508E+000	1.191190971860124E+002	-1.3140783E+000	-1.535523688669870E+002	2.0177984E-001	-1.3141431E+000	0
8.4142056E+000	1.193192971809549E+002	-1.3160459E+000	-1.564076192479110E+002	2.0583960E-001	-1.3161448E+000	0
8.2726212E+000	1.195194971758974E+002	-1.3180822E+000	-1.593306545642965E+002	2.1001090E-001	-1.3181469E+000	0
8.0980644E+000	1.197195971708425E+002	-1.3201052E+000	-1.630149065718352E+002	2.1519682E-001	-1.3201481E+000	0
7.9531536E+000	1.199198971657825E+002	-1.3220786E+000	-1.662332478395888E+002	2.1977341E-001	-1.3221505E+000	0
7.8588219E+000	1.201202971607199E+002	-1.3240851E+000	-1.684839194889983E+002	2.2308706E-001	-1.3241550E+000	0
7.7280922E+000	1.203203971556650E+002	-1.3260722E+000	-1.715911509423026E+002	2.2754225E-001	-1.3261560E+000	0
7.6070428E+000	1.205205971506075E+002	-1.3280919E+000	-1.745871471582655E+002	2.3186778E-001	-1.3281575E+000	0
7.4952502E+000	1.207208971455475E+002	-1.3300782E+000	-1.774561470071338E+002	2.3603056E-001	-1.3301609E+000	0
7.3783536E+000	1.208812971414955E+002	-1.3317465E+000	-1.804937131140747E+002	2.4037187E-001	-1.3317643E+000	0
7.3033576E+000	1.210218971379436E+002	-1.3331105E+000	-1.825339171288695E+002	2.4333787E-001	-1.3331698E+000	0
7.2402539E+000	1.211827971338789E+002	-1.3347546E+000	-1.843518978126590E+002	2.4606454E-001	-1.3347793E+000	0
7.1492023E+000	1.213433971298218E+002	-1.3363590E+000	-1.869242114821031E+002	2.4979785E-001	-1.3363855E+000	0
7.0811372E+000	1.214542971270203E+002	-1.3374528E+000	-1.888754234698454E+002	2.5261196E-001	-1.3374938E+000	0
6.9892526E+000	1.215356971249639E+002	-1.3383075E+000	-1.914807777584520E+002	2.5626016E-001	-1.3383074E+000	0
6.9380789E+000	1.216367971224099E+002	-1.3392155E+000	-1.930239701865723E+002	2.5850070E-001	-1.3393184E+000	0
6.8732004E+000	1.217672971191132E+002	-1.3405926E+000	-1.950463461496624E+002	2.6147768E-001	-1.3406245E+000	0
6.8083329E+000	1.219280971150511E+002	-1.3421848E+000	-1.971385310667645E+002	2.6459634E-001	-1.3422314E+000	0
6.7201576E+000	1.220391971122444E+002	-1.3433499E+000	-1.998985759333058E+002	2.6853374E-001	-1.3433428E+000	0
6.6094370E+000	1.221498971094479E+002	-1.3443753E+000	-2.034023789420394E+002	2.7344912E-001	-1.3444498E+000	0
6.5341973E+000	1.222807971061411E+002	-1.3456630E+000	-2.059415884210420E+002	2.7712795E-001	-1.3457588E+000	0
6.4712625E+000	1.224114971028393E+002	-1.3470364E+000	-2.081566507355069E+002	2.8039458E-001	-1.3470652E+000	0
6.4773107E+000	1.225023971005430E+002	-1.3479360E+000	-2.081011848772860E+002	2.8050709E-001	-1.3479747E+000	0
6.3831220E+000	1.226231970974914E+002	-1.3491317E+000	-2.113592232970245E+002	2.8515142E-001	-1.3491830E+000	0
6.3291535E+000	1.227437970944447E+002	-1.3503298E+000	-2.133507684328753E+002	2.8809389E-001	-1.3503891E+000	0
6.2820086E+000	1.228347970921459E+002	-1.3512784E+000	-2.151029304889676E+002	2.9066396E-001	-1.3512990E+000	0
6.2443838E+000	1.229358970895919E+002	-1.3523085E+000	-2.165639585520630E+002	2.9286128E-001	-1.3523099E+000	0
6.2002635E+000	1.230862970857925E+002	-1.3537902E+000	-2.183439798882993E+002	2.9559192E-001	-1.3538141E+000	0
6.1934109E+000	1.232465970817429E+002	-1.3554115E+000	-2.188473419187271E+002	2.9662821E-001	-1.3554175E+000	0
6.1238708E+000	1.233376970794416E+002	-1.3562791E+000	-2.214741588177262E+002	3.0038077E-001	-1.3563275E+000	0
6.0769010E+000	1.234288970771377E+002	-1.3572072E+000	-2.233386992338496E+002	3.0311689E-001	-1.3572395E+000	0
6.0221381E+000	1.235200970748338E+002	-1.3581587E+000	-2.255276628702087E+002	3.0630237E-001	-1.3581512E+000	0
5.9720559E+000	1.236109970725374E+002	-1.3590193E+000	-2.275630568029028E+002	3.0926257E-001	-1.3590609E+000	0
5.9217486E+000	1.237218970697359E+002	-1.3601471E+000	-2.296867300805138E+002	3.1240773E-001	-1.3601699E+000	0
5.9074845E+000	1.238426970666842E+002	-1.3613306E+000	-2.304416752575262E+002	3.1370732E-001	-1.3613781E+000	0
5.8946123E+000	1.239832970631323E+002	-1.3627641E+000	-2.311880792403776E+002	3.1505483E-001	-1.3627834E+000	0
5.7944145E+000	1.241339970593253E+002	-1.3642434E+000	-2.354411097606949E+002	3.2119897E-001	-1.3642908E+000	0
5.7580075E+000	1.242350970567713E+002	-1.3652726E+000	-2.371085130727251E+002	3.2371777E-001	-1.3653021E+000	0
5.6981664E+000	1.243160970547251E+002	-1.3660738E+000	-2.397392044150661E+002	3.2750145E-001	-1.3661116E+000	0
5.6402884E+000	1.244467970514233E+002	-1.3674141E+000	-2.424369152663012E+002	3.3151165E-001	-1.3674195E+000	0
5.5916152E+000	1.245775970481191E+002	-1.3687626E+000	-2.447884126909703E+002	3.3505723E-001	-1.3687265E+000	0
5.5436716E+000	1.246884970453175E+002	-1.3698071E+000	-2.470938490440803E+002	3.3847091E-001	-1.3698359E+000	0
5.4952421E+000	1.248392970415080E+002	-1.3713449E+000	-2.495513198359249E+002	3.4222093E-001	-1.3713443E+000	0
5.4613376E+000	1.249996970374559E+002	-1.3729244E+000	-2.513897832437628E+002	3.4513918E-001	-1.3729485E+000	0
5.4280915E+000	1.251300970341617E+002	-1.3742316E+000	-2.531703070225174E+002	3.4791464E-001	-1.3742516E+000	0
5.3772650E+000	1.252608970308575E+002	-1.3755724E+000	-2.558126642072612E+002	3.5188887E-001	-1.3755602E+000	0
5.3061357E+000	1.254115970270504E+002	-1.3770632E+000	-2.595228050735886E+002	3.5737929E-001	-1.3770672E+000	0
5.2566257E+000	1.255321970240038E+002	-1.3782666E+000	-2.621960715489658E+002	3.6137608E-001	-1.3782730E+000	0
5.2114620E+000	1.256728970204495E+002	-1.3796526E+000	-2.647342846086140E+002	3.6524135E-001	-1.3796798E+000	0
5.1745605E+000	1.258235970166425E+002	-1.3811911E+000	-2.669194958083046E+002	3.6866683E-001	-1.3811871E+000	0
5.1482887E+000	1.259442970135933E+002	-1.3823836E+000	-2.685132212291692E+002	3.7118828E-001	-1.3823937E+000	0
5.1310577E+000	1.260449970110494E+002	-1.3833631E+000	-2.696058503864824E+002	3.7296280E-001	-1.3834013E+000	0
5.0758977E+000	1.261952970072525E+002	-1.3849180E+000	-2.728419764455168E+002	3.7786376E-001	-1.3849039E+000	0
5.0112619E+000	1.263458970034480E+002	-1.3863853E+000	-2.766539244907071E+002	3.8354895E-001	-1.3864106E+000	0
4.9639044E+000	1.264568970006439E+002	-1.3875843E+000	-2.795348496442957E+002	3.8787818E-001	-1.3875195E+000	0
4.9393358E+000	1.265282969988402E+002	-1.3882436E+000	-2.810587482469241E+002	3.9017799E-001	-1.3882340E+000	0
4.9207702E+000	1.266292969962888E+002	-1.3892186E+000	-2.823172991414094E+002	3.9220044E-001	-1.3892440E+000	0
4.9086771E+000	1.267304969937322E+002	-1.3902997E+000	-2.832330616393733E+002	3.9377883E-001	-1.3902560E+000	0
4.8650031E+000	1.268314969911808E+002	-1.3912984E+000	-2.859810008798131E+002	3.9788491E-001	-1.3912659E+000	0
4.7765346E+000	1.269721969876264E+002	-1.3926711E+000	-2.915651708667301E+002	4.0605438E-001	-1.3926731E+000	0
4.7019529E+000	1.271030969843196E+002	-1.3939795E+000	-2.964681937463047E+002	4.1327059E-001	-1.3939818E+000	0
4.6779022E+000	1.272138969815205E+002	-1.3950827E+000	-2.982282790657614E+002	4.1605312E-001	-1.3950901E+000	0
4.6438222E+000	1.273147969789716E+002	-1.3960859E+000	-3.006329394448539E+002	4.1970938E-001	-1.3960992E+000	0
4.6303716E+000	1.274156969764226E+002	-1.3971173E+000	-3.017289710184903E+002	4.2155075E-001	-1.3971080E+000	0
4.5998988E+000	1.275561969728733E+002	-1.3985499E+000	-3.040392789833195E+002	4.2521411E-001	-1.3985128E+000	0
4.5703187E+000	1.276868969695715E+002	-1.3998222E+000	-3.062854816990111E+002	4.2874524E-001	-1.3998204E+000	0
4.5036316E+000	1.278078969665148E+002	-1.4010795E+000	-3.110999524757335E+002	4.3587577E-001	-1.4010291E+000	0
4.4723606E+000	1.279089969639608E+002	-1.4020261E+000	-3.134867948004858E+002	4.3951666E-001	-1.4020407E+000	0
4.4962616E+000	1.280096969614169E+002	-1.4030560E+000	-3.120494707750358E+002	4.3782288E-001	-1.4030474E+000	0
4.4610152E+000	1.281304969583653E+002	-1.4042140E+000	-3.147745343738936E+002	4.4201082E-001	-1.4042562E+000	0
4.4438863E+000	1.282513969553111E+002	-1.4055328E+000	-3.162845967654412E+002	4.4454840E-001	-1.4054642E+000	0
4.4320512E+000	1.283722969522569E+002	-1.4066411E+000	-3.173792452983564E+002	4.4643870E-001	-1.4066739E+000	0
4.4162264E+000	1.285229969484499E+002	-1.4082400E+000	-3.188785775864185E+002	4.4905755E-001	-1.4081810E+000	0
4.3845396E+000	1.286637969448930E+002	-1.4096049E+000	-3.214943892832521E+002	4.5318007E-001	-1.4095892E+000	0
4.3081717E+000	1.288242969408384E+002	-1.4112322E+000	-3.275710301368663E+002	4.6227878E-001	-1.4111946E+000	0
4.2842627E+000	1.289450969377867E+002	-1.4124123E+000	-3.296745426257703E+002	4.6563637E-001	-1.4124018E+000	0
4.2575006E+000	1.290558969349877E+002	-1.4134598E+000	-3.319928627646664E+002	4.6925855E-001	-1.4135092E+000	0
4.2452350E+000	1.291666969321886E+002	-1.4146216E+000	-3.332257447742036E+002	4.7138834E-001	-1.4146177E+000	0
4.2039514E+000	1.292970969288945E+002	-1.4159472E+000	-3.368134189961006E+002	4.7691002E-001	-1.4159226E+000	0
4.2077537E+000	1.294673969245923E+002	-1.4176229E+000	-3.369072947341460E+002	4.7760752E-001	-1.4176254E+000	0
4.1220217E+000	1.296575969197875E+002	-1.4195137E+000	-3.443731601524769E+002	4.8884243E-001	-1.4195280E+000	0
4.1247315E+000	1.298575969147350E+002	-1.4215651E+000	-3.446442477102992E+002	4.8993421E-001	-1.4215279E+000	0
4.1353469E+000	1.300575969096826E+002	-1.4235808E+000	-3.442470008261898E+002	4.9006340E-001	-1.4235280E+000	0
4.0888772E+000	1.302575969046302E+002	-1.4255636E+000	-3.486442517931491E+002	4.9701455E-001	-1.4255278E+000	0
3.9981792E+000	1.304575968995778E+002	-1.4275403E+000	-3.570476008088681E+002	5.0969982E-001	-1.4275279E+000	0
3.9645128E+000	1.306575968945253E+002	-1.4295856E+000	-3.605955140487949E+002	5.1550215E-001	-1.4295280E+000	0
3.9203794E+000	1.308575968894729E+002	-1.4316109E+000	-3.651715209273261E+002	5.2278352E-001	-1.4315279E+000	0
3.9278858E+000	1.310575968844205E+002	-1.4336104E+000	-3.649827138745059E+002	5.2324301E-001	-1.4335279E+000	0
3.8658702E+000	1.312575968793681E+002	-1.4356078E+000	-3.713543748617717E+002	5.3311926E-001	-1.4355278E+000	0
3.8044004E+000	1.314575968743156E+002	-1.4376292E+000	-3.778858901389340E+002	5.4325980E-001	-1.4375279E+000	0
3.7746830E+000	1.316575968692632E+002	-1.4396318E+000	-3.813914385274438E+002	5.4906327E-001	-1.4395280E+000	0
3.7024393E+000	1.318575968642108E+002	-1.4415728E+000	-3.893575819257717E+002	5.6128728E-001	-1.4415278E+000	0
3.6483176E+000	1.320575968591584E+002	-1.4436002E+000	-3.956892912079711E+002	5.7121712E-001	-1.4435279E+000	0
3.6341958E+000	1.322575968541059E+002	-1.4455889E+000	-3.977741010929703E+002	5.7501787E-001	-1.4455278E+000	0
3.6033292E+000	1.324575968490535E+002	-1.4475527E+000	-4.017264556452265E+002	5.8152020E-001	-1.4475279E+000	0
3.5941095E+000	1.326575968440011E+002	-1.4496139E+000	-4.033304863927569E+002	5.8467346E-001	-1.4495280E+000	0
3.5698147E+000	1.328575968389487E+002	-1.4515643E+000	-4.066217615685500E+002	5.9023762E-001	-1.4515278E+000	0
3.5544889E+000	1.330575968338962E+002	-1.4536208E+000	-4.089535209327058E+002	5.9446335E-001	-1.4535279E+000	0
3.5452483E+000	1.332575968288438E+002	-1.4555912E+000	-4.105752418976535E+002	5.9762973E-001	-1.4555278E+000	0
3.4987733E+000	1.334575968237914E+002	-1.4575847E+000	-4.165988024065027E+002	6.0722804E-001	-1.4575279E+000	0
3.4749303E+000	1.336575968187390E+002	-1.4596030E+000	-4.200380408444898E+002	6.1308879E-001	-1.4595280E+000	0
3.4679611E+000	1.338575968136865E+002	-1.4615880E+000	-4.214545515670252E+002	6.1599290E-001	-1.4615278E+000	0
3.4214814E+000	1.340575968086341E+002	-1.4640803E+000	-4.279083087471336E+002	6.2649214E-001	-1.4635279E+000	0
3.3805368E+000	1.342575968035817E+002	-1.4661500E+000	-4.337033177676394E+002	6.3587415E-001	-1.4655279E+000	0
3.3113887E+000	1.344575967985293E+002	-1.4681503E+000	-4.433639031018811E+002	6.5092480E-001	-1.4675279E+000	0
3.2795932E+000	1.346575967934768E+002	-1.4701418E+000	-4.482695434812522E+002	6.5901977E-001	-1.4695278E+000	0
3.2670760E+000	1.348575967884244E+002	-1.4721658E+000	-4.506065453466654E+002	6.6336757E-001	-1.4715279E+000	0
3.2655010E+000	1.350575967833720E+002	-1.4741673E+000	-4.514368118147722E+002	6.6549343E-001	-1.4735278E+000	0
3.2255809E+000	1.352575967783196E+002	-1.4761887E+000	-4.576504692890758E+002	6.7557842E-001	-1.4755279E+000	0
3.2218263E+000	1.354575967732671E+002	-1.4781749E+000	-4.588002975057307E+002	6.7818707E-001	-1.4775279E+000	0
3.1816595E+000	1.356575967682147E+002	-1.4801366E+000	-4.652090115320118E+002	6.8857288E-001	-1.4795280E+000	0
3.1421053E+000	1.358575967631623E+002	-1.4821621E+000	-4.717098815122135E+002	6.9915050E-001	-1.4815279E+000	0
3.1007483E+000	1.360575967581099E+002	-1.4841770E+000	-4.786512300876257E+002	7.1040314E-001	-1.4835279E+000	0
3.1177375E+000	1.362575967530574E+002	-1.4861811E+000	-4.766857715788337E+002	7.0844138E-001	-1.4855279E+000	0
3.0682309E+000	1.364575967480050E+002	-1.4882042E+000	-4.850365738857890E+002	7.2183347E-001	-1.4875280E+000	0
3.0563443E+000	1.366575967429526E+002	-1.4901971E+000	-4.875750171592158E+002	7.2658288E-001	-1.4895278E+000	0
3.0453241E+000	1.368575967379002E+002	-1.4921820E+000	-4.899912053971057E+002	7.3115605E-001	-1.4915279E+000	0
3.0354924E+000	1.370575967328477E+002	-1.4941995E+000	-4.922428563608871E+002	7.3550904E-001	-1.4935280E+000	0
3.0266511E+000	1.372575967277953E+002	-1.4961451E+000	-4.943235965867161E+002	7.3957986E-001	-1.4955279E+000	0
3.0083442E+000	1.374575967227429E+002	-1.4982007E+000	-4.980150350886397E+002	7.4612647E-001	-1.4975280E+000	0
2.9964895E+000	1.376575967176905E+002	-1.5001907E+000	-5.006494253508918E+002	7.5106961E-001	-1.4995279E+000	0
2.9940355E+000	1.378575967126380E+002	-1.5022291E+000	-5.017405836533526E+002	7.5372928E-001	-1.5015279E+000	0
2.9445181E+000	1.380575967075856E+002	-1.5041651E+000	-5.108357390751917E+002	7.6838124E-001	-1.5035280E+000	0
2.9008863E+000	1.382575967025332E+002	-1.5061698E+000	-5.192102065010681E+002	7.8201872E-001	-1.5055279E+000	0
2.8942235E+000	1.384575966974808E+002	-1.5082006E+000	-5.211071685609359E+002	7.8593415E-001	-1.5075279E+000	0
2.8804629E+000	1.386575966924283E+002	-1.5101557E+000	-5.242753345117553E+002	7.9173738E-001	-1.5095280E+000	0
2.8572822E+000	1.388575966873759E+002	-1.5122151E+000	-5.292494994615481E+002	8.0033910E-001	-1.5115279E+000	0
2.8680522E+000	1.390575966823235E+002	-1.5141671E+000	-5.279426468397232E+002	7.9939336E-001	-1.5135280E+000	0
2.8550794E+000	1.392575966772711E+002	-1.5162140E+000	-5.310584173959401E+002	8.0519819E-001	-1.5155278E+000	0
2.8331201E+000	1.394575966722186E+002	-1.5181866E+000	-5.358708968346355E+002	8.1355202E-001	-1.5175279E+000	0
2.8295412E+000	1.396575966671662E+002	-1.5202093E+000	-5.372635323487684E+002	8.1675303E-001	-1.5195280E+000	0
2.8014214E+000	1.398575966621138E+002	-1.5222521E+000	-5.433856098970855E+002	8.2716990E-001	-1.5215279E+000	0
2.7638097E+000	1.400575966570614E+002	-1.5241978E+000	-5.514843791607013E+002	8.4057128E-001	-1.5235277E+000	0
2.7341526E+000	1.402575966520089E+002	-1.5262638E+000	-5.582219164539092E+002	8.5199392E-001	-1.5255278E+000	0
2.7301111E+000	1.404575966469565E+002	-1.5282462E+000	-5.597743446756649E+002	8.5547298E-001	-1.5275279E+000	0
2.7343454E+000	1.406575966419041E+002	-1.5302534E+000	-5.596416051609438E+002	8.5639346E-001	-1.5295278E+000	0
2.6903238E+000	1.408575966368517E+002	-1.5322264E+000	-5.695323600206775E+002	8.7265253E-001	-1.5315279E+000	0
2.6638899E+000	1.409775966338202E+002	-1.5334445E+000	-5.756411238689807E+002	8.8271374E-001	-1.5327275E+000	0
2.6606252E+000	1.409879966335575E+002	-1.5337563E+000	-5.764645996093750E+002	8.8415617E-001	-1.5330276E+000	1