EC-Lab ASCII FILE
Nb header lines : 63                          

Linear Sweep Voltammetry

Run on channel : 1 (SN 1340)
User : 
Electrode connection : standard
Potential control : Ewe
Ewe ctrl range : min = -5.00 V, max = 5.00 V
Ewe,I filtering : <None>
Safety Limits :
	Do not start on E overload
Channel : Floating
Acquisition started on : 02/19/2026 17:32:19.091
Technique started on : 02/19/2026 17:32:21.931
Loaded Setting File :  NONE
Saved on :
	File : Pt40_2_19_02_LSV_C01.mpr
	Directory : C:\Users\volt\Documents\Platalytix\
	Host : 127.0.0.1
Device : SP-200 (SN 0262)
Address : USB
EC-LAB for windows v11.60 (software)
Internet server v11.60 (firmware)
Command interpretor v11.60 (firmware)
Electrode material : Pt40
Initial state : 
Electrolyte : KOH (1M)
Comments : 
Cable : standard
Reference electrode : Hg/HgO (0.140 V)
Electrode surface area : 1.000 cm˛
Characteristic mass : 0.001 g
Equivalent Weight : 0.000 g/eq.
Density : 0.000 g/cm3
Volume (V) : 0.001 cmł
Cycle Definition : Charge/Discharge alternance
tR (h:m:s)          0:00:5.0000         
dER/dt (mV/h)       0.0                 
dER (mV)            0                   
dtR (s)             0.0000              
dE/dt               10.000              
dE/dt unit          mV/s                
Ei (V)              -0.200              
vs.                 Ref                 
EL (V)              -2.500              
vs.                 Ref                 
record              <I>                 
dI                  0.000               
unit dI             µA                  
tI (s)              0.0000              
step percent        50                  
N                   10                  
E range min (V)     -5.000              
E range max (V)     5.000               
I Range             Auto                
I Range min         Unset               
I Range max         Unset               
I Range init        Unset               
Bandwidth           8                   

Rwe/Ohm	time/s	Ewe/V	<I>/mA	Pwe/W	control/V	error	
0.0000000E+000	2.840400121960556E+000	-1.6594251E-001	0.000000000000000E+000	0.0000000E+000	0.0000000E+000	0
0.0000000E+000	7.840199995654984E+000	-3.2213613E-002	0.000000000000000E+000	0.0000000E+000	-1.9991687E-001	0
9.6427953E+004	8.040199990602559E+000	-2.0143817E-001	-2.089001944696065E-003	4.2080472E-007	-2.0181665E-001	0
1.6496755E+003	8.160199987571104E+000	-2.0283593E-001	-1.229550427434090E-001	2.4939700E-005	-2.0301671E-001	0
1.6776936E+003	8.370199982266058E+000	-2.0496197E-001	-1.221688958265037E-001	2.5039977E-005	-2.0511666E-001	0
1.8379220E+003	8.570199977213633E+000	-2.0694967E-001	-1.125998115441561E-001	2.3302493E-005	-2.0711653E-001	0
1.9862756E+003	8.770199972161208E+000	-2.0897765E-001	-1.052108005136931E-001	2.1986707E-005	-2.0911641E-001	0
2.1203828E+003	8.970199967108783E+000	-2.1093456E-001	-9.947947017603531E-002	2.0983658E-005	-2.1111631E-001	0
2.2425552E+003	9.170199962056358E+000	-2.1293537E-001	-9.495211809888415E-002	2.0218664E-005	-2.1311621E-001	0
2.3558003E+003	9.370199957003933E+000	-2.1495935E-001	-9.124684510456915E-002	1.9614363E-005	-2.1511611E-001	0
2.4603777E+003	9.570199951951508E+000	-2.1695086E-001	-8.817787239562458E-002	1.9130266E-005	-2.1711598E-001	0
2.5601902E+003	9.770199946899083E+000	-2.1898498E-001	-8.553465559778761E-002	1.8730805E-005	-2.1911588E-001	0
2.6527822E+003	9.970199941846658E+000	-2.2094637E-001	-8.328854779358075E-002	1.8402303E-005	-2.2111577E-001	0
2.7430032E+003	1.017019993679423E+001	-2.2295442E-001	-8.128114073862519E-002	1.8121989E-005	-2.2311567E-001	0
2.8305356E+003	1.037019993174181E+001	-2.2494043E-001	-7.946921133936771E-002	1.7875838E-005	-2.2511557E-001	0
2.9134724E+003	1.057019992668938E+001	-2.2695269E-001	-7.789765845069785E-002	1.7679084E-005	-2.2711545E-001	0
2.9947629E+003	1.077019992163696E+001	-2.2896884E-001	-7.645641852596796E-002	1.7506138E-005	-2.2911532E-001	0
3.0739016E+003	1.097019991658453E+001	-2.3096479E-001	-7.513734185276255E-002	1.7354081E-005	-2.3111522E-001	0
3.1479565E+003	1.117019991153211E+001	-2.3295373E-001	-7.400157167248922E-002	1.7238943E-005	-2.3311511E-001	0
3.2241599E+003	1.137019990647968E+001	-2.3496918E-001	-7.287764789371898E-002	1.7124001E-005	-2.3511501E-001	0
3.2992471E+003	1.157009990142979E+001	-2.3697451E-001	-7.182684706608877E-002	1.7021131E-005	-2.3711492E-001	0
3.3685852E+003	1.176999989637989E+001	-2.3890871E-001	-7.092256793359525E-002	1.6944019E-005	-2.3911481E-001	0
3.4389771E+003	1.196999989132746E+001	-2.4096452E-001	-7.006865982948285E-002	1.6884062E-005	-2.4111468E-001	0
3.5141201E+003	1.216999988627504E+001	-2.4298654E-001	-6.914576919445284E-002	1.6801492E-005	-2.4311456E-001	0
3.5810811E+003	1.236999988122261E+001	-2.4493456E-001	-6.839682105685807E-002	1.6752745E-005	-2.4511446E-001	0
3.6486965E+003	1.256999987617019E+001	-2.4700606E-001	-6.769706932627217E-002	1.6721586E-005	-2.4711436E-001	0
3.7189065E+003	1.276999987111776E+001	-2.4898526E-001	-6.695120042884707E-002	1.6669863E-005	-2.4911425E-001	0
3.7814805E+003	1.296999986606534E+001	-2.5095510E-001	-6.636424555365106E-002	1.6654447E-005	-2.5111416E-001	0
3.8512146E+003	1.316999986101291E+001	-2.5296083E-001	-6.568338803560475E-002	1.6615324E-005	-2.5311401E-001	0
3.9170488E+003	1.336999985596049E+001	-2.5499988E-001	-6.509999746494755E-002	1.6600492E-005	-2.5511393E-001	0
3.9819075E+003	1.356999985090806E+001	-2.5695020E-001	-6.452942569792902E-002	1.6580849E-005	-2.5711381E-001	0
4.0424822E+003	1.376999984585564E+001	-2.5890794E-001	-6.404677606948017E-002	1.6582218E-005	-2.5911370E-001	0
4.1071997E+003	1.396999984080321E+001	-2.6096821E-001	-6.353920504034738E-002	1.6581713E-005	-2.6111358E-001	0
4.1713662E+003	1.416999983575079E+001	-2.6298308E-001	-6.304483365134472E-002	1.6579725E-005	-2.6311350E-001	0
4.2350732E+003	1.436999983069836E+001	-2.6492935E-001	-6.255602870926341E-002	1.6572929E-005	-2.6511338E-001	0
4.2903013E+003	1.456999982564594E+001	-2.6695266E-001	-6.222235643602647E-002	1.6610424E-005	-2.6711327E-001	0
4.3557739E+003	1.476999982059351E+001	-2.6892850E-001	-6.174069545347893E-002	1.6603832E-005	-2.6911315E-001	0
4.4159341E+003	1.496999981554109E+001	-2.7093357E-001	-6.135362515367482E-002	1.6622756E-005	-2.7111304E-001	0
4.4773506E+003	1.516989981049119E+001	-2.7294564E-001	-6.096141638634800E-002	1.6639153E-005	-2.7311274E-001	0
4.5390142E+003	1.536979980544129E+001	-2.7493799E-001	-6.057218391218061E-002	1.6653594E-005	-2.7511284E-001	0
4.5950708E+003	1.556979980038886E+001	-2.7691889E-001	-6.026433616752014E-002	1.6688333E-005	-2.7711272E-001	0
4.6564263E+003	1.576979979533644E+001	-2.7891845E-001	-5.989967758002823E-002	1.6707125E-005	-2.7911264E-001	0
4.7116597E+003	1.596979979028401E+001	-2.8097892E-001	-5.963480969006119E-002	1.6756125E-005	-2.8111249E-001	0
4.7734443E+003	1.616979978523159E+001	-2.8291485E-001	-5.926849274915080E-002	1.6767937E-005	-2.8311238E-001	0
4.8326724E+003	1.636979978017916E+001	-2.8499460E-001	-5.897246470227158E-002	1.6806835E-005	-2.8511229E-001	0
4.8837280E+003	1.656979977512674E+001	-2.8692475E-001	-5.875117173935807E-002	1.6857166E-005	-2.8711218E-001	0
4.9460195E+003	1.676979977007431E+001	-2.8896210E-001	-5.842316133348184E-002	1.6882079E-005	-2.8911206E-001	0
5.0009844E+003	1.696979976502189E+001	-2.9091731E-001	-5.817200665049654E-002	1.6923244E-005	-2.9111195E-001	0
5.0568247E+003	1.716979975996946E+001	-2.9291242E-001	-5.792417767501988E-002	1.6966711E-005	-2.9311186E-001	0
5.1162046E+003	1.736979975491704E+001	-2.9489627E-001	-5.763965730170995E-002	1.6997721E-005	-2.9511172E-001	0
5.1721367E+003	1.756979974986461E+001	-2.9693744E-001	-5.741098179437593E-002	1.7047470E-005	-2.9711163E-001	0
5.2239224E+003	1.776979974481219E+001	-2.9895887E-001	-5.722880935615271E-002	1.7109060E-005	-2.9911149E-001	0
5.2789487E+003	1.796979973975976E+001	-3.0092785E-001	-5.700525826597158E-002	1.7154469E-005	-3.0111143E-001	0
5.3332959E+003	1.816979973470734E+001	-3.0292001E-001	-5.679790185111855E-002	1.7205221E-005	-3.0311128E-001	0
5.3835161E+003	1.836979972965491E+001	-3.0495119E-001	-5.664535788206759E-002	1.7274069E-005	-3.0511117E-001	0
5.4407739E+003	1.856979972460249E+001	-3.0695224E-001	-5.641701596033033E-002	1.7317328E-005	-3.0711108E-001	0
5.4923389E+003	1.876969971955259E+001	-3.0891797E-001	-5.624524996610503E-002	1.7375169E-005	-3.0911052E-001	0
5.5478203E+003	1.896959971450269E+001	-3.1094226E-001	-5.604764655002215E-002	1.7427583E-005	-3.1111085E-001	0
5.5973496E+003	1.916959970945027E+001	-3.1295940E-001	-5.591207156179567E-002	1.7498209E-005	-3.1311074E-001	0
5.6444653E+003	1.936959970439784E+001	-3.1493545E-001	-5.579544419883120E-002	1.7571963E-005	-3.1511062E-001	0
5.6961084E+003	1.956959969934542E+001	-3.1691608E-001	-5.563729835194797E-002	1.7632354E-005	-3.1711051E-001	0
5.7496353E+003	1.976959969429299E+001	-3.1895658E-001	-5.547423041246147E-002	1.7693870E-005	-3.1911042E-001	0
5.7971802E+003	1.996959968924057E+001	-3.2095829E-001	-5.536455440370847E-002	1.7769713E-005	-3.2111031E-001	0
5.8460073E+003	2.016959968418814E+001	-3.2291713E-001	-5.523721058061032E-002	1.7837041E-005	-3.2311019E-001	0
5.8952144E+003	2.036959967913572E+001	-3.2494870E-001	-5.512076009026923E-002	1.7911419E-005	-3.2511008E-001	0
5.9445518E+003	2.056959967408329E+001	-3.2685551E-001	-5.498404542243951E-002	1.7971839E-005	-3.2710996E-001	0
5.9982593E+003	2.076959966903087E+001	-3.2896906E-001	-5.484408974043536E-002	1.8042008E-005	-3.2910988E-001	0
6.0364419E+003	2.096959966397844E+001	-3.3095485E-001	-5.482614715214046E-002	1.8144980E-005	-3.3110976E-001	0
6.0841074E+003	2.116959965892602E+001	-3.3291662E-001	-5.471905795308241E-002	1.8216884E-005	-3.3310965E-001	0
6.1269292E+003	2.136959965387359E+001	-3.3492169E-001	-5.466387536410511E-002	1.8308117E-005	-3.3510953E-001	0
6.1658921E+003	2.156959964882117E+001	-3.3694080E-001	-5.464591244087802E-002	1.8412436E-005	-3.3710942E-001	0
6.2286655E+003	2.176959964376874E+001	-3.3894858E-001	-5.441752685045975E-002	1.8444744E-005	-3.3910930E-001	0
6.2630288E+003	2.196959963871632E+001	-3.4091169E-001	-5.443239878480854E-002	1.8556640E-005	-3.4110919E-001	0
6.3021655E+003	2.216959963366389E+001	-3.4292352E-001	-5.441360293556008E-002	1.8659704E-005	-3.4310910E-001	0
6.3520659E+003	2.236959962861147E+001	-3.4491420E-001	-5.429952908328417E-002	1.8728679E-005	-3.4510896E-001	0
6.3935049E+003	2.256939962356410E+001	-3.4694305E-001	-5.426492118762366E-002	1.8826837E-005	-3.4710887E-001	0
6.4280127E+003	2.276939961851167E+001	-3.4893245E-001	-5.428309850194102E-002	1.8941135E-005	-3.4910876E-001	0
6.4828535E+003	2.296939961345925E+001	-3.5092390E-001	-5.413108562222801E-002	1.8995892E-005	-3.5110864E-001	0
6.5156143E+003	2.316939960840682E+001	-3.5294491E-001	-5.416909236959293E-002	1.9118705E-005	-3.5310856E-001	0
6.5592959E+003	2.336939960335440E+001	-3.5495448E-001	-5.411472402052631E-002	1.9208264E-005	-3.5510844E-001	0
6.5989722E+003	2.356939959830197E+001	-3.5694575E-001	-5.409111338825967E-002	1.9307594E-005	-3.5710829E-001	0
6.6325107E+003	2.376939959324955E+001	-3.5894892E-001	-5.411961297515157E-002	1.9426176E-005	-3.5910821E-001	0
6.6707178E+003	2.396939958819712E+001	-3.6093915E-001	-5.410799302072039E-002	1.9529693E-005	-3.6110809E-001	0
6.7070508E+003	2.416939958314470E+001	-3.6296120E-001	-5.411636381559976E-002	1.9642141E-005	-3.6310801E-001	0
6.7468047E+003	2.436939957809227E+001	-3.6495990E-001	-5.409373863560041E-002	1.9742045E-005	-3.6510792E-001	0
6.7862871E+003	2.456939957303985E+001	-3.6696351E-001	-5.407426869517825E-002	1.9843283E-005	-3.6710778E-001	0
6.8130044E+003	2.476939956798742E+001	-3.6895034E-001	-5.415383873553825E-002	1.9980078E-005	-3.6910766E-001	0
6.8522891E+003	2.496939956293500E+001	-3.7094250E-001	-5.413409853523043E-002	2.0080637E-005	-3.7110758E-001	0
6.8827319E+003	2.516939955788257E+001	-3.7291700E-001	-5.418153878833562E-002	2.0205216E-005	-3.7310743E-001	0
6.9164370E+003	2.536939955283015E+001	-3.7492931E-001	-5.420844784996948E-002	2.0324336E-005	-3.7510735E-001	0
6.9483506E+003	2.556939954777772E+001	-3.7691700E-001	-5.424553583388808E-002	2.0446065E-005	-3.7710723E-001	0
6.9817358E+003	2.576939954272530E+001	-3.7890023E-001	-5.427020280400185E-002	2.0562993E-005	-3.7910715E-001	0
7.0089912E+003	2.596939953767287E+001	-3.8093013E-001	-5.434878050854375E-002	2.0703088E-005	-3.8110700E-001	0
7.0411821E+003	2.616929953262297E+001	-3.8292569E-001	-5.438372220196841E-002	2.0824924E-005	-3.8310757E-001	0
7.0656362E+003	2.636919952757307E+001	-3.8496745E-001	-5.448446985621369E-002	2.0974747E-005	-3.8510680E-001	0
7.0985278E+003	2.656919952252065E+001	-3.8695493E-001	-5.451199601408574E-002	2.1093685E-005	-3.8710672E-001	0
7.1250996E+003	2.676919951746822E+001	-3.8896865E-001	-5.459132669134559E-002	2.1234315E-005	-3.8910657E-001	0
7.1520732E+003	2.696919951241580E+001	-3.9091924E-001	-5.465816963166248E-002	2.1366930E-005	-3.9110646E-001	0
7.1719839E+003	2.716919950736337E+001	-3.9292896E-001	-5.478664718002380E-002	2.1527259E-005	-3.9310637E-001	0
7.2032988E+003	2.736919950231095E+001	-3.9493728E-001	-5.482727772864604E-002	2.1653335E-005	-3.9510626E-001	0
7.2270269E+003	2.756919949725852E+001	-3.9696038E-001	-5.492720250124772E-002	2.1803922E-005	-3.9710614E-001	0
7.2469893E+003	2.776919949220610E+001	-3.9888796E-001	-5.504188774514701E-002	2.1955546E-005	-3.9910603E-001	0
7.2760313E+003	2.796919948715367E+001	-4.0092427E-001	-5.510205235501187E-002	2.2091750E-005	-4.0110594E-001	0
7.2995225E+003	2.816919948210125E+001	-4.0293357E-001	-5.519998990381558E-002	2.2241929E-005	-4.0310580E-001	0
7.3228169E+003	2.836919947704882E+001	-4.0491217E-001	-5.529459314251872E-002	2.2389453E-005	-4.0510574E-001	0
7.3404126E+003	2.856919947199640E+001	-4.0688941E-001	-5.543140830132109E-002	2.2554454E-005	-4.0710559E-001	0
7.3632715E+003	2.876919946694397E+001	-4.0894991E-001	-5.553916093308353E-002	2.2712735E-005	-4.0910551E-001	0
7.3866597E+003	2.896919946189155E+001	-4.1092458E-001	-5.563063697061632E-002	2.2859997E-005	-4.1110536E-001	0
7.4057983E+003	2.916919945683912E+001	-4.1291207E-001	-5.575524105124452E-002	2.3022012E-005	-4.1310525E-001	0
7.4267578E+003	2.936919945178670E+001	-4.1494858E-001	-5.587210326007841E-002	2.3184049E-005	-4.1510516E-001	0
7.4474629E+003	2.956919944673427E+001	-4.1697976E-001	-5.598950637673417E-002	2.3346491E-005	-4.1710502E-001	0
7.4630747E+003	2.976909944168438E+001	-4.1897658E-001	-5.613994017005441E-002	2.3521319E-005	-4.1910473E-001	0
7.4797939E+003	2.996899943663448E+001	-4.2094833E-001	-5.627806520178186E-002	2.3690158E-005	-4.2110482E-001	0
7.5035366E+003	3.016899943158205E+001	-4.2299968E-001	-5.637337488508742E-002	2.3845920E-005	-4.2310473E-001	0
7.5230142E+003	3.036899942652963E+001	-4.2495126E-001	-5.648683357451606E-002	2.4004150E-005	-4.2510459E-001	0
7.5390796E+003	3.056899942147720E+001	-4.2696440E-001	-5.663349356738867E-002	2.4180486E-005	-4.2710447E-001	0
7.5604487E+003	3.076899941642478E+001	-4.2895699E-001	-5.673697295222796E-002	2.4337722E-005	-4.2910439E-001	0
7.5740635E+003	3.096899941137235E+001	-4.3099856E-001	-5.690453404427642E-002	2.4525772E-005	-4.3110424E-001	0
7.5897339E+003	3.116899940631993E+001	-4.3296647E-001	-5.704633208190230E-002	2.4699149E-005	-4.3310419E-001	0
7.6178730E+003	3.136899940126750E+001	-4.3492126E-001	-5.709221791750574E-002	2.4830619E-005	-4.3510404E-001	0
7.6286533E+003	3.156899939621508E+001	-4.3691385E-001	-5.727273684951689E-002	2.5023252E-005	-4.3710396E-001	0
7.6513208E+003	3.176899939116265E+001	-4.3895796E-001	-5.737021985377228E-002	2.5183115E-005	-4.3910384E-001	0
7.6613193E+003	3.196899938611023E+001	-4.4099000E-001	-5.756058335376069E-002	2.5383642E-005	-4.4110373E-001	0
7.6843154E+003	3.216899938105780E+001	-4.4294798E-001	-5.764312979600511E-002	2.5532909E-005	-4.4310361E-001	0
7.6993926E+003	3.236899937600538E+001	-4.4494477E-001	-5.778959454744720E-002	2.5713178E-005	-4.4510347E-001	0
7.7148042E+003	3.256899937095295E+001	-4.4696280E-001	-5.793572912814171E-002	2.5895117E-005	-4.4710347E-001	0
7.7341948E+003	3.276899936590053E+001	-4.4896129E-001	-5.804887241546630E-002	2.6061696E-005	-4.4910327E-001	0
7.7563154E+003	3.296899936084810E+001	-4.5096150E-001	-5.814120039035509E-002	2.6219443E-005	-4.5110321E-001	0
7.7728315E+003	3.316899935579568E+001	-4.5296019E-001	-5.827480019334197E-002	2.6396165E-005	-4.5310310E-001	0
7.7958223E+003	3.336889935074578E+001	-4.5494214E-001	-5.835717187359171E-002	2.6549136E-005	-4.5510250E-001	0
7.8201572E+003	3.356879934569588E+001	-4.5694068E-001	-5.843113903104102E-002	2.6699565E-005	-4.5710289E-001	0
7.8333086E+003	3.376879934064345E+001	-4.5897460E-001	-5.859268571740106E-002	2.6892554E-005	-4.5910269E-001	0
7.8609517E+003	3.396879933559103E+001	-4.6095315E-001	-5.863833921441985E-002	2.7029528E-005	-4.6110263E-001	0
7.8861099E+003	3.416879933053860E+001	-4.6296567E-001	-5.870647040457616E-002	2.7179080E-005	-4.6310252E-001	0
7.9030117E+003	3.436879932548618E+001	-4.6492615E-001	-5.882898580320950E-002	2.7351134E-005	-4.6510240E-001	0
7.9259717E+003	3.456879932043375E+001	-4.6692449E-001	-5.891069202354438E-002	2.7506845E-005	-4.6710235E-001	0
7.9520698E+003	3.476879931538133E+001	-4.6893167E-001	-5.896976156753647E-002	2.7652790E-005	-4.6910217E-001	0
7.9741870E+003	3.496879931032890E+001	-4.7094950E-001	-5.905924861735401E-002	2.7813923E-005	-4.7110212E-001	0
8.0062778E+003	3.516879930527648E+001	-4.7293508E-001	-5.907053230626014E-002	2.7936527E-005	-4.7310197E-001	0
8.0246167E+003	3.536879930022405E+001	-4.7495121E-001	-5.918677709415943E-002	2.8110831E-005	-4.7510186E-001	0
8.0521006E+003	3.556879929517163E+001	-4.7694135E-001	-5.923191684587525E-002	2.8250150E-005	-4.7710177E-001	0
8.0803799E+003	3.576879929011920E+001	-4.7894523E-001	-5.927261207020440E-002	2.8388335E-005	-4.7910163E-001	0
8.1113804E+003	3.596879928506678E+001	-4.8092607E-001	-5.929028661446467E-002	2.8514245E-005	-4.8110157E-001	0
8.1421548E+003	3.616879928001435E+001	-4.8296216E-001	-5.931625944401747E-002	2.8647510E-005	-4.8310143E-001	0
8.1772422E+003	3.636879927496193E+001	-4.8493582E-001	-5.930310182797138E-002	2.8758199E-005	-4.8510134E-001	0
8.2006895E+003	3.656879926990950E+001	-4.8692608E-001	-5.937623541724024E-002	2.8911838E-005	-4.8710120E-001	0
8.2415020E+003	3.676879926485708E+001	-4.8893198E-001	-5.932559397297577E-002	2.9006180E-005	-4.8910105E-001	0
8.2802207E+003	3.696869925980718E+001	-4.9094346E-001	-5.929110779084745E-002	2.9108582E-005	-4.9110010E-001	0
8.3118027E+003	3.716859925475728E+001	-4.9288568E-001	-5.929949169644841E-002	2.9227871E-005	-4.9310085E-001	0
8.3470166E+003	3.736859924970486E+001	-4.9494505E-001	-5.929604092826146E-002	2.9348283E-005	-4.9510077E-001	0
8.3926797E+003	3.756859924465243E+001	-4.9695849E-001	-5.921333036733922E-002	2.9426568E-005	-4.9710065E-001	0
8.4348750E+003	3.776859923960001E+001	-4.9891686E-001	-5.914928951478071E-002	2.9510578E-005	-4.9910054E-001	0
8.4690342E+003	3.796859923454758E+001	-5.0091982E-001	-5.914722111967330E-002	2.9628016E-005	-5.0110042E-001	0
8.5101729E+003	3.816859922949516E+001	-5.0294250E-001	-5.909897526937302E-002	2.9723387E-005	-5.0310028E-001	0
8.5554570E+003	3.836859922444273E+001	-5.0494909E-001	-5.902070678926830E-002	2.9802452E-005	-5.0510025E-001	0
8.6108936E+003	3.856859921939031E+001	-5.0691110E-001	-5.886858574361842E-002	2.9841140E-005	-5.0710011E-001	0
8.6569092E+003	3.876859921433788E+001	-5.0893289E-001	-5.878921413462568E-002	2.9919765E-005	-5.0910002E-001	0
8.7014375E+003	3.896859920928546E+001	-5.1096469E-001	-5.872187237973303E-002	3.0004803E-005	-5.1109993E-001	0
8.7471982E+003	3.916859920423303E+001	-5.1290298E-001	-5.863625746137979E-002	3.0074711E-005	-5.1309979E-001	0
8.8046299E+003	3.936859919918061E+001	-5.1492935E-001	-5.848393250993811E-002	3.0115094E-005	-5.1509970E-001	0
8.8580068E+003	3.956859919412818E+001	-5.1694858E-001	-5.835947130496322E-002	3.0168845E-005	-5.1709956E-001	0
8.9123027E+003	3.976859918907576E+001	-5.1890188E-001	-5.822309632965139E-002	3.0212075E-005	-5.1909947E-001	0
8.9686523E+003	3.996859918402333E+001	-5.2089787E-001	-5.807983709442222E-002	3.0253663E-005	-5.2109939E-001	0
9.0275293E+003	4.016859917897091E+001	-5.2293038E-001	-5.792618802138294E-002	3.0291363E-005	-5.2309924E-001	0
9.0869922E+003	4.036859917391848E+001	-5.2495939E-001	-5.777042203101312E-002	3.0327124E-005	-5.2509916E-001	0
9.1460557E+003	4.056859916886606E+001	-5.2692413E-001	-5.761217119229234E-002	3.0357243E-005	-5.2709901E-001	0
9.2040811E+003	4.076839916381869E+001	-5.2893627E-001	-5.746757726490181E-002	3.0396686E-005	-5.2909893E-001	0
9.2662119E+003	4.096839915876626E+001	-5.3095722E-001	-5.730035654617582E-002	3.0424038E-005	-5.3109878E-001	0
9.3316250E+003	4.116839915371384E+001	-5.3289539E-001	-5.710638853955718E-002	3.0431731E-005	-5.3309864E-001	0
9.3998867E+003	4.136839914866141E+001	-5.3492129E-001	-5.690720564497820E-002	3.0440875E-005	-5.3509861E-001	0
9.4677910E+003	4.156839914360899E+001	-5.3691238E-001	-5.670935847181946E-002	3.0447956E-005	-5.3709841E-001	0
9.5400459E+003	4.176839913855656E+001	-5.3890604E-001	-5.648883118805220E-002	3.0442172E-005	-5.3909838E-001	0
9.6031084E+003	4.196839913350414E+001	-5.4094064E-001	-5.632974472120733E-002	3.0471048E-005	-5.4109824E-001	0
9.6696084E+003	4.216839912845171E+001	-5.4292446E-001	-5.614751360860670E-002	3.0483860E-005	-5.4309815E-001	0
9.7472236E+003	4.236839912339929E+001	-5.4491407E-001	-5.590454387941024E-002	3.0463172E-005	-5.4509801E-001	0
9.8146133E+003	4.256839911834686E+001	-5.4693055E-001	-5.572614432766593E-002	3.0478332E-005	-5.4709792E-001	0
9.8848018E+003	4.276839911329444E+001	-5.4893589E-001	-5.553332547226364E-002	3.0484236E-005	-5.4909784E-001	0
9.9685176E+003	4.296839910824201E+001	-5.5093372E-001	-5.526736740586764E-002	3.0448657E-005	-5.5109769E-001	0
1.0037405E+004	4.316839910318959E+001	-5.5295283E-001	-5.508921960951602E-002	3.0461739E-005	-5.5309761E-001	0
1.0116976E+004	4.336839909813716E+001	-5.5495173E-001	-5.485351957473705E-002	3.0441055E-005	-5.5509752E-001	0
1.0188813E+004	4.356839909308474E+001	-5.5692160E-001	-5.466011150997714E-002	3.0441397E-005	-5.5709738E-001	0
1.0275852E+004	4.376839908803231E+001	-5.5891019E-001	-5.439064530824667E-002	3.0399486E-005	-5.5909729E-001	0
1.0358493E+004	4.396839908297989E+001	-5.6093860E-001	-5.415252769891765E-002	3.0376243E-005	-5.6109709E-001	0
1.0429126E+004	4.416829907792999E+001	-5.6291729E-001	-5.397550265322115E-002	3.0383744E-005	-5.6309623E-001	0
1.0511396E+004	4.436829907287756E+001	-5.6493837E-001	-5.374532184497165E-002	3.0362795E-005	-5.6509757E-001	0
1.0604858E+004	4.456819906782766E+001	-5.6694233E-001	-5.346062274485042E-002	3.0309091E-005	-5.6709689E-001	0
1.0670969E+004	4.476819906277524E+001	-5.6889921E-001	-5.331280021590362E-002	3.0329611E-005	-5.6909674E-001	0
1.0758505E+004	4.496819905772281E+001	-5.7094210E-001	-5.306890822921706E-002	3.0299274E-005	-5.7109660E-001	0
1.0845380E+004	4.516819905267039E+001	-5.7294995E-001	-5.282894067852723E-002	3.0268338E-005	-5.7309651E-001	0
1.0920632E+004	4.536819904761796E+001	-5.7487518E-001	-5.264120033145991E-002	3.0262119E-005	-5.7509637E-001	0
1.1018990E+004	4.556819904256554E+001	-5.7694912E-001	-5.235952707197633E-002	3.0208783E-005	-5.7709628E-001	0
1.1090074E+004	4.576819903751311E+001	-5.7894057E-001	-5.220348876003422E-002	3.0222718E-005	-5.7909620E-001	0
1.1165310E+004	4.596819903246069E+001	-5.8088559E-001	-5.202592668269279E-002	3.0221112E-005	-5.8109605E-001	0
1.1265266E+004	4.616819902740826E+001	-5.8291185E-001	-5.174417242454255E-002	3.0162291E-005	-5.8309597E-001	0
1.1355300E+004	4.636819902235584E+001	-5.8491683E-001	-5.151047042566759E-002	3.0129340E-005	-5.8509582E-001	0
1.1431130E+004	4.656819901730341E+001	-5.8689511E-001	-5.134183052207131E-002	3.0132269E-005	-5.8709574E-001	0
1.1526239E+004	4.676819901225099E+001	-5.8895409E-001	-5.109681191224853E-002	3.0093677E-005	-5.8909559E-001	0
1.1602188E+004	4.696819900719856E+001	-5.9094024E-001	-5.093351266634083E-002	3.0098661E-005	-5.9109545E-001	0
1.1681935E+004	4.716819900214614E+001	-5.9293920E-001	-5.075693664630965E-002	3.0095778E-005	-5.9309542E-001	0
1.1764214E+004	4.736819899709371E+001	-5.9492266E-001	-5.057054131382621E-002	3.0085561E-005	-5.9509522E-001	0
1.1839394E+004	4.756819899204129E+001	-5.9695405E-001	-5.042099847369597E-002	3.0099020E-005	-5.9709519E-001	0
1.1940772E+004	4.776819898698886E+001	-5.9896356E-001	-5.016120760057463E-002	3.0044735E-005	-5.9909505E-001	0
1.2016002E+004	4.796809898193897E+001	-6.0093451E-001	-5.001118599932874E-002	3.0053447E-005	-6.0109520E-001	0
1.2092152E+004	4.816799897688907E+001	-6.0294652E-001	-4.986263189069906E-002	3.0064501E-005	-6.0309482E-001	0
1.2178799E+004	4.836799897183664E+001	-6.0493147E-001	-4.967086653113195E-002	3.0047471E-005	-6.0509473E-001	0
1.2261269E+004	4.856799896678422E+001	-6.0692912E-001	-4.949969942142940E-002	3.0042809E-005	-6.0709465E-001	0
1.2344824E+004	4.876799896173179E+001	-6.0893804E-001	-4.932739745082149E-002	3.0037329E-005	-6.0909450E-001	0
1.2430667E+004	4.896799895667937E+001	-6.1096412E-001	-4.914974595384169E-002	3.0028732E-005	-6.1109442E-001	0
1.2504545E+004	4.916799895162694E+001	-6.1291468E-001	-4.901535150620345E-002	3.0042229E-005	-6.1309433E-001	0
1.2595415E+004	4.936799894657452E+001	-6.1495924E-001	-4.882405536796253E-002	3.0024805E-005	-6.1509418E-001	0
1.2660612E+004	4.956799894152209E+001	-6.1695772E-001	-4.873048156381600E-002	3.0064646E-005	-6.1709410E-001	0
1.2743635E+004	4.976799893646967E+001	-6.1895967E-001	-4.857010563071018E-002	3.0062936E-005	-6.1909395E-001	0
1.2824557E+004	4.996799893141724E+001	-6.2095135E-001	-4.841893444169332E-002	3.0065803E-005	-6.2109393E-001	0
1.2897315E+004	5.016799892636482E+001	-6.2297297E-001	-4.830252876333141E-002	3.0091169E-005	-6.2309372E-001	0
1.2983620E+004	5.036799892131239E+001	-6.2491328E-001	-4.813089648598512E-002	3.0077636E-005	-6.2509370E-001	0
1.3061253E+004	5.056799891625997E+001	-6.2694424E-001	-4.800031479984490E-002	3.0093521E-005	-6.2709355E-001	0
1.3123832E+004	5.076799891120754E+001	-6.2896508E-001	-4.792541226339378E-002	3.0143410E-005	-6.2909341E-001	0
1.3210335E+004	5.096799890615512E+001	-6.3095713E-001	-4.776238556080159E-002	3.0136018E-005	-6.3109332E-001	0
1.3290714E+004	5.116799890110269E+001	-6.3293976E-001	-4.762270492227061E-002	3.0142302E-005	-6.3309324E-001	0
1.3355134E+004	5.136799889605027E+001	-6.3493848E-001	-4.754265244546507E-002	3.0186660E-005	-6.3509315E-001	0
1.3414203E+004	5.156789889100037E+001	-6.3695180E-001	-4.748338791909085E-002	3.0244630E-005	-6.3709277E-001	0
1.3485975E+004	5.176779888595047E+001	-6.3893980E-001	-4.737809745836657E-002	3.0271753E-005	-6.3909292E-001	0
1.3562960E+004	5.196779888089804E+001	-6.4095652E-001	-4.725786279269238E-002	3.0290235E-005	-6.4109278E-001	0
1.3623396E+004	5.216779887584562E+001	-6.4296645E-001	-4.719575435765794E-002	3.0345287E-005	-6.4309263E-001	0
1.3691843E+004	5.236779887079319E+001	-6.4497805E-001	-4.710673795492459E-002	3.0382811E-005	-6.4509255E-001	0
1.3762624E+004	5.256779886574077E+001	-6.4700484E-001	-4.701173437211259E-002	3.0416821E-005	-6.4709240E-001	0
1.3821668E+004	5.276779886068834E+001	-6.4895368E-001	-4.695190771328717E-002	3.0469613E-005	-6.4909232E-001	0
1.3883332E+004	5.296779885563592E+001	-6.5099102E-001	-4.689011303153601E-002	3.0525043E-005	-6.5109223E-001	0
1.3940943E+004	5.316779885058349E+001	-6.5297145E-001	-4.683839694925207E-002	3.0584135E-005	-6.5309209E-001	0
1.4002229E+004	5.336779884553107E+001	-6.5496618E-001	-4.677585150905027E-002	3.0636602E-005	-6.5509200E-001	0
1.4062012E+004	5.356779884047864E+001	-6.5697718E-001	-4.672000047939784E-002	3.0693973E-005	-6.5709186E-001	0
1.4116459E+004	5.376779883542622E+001	-6.5897501E-001	-4.668132388328616E-002	3.0761825E-005	-6.5909177E-001	0
1.4188270E+004	5.396779883037379E+001	-6.6099089E-001	-4.658713837681117E-002	3.0793675E-005	-6.6109163E-001	0
1.4245887E+004	5.416779882532137E+001	-6.6296947E-001	-4.653760666859741E-002	3.0853011E-005	-6.6309154E-001	0
1.4312093E+004	5.436779882026894E+001	-6.6498542E-001	-4.646318606095723E-002	3.0897339E-005	-6.6509145E-001	0
1.4351647E+004	5.456779881521652E+001	-6.6697198E-001	-4.647354941388560E-002	3.0996554E-005	-6.6709137E-001	0
1.4404222E+004	5.476779881016409E+001	-6.6895646E-001	-4.644169421077748E-002	3.1067470E-005	-6.6909128E-001	0
1.4456371E+004	5.496779880511167E+001	-6.7094296E-001	-4.641157483588065E-002	3.1139520E-005	-6.7109114E-001	0
1.4504934E+004	5.516769880006177E+001	-6.7292023E-001	-4.639250586926646E-002	3.1218457E-005	-6.7309058E-001	0
1.4553344E+004	5.536759879501187E+001	-6.7493165E-001	-4.637639800613513E-002	3.1300897E-005	-6.7509091E-001	0
1.4590446E+004	5.556759878995945E+001	-6.7698109E-001	-4.639892987093874E-002	3.1411197E-005	-6.7709076E-001	0
1.4643845E+004	5.576759878490702E+001	-6.7891234E-001	-4.636161881308931E-002	3.1475476E-005	-6.7909068E-001	0
1.4720701E+004	5.596759877985460E+001	-6.8098658E-001	-4.626047321597376E-002	3.1502761E-005	-6.8109053E-001	0
1.4746363E+004	5.616759877480217E+001	-6.8290204E-001	-4.630986040050500E-002	3.1625099E-005	-6.8309045E-001	0
1.4787459E+004	5.636759876974975E+001	-6.8495727E-001	-4.632014666563600E-002	3.1727322E-005	-6.8509036E-001	0
1.4827820E+004	5.656759876469732E+001	-6.8694538E-001	-4.632814235107805E-002	3.1824904E-005	-6.8709022E-001	0
1.4842295E+004	5.676759875964490E+001	-6.8892515E-001	-4.641635041069359E-002	3.1977390E-005	-6.8909013E-001	0
1.4921287E+004	5.696759875459247E+001	-6.9094342E-001	-4.630588466653196E-002	3.1994747E-005	-6.9108999E-001	0
1.4958532E+004	5.716759874954005E+001	-6.9300967E-001	-4.632872125649168E-002	3.2106251E-005	-6.9308996E-001	0
1.4987246E+004	5.736759874448762E+001	-6.9494742E-001	-4.636925322034302E-002	3.2224194E-005	-6.9508982E-001	0
1.5051736E+004	5.756759873943520E+001	-6.9696105E-001	-4.630436116033354E-002	3.2272335E-005	-6.9708973E-001	0
1.5061647E+004	5.776759873438277E+001	-6.9894791E-001	-4.640580714963227E-002	3.2435240E-005	-6.9908959E-001	0
1.5110564E+004	5.796759872933035E+001	-7.0093495E-001	-4.638707888647398E-002	3.2514326E-005	-7.0108950E-001	0
1.5131740E+004	5.816759872427792E+001	-7.0298588E-001	-4.645770283673589E-002	3.2659111E-005	-7.0308942E-001	0
1.5178460E+004	5.836759871922550E+001	-7.0495713E-001	-4.644457473500907E-002	3.2741435E-005	-7.0508921E-001	0
1.5200422E+004	5.856759871417307E+001	-7.0698029E-001	-4.651057012294671E-002	3.2882057E-005	-7.0708913E-001	0
1.5255729E+004	5.876749870912317E+001	-7.0898670E-001	-4.647347285224601E-002	3.2949076E-005	-7.0908815E-001	0
1.5258417E+004	5.896749870407075E+001	-7.1092409E-001	-4.659225643591802E-002	3.3123557E-005	-7.1108979E-001	0
1.5304995E+004	5.916739869902085E+001	-7.1292782E-001	-4.658138031185369E-002	3.3209162E-005	-7.1308887E-001	0
1.5341283E+004	5.936739869396843E+001	-7.1495181E-001	-4.660313131177862E-002	3.3318993E-005	-7.1508867E-001	0
1.5369111E+004	5.956739868891600E+001	-7.1694052E-001	-4.664814289814467E-002	3.3443943E-005	-7.1708864E-001	0
1.5385496E+004	5.976739868386358E+001	-7.1896023E-001	-4.672973827076699E-002	3.3596822E-005	-7.1908844E-001	0
1.5399136E+004	5.996739867881115E+001	-7.2094405E-001	-4.681717460027879E-002	3.3752563E-005	-7.2108835E-001	0
1.5443647E+004	6.016739867375873E+001	-7.2296494E-001	-4.681309424192903E-002	3.3844226E-005	-7.2308826E-001	0
1.5440048E+004	6.036739866870630E+001	-7.2495502E-001	-4.695290043715655E-002	3.4038741E-005	-7.2508818E-001	0
1.5454312E+004	6.056739866365388E+001	-7.2695851E-001	-4.703920479265167E-002	3.4195549E-005	-7.2708809E-001	0
1.5485002E+004	6.076739865860145E+001	-7.2896355E-001	-4.707545855994899E-002	3.4316294E-005	-7.2908795E-001	0
1.5515197E+004	6.096739865354903E+001	-7.3098201E-001	-4.711393420262433E-002	3.4439439E-005	-7.3108786E-001	0
1.5524477E+004	6.116739864849660E+001	-7.3299420E-001	-4.721538782781814E-002	3.4608605E-005	-7.3308778E-001	0
1.5523927E+004	6.136739864344418E+001	-7.3496020E-001	-4.734370346912831E-002	3.4795739E-005	-7.3508757E-001	0
1.5575748E+004	6.156739863839175E+001	-7.3693997E-001	-4.731329563237482E-002	3.4867058E-005	-7.3708749E-001	0
1.5584726E+004	6.176739863333933E+001	-7.3897225E-001	-4.741644318127913E-002	3.5039437E-005	-7.3908740E-001	0
1.5610102E+004	6.196739862828690E+001	-7.4096006E-001	-4.746670323047081E-002	3.5170931E-005	-7.4108732E-001	0
1.5579438E+004	6.216739862323448E+001	-7.4296349E-001	-4.768872007731850E-002	3.5430978E-005	-7.4308717E-001	0
1.5599598E+004	6.236739861818205E+001	-7.4499953E-001	-4.775761263027922E-002	3.5579400E-005	-7.4508703E-001	0
1.5619619E+004	6.256729861313215E+001	-7.4699038E-001	-4.782385466373357E-002	3.5723959E-005	-7.4708772E-001	0
1.5613597E+004	6.276719860808225E+001	-7.4896324E-001	-4.796865447097032E-002	3.5926758E-005	-7.4908680E-001	0
1.5611283E+004	6.296719860302983E+001	-7.5095427E-001	-4.810330152929732E-002	3.6123380E-005	-7.5108671E-001	0
1.5599582E+004	6.316719859797740E+001	-7.5294352E-001	-4.826690230646347E-002	3.6342251E-005	-7.5308663E-001	0
1.5599535E+004	6.336719859292498E+001	-7.5497419E-001	-4.839722269405833E-002	3.6538655E-005	-7.5508654E-001	0
1.5594625E+004	6.356719858787255E+001	-7.5695258E-001	-4.853932585914642E-002	3.6741967E-005	-7.5708640E-001	0
1.5602128E+004	6.376719858282013E+001	-7.5896746E-001	-4.864512323855913E-002	3.6920064E-005	-7.5908631E-001	0
1.5661471E+004	6.396719857776770E+001	-7.6093459E-001	-4.858640675003234E-002	3.6971076E-005	-7.6108623E-001	0
1.5598134E+004	6.416719857271528E+001	-7.6295084E-001	-4.891295781567095E-002	3.7318183E-005	-7.6308602E-001	0
1.5609382E+004	6.436719856766285E+001	-7.6498240E-001	-4.900786090777376E-002	3.7490150E-005	-7.6508594E-001	0
1.5593735E+004	6.456719856261043E+001	-7.6693493E-001	-4.918224621108003E-002	3.7719583E-005	-7.6708585E-001	0
1.5550552E+004	6.476719855755800E+001	-7.6899111E-001	-4.945104923088704E-002	3.8027418E-005	-7.6908576E-001	0
1.5546858E+004	6.496719855250558E+001	-7.7094972E-001	-4.958877870612399E-002	3.8230453E-005	-7.7108568E-001	0
1.5567720E+004	6.516719854745315E+001	-7.7297115E-001	-4.965217668529376E-002	3.8379701E-005	-7.7308547E-001	0
1.5524266E+004	6.536719854240073E+001	-7.7495033E-001	-4.991864653086719E-002	3.8684473E-005	-7.7508539E-001	0
1.5501351E+004	6.556719853734830E+001	-7.7693504E-001	-5.012047468777525E-002	3.8940354E-005	-7.7708530E-001	0
1.5453419E+004	6.576719853229588E+001	-7.7895415E-001	-5.040658995152236E-002	3.9264422E-005	-7.7908516E-001	0
1.5439604E+004	6.596719852724345E+001	-7.8092641E-001	-5.057943506692186E-002	3.9498816E-005	-7.8108507E-001	0
1.5392053E+004	6.616709852219356E+001	-7.8293818E-001	-5.086639280914018E-002	3.9825241E-005	-7.8308547E-001	0
1.5370751E+004	6.636699851714366E+001	-7.8496683E-001	-5.106886504629796E-002	4.0087365E-005	-7.8508496E-001	0
1.5360871E+004	6.656699851209123E+001	-7.8692293E-001	-5.122905767146846E-002	4.0313320E-005	-7.8708476E-001	0
1.5309668E+004	6.676699850703881E+001	-7.8896230E-001	-5.153359989941864E-002	4.0658069E-005	-7.8908467E-001	0
1.5233570E+004	6.696699850198638E+001	-7.9092616E-001	-5.191994778961861E-002	4.1064846E-005	-7.9108459E-001	0
1.5210321E+004	6.716699849693396E+001	-7.9294270E-001	-5.213188278951286E-002	4.1337596E-005	-7.9308450E-001	0
1.5150930E+004	6.736699849188153E+001	-7.9494542E-001	-5.246842500295457E-002	4.1709533E-005	-7.9508442E-001	0
1.5113323E+004	6.756699848682911E+001	-7.9697460E-001	-5.273324617790755E-002	4.2027059E-005	-7.9708421E-001	0
1.5049339E+004	6.776699848177668E+001	-7.9897374E-001	-5.309028760213286E-002	4.2417745E-005	-7.9908413E-001	0
1.4996081E+004	6.796699847672426E+001	-8.0090916E-001	-5.340789844885974E-002	4.2774875E-005	-8.0108410E-001	0
1.4947487E+004	6.816699847167183E+001	-8.0297738E-001	-5.371988908115305E-002	4.3135857E-005	-8.0308390E-001	0
1.4848777E+004	6.836699846661941E+001	-8.0494869E-001	-5.420976260660104E-002	4.3636079E-005	-8.0508381E-001	0
1.4779433E+004	6.856699846156698E+001	-8.0693638E-001	-5.459860454697807E-002	4.4057600E-005	-8.0708361E-001	0
1.4703965E+004	6.876699845651456E+001	-8.0896115E-001	-5.501653026956277E-002	4.4506236E-005	-8.0908364E-001	0
1.4676094E+004	6.896699845146213E+001	-8.1097853E-001	-5.525847397905181E-002	4.4813438E-005	-8.1108350E-001	0
1.4568152E+004	6.916699844640971E+001	-8.1288332E-001	-5.579865545344864E-002	4.5357796E-005	-8.1308341E-001	0
1.4496855E+004	6.936699844135728E+001	-8.1495774E-001	-5.621617182966721E-002	4.5813806E-005	-8.1508327E-001	0
1.4406017E+004	6.956699843630486E+001	-8.1695241E-001	-5.670911135825651E-002	4.6328645E-005	-8.1708312E-001	0
1.4319716E+004	6.976689843125496E+001	-8.1895685E-001	-5.719085825568415E-002	4.6836845E-005	-8.1908303E-001	0
1.4173854E+004	6.996679842620506E+001	-8.2094520E-001	-5.791968892881752E-002	4.7548892E-005	-8.2108295E-001	0
1.4101515E+004	7.016679842115263E+001	-8.2295650E-001	-5.835944192078546E-002	4.8027283E-005	-8.2308286E-001	0
1.4009900E+004	7.036679841610021E+001	-8.2498002E-001	-5.888550313318433E-002	4.8579364E-005	-8.2508266E-001	0
1.3887937E+004	7.056679841104778E+001	-8.2697451E-001	-5.954624997037961E-002	4.9243230E-005	-8.2708257E-001	0
1.3817400E+004	7.076679840599536E+001	-8.2897151E-001	-5.999475212550220E-002	4.9733939E-005	-8.2908249E-001	0
1.3692691E+004	7.096679840094293E+001	-8.3098227E-001	-6.068801514481246E-002	5.0430663E-005	-8.3108234E-001	0
1.3554230E+004	7.116679839589051E+001	-8.3296615E-001	-6.145432919143456E-002	5.1189378E-005	-8.3308226E-001	0
1.3431103E+004	7.136679839083808E+001	-8.3492851E-001	-6.216381263154702E-002	5.1902338E-005	-8.3508217E-001	0
1.3292729E+004	7.156679838578566E+001	-8.3695382E-001	-6.296328460753307E-002	5.2697360E-005	-8.3708197E-001	0
1.3161018E+004	7.176679838073323E+001	-8.3897328E-001	-6.374684140949927E-002	5.3481897E-005	-8.3908200E-001	0
1.3027498E+004	7.196679837568081E+001	-8.4094316E-001	-6.455139628117323E-002	5.4284053E-005	-8.4108180E-001	0
1.2893930E+004	7.216679837062838E+001	-8.4297132E-001	-6.537737765892210E-002	5.5111253E-005	-8.4308177E-001	0
1.2720771E+004	7.236679836557596E+001	-8.4495103E-001	-6.642294520788827E-002	5.6124136E-005	-8.4508157E-001	0
1.2518407E+004	7.256679836052353E+001	-8.4695393E-001	-6.765668707226036E-002	5.7302095E-005	-8.4708148E-001	0
1.2342116E+004	7.276679835547111E+001	-8.4892637E-001	-6.878288283040290E-002	5.8391604E-005	-8.4908140E-001	0
1.2125811E+004	7.296679835041869E+001	-8.5097152E-001	-7.017852897574173E-002	5.9719929E-005	-8.5108131E-001	0
1.1898638E+004	7.316679834536626E+001	-8.5293013E-001	-7.168300563623686E-002	6.1140592E-005	-8.5308123E-001	0
1.1652395E+004	7.336679834031384E+001	-8.5493308E-001	-7.336973370941960E-002	6.2726212E-005	-8.5508102E-001	0
1.1384669E+004	7.356659833526646E+001	-8.5695022E-001	-7.527230188290224E-002	6.4504617E-005	-8.5708052E-001	0
1.1106376E+004	7.376659833021404E+001	-8.5896766E-001	-7.734005123613374E-002	6.6432600E-005	-8.5908085E-001	0
1.0814163E+004	7.396659832516161E+001	-8.6095679E-001	-7.961381374237420E-002	6.8544054E-005	-8.6108071E-001	0
1.0517756E+004	7.416659832010919E+001	-8.6293453E-001	-8.204550214498285E-002	7.0799899E-005	-8.6308062E-001	0
1.0241070E+004	7.436659831505676E+001	-8.6495221E-001	-8.445915830418738E-002	7.3053132E-005	-8.6508042E-001	0
9.9829473E+003	7.456659831000434E+001	-8.6695570E-001	-8.684365957861395E-002	7.5289609E-005	-8.6708045E-001	0
9.7480020E+003	7.476659830495191E+001	-8.6895931E-001	-8.914229795157147E-002	7.7461031E-005	-8.6908031E-001	0
9.5678896E+003	7.496659829989949E+001	-8.7096292E-001	-9.102978391304617E-002	7.9283564E-005	-8.7108022E-001	0
9.4231094E+003	7.516659829484706E+001	-8.7296689E-001	-9.264106461049682E-002	8.0872582E-005	-8.7308007E-001	0
9.3286084E+003	7.536659828979464E+001	-8.7494230E-001	-9.379129653137652E-002	8.2061975E-005	-8.7507993E-001	0
9.2598975E+003	7.556659828474221E+001	-8.7696034E-001	-9.470518760471852E-002	8.3052691E-005	-8.7707984E-001	0
9.1737568E+003	7.576659827968979E+001	-8.7892759E-001	-9.580890886810789E-002	8.4209096E-005	-8.7907976E-001	0
9.1175273E+003	7.596659827463736E+001	-8.8094795E-001	-9.662136682963851E-002	8.5118394E-005	-8.8107967E-001	0
9.0140703E+003	7.616659826958494E+001	-8.8293558E-001	-9.795082554901202E-002	8.6484266E-005	-8.8307947E-001	0
8.8844102E+003	7.636659826453251E+001	-8.8492608E-001	-9.960437198370120E-002	8.8142508E-005	-8.8507938E-001	0
8.7349258E+003	7.656659825948009E+001	-8.8692033E-001	-1.015372471482650E-001	9.0055451E-005	-8.8707930E-001	0
8.5330439E+003	7.676659825442766E+001	-8.8894600E-001	-1.041768957573557E-001	9.2607632E-005	-8.8907915E-001	0
8.3227451E+003	7.696659824937524E+001	-8.9093792E-001	-1.070485669737287E-001	9.5373631E-005	-8.9107907E-001	0
8.0768276E+003	7.716649824432534E+001	-8.9290935E-001	-1.105519901116094E-001	9.8712902E-005	-8.9307940E-001	0
7.8235449E+003	7.736639823927544E+001	-8.9496607E-001	-1.143939307354427E-001	1.0237868E-004	-8.9507890E-001	0
7.5517446E+003	7.756639823422302E+001	-8.9693177E-001	-1.187714671604168E-001	1.0652990E-004	-8.9707881E-001	0
7.2418838E+003	7.776639822917059E+001	-8.9892644E-001	-1.241288106221188E-001	1.1158267E-004	-8.9907861E-001	0
6.9089712E+003	7.796639822411817E+001	-9.0094995E-001	-1.304029113995313E-001	1.1748650E-004	-9.0107858E-001	0
6.5568315E+003	7.816639821906574E+001	-9.0293211E-001	-1.377086028849498E-001	1.2434152E-004	-9.0307879E-001	0
6.1993506E+003	7.836639821401332E+001	-9.0493882E-001	-1.459731610001925E-001	1.3209679E-004	-9.0507883E-001	0
5.8118970E+003	7.856639820896089E+001	-9.0694988E-001	-1.560505799074863E-001	1.4153005E-004	-9.0707880E-001	0
5.4254028E+003	7.876639820390847E+001	-9.0893835E-001	-1.675337977494089E-001	1.5227789E-004	-9.0907878E-001	0
5.0362539E+003	7.896639819885604E+001	-9.1096139E-001	-1.808807531565995E-001	1.6477538E-004	-9.1107887E-001	0
4.6459712E+003	7.916639819380362E+001	-9.1295844E-001	-1.965054128426731E-001	1.7940128E-004	-9.1307884E-001	0
4.2660620E+003	7.936639818875119E+001	-9.1498309E-001	-2.144795575890841E-001	1.9624516E-004	-9.1507882E-001	0
3.8911824E+003	7.956639818369877E+001	-9.1694790E-001	-2.356476257882529E-001	2.1607660E-004	-9.1707879E-001	0
3.5054023E+003	7.976639817864634E+001	-9.1895509E-001	-2.621539581816235E-001	2.4090771E-004	-9.1907889E-001	0
3.1367729E+003	7.996639817359392E+001	-9.2095137E-001	-2.935983598477248E-001	2.7038981E-004	-9.2107892E-001	0
2.8550981E+003	8.016639816854149E+001	-9.2294341E-001	-3.232615328459354E-001	2.9835210E-004	-9.2307884E-001	0
2.5859075E+003	8.036639816348907E+001	-9.2495072E-001	-3.576890283946335E-001	3.3084472E-004	-9.2507881E-001	0
2.2975295E+003	8.056639815843664E+001	-9.2699355E-001	-4.034740500840552E-001	3.7401784E-004	-9.2707890E-001	0
2.0560671E+003	8.076639815338422E+001	-9.2895222E-001	-4.518102769045136E-001	4.1971015E-004	-9.2907876E-001	0
1.8590516E+003	8.096639814833179E+001	-9.3095094E-001	-5.007665875809222E-001	4.6618911E-004	-9.3107879E-001	0
1.6317788E+003	8.116639814327937E+001	-9.3294752E-001	-5.717365266438472E-001	5.3340016E-004	-9.3307883E-001	0
1.4842665E+003	8.136639813822694E+001	-9.3498898E-001	-6.299333403651435E-001	5.8898074E-004	-9.3507880E-001	0
1.3091422E+003	8.156639813317452E+001	-9.3696523E-001	-7.157092875803155E-001	6.7059469E-004	-9.3707877E-001	0
1.1789067E+003	8.176639812812209E+001	-9.3899792E-001	-7.964988913800988E-001	7.4791082E-004	-9.3907881E-001	0
1.0622675E+003	8.196639812306967E+001	-9.4098479E-001	-8.858266285453809E-001	8.3354936E-004	-9.4107878E-001	0
9.4750543E+002	8.216639811801724E+001	-9.4296485E-001	-9.952078621217844E-001	9.3844603E-004	-9.4307876E-001	0
8.5208350E+002	8.237639811271220E+001	-9.4506431E-001	-1.109121675044295E+000	1.0481913E-003	-9.4517887E-001	0
7.6227399E+002	8.258639810740715E+001	-9.4713885E-001	-1.242517580563316E+000	1.1768367E-003	-9.4727892E-001	0
6.8947589E+002	8.278639810235472E+001	-9.4917041E-001	-1.376654985658563E+000	1.3066801E-003	-9.4927877E-001	0
6.2662274E+002	8.298639809730230E+001	-9.5116138E-001	-1.517917082262759E+000	1.4437841E-003	-9.5127881E-001	0
5.6791626E+002	8.318639809224987E+001	-9.5314932E-001	-1.678327157840037E+000	1.5996963E-003	-9.5327884E-001	0
5.1860272E+002	8.338639808719745E+001	-9.5516855E-001	-1.841811626389312E+000	1.7592405E-003	-9.5527881E-001	0
4.7534039E+002	8.358639808214502E+001	-9.5715928E-001	-2.013629187143440E+000	1.9273639E-003	-9.5727879E-001	0
4.3550613E+002	8.378639807709260E+001	-9.5915079E-001	-2.202381778398603E+000	2.1124163E-003	-9.5927882E-001	0
4.0172278E+002	8.398639807204017E+001	-9.6115154E-001	-2.392574115050234E+000	2.2996264E-003	-9.6127880E-001	0
3.7014078E+002	8.418639806698775E+001	-9.6311098E-001	-2.602012593121756E+000	2.5060270E-003	-9.6327877E-001	0
3.4390747E+002	8.438639806193532E+001	-9.6517742E-001	-2.806503216983117E+000	2.7087736E-003	-9.6527886E-001	0
3.1859836E+002	8.458639805688290E+001	-9.6716589E-001	-3.035690174689364E+000	2.9360161E-003	-9.6727884E-001	0
2.9688977E+002	8.478639805183047E+001	-9.6915734E-001	-3.264367726350592E+000	3.1636860E-003	-9.6927881E-001	0
2.7790518E+002	8.498639804677805E+001	-9.7115660E-001	-3.494560917725362E+000	3.3937660E-003	-9.7127879E-001	0
2.5994403E+002	8.518639804172562E+001	-9.7314912E-001	-3.743686987868514E+000	3.6431658E-003	-9.7327888E-001	0
2.4448177E+002	8.538639803667320E+001	-9.7515202E-001	-3.988649281480960E+000	3.8895393E-003	-9.7527891E-001	0
2.3015381E+002	8.558639803162077E+001	-9.7714961E-001	-4.245637374062103E+000	4.1486230E-003	-9.7727883E-001	0
2.1699353E+002	8.578639802656835E+001	-9.7914422E-001	-4.512319926366771E+000	4.4182120E-003	-9.7927880E-001	0
2.0524704E+002	8.598639802151592E+001	-9.8112571E-001	-4.780218655121033E+000	4.6899957E-003	-9.8127890E-001	0
1.9447612E+002	8.618639801646350E+001	-9.8311228E-001	-5.055182406387367E+000	4.9698120E-003	-9.8327875E-001	0
1.8474979E+002	8.638639801141107E+001	-9.8516005E-001	-5.332401752776031E+000	5.2532693E-003	-9.8527879E-001	0
1.7567885E+002	8.658639800635865E+001	-9.8713440E-001	-5.618971199709534E+000	5.5466797E-003	-9.8727882E-001	0
1.6743539E+002	8.678639800130622E+001	-9.8913121E-001	-5.907539511855532E+000	5.8433316E-003	-9.8927879E-001	0
1.5995509E+002	8.698639799625380E+001	-9.9115932E-001	-6.196485063352531E+000	6.1417040E-003	-9.9127871E-001	0
1.5290018E+002	8.718639799120137E+001	-9.9314862E-001	-6.495405617687442E+000	6.4509031E-003	-9.9327880E-001	0
1.4638570E+002	8.738639798614895E+001	-9.9513894E-001	-6.798061084585129E+000	6.7650154E-003	-9.9527878E-001	0
1.4033379E+002	8.758639798109652E+001	-9.9714142E-001	-7.105498068254263E+000	7.0851864E-003	-9.9727869E-001	0
1.3468771E+002	8.778639797604410E+001	-9.9915975E-001	-7.418343353028163E+000	7.4121100E-003	-9.9927884E-001	0
1.2949577E+002	8.798639797099167E+001	-1.0011812E+000	-7.731381514310300E+000	7.7405144E-003	-1.0012789E+000	0
1.2461710E+002	8.818649796593672E+001	-1.0031421E+000	-8.049795123785488E+000	8.0750883E-003	-1.0032797E+000	0
1.2005540E+002	8.838669796087925E+001	-1.0051558E+000	-8.372433381335782E+000	8.4156003E-003	-1.0052817E+000	0
1.1574483E+002	8.858689795582177E+001	-1.0071802E+000	-8.701730020841865E+000	8.7642102E-003	-1.0072836E+000	0
1.1173369E+002	8.878709795076429E+001	-1.0091929E+000	-9.032127563576310E+000	9.1151595E-003	-1.0092856E+000	0
1.0786329E+002	8.898729794570681E+001	-1.0111623E+000	-9.374480369568303E+000	9.4791213E-003	-1.0112876E+000	0
1.0430324E+002	8.918749794064934E+001	-1.0132011E+000	-9.713994874621356E+000	9.8422300E-003	-1.0132897E+000	0
1.0089704E+002	8.938769793559186E+001	-1.0151867E+000	-1.006160956738862E+001	1.0214412E-002	-1.0152916E+000	0
9.7659431E+001	8.958789793053438E+001	-1.0172334E+000	-1.041613004716666E+001	1.0595636E-002	-1.0172936E+000	0
9.4620636E+001	8.978799792547943E+001	-1.0191543E+000	-1.077095148960750E+001	1.0977262E-002	-1.0192947E+000	0
9.1328651E+001	8.999809792017186E+001	-1.0212517E+000	-1.118216085574880E+001	1.1419800E-002	-1.0213956E+000	0
8.8453079E+001	9.020819791486429E+001	-1.0233732E+000	-1.156967349340318E+001	1.1840094E-002	-1.0234969E+000	0
8.5809013E+001	9.040829790980933E+001	-1.0253500E+000	-1.194921076444780E+001	1.2252123E-002	-1.0254976E+000	0
8.3297783E+001	9.060849790475186E+001	-1.0273954E+000	-1.233400639376520E+001	1.2671901E-002	-1.0274996E+000	0
8.0842728E+001	9.080859789969691E+001	-1.0293505E+000	-1.273275330966834E+001	1.3106466E-002	-1.0295008E+000	0
7.8475006E+001	9.100869789464195E+001	-1.0314243E+000	-1.314334707038654E+001	1.3556368E-002	-1.0315015E+000	0
7.6176704E+001	9.120889788958448E+001	-1.0334215E+000	-1.356610925571925E+001	1.4019509E-002	-1.0335035E+000	0
7.3963028E+001	9.140909788452700E+001	-1.0353611E+000	-1.399835915060174E+001	1.4493356E-002	-1.0355057E+000	0
7.1816483E+001	9.160929787946952E+001	-1.0374024E+000	-1.444518457518330E+001	1.4985469E-002	-1.0375077E+000	0
6.9756203E+001	9.180949787441205E+001	-1.0394399E+000	-1.490103849891864E+001	1.5488734E-002	-1.0395095E+000	0
6.7757271E+001	9.200969786935457E+001	-1.0414165E+000	-1.536981169338191E+001	1.6006377E-002	-1.0415117E+000	0
6.5804932E+001	9.220989786429709E+001	-1.0433540E+000	-1.585525534248714E+001	1.6542645E-002	-1.0435137E+000	0
6.3897892E+001	9.241009785923961E+001	-1.0453658E+000	-1.635994180663923E+001	1.7102124E-002	-1.0455155E+000	0
6.2027824E+001	9.261029785418214E+001	-1.0473876E+000	-1.688577086433673E+001	1.7685948E-002	-1.0475177E+000	0
6.0206570E+001	9.281049784912466E+001	-1.0494151E+000	-1.743024256198697E+001	1.8291559E-002	-1.0495197E+000	0
5.8448853E+001	9.301069784406718E+001	-1.0515027E+000	-1.799013389941905E+001	1.8916674E-002	-1.0515217E+000	0
5.6752666E+001	9.321099783900718E+001	-1.0533984E+000	-1.856121422733543E+001	1.9552352E-002	-1.0535244E+000	0
5.5104504E+001	9.341129783394717E+001	-1.0553852E+000	-1.915243159322410E+001	2.0213194E-002	-1.0555277E+000	0
5.3522724E+001	9.361149782888970E+001	-1.0574170E+000	-1.975641284955290E+001	2.0890767E-002	-1.0575297E+000	0
5.1999187E+001	9.381169782383222E+001	-1.0593573E+000	-2.037257394486129E+001	2.1581834E-002	-1.0595317E+000	0
5.0523327E+001	9.401199781877222E+001	-1.0614289E+000	-2.100868944423294E+001	2.2299230E-002	-1.0615344E+000	0
4.9070278E+001	9.421219781371474E+001	-1.0634195E+000	-2.167135668706459E+001	2.3045743E-002	-1.0635369E+000	0
4.7620632E+001	9.441229780865979E+001	-1.0654025E+000	-2.237270874042429E+001	2.3835940E-002	-1.0655376E+000	0
4.6245579E+001	9.461239780360484E+001	-1.0674905E+000	-2.308308123974581E+001	2.4640968E-002	-1.0675387E+000	0
4.4943497E+001	9.481239779855241E+001	-1.0694131E+000	-2.379461138737713E+001	2.5446268E-002	-1.0695388E+000	0
4.3675640E+001	9.501259779349493E+001	-1.0713894E+000	-2.453059535962575E+001	2.6281821E-002	-1.0715405E+000	0
4.2468678E+001	9.521299778843240E+001	-1.0734084E+000	-2.527529452526460E+001	2.7130712E-002	-1.0735445E+000	0
4.1307461E+001	9.541359778336482E+001	-1.0753967E+000	-2.603395727144675E+001	2.7996831E-002	-1.0755502E+000	0
4.0165451E+001	9.561409777829977E+001	-1.0773963E+000	-2.682395458524968E+001	2.8900029E-002	-1.0775555E+000	0
3.9076992E+001	9.581419777324481E+001	-1.0794389E+000	-2.762338711723430E+001	2.9817760E-002	-1.0795568E+000	0
3.8054691E+001	9.601419776819239E+001	-1.0814339E+000	-2.841788651343114E+001	3.0732065E-002	-1.0815568E+000	0
3.7048473E+001	9.621449776313239E+001	-1.0834384E+000	-2.924380605946328E+001	3.1683862E-002	-1.0835593E+000	0
3.6050781E+001	9.641499775806733E+001	-1.0854368E+000	-3.010855320142437E+001	3.2680932E-002	-1.0855644E+000	0
3.5106686E+001	9.661539775300480E+001	-1.0874487E+000	-3.097554408068555E+001	3.3684317E-002	-1.0875683E+000	0
3.4223175E+001	9.681579774794227E+001	-1.0894841E+000	-3.183468778718463E+001	3.4683388E-002	-1.0895724E+000	0
3.3380901E+001	9.701599774288479E+001	-1.0914953E+000	-3.269819595267705E+001	3.5689928E-002	-1.0915748E+000	0
3.2559898E+001	9.721609773782984E+001	-1.0934601E+000	-3.358302951244798E+001	3.6721703E-002	-1.0935757E+000	0
3.1769732E+001	9.741619773277489E+001	-1.0954608E+000	-3.448127333917844E+001	3.7772883E-002	-1.0955768E+000	0
3.0992861E+001	9.761629772771994E+001	-1.0974959E+000	-3.541125005476761E+001	3.8863704E-002	-1.0975777E+000	0
3.0255369E+001	9.781649772266246E+001	-1.0994940E+000	-3.634045810748978E+001	3.9956115E-002	-1.0995796E+000	0
2.9517578E+001	9.801679771760246E+001	-1.1014531E+000	-3.731515753151939E+001	4.1100893E-002	-1.1015824E+000	0
2.8812984E+001	9.821729771253740E+001	-1.1034799E+000	-3.829800712013662E+001	4.2261079E-002	-1.1035875E+000	0
2.8138758E+001	9.841789770746982E+001	-1.1054767E+000	-3.928662200660119E+001	4.3430448E-002	-1.1055930E+000	0
2.7430878E+001	9.861829770240729E+001	-1.1075094E+000	-4.037455112655164E+001	4.4715192E-002	-1.1075976E+000	0
2.6775177E+001	9.881859769734729E+001	-1.1095083E+000	-4.143794264850698E+001	4.5975741E-002	-1.1096003E+000	0
2.6134048E+001	9.901919769227970E+001	-1.1115154E+000	-4.253131461911509E+001	4.7274210E-002	-1.1116064E+000	0
2.5504885E+001	9.921949768721970E+001	-1.1134847E+000	-4.365770608670221E+001	4.8612189E-002	-1.1136097E+000	0
2.4919598E+001	9.941979768215970E+001	-1.1155179E+000	-4.476468096704991E+001	4.9935799E-002	-1.1156124E+000	0
2.4318708E+001	9.962009767709969E+001	-1.1174735E+000	-4.595118405717398E+001	5.1349230E-002	-1.1176156E+000	0
2.3800779E+001	9.982039767203969E+001	-1.1195086E+000	-4.703663849571103E+001	5.2657921E-002	-1.1196184E+000	0
2.3304083E+001	1.000206976669797E+002	-1.1214775E+000	-4.812364971699364E+001	5.3969588E-002	-1.1216217E+000	0
2.2806810E+001	1.002208976619222E+002	-1.1235212E+000	-4.926252943100371E+001	5.5347495E-002	-1.1236236E+000	0
2.2338318E+001	1.004212976568597E+002	-1.1254399E+000	-5.038158636864694E+001	5.6701448E-002	-1.1256275E+000	0
2.1849199E+001	1.006213976518047E+002	-1.1275245E+000	-5.160484155559766E+001	5.8185723E-002	-1.1276288E+000	0
2.1389536E+001	1.008215976467473E+002	-1.1294731E+000	-5.280493745652461E+001	5.9641756E-002	-1.1296307E+000	0
2.0911299E+001	1.010215976416948E+002	-1.1315249E+000	-5.411069373424903E+001	6.1227597E-002	-1.1316309E+000	0
2.0497841E+001	1.012215976366424E+002	-1.1335011E+000	-5.529855598289680E+001	6.2680975E-002	-1.1336308E+000	0
2.0064070E+001	1.014215976315900E+002	-1.1355090E+000	-5.659415426654344E+001	6.4263172E-002	-1.1356308E+000	0
1.9667582E+001	1.016218976265300E+002	-1.1375114E+000	-5.783686998099313E+001	6.5790094E-002	-1.1376331E+000	0
1.9292334E+001	1.018222976214674E+002	-1.1394949E+000	-5.906464574720144E+001	6.7303859E-002	-1.1396376E+000	0
1.8887466E+001	1.020225976164074E+002	-1.1415563E+000	-6.043988247047014E+001	6.8995528E-002	-1.1416404E+000	0
1.8489813E+001	1.022229976113449E+002	-1.1436183E+000	-6.185126373931257E+001	7.0734240E-002	-1.1436443E+000	0
1.8130554E+001	1.024231976062874E+002	-1.1455892E+000	-6.318555876889724E+001	7.2384693E-002	-1.1456468E+000	0
1.7765640E+001	1.026232976012325E+002	-1.1475567E+000	-6.459416015580337E+001	7.4125461E-002	-1.1476476E+000	0
1.7422010E+001	1.028233975961775E+002	-1.1495726E+000	-6.598392418614867E+001	7.5853311E-002	-1.1496487E+000	0
1.7070879E+001	1.030233975911251E+002	-1.1515322E+000	-6.745594195551860E+001	7.7677689E-002	-1.1516489E+000	0
1.6765335E+001	1.032234975860702E+002	-1.1535959E+000	-6.880840336685213E+001	7.9377092E-002	-1.1536498E+000	0
1.6405497E+001	1.034236975810127E+002	-1.1555679E+000	-7.043784943292621E+001	8.1395715E-002	-1.1556517E+000	0
1.6080273E+001	1.036239975759527E+002	-1.1575972E+000	-7.198865599363415E+001	8.3333865E-002	-1.1576543E+000	0
1.5785245E+001	1.038243975708901E+002	-1.1596061E+000	-7.346139408961415E+001	8.5186280E-002	-1.1596587E+000	0
1.5501833E+001	1.040244975658352E+002	-1.1616143E+000	-7.493399650416143E+001	8.7044403E-002	-1.1616596E+000	0
1.5195404E+001	1.042247975607752E+002	-1.1635417E+000	-7.657194636946087E+001	8.9094654E-002	-1.1636628E+000	0
1.4936018E+001	1.044249975557177E+002	-1.1655859E+000	-7.803859760777488E+001	9.0960689E-002	-1.1656647E+000	0
1.4657486E+001	1.046252975506577E+002	-1.1675922E+000	-7.965841849503806E+001	9.3008548E-002	-1.1676675E+000	0
1.4369760E+001	1.048253975456028E+002	-1.1695862E+000	-8.139218710825821E+001	9.5195174E-002	-1.1696688E+000	0
1.4044729E+001	1.050257975405402E+002	-1.1715856E+000	-8.341816715298326E+001	9.7731523E-002	-1.1716722E+000	0
1.3798995E+001	1.052259975354827E+002	-1.1736138E+000	-8.505067335721321E+001	9.9816643E-002	-1.1736748E+000	0
1.3543365E+001	1.054261975304253E+002	-1.1756005E+000	-8.680269699112586E+001	1.0204530E-001	-1.1756763E+000	0
1.3303279E+001	1.056263975253678E+002	-1.1776502E+000	-8.852330733697170E+001	1.0424949E-001	-1.1776788E+000	0
1.3072169E+001	1.058264975203128E+002	-1.1796020E+000	-9.023766506970128E+001	1.0644453E-001	-1.1796796E+000	0
1.2852425E+001	1.060266975152554E+002	-1.1816131E+000	-9.193697585660129E+001	1.0863394E-001	-1.1816818E+000	0
1.2661207E+001	1.062268975101979E+002	-1.1836342E+000	-9.348509469044370E+001	1.1065215E-001	-1.1836838E+000	0
1.2432593E+001	1.064271975051379E+002	-1.1855971E+000	-9.536200862975909E+001	1.1306091E-001	-1.1856865E+000	0
1.2192910E+001	1.066274975000779E+002	-1.1876190E+000	-9.740242324894143E+001	1.1567697E-001	-1.1876895E+000	0
1.2007002E+001	1.068276974950204E+002	-1.1896628E+000	-9.908075217808960E+001	1.1787269E-001	-1.1896917E+000	0
1.1825025E+001	1.070278974899629E+002	-1.1916949E+000	-1.007773640015680E+002	1.2009586E-001	-1.1916937E+000	0
1.1577755E+001	1.072279974849080E+002	-1.1936128E+000	-1.030953555355809E+002	1.2305593E-001	-1.1936948E+000	0
1.1343323E+001	1.074280974798530E+002	-1.1956884E+000	-1.054090038903393E+002	1.2603632E-001	-1.1956956E+000	0
1.1129309E+001	1.076281974747981E+002	-1.1976519E+000	-1.076124223311206E+002	1.2888221E-001	-1.1976968E+000	0
1.0925669E+001	1.078381974694930E+002	-1.1997219E+000	-1.098076448683833E+002	1.3173863E-001	-1.1997968E+000	0
1.0639677E+001	1.080482974641855E+002	-1.2018276E+000	-1.129571592766958E+002	1.3575503E-001	-1.2018976E+000	0
1.0451434E+001	1.082484974591280E+002	-1.2038330E+000	-1.151835240915252E+002	1.3866173E-001	-1.2038996E+000	0
1.0290139E+001	1.084485974540730E+002	-1.2058716E+000	-1.171871032801344E+002	1.4131260E-001	-1.2059008E+000	0
1.0123281E+001	1.086485974490206E+002	-1.2078085E+000	-1.193099787392048E+002	1.4410360E-001	-1.2079009E+000	0
9.9330502E+000	1.088485974439682E+002	-1.2097983E+000	-1.217952566503666E+002	1.4734770E-001	-1.2099007E+000	0
9.7667522E+000	1.090486974389132E+002	-1.2118047E+000	-1.240744863094224E+002	1.5035406E-001	-1.2119017E+000	0
9.6433878E+000	1.092489974338532E+002	-1.2138410E+000	-1.258728703816826E+002	1.5278965E-001	-1.2139044E+000	0
9.4937887E+000	1.094492974287932E+002	-1.2158562E+000	-1.280686003594519E+002	1.5571301E-001	-1.2159077E+000	0
9.3477411E+000	1.096494974237357E+002	-1.2178459E+000	-1.302823691156455E+002	1.5866385E-001	-1.2179097E+000	0
9.1744919E+000	1.098496974186783E+002	-1.2198073E+000	-1.329563867778497E+002	1.6218117E-001	-1.2199116E+000	0
9.0461416E+000	1.100498974136208E+002	-1.2218466E+000	-1.350682555233209E+002	1.6503268E-001	-1.2219136E+000	0
8.9363041E+000	1.102501974085608E+002	-1.2238525E+000	-1.369528654371682E+002	1.6761011E-001	-1.2239163E+000	0
8.8128090E+000	1.104504974035008E+002	-1.2258468E+000	-1.390983080210167E+002	1.7051321E-001	-1.2259196E+000	0
8.6790648E+000	1.106507973984408E+002	-1.2278582E+000	-1.414735586827910E+002	1.7370947E-001	-1.2279224E+000	0
8.5359964E+000	1.108510973933808E+002	-1.2298874E+000	-1.440824602762200E+002	1.7720520E-001	-1.2299256E+000	0
8.3883734E+000	1.110513973883208E+002	-1.2318671E+000	-1.468541108623189E+002	1.8090475E-001	-1.2319285E+000	0
8.2816591E+000	1.112516973832608E+002	-1.2338964E+000	-1.489914384184693E+002	1.8383999E-001	-1.2339317E+000	0
8.1828661E+000	1.114518973782033E+002	-1.2359244E+000	-1.510380822149152E+002	1.8667164E-001	-1.2359335E+000	0
8.0845013E+000	1.116520973731458E+002	-1.2378651E+000	-1.531158258625292E+002	1.8953674E-001	-1.2379355E+000	0
7.9647231E+000	1.118523973680858E+002	-1.2398807E+000	-1.556715371723953E+002	1.9301413E-001	-1.2399383E+000	0
7.8551278E+000	1.120527973630233E+002	-1.2418792E+000	-1.580979031777965E+002	1.9633850E-001	-1.2419424E+000	0
7.6978736E+000	1.122530973579633E+002	-1.2439171E+000	-1.615922977314033E+002	2.0100743E-001	-1.2439457E+000	0
7.6037426E+000	1.124532973529058E+002	-1.2458885E+000	-1.638520098007916E+002	2.0414133E-001	-1.2459476E+000	0
7.5294576E+000	1.126535973478458E+002	-1.2479061E+000	-1.657365141730693E+002	2.0682360E-001	-1.2479503E+000	0
7.4177585E+000	1.128537973427883E+002	-1.2499403E+000	-1.685064700109347E+002	2.1062303E-001	-1.2499528E+000	0
7.3233819E+000	1.130540973377283E+002	-1.2519068E+000	-1.709465367519786E+002	2.1400912E-001	-1.2519554E+000	0
7.2386637E+000	1.132541973326734E+002	-1.2539074E+000	-1.732236059398610E+002	2.1720637E-001	-1.2539568E+000	0
7.1327019E+000	1.134542973276184E+002	-1.2559224E+000	-1.760794840013716E+002	2.2114217E-001	-1.2559576E+000	0
7.0045013E+000	1.136543973225635E+002	-1.2579641E+000	-1.795936687322437E+002	2.2592239E-001	-1.2579588E+000	0
6.9128761E+000	1.138545973175060E+002	-1.2599511E+000	-1.822614900614221E+002	2.2964057E-001	-1.2599602E+000	0
6.8383746E+000	1.140547973124485E+002	-1.2619176E+000	-1.845347207798168E+002	2.3286761E-001	-1.2619628E+000	0
6.7037592E+000	1.142547973073961E+002	-1.2639323E+000	-1.885408353762293E+002	2.3830286E-001	-1.2639629E+000	0
6.5983968E+000	1.144550973023361E+002	-1.2659407E+000	-1.918557943418627E+002	2.4287805E-001	-1.2659651E+000	0
6.5213351E+000	1.146555972972710E+002	-1.2679546E+000	-1.944317540948132E+002	2.4653064E-001	-1.2679707E+000	0
6.4347796E+000	1.148555972922186E+002	-1.2699945E+000	-1.973641026814785E+002	2.5065133E-001	-1.2699709E+000	0
6.3215590E+000	1.150556972871636E+002	-1.2719307E+000	-2.012052295699184E+002	2.5591910E-001	-1.2719716E+000	0
6.2469506E+000	1.152559972821036E+002	-1.2739825E+000	-2.039367102999076E+002	2.5981182E-001	-1.2739743E+000	0
6.1862845E+000	1.154561972770462E+002	-1.2759658E+000	-2.062572110299361E+002	2.6317716E-001	-1.2759769E+000	0
6.1164927E+000	1.156562972719912E+002	-1.2779518E+000	-2.089353951660117E+002	2.6700938E-001	-1.2779777E+000	0
6.0340152E+000	1.158564972669337E+002	-1.2799941E+000	-2.121297527577090E+002	2.7152485E-001	-1.2799797E+000	0
5.9704514E+000	1.160566972618763E+002	-1.2820294E+000	-2.147290594522692E+002	2.7528897E-001	-1.2819817E+000	0
5.8793116E+000	1.162569972568162E+002	-1.2840230E+000	-2.183968292225454E+002	2.8042656E-001	-1.2839844E+000	0
5.7688289E+000	1.164571972517588E+002	-1.2860287E+000	-2.229271799982826E+002	2.8669077E-001	-1.2859869E+000	0
5.6969666E+000	1.166573972467013E+002	-1.2880123E+000	-2.260873843402705E+002	2.9120332E-001	-1.2879883E+000	0
5.6424284E+000	1.168576972416413E+002	-1.2900181E+000	-2.286281609674634E+002	2.9493445E-001	-1.2899916E+000	0
5.6093578E+000	1.170280972373366E+002	-1.2917249E+000	-2.302803595598061E+002	2.9745889E-001	-1.2916951E+000	0
5.5618625E+000	1.171584972340424E+002	-1.2929915E+000	-2.324745532042721E+002	3.0058762E-001	-1.2929989E+000	0
5.5225277E+000	1.172789972309984E+002	-1.2942154E+000	-2.343520070330555E+002	3.0330199E-001	-1.2942038E+000	0
5.4757857E+000	1.173795972284570E+002	-1.2952597E+000	-2.365431692365346E+002	3.0638483E-001	-1.2952098E+000	0
5.4164114E+000	1.175001972254104E+002	-1.2964609E+000	-2.393579025405561E+002	3.1031814E-001	-1.2964151E+000	0
5.3618145E+000	1.176210972223562E+002	-1.2977015E+000	-2.420265492082922E+002	3.1407821E-001	-1.2976248E+000	0
5.3051801E+000	1.177415972193121E+002	-1.2988549E+000	-2.448276794301917E+002	3.1799564E-001	-1.2988291E+000	0
5.2621365E+000	1.178425972167606E+002	-1.2998315E+000	-2.470159301156417E+002	3.2107908E-001	-1.2998394E+000	0
5.2132201E+000	1.179732972134589E+002	-1.3011595E+000	-2.495884396822825E+002	3.2475436E-001	-1.3011467E+000	0
5.1594439E+000	1.180941972104047E+002	-1.3024000E+000	-2.524303041281901E+002	3.2876521E-001	-1.3023559E+000	0
5.1132960E+000	1.182446972066027E+002	-1.3038756E+000	-2.549970889185986E+002	3.3248448E-001	-1.3038611E+000	0
5.0793948E+000	1.183854972030458E+002	-1.3052980E+000	-2.569790370763451E+002	3.3543423E-001	-1.3052686E+000	0
5.0409651E+000	1.185460971989887E+002	-1.3068829E+000	-2.592525055462997E+002	3.3881265E-001	-1.3068752E+000	0
5.0218577E+000	1.186667971959396E+002	-1.3080893E+000	-2.604791604807679E+002	3.4072998E-001	-1.3080820E+000	0
5.0088100E+000	1.187673971933982E+002	-1.3091198E+000	-2.613634273305383E+002	3.4215605E-001	-1.3090880E+000	0
4.9940495E+000	1.188781971905992E+002	-1.3102503E+000	-2.623622794304074E+002	3.4376025E-001	-1.3101959E+000	0
4.9635096E+000	1.190185971870524E+002	-1.3116268E+000	-2.642539130087894E+002	3.4660250E-001	-1.3115997E+000	0
4.9199562E+000	1.191690971832504E+002	-1.3131214E+000	-2.668969836124506E+002	3.5046816E-001	-1.3131050E+000	0
4.8805609E+000	1.193198971794409E+002	-1.3146503E+000	-2.693646023882875E+002	3.5412025E-001	-1.3146127E+000	0
4.8380895E+000	1.194604971758890E+002	-1.3160223E+000	-2.720128066535326E+002	3.5797492E-001	-1.3160189E+000	0
4.7736301E+000	1.196010971723372E+002	-1.3174703E+000	-2.759891917161499E+002	3.6360756E-001	-1.3174250E+000	0
4.7475257E+000	1.197613971682877E+002	-1.3190417E+000	-2.778377278951548E+002	3.6647955E-001	-1.3190284E+000	0
4.6930695E+000	1.199219971642306E+002	-1.3206455E+000	-2.814033363851458E+002	3.7163404E-001	-1.3206334E+000	0
4.6524372E+000	1.200626971606762E+002	-1.3220319E+000	-2.841589792290761E+002	3.7566721E-001	-1.3220406E+000	0
4.5760736E+000	1.202033971571218E+002	-1.3234792E+000	-2.892172073206621E+002	3.8277295E-001	-1.3234477E+000	0
4.5485916E+000	1.203438971535725E+002	-1.3248402E+000	-2.912638176073442E+002	3.8587800E-001	-1.3248528E+000	0
4.5258465E+000	1.204844971500206E+002	-1.3263203E+000	-2.930546475097763E+002	3.8868433E-001	-1.3262587E+000	0
4.5045886E+000	1.206250971464688E+002	-1.3277409E+000	-2.947529751143520E+002	3.9135557E-001	-1.3276647E+000	0
4.4770150E+000	1.207555971431721E+002	-1.3289948E+000	-2.968483900445531E+002	3.9450994E-001	-1.3289696E+000	0
4.4541225E+000	1.208760971401280E+002	-1.3302090E+000	-2.986467172141956E+002	3.9726254E-001	-1.3301750E+000	0
4.4365106E+000	1.210365971360734E+002	-1.3318156E+000	-3.001943915805668E+002	3.9980358E-001	-1.3317798E+000	0
4.4024544E+000	1.211772971325190E+002	-1.3331808E+000	-3.028267221346579E+002	4.0372276E-001	-1.3331866E+000	0
4.3787565E+000	1.212979971294699E+002	-1.3344237E+000	-3.047494538208632E+002	4.0666488E-001	-1.3343936E+000	0
4.3582482E+000	1.214388971259104E+002	-1.3358216E+000	-3.065042389291898E+002	4.0943500E-001	-1.3358030E+000	0
4.3470502E+000	1.215696971226062E+002	-1.3371339E+000	-3.075956961017500E+002	4.1129664E-001	-1.3371103E+000	0
4.3343129E+000	1.216902971195595E+002	-1.3383114E+000	-3.087712937916212E+002	4.1323215E-001	-1.3383172E+000	0
4.3174663E+000	1.218507971155050E+002	-1.3399565E+000	-3.103571492786407E+002	4.1586509E-001	-1.3399221E+000	0
4.2994189E+000	1.220015971116954E+002	-1.3414375E+000	-3.120043532787167E+002	4.1853434E-001	-1.3414301E+000	0
4.2453289E+000	1.221222971086463E+002	-1.3426492E+000	-3.162650806821744E+002	4.2463306E-001	-1.3426365E+000	0
4.2197914E+000	1.222626971050995E+002	-1.3440732E+000	-3.185164806245280E+002	4.2810947E-001	-1.3440409E+000	0
4.2057190E+000	1.223934971017952E+002	-1.3453888E+000	-3.198950515171608E+002	4.3038321E-001	-1.3453487E+000	0
4.1819983E+000	1.225143970987410E+002	-1.3465616E+000	-3.219899889909035E+002	4.3357933E-001	-1.3465582E+000	0
4.1474962E+000	1.226546970951968E+002	-1.3480234E+000	-3.250210067840808E+002	4.3813592E-001	-1.3479613E+000	0
4.1126447E+000	1.227852970918975E+002	-1.3493071E+000	-3.280874349336575E+002	4.4269070E-001	-1.3492665E+000	0
4.0936203E+000	1.229258970883457E+002	-1.3507068E+000	-3.299540986137861E+002	4.4567126E-001	-1.3506728E+000	0
4.0759854E+000	1.230565970850439E+002	-1.3520259E+000	-3.317052874596598E+002	4.4847414E-001	-1.3519799E+000	0
4.0611081E+000	1.231872970817421E+002	-1.3533355E+000	-3.332429052457346E+002	4.5098945E-001	-1.3532867E+000	0
4.0315256E+000	1.232980970789431E+002	-1.3544247E+000	-3.359583628408582E+002	4.5503032E-001	-1.3543947E+000	0
4.0203567E+000	1.234287970756413E+002	-1.3557667E+000	-3.372254708011719E+002	4.5719904E-001	-1.3557020E+000	0
4.0217090E+000	1.235990970713392E+002	-1.3574820E+000	-3.375385709254795E+002	4.5820251E-001	-1.3574053E+000	0
3.9767139E+000	1.237795970667794E+002	-1.3592917E+000	-3.418127805243480E+002	4.6462327E-001	-1.3592098E+000	0
3.9164665E+000	1.239401970627223E+002	-1.3608851E+000	-3.474778062395594E+002	4.7287738E-001	-1.3608158E+000	0
3.8662174E+000	1.240708970594205E+002	-1.3621784E+000	-3.523284769736529E+002	4.7993425E-001	-1.3621229E+000	0
3.8500195E+000	1.242012970561264E+002	-1.3634822E+000	-3.541494477047540E+002	4.8287648E-001	-1.3634273E+000	0
3.8602812E+000	1.243514970523320E+002	-1.3649603E+000	-3.535908997591523E+002	4.8263755E-001	-1.3649290E+000	0
3.8549552E+000	1.244816970490429E+002	-1.3663126E+000	-3.544302127941833E+002	4.8426247E-001	-1.3662307E+000	0
3.8419740E+000	1.246123970457411E+002	-1.3676084E+000	-3.559650464114493E+002	4.8682079E-001	-1.3675383E+000	0
3.7942965E+000	1.247530970421867E+002	-1.3690128E+000	-3.608080837484831E+002	4.9395090E-001	-1.3689450E+000	0
3.7926581E+000	1.249133970381372E+002	-1.3706467E+000	-3.613947405129384E+002	4.9534452E-001	-1.3705482E+000	0
3.7721286E+000	1.250638970343352E+002	-1.3721446E+000	-3.637587061662534E+002	4.9912953E-001	-1.3720530E+000	0
3.7572234E+000	1.252047970307758E+002	-1.3734947E+000	-3.655611014768397E+002	5.0209624E-001	-1.3734617E+000	0
3.7555780E+000	1.253553970269713E+002	-1.3750117E+000	-3.661251875454300E+002	5.0342643E-001	-1.3749685E+000	0
3.7426715E+000	1.255057970231719E+002	-1.3765504E+000	-3.677988933938082E+002	5.0629371E-001	-1.3764718E+000	0
3.6828237E+000	1.256364970198701E+002	-1.3778267E+000	-3.741223676380050E+002	5.1547581E-001	-1.3777784E+000	0
3.6431992E+000	1.257472970170711E+002	-1.3789680E+000	-3.785046970607095E+002	5.2194589E-001	-1.3788867E+000	0
3.6308556E+000	1.258877970135218E+002	-1.3803664E+000	-3.801766220473919E+002	5.2478307E-001	-1.3802918E+000	0
3.5751724E+000	1.260184970102200E+002	-1.3816111E+000	-3.864460139805880E+002	5.3391808E-001	-1.3815988E+000	0
3.5416663E+000	1.261692970064105E+002	-1.3832257E+000	-3.905578873320210E+002	5.4022968E-001	-1.3831068E+000	0
3.5213177E+000	1.263100970028536E+002	-1.3845651E+000	-3.931951760993270E+002	5.4440433E-001	-1.3845149E+000	0
3.5147476E+000	1.264504969993068E+002	-1.3860031E+000	-3.943392967957939E+002	5.4655552E-001	-1.3859192E+000	0
3.5153515E+000	1.265907969957625E+002	-1.3873730E+000	-3.946612377434703E+002	5.4754233E-001	-1.3873221E+000	0
3.5064123E+000	1.267511969917105E+002	-1.3889854E+000	-3.961272215860186E+002	5.5021495E-001	-1.3889261E+000	0
3.4541192E+000	1.269413969869056E+002	-1.3908806E+000	-4.026730124242158E+002	5.6007010E-001	-1.3908286E+000	0
3.4527924E+000	1.271413969818532E+002	-1.3928968E+000	-4.034116808140889E+002	5.6191081E-001	-1.3928286E+000	0
3.4086304E+000	1.273413969768008E+002	-1.3948977E+000	-4.092252709957475E+002	5.7082736E-001	-1.3948287E+000	0
3.3365083E+000	1.275413969717483E+002	-1.3969283E+000	-4.186797176759000E+002	5.8486557E-001	-1.3968285E+000	0
3.3155093E+000	1.277413969666959E+002	-1.3989232E+000	-4.219331211340941E+002	5.9025204E-001	-1.3988286E+000	0
3.3021705E+000	1.279413969616435E+002	-1.4009078E+000	-4.242384519944653E+002	5.9431893E-001	-1.4008286E+000	0
3.2884834E+000	1.281413969565911E+002	-1.4029337E+000	-4.266202779454170E+002	5.9851998E-001	-1.4028287E+000	0
3.2577052E+000	1.283413969515386E+002	-1.4049139E+000	-4.312587690980536E+002	6.0588145E-001	-1.4048287E+000	0
3.2592905E+000	1.285413969464862E+002	-1.4069232E+000	-4.316654786133713E+002	6.0732019E-001	-1.4068286E+000	0
3.2545781E+000	1.287413969414338E+002	-1.4089220E+000	-4.329046479396002E+002	6.0992885E-001	-1.4088286E+000	0
3.2403736E+000	1.289413969363814E+002	-1.4109378E+000	-4.354244274520024E+002	6.1435676E-001	-1.4108287E+000	0
3.2562718E+000	1.291413969313289E+002	-1.4129373E+000	-4.339125741020089E+002	6.1309123E-001	-1.4128286E+000	0
3.2529829E+000	1.293413969262765E+002	-1.4148991E+000	-4.349543743479525E+002	6.1541659E-001	-1.4148287E+000	0
3.2409489E+000	1.295413969212241E+002	-1.4169682E+000	-4.372078142706778E+002	6.1950958E-001	-1.4168285E+000	0
3.2098918E+000	1.297413969161717E+002	-1.4189141E+000	-4.420441981810845E+002	6.2722272E-001	-1.4188286E+000	0
3.1979132E+000	1.299413969111192E+002	-1.4209322E+000	-4.443310719098617E+002	6.3136435E-001	-1.4208287E+000	0
3.1374145E+000	1.301413969060668E+002	-1.4229320E+000	-4.535365320668468E+002	6.4535165E-001	-1.4228287E+000	0
3.0944335E+000	1.303413969010144E+002	-1.4249538E+000	-4.604893812711550E+002	6.5617609E-001	-1.4248286E+000	0
3.0903554E+000	1.305413968959620E+002	-1.4269317E+000	-4.617371063708179E+002	6.5886736E-001	-1.4268287E+000	0
3.0905285E+000	1.307413968909095E+002	-1.4289346E+000	-4.623593068328300E+002	6.6068119E-001	-1.4288286E+000	0
3.0957413E+000	1.309413968858571E+002	-1.4309577E+000	-4.622342428177126E+002	6.6143763E-001	-1.4308287E+000	0
3.0933137E+000	1.311413968808047E+002	-1.4329337E+000	-4.632358155628986E+002	6.6378623E-001	-1.4328285E+000	0
3.0788379E+000	1.313413968757523E+002	-1.4349096E+000	-4.660555856449537E+002	6.6874760E-001	-1.4348286E+000	0
2.9580128E+000	1.315413968706998E+002	-1.4369136E+000	-4.857699078540418E+002	6.9800937E-001	-1.4368285E+000	0
2.9638133E+000	1.317413968656474E+002	-1.4389791E+000	-4.855161350405961E+002	6.9864762E-001	-1.4388286E+000	0
2.9605019E+000	1.319413968605950E+002	-1.4409350E+000	-4.867198586366603E+002	7.0133168E-001	-1.4408287E+000	0
2.9365742E+000	1.321413968555426E+002	-1.4429345E+000	-4.913665931857395E+002	7.0900983E-001	-1.4428285E+000	0
2.9102263E+000	1.323413968504901E+002	-1.4452577E+000	-4.966134853795556E+002	7.1773446E-001	-1.4448286E+000	0
2.8102736E+000	1.325413968454377E+002	-1.4475112E+000	-5.150783598590606E+002	7.4558169E-001	-1.4468285E+000	0
2.7831984E+000	1.327413968403853E+002	-1.4494853E+000	-5.207984119294197E+002	7.5488967E-001	-1.4488286E+000	0
2.7819510E+000	1.329413968353329E+002	-1.4514974E+000	-5.217552051284711E+002	7.5732636E-001	-1.4508286E+000	0
2.7834799E+000	1.331413968302804E+002	-1.4534774E+000	-5.221799220822568E+002	7.5897670E-001	-1.4528285E+000	0
2.7676146E+000	1.333413968252280E+002	-1.4555072E+000	-5.259067301068972E+002	7.6546103E-001	-1.4548286E+000	0
2.7563860E+000	1.335413968201756E+002	-1.4574840E+000	-5.287662851286013E+002	7.7066839E-001	-1.4568286E+000	0
2.7388682E+000	1.337413968151232E+002	-1.4595140E+000	-5.328894731128012E+002	7.7775967E-001	-1.4588286E+000	0
2.6975634E+000	1.339413968100707E+002	-1.4615064E+000	-5.417875950568900E+002	7.9182601E-001	-1.4608287E+000	0
2.7040343E+000	1.341413968050183E+002	-1.4635546E+000	-5.412485341095852E+002	7.9214680E-001	-1.4628288E+000	0
2.7011638E+000	1.343413967999659E+002	-1.4654794E+000	-5.425363028390093E+002	7.9507577E-001	-1.4648285E+000	0
2.6649983E+000	1.345413967949135E+002	-1.4675349E+000	-5.506701050712969E+002	8.0812758E-001	-1.4668286E+000	0
2.6458869E+000	1.347413967898610E+002	-1.4695441E+000	-5.554069673966369E+002	8.1619501E-001	-1.4688286E+000	0
2.6440935E+000	1.349413967848086E+002	-1.4714856E+000	-5.565179845156836E+002	8.1890821E-001	-1.4708287E+000	0
2.6290345E+000	1.351413967797562E+002	-1.4735236E+000	-5.604808893138843E+002	8.2588184E-001	-1.4728287E+000	0
2.6317575E+000	1.353413967747038E+002	-1.4755390E+000	-5.606667431638894E+002	8.2728565E-001	-1.4748286E+000	0
2.6233475E+000	1.354813967711671E+002	-1.4769481E+000	-5.630013527383626E+002	8.3152378E-001	-1.4762284E+000	0
2.6163473E+000	1.355121967703890E+002	-1.4773675E+000	-5.646679840087891E+002	8.3422214E-001	-1.4767283E+000	1