EC-Lab ASCII FILE
Nb header lines : 63                          

Linear Sweep Voltammetry

Run on channel : 1 (SN 1340)
User : 
Electrode connection : standard
Potential control : Ewe
Ewe ctrl range : min = -5.00 V, max = 5.00 V
Ewe,I filtering : <None>
Safety Limits :
	Do not start on E overload
Channel : Floating
Acquisition started on : 02/19/2026 17:57:37.573
Technique started on : 02/19/2026 17:57:40.411
Loaded Setting File :  NONE
Saved on :
	File : Pt_2_19_02_LSV_C01.mpr
	Directory : C:\Users\volt\Documents\Platalytix\
	Host : 127.0.0.1
Device : SP-200 (SN 0262)
Address : USB
EC-LAB for windows v11.60 (software)
Internet server v11.60 (firmware)
Command interpretor v11.60 (firmware)
Electrode material : Pt
Initial state : 
Electrolyte : KOH (1M)
Comments : 
Cable : standard
Reference electrode : Hg/HgO (0.140 V)
Electrode surface area : 1.000 cm˛
Characteristic mass : 0.001 g
Equivalent Weight : 0.000 g/eq.
Density : 0.000 g/cm3
Volume (V) : 0.001 cmł
Cycle Definition : Charge/Discharge alternance
tR (h:m:s)          0:00:5.0000         
dER/dt (mV/h)       0.0                 
dER (mV)            0                   
dtR (s)             0.0000              
dE/dt               10.000              
dE/dt unit          mV/s                
Ei (V)              -0.200              
vs.                 Ref                 
EL (V)              -2.500              
vs.                 Ref                 
record              <I>                 
dI                  0.000               
unit dI             µA                  
tI (s)              0.0000              
step percent        50                  
N                   10                  
E range min (V)     -5.000              
E range max (V)     5.000               
I Range             Auto                
I Range min         Unset               
I Range max         Unset               
I Range init        Unset               
Bandwidth           8                   

Rwe/Ohm	time/s	Ewe/V	<I>/mA	Pwe/W	control/V	error	
0.0000000E+000	2.838400134787662E+000	-1.6652942E-001	0.000000000000000E+000	0.0000000E+000	0.0000000E+000	0
0.0000000E+000	7.838200008482090E+000	-2.0736367E-002	0.000000000000000E+000	0.0000000E+000	-1.9983816E-001	0
2.6629836E+004	8.038200003429665E+000	-2.0180935E-001	-7.578317370607698E-003	1.5293753E-006	-2.0173794E-001	0
1.4337854E+003	8.158200000398210E+000	-2.0293888E-001	-1.415406301940727E-001	2.8724098E-005	-2.0293801E-001	0
1.4463340E+003	8.368199995093164E+000	-2.0504673E-001	-1.417699704504227E-001	2.9069468E-005	-2.0503797E-001	0
1.5720367E+003	8.568199990040739E+000	-2.0706360E-001	-1.317167685624816E-001	2.7273749E-005	-2.0703799E-001	0
1.6892075E+003	8.768199984988314E+000	-2.0908822E-001	-1.237788838123193E-001	2.5880707E-005	-2.0903790E-001	0
1.7968480E+003	8.968199979935889E+000	-2.1105616E-001	-1.174591009118628E-001	2.4790466E-005	-2.1103777E-001	0
1.8953192E+003	9.168199974883464E+000	-2.1309094E-001	-1.124301088494495E-001	2.3957838E-005	-2.1303767E-001	0
1.9888956E+003	9.368199969831039E+000	-2.1510641E-001	-1.081536958752256E-001	2.3264554E-005	-2.1503755E-001	0
2.0769846E+003	9.568199964778614E+000	-2.1706505E-001	-1.045097085328401E-001	2.2685404E-005	-2.1703745E-001	0
2.1613125E+003	9.768199959726189E+000	-2.1910065E-001	-1.013738880031096E-001	2.2211085E-005	-2.1903734E-001	0
2.2426223E+003	9.968199954673764E+000	-2.2106735E-001	-9.857538431753987E-002	2.1791799E-005	-2.2103722E-001	0
2.3246816E+003	1.016819994962134E+001	-2.2310595E-001	-9.597268983797780E-002	2.1412079E-005	-2.2303709E-001	0
2.4017842E+003	1.036819994456891E+001	-2.2507900E-001	-9.371324710055845E-002	2.1092885E-005	-2.2503698E-001	0
2.4775078E+003	1.056819993951649E+001	-2.2704820E-001	-9.164379176086079E-002	2.0807558E-005	-2.2703688E-001	0
2.5514653E+003	1.076819993446406E+001	-2.2907153E-001	-8.978038171386538E-002	2.0566129E-005	-2.2903678E-001	0
2.6284177E+003	1.096819992941164E+001	-2.3110019E-001	-8.792368934570061E-002	2.0319181E-005	-2.3103665E-001	0
2.6986707E+003	1.116819992435921E+001	-2.3311649E-001	-8.638197343369902E-002	2.0137062E-005	-2.3303655E-001	0
2.7720784E+003	1.136819991930679E+001	-2.3508190E-001	-8.480347829444279E-002	1.9935762E-005	-2.3503643E-001	0
2.8447429E+003	1.156819991425436E+001	-2.3703203E-001	-8.332283107633515E-002	1.9750179E-005	-2.3703633E-001	0
2.9169587E+003	1.176809990920447E+001	-2.3906748E-001	-8.195778813624666E-002	1.9593443E-005	-2.3903622E-001	0
2.9880342E+003	1.196799990415457E+001	-2.4110839E-001	-8.069130694578114E-002	1.9455350E-005	-2.4103609E-001	0
3.0575100E+003	1.216799989910214E+001	-2.4307483E-001	-7.950091507769430E-002	1.9324672E-005	-2.4303597E-001	0
3.1283962E+003	1.236799989404972E+001	-2.4507228E-001	-7.833799096130589E-002	1.9198469E-005	-2.4503586E-001	0
3.1988696E+003	1.256799988899729E+001	-2.4710324E-001	-7.724705110557450E-002	1.9087996E-005	-2.4703576E-001	0
3.2682734E+003	1.276799988394487E+001	-2.4907818E-001	-7.621093760001685E-002	1.8982482E-005	-2.4903564E-001	0
3.3392017E+003	1.296799987889244E+001	-2.5111321E-001	-7.520157097819800E-002	1.8884108E-005	-2.5103551E-001	0
3.4088296E+003	1.316799987384002E+001	-2.5309306E-001	-7.424632383377416E-002	1.8791230E-005	-2.5303540E-001	0
3.4758179E+003	1.336799986878759E+001	-2.5510278E-001	-7.339359760387898E-002	1.8722911E-005	-2.5503528E-001	0
3.5442341E+003	1.356799986373517E+001	-2.5708687E-001	-7.253664956890615E-002	1.8648221E-005	-2.5703520E-001	0
3.6117727E+003	1.376799985868274E+001	-2.5905058E-001	-7.172394327052745E-002	1.8580129E-005	-2.5903508E-001	0
3.6823223E+003	1.396799985363032E+001	-2.6107115E-001	-7.089850328104517E-002	1.8509554E-005	-2.6103497E-001	0
3.7476047E+003	1.416799984857789E+001	-2.6307410E-001	-7.019793049510459E-002	1.8467257E-005	-2.6303485E-001	0
3.8172017E+003	1.436799984352547E+001	-2.6506856E-001	-6.944054599730998E-002	1.8406505E-005	-2.6503474E-001	0
3.8867913E+003	1.456799983847304E+001	-2.6710889E-001	-6.872221242948995E-002	1.8356313E-005	-2.6703462E-001	0
3.9526362E+003	1.476799983342062E+001	-2.6906282E-001	-6.807173687443024E-002	1.8315573E-005	-2.6903450E-001	0
4.0172512E+003	1.496799982836819E+001	-2.7106914E-001	-6.747627211840260E-002	1.8290735E-005	-2.7103439E-001	0
4.0866479E+003	1.516799982331577E+001	-2.7306300E-001	-6.681833399698349E-002	1.8245615E-005	-2.7303427E-001	0
4.1521431E+003	1.536789981826587E+001	-2.7507174E-001	-6.624813302983645E-002	1.8222989E-005	-2.7503505E-001	0
4.2173887E+003	1.556779981321597E+001	-2.7708650E-001	-6.570096441561490E-002	1.8204850E-005	-2.7703404E-001	0
4.2825747E+003	1.576779980816355E+001	-2.7907780E-001	-6.516589136485879E-002	1.8186354E-005	-2.7903393E-001	0
4.3504346E+003	1.596779980311112E+001	-2.8108543E-001	-6.461088304870405E-002	1.8161178E-005	-2.8103381E-001	0
4.4184580E+003	1.616779979805870E+001	-2.8305465E-001	-6.406186275868397E-002	1.8133009E-005	-2.8303370E-001	0
4.4811416E+003	1.636779979300627E+001	-2.8507546E-001	-6.361670669035180E-002	1.8135561E-005	-2.8503361E-001	0
4.5417920E+003	1.656779978795385E+001	-2.8703573E-001	-6.319878749494490E-002	1.8140310E-005	-2.8703347E-001	0
4.6085435E+003	1.676779978290142E+001	-2.8911167E-001	-6.273385171003434E-002	1.8137089E-005	-2.8903335E-001	0
4.6710547E+003	1.696779977784900E+001	-2.9109153E-001	-6.231815715493563E-002	1.8140288E-005	-2.9103324E-001	0
4.7368467E+003	1.716779977279657E+001	-2.9307902E-001	-6.187218062256514E-002	1.8133438E-005	-2.9303312E-001	0
4.8040239E+003	1.736779976774415E+001	-2.9504544E-001	-6.141631454102625E-002	1.8120603E-005	-2.9503304E-001	0
4.8629688E+003	1.756779976269172E+001	-2.9703376E-001	-6.108074754163995E-002	1.8143044E-005	-2.9703289E-001	0
4.9219053E+003	1.776779975763930E+001	-2.9908320E-001	-6.076573758531767E-002	1.8174011E-005	-2.9903281E-001	0
4.9866963E+003	1.796779975258687E+001	-3.0106494E-001	-6.037362391771151E-002	1.8176381E-005	-3.0103269E-001	0
5.0456025E+003	1.816779974753445E+001	-3.0307999E-001	-6.006814809220407E-002	1.8205454E-005	-3.0303255E-001	0
5.1099351E+003	1.836779974248202E+001	-3.0508995E-001	-5.970524872131588E-002	1.8215471E-005	-3.0503246E-001	0
5.1695117E+003	1.856779973742960E+001	-3.0704451E-001	-5.939526159143127E-002	1.8236989E-005	-3.0703232E-001	0
5.2334170E+003	1.876769973237970E+001	-3.0908778E-001	-5.906041482333302E-002	1.8254852E-005	-3.0903178E-001	0
5.2878125E+003	1.896759972732980E+001	-3.1108820E-001	-5.883117286961448E-002	1.8301684E-005	-3.1103212E-001	0
5.3490181E+003	1.916759972227737E+001	-3.1307462E-001	-5.852936050440727E-002	1.8324057E-005	-3.1303197E-001	0
5.4070747E+003	1.936759971722495E+001	-3.1505105E-001	-5.826644855657026E-002	1.8356906E-005	-3.1503189E-001	0
5.4639111E+003	1.956759971217252E+001	-3.1705868E-001	-5.802779051986273E-002	1.8398216E-005	-3.1703177E-001	0
5.5235068E+003	1.976759970712010E+001	-3.1905442E-001	-5.776301841568338E-002	1.8429546E-005	-3.1903169E-001	0
5.5813467E+003	1.996759970206767E+001	-3.2106289E-001	-5.752427036274244E-002	1.8468909E-005	-3.2103154E-001	0
5.6348184E+003	2.016759969701525E+001	-3.2301256E-001	-5.732439577266946E-002	1.8516499E-005	-3.2303143E-001	0
5.6920952E+003	2.036759969196282E+001	-3.2511315E-001	-5.711660335471835E-002	1.8569359E-005	-3.2503131E-001	0
5.7497227E+003	2.056759968691040E+001	-3.2710230E-001	-5.689010228813862E-002	1.8608884E-005	-3.2703120E-001	0
5.8023003E+003	2.076759968185797E+001	-3.2910168E-001	-5.671917425063111E-002	1.8666376E-005	-3.2903108E-001	0
5.8591460E+003	2.096759967680555E+001	-3.3106366E-001	-5.650373856915053E-002	1.8706334E-005	-3.3103096E-001	0
5.9086973E+003	2.116759967175312E+001	-3.3302611E-001	-5.636201999012946E-002	1.8770024E-005	-3.3303085E-001	0
5.9641455E+003	2.136759966670070E+001	-3.3512327E-001	-5.618965532789039E-002	1.8830460E-005	-3.3503073E-001	0
6.0193750E+003	2.156759966164827E+001	-3.3713746E-001	-5.600871323806400E-002	1.8882636E-005	-3.3703062E-001	0
6.0685376E+003	2.176759965659585E+001	-3.3906576E-001	-5.587272795895004E-002	1.8944529E-005	-3.3903053E-001	0
6.1128188E+003	2.196759965154342E+001	-3.4108758E-001	-5.579873731796980E-002	1.9032257E-005	-3.4103042E-001	0
6.1676978E+003	2.216759964649100E+001	-3.4309137E-001	-5.562713686450710E-002	1.9085190E-005	-3.4303027E-001	0
6.2251567E+003	2.236749964144110E+001	-3.4508041E-001	-5.543320908777721E-002	1.9128915E-005	-3.4503064E-001	0
6.2687690E+003	2.256739963639120E+001	-3.4708816E-001	-5.536783402975720E-002	1.9217519E-005	-3.4703004E-001	0
6.3203423E+003	2.276739963133878E+001	-3.4908715E-001	-5.523231883412927E-002	1.9280893E-005	-3.4902996E-001	0
6.3628081E+003	2.296739962628635E+001	-3.5110009E-001	-5.518005453388047E-002	1.9373721E-005	-3.5102984E-001	0
6.4210938E+003	2.316739962123393E+001	-3.5307461E-001	-5.498667571233273E-002	1.9414400E-005	-3.5302973E-001	0
6.4643184E+003	2.336739961618150E+001	-3.5505822E-001	-5.492585455173055E-002	1.9501877E-005	-3.5502958E-001	0
6.5060005E+003	2.356739961112908E+001	-3.5707137E-001	-5.488339242369134E-002	1.9597288E-005	-3.5702950E-001	0
6.5527676E+003	2.376739960607665E+001	-3.5912099E-001	-5.480447564645741E-002	1.9681438E-005	-3.5902938E-001	0
6.5980166E+003	2.396739960102423E+001	-3.6107898E-001	-5.472538355461276E-002	1.9760186E-005	-3.6102927E-001	0
6.6439316E+003	2.416739959597180E+001	-3.6303890E-001	-5.464217646465630E-002	1.9837236E-005	-3.6302915E-001	0
6.6863350E+003	2.436739959091938E+001	-3.6504540E-001	-5.459574020632396E-002	1.9929923E-005	-3.6502907E-001	0
6.7386558E+003	2.456739958586695E+001	-3.6705646E-001	-5.447027805185284E-002	1.9993668E-005	-3.6702892E-001	0
6.7710444E+003	2.476739958081453E+001	-3.6905408E-001	-5.450475013702938E-002	2.0115200E-005	-3.6902881E-001	0
6.8175244E+003	2.496739957576210E+001	-3.7105745E-001	-5.442700713984849E-002	2.0195546E-005	-3.7102869E-001	0
6.8551367E+003	2.516739957070968E+001	-3.7305281E-001	-5.441945416550831E-002	2.0301330E-005	-3.7302858E-001	0
6.8986587E+003	2.536739956565725E+001	-3.7507105E-001	-5.436869200779437E-002	2.0392123E-005	-3.7502849E-001	0
6.9494771E+003	2.556739956060483E+001	-3.7709075E-001	-5.426174558196528E-002	2.0461603E-005	-3.7702835E-001	0
6.9841504E+003	2.576729955555493E+001	-3.7906817E-001	-5.427548769418200E-002	2.0574109E-005	-3.7902737E-001	0
7.0204004E+003	2.596729955050250E+001	-3.8106182E-001	-5.427921483847803E-002	2.0683736E-005	-3.8102904E-001	0
7.0580601E+003	2.616719954545260E+001	-3.8304999E-001	-5.427128641418433E-002	2.0788615E-005	-3.8302806E-001	0
7.1046909E+003	2.636719954040018E+001	-3.8509265E-001	-5.420259066198507E-002	2.0873020E-005	-3.8502792E-001	0
7.1350552E+003	2.656719953534775E+001	-3.8703084E-001	-5.424356792024965E-002	2.0993934E-005	-3.8702780E-001	0
7.1708564E+003	2.676719953029533E+001	-3.8905841E-001	-5.425550057521054E-002	2.1108559E-005	-3.8902768E-001	0
7.2125420E+003	2.696719952524290E+001	-3.9105096E-001	-5.421818927766697E-002	2.1202075E-005	-3.9102757E-001	0
7.2491948E+003	2.716719952019048E+001	-3.9307752E-001	-5.422361051798907E-002	2.1314083E-005	-3.9302748E-001	0
7.2906074E+003	2.736719951513805E+001	-3.9508152E-001	-5.419048131654713E-002	2.1409658E-005	-3.9502734E-001	0
7.3226929E+003	2.756719951008563E+001	-3.9703253E-001	-5.421946947874674E-002	2.1526894E-005	-3.9702722E-001	0
7.3642607E+003	2.776719950503320E+001	-3.9905140E-001	-5.418757118322715E-002	2.1623626E-005	-3.9902714E-001	0
7.3963608E+003	2.796719949998078E+001	-4.0105560E-001	-5.422337082596884E-002	2.1746586E-005	-4.0102699E-001	0
7.4319058E+003	2.816719949492835E+001	-4.0304837E-001	-5.423217007516534E-002	2.1858188E-005	-4.0302694E-001	0
7.4645913E+003	2.836719948987593E+001	-4.0505853E-001	-5.426399175462027E-002	2.1980093E-005	-4.0502679E-001	0
7.5026108E+003	2.856719948482350E+001	-4.0706342E-001	-5.425623652911749E-002	2.2085729E-005	-4.0702665E-001	0
7.5350786E+003	2.876719947977108E+001	-4.0906319E-001	-5.428784732578025E-002	2.2207159E-005	-4.0902656E-001	0
7.5713193E+003	2.896719947471865E+001	-4.1105810E-001	-5.429147435943504E-002	2.2316950E-005	-4.1102642E-001	0
7.6003496E+003	2.916719946966623E+001	-4.1308948E-001	-5.435137970313886E-002	2.2451983E-005	-4.1302636E-001	0
7.6415127E+003	2.936709946461633E+001	-4.1511962E-001	-5.432427277191471E-002	2.2551072E-005	-4.1502556E-001	0
7.6713066E+003	2.956699945956643E+001	-4.1709712E-001	-5.437106721983825E-002	2.2678016E-005	-4.1702607E-001	0
7.7008867E+003	2.976699945451401E+001	-4.1912404E-001	-5.442542596741291E-002	2.2811004E-005	-4.1902602E-001	0
7.7349043E+003	2.996699944946158E+001	-4.2108515E-001	-5.443960610542686E-002	2.2923710E-005	-4.2102584E-001	0
7.7668945E+003	3.016699944440916E+001	-4.2306483E-001	-5.447026821225043E-002	2.3044455E-005	-4.2302579E-001	0
7.8010635E+003	3.036699943935673E+001	-4.2507818E-001	-5.448977486758411E-002	2.3162414E-005	-4.2502564E-001	0
7.8310444E+003	3.056699943430431E+001	-4.2709532E-001	-5.453874487926141E-002	2.3293243E-005	-4.2702550E-001	0
7.8630742E+003	3.076699942925188E+001	-4.2911255E-001	-5.457312828500061E-002	2.3418015E-005	-4.2902544E-001	0
7.9022861E+003	3.096699942419946E+001	-4.3107665E-001	-5.455087702098360E-002	2.3515609E-005	-4.3102527E-001	0
7.9324473E+003	3.116699941914703E+001	-4.3309003E-001	-5.459727842599382E-002	2.3645536E-005	-4.3302521E-001	0
7.9592002E+003	3.136699941409461E+001	-4.3508783E-001	-5.466476711444557E-002	2.3783974E-005	-4.3502507E-001	0
7.9943491E+003	3.156699940904218E+001	-4.3711162E-001	-5.467757417465613E-002	2.3900202E-005	-4.3702492E-001	0
8.0126030E+003	3.176699940398976E+001	-4.3905678E-001	-5.479577420566584E-002	2.4058456E-005	-4.3902487E-001	0
8.0559688E+003	3.196699939893733E+001	-4.4111815E-001	-5.475668724237681E-002	2.4154169E-005	-4.4102475E-001	0
8.0912427E+003	3.216699939388491E+001	-4.4311705E-001	-5.476501733835470E-002	2.4267312E-005	-4.4302464E-001	0
8.1114409E+003	3.236699938883248E+001	-4.4510096E-001	-5.487323126675414E-002	2.4424127E-005	-4.4502449E-001	0
8.1477837E+003	3.256699938378006E+001	-4.4712874E-001	-5.487734658375421E-002	2.4537239E-005	-4.4702443E-001	0
8.1803359E+003	3.276699937872763E+001	-4.4915548E-001	-5.490672674141989E-002	2.4661656E-005	-4.4902429E-001	0
8.2112090E+003	3.296689937367773E+001	-4.5109445E-001	-5.493642158331835E-002	2.4781515E-005	-4.5102438E-001	0
8.2318496E+003	3.316679936862784E+001	-4.5312253E-001	-5.504504407654665E-002	2.4942150E-005	-4.5302406E-001	0
8.2702588E+003	3.336679936357541E+001	-4.5506313E-001	-5.502405232863927E-002	2.5039417E-005	-4.5502391E-001	0
8.2994248E+003	3.356679935852299E+001	-4.5709834E-001	-5.507590254671572E-002	2.5175103E-005	-4.5702383E-001	0
8.3271895E+003	3.376679935347056E+001	-4.5912057E-001	-5.513511850580954E-002	2.5313668E-005	-4.5902371E-001	0
8.3617256E+003	3.396679934841814E+001	-4.6108875E-001	-5.514277565576003E-002	2.5425714E-005	-4.6102360E-001	0
8.3922959E+003	3.416679934336571E+001	-4.6312040E-001	-5.518399402150753E-002	2.5556834E-005	-4.6302354E-001	0
8.4225859E+003	3.436679933831329E+001	-4.6510145E-001	-5.522073996084376E-002	2.5683246E-005	-4.6502334E-001	0
8.4562236E+003	3.456679933326086E+001	-4.6709993E-001	-5.523741339933119E-002	2.5801392E-005	-4.6702328E-001	0
8.4821182E+003	3.476679932820844E+001	-4.6909592E-001	-5.530410161022248E-002	2.5942929E-005	-4.6902314E-001	0
8.5144307E+003	3.496679932315601E+001	-4.7107893E-001	-5.532712306639365E-002	2.6063442E-005	-4.7102302E-001	0
8.5540176E+003	3.516679931810359E+001	-4.7308359E-001	-5.530542510671458E-002	2.6164089E-005	-4.7302297E-001	0
8.5776484E+003	3.536679931305116E+001	-4.7512558E-001	-5.539112346502395E-002	2.6317739E-005	-4.7502276E-001	0
8.6072998E+003	3.556679930799874E+001	-4.7703692E-001	-5.542236425789260E-002	2.6438514E-005	-4.7702271E-001	0
8.6390439E+003	3.576679930294631E+001	-4.7909462E-001	-5.545690038311157E-002	2.6569103E-005	-4.7902256E-001	0
8.6709473E+003	3.596679929789389E+001	-4.8107445E-001	-5.548118845593439E-002	2.6690583E-005	-4.8102248E-001	0
8.7011250E+003	3.616679929284146E+001	-4.8308674E-001	-5.552003015035489E-002	2.6820990E-005	-4.8302239E-001	0
8.7368154E+003	3.636669928779156E+001	-4.8507410E-001	-5.552070148775140E-002	2.6931655E-005	-4.8502135E-001	0
8.7659316E+003	3.656659928274166E+001	-4.8706800E-001	-5.556374544788834E-002	2.7063323E-005	-4.8702219E-001	0
8.7943633E+003	3.676659927768924E+001	-4.8909071E-001	-5.561411323325699E-002	2.7200345E-005	-4.8902199E-001	0
8.8361484E+003	3.696659927263681E+001	-4.9108878E-001	-5.557724637615069E-002	2.7293361E-005	-4.9102190E-001	0
8.8603809E+003	3.716659926758439E+001	-4.9307796E-001	-5.564974803507095E-002	2.7439664E-005	-4.9302182E-001	0
8.8934844E+003	3.736659926253196E+001	-4.9512142E-001	-5.567237532744085E-002	2.7564585E-005	-4.9502167E-001	0
8.9279473E+003	3.756659925747954E+001	-4.9709871E-001	-5.567895000390788E-002	2.7677934E-005	-4.9702162E-001	0
8.9591084E+003	3.776659925242711E+001	-4.9908194E-001	-5.570665550684295E-002	2.7802185E-005	-4.9902141E-001	0
8.9901514E+003	3.796659924737469E+001	-5.0109977E-001	-5.573874529685563E-002	2.7930671E-005	-5.0102139E-001	0
9.0291504E+003	3.816659924232226E+001	-5.0306493E-001	-5.571564176181099E-002	2.8028586E-005	-5.0302124E-001	0
9.0663916E+003	3.836659923726984E+001	-5.0507915E-001	-5.570894657410319E-002	2.8137427E-005	-5.0502110E-001	0
9.1016680E+003	3.856659923221741E+001	-5.0711483E-001	-5.571668945588652E-002	2.8254759E-005	-5.0702107E-001	0
9.1287412E+003	3.876659922716499E+001	-5.0907403E-001	-5.576607406872180E-002	2.8389060E-005	-5.0902086E-001	0
9.1640664E+003	3.896659922211256E+001	-5.1107723E-001	-5.576969974974166E-002	2.8502624E-005	-5.1102078E-001	0
9.2061338E+003	3.916659921706014E+001	-5.1310289E-001	-5.573489367613438E-002	2.8597735E-005	-5.1302069E-001	0
9.2288828E+003	3.936659921200771E+001	-5.1511049E-001	-5.581504178377045E-002	2.8750914E-005	-5.1502055E-001	0
9.2673525E+003	3.956659920695529E+001	-5.1712090E-001	-5.580028345704879E-002	2.8855493E-005	-5.1702046E-001	0
9.3004102E+003	3.976659920190286E+001	-5.1907504E-001	-5.581206090953173E-002	2.8970648E-005	-5.1902032E-001	0
9.3412002E+003	3.996649919685296E+001	-5.2110410E-001	-5.578555938829954E-002	2.9070083E-005	-5.2102047E-001	0
9.3777910E+003	4.016639919180307E+001	-5.2313358E-001	-5.578430750842313E-002	2.9182644E-005	-5.2302015E-001	0
9.4073008E+003	4.036639918675064E+001	-5.2501297E-001	-5.580909565395233E-002	2.9300500E-005	-5.2502000E-001	0
9.4444736E+003	4.056639918169822E+001	-5.2711129E-001	-5.581161359540446E-002	2.9418932E-005	-5.2701992E-001	0
9.4711191E+003	4.076639917664579E+001	-5.2902550E-001	-5.585670599802595E-002	2.9549621E-005	-5.2901977E-001	0
9.5235869E+003	4.096639917159337E+001	-5.3109390E-001	-5.576616275238289E-002	2.9617069E-005	-5.3101963E-001	0
9.5504336E+003	4.116639916654094E+001	-5.3312671E-001	-5.582225097442572E-002	2.9760333E-005	-5.3301954E-001	0
9.5803818E+003	4.136639916148852E+001	-5.3507954E-001	-5.585158594288428E-002	2.9885041E-005	-5.3501940E-001	0
9.6264160E+003	4.156639915643609E+001	-5.3710353E-001	-5.579475530364086E-002	2.9967559E-005	-5.3701931E-001	0
9.6585156E+003	4.176639915138367E+001	-5.3912711E-001	-5.581883728016349E-002	3.0093448E-005	-5.3901917E-001	0
9.6999189E+003	4.196639914633124E+001	-5.4107809E-001	-5.578171220331396E-002	3.0182262E-005	-5.4101908E-001	0
9.7327236E+003	4.216639914127882E+001	-5.4310757E-001	-5.580222097493714E-002	3.0306608E-005	-5.4301900E-001	0
9.7675703E+003	4.236639913622639E+001	-5.4513347E-001	-5.581055021667436E-002	3.0424198E-005	-5.4501885E-001	0
9.8089063E+003	4.256639913117397E+001	-5.4709965E-001	-5.577580834519291E-002	3.0514926E-005	-5.4701877E-001	0
9.8487979E+003	4.276639912612154E+001	-5.4914618E-001	-5.575768639863612E-002	3.0619121E-005	-5.4901862E-001	0
9.8801055E+003	4.296639912106912E+001	-5.5106783E-001	-5.577550035618384E-002	3.0736082E-005	-5.5101848E-001	0
9.9120459E+003	4.316639911601669E+001	-5.5309778E-001	-5.580056750093104E-002	3.0863172E-005	-5.5301839E-001	0
9.9633271E+003	4.336639911096427E+001	-5.5509031E-001	-5.571334967294672E-002	3.0925941E-005	-5.5501825E-001	0
9.9931787E+003	4.356619910591689E+001	-5.5707419E-001	-5.574544547748683E-002	3.1054347E-005	-5.5701822E-001	0
1.0020431E+004	4.376619910086447E+001	-5.5912554E-001	-5.579855144678558E-002	3.1198397E-005	-5.5901802E-001	0
1.0059663E+004	4.396619909581204E+001	-5.6109023E-001	-5.577624362604072E-002	3.1295505E-005	-5.6101799E-001	0
1.0095125E+004	4.416619909075962E+001	-5.6312352E-001	-5.578172720689967E-002	3.1412004E-005	-5.6301785E-001	0
1.0144492E+004	4.436619908570719E+001	-5.6510323E-001	-5.570542235497589E-002	3.1479314E-005	-5.6501776E-001	0
1.0174890E+004	4.456619908065477E+001	-5.6713074E-001	-5.573827186821156E-002	3.1610889E-005	-5.6701761E-001	0
1.0207534E+004	4.476619907560234E+001	-5.6907517E-001	-5.575050280720872E-002	3.1726227E-005	-5.6901747E-001	0
1.0249193E+004	4.496619907054992E+001	-5.7107997E-001	-5.571950172536627E-002	3.1820291E-005	-5.7101738E-001	0
1.0276292E+004	4.516619906549749E+001	-5.7311285E-001	-5.577039237866965E-002	3.1962729E-005	-5.7301724E-001	0
1.0315458E+004	4.536619906044507E+001	-5.7510841E-001	-5.575209419251465E-002	3.2063497E-005	-5.7501709E-001	0
1.0356719E+004	4.556619905539264E+001	-5.7706976E-001	-5.571935927524940E-002	3.2153956E-005	-5.7701707E-001	0
1.0385912E+004	4.576619905034022E+001	-5.7909977E-001	-5.575820069513003E-002	3.2289561E-005	-5.7901686E-001	0
1.0422687E+004	4.596619904528779E+001	-5.8107769E-001	-5.575124181536724E-002	3.2395805E-005	-5.8101684E-001	0
1.0466338E+004	4.616619904023537E+001	-5.8308053E-001	-5.571007935009276E-002	3.2483462E-005	-5.8301669E-001	0
1.0494561E+004	4.636619903518294E+001	-5.8508247E-001	-5.575102383678443E-002	3.2618947E-005	-5.8501661E-001	0
1.0532875E+004	4.656619903013052E+001	-5.8711469E-001	-5.574115953944569E-002	3.2726453E-005	-5.8701646E-001	0
1.0567442E+004	4.676619902507809E+001	-5.8907187E-001	-5.574403470276512E-002	3.2837244E-005	-5.8901632E-001	0
1.0610527E+004	4.696609902002820E+001	-5.9107900E-001	-5.570684444207163E-002	3.2927146E-005	-5.9101605E-001	0
1.0634208E+004	4.716599901497830E+001	-5.9311175E-001	-5.577394690590559E-002	3.3080185E-005	-5.9301609E-001	0
1.0674193E+004	4.736599900992587E+001	-5.9508705E-001	-5.575007436556279E-002	3.3176148E-005	-5.9501600E-001	0
1.0718888E+004	4.756599900487345E+001	-5.9711403E-001	-5.570671417224582E-002	3.3263259E-005	-5.9701592E-001	0
1.0748457E+004	4.776599899982102E+001	-5.9909534E-001	-5.573779773685122E-002	3.3392254E-005	-5.9901571E-001	0
1.0787272E+004	4.796599899476860E+001	-6.0108471E-001	-5.572165744516466E-002	3.3493438E-005	-6.0101569E-001	0
1.0836302E+004	4.816599898971617E+001	-6.0311550E-001	-5.565694780849212E-002	3.3567569E-005	-6.0301554E-001	0
1.0863000E+004	4.836599898466375E+001	-6.0509509E-001	-5.570239313221326E-002	3.3705244E-005	-6.0501546E-001	0
1.0895151E+004	4.856599897961132E+001	-6.0709530E-001	-5.572160162071782E-002	3.3828321E-005	-6.0701531E-001	0
1.0926094E+004	4.876599897455890E+001	-6.0911351E-001	-5.574851734627084E-002	3.3957174E-005	-6.0901517E-001	0
1.0952221E+004	4.896599896950647E+001	-6.1109120E-001	-5.579610032244875E-002	3.4096505E-005	-6.1101514E-001	0
1.1001227E+004	4.916599896445405E+001	-6.1311221E-001	-5.573125934553522E-002	3.4169516E-005	-6.1301494E-001	0
1.1037472E+004	4.936599895940162E+001	-6.1511153E-001	-5.572938543106623E-002	3.4279787E-005	-6.1501485E-001	0
1.1057881E+004	4.956599895434920E+001	-6.1713189E-001	-5.580923794620912E-002	3.4441662E-005	-6.1701477E-001	0
1.1087351E+004	4.976599894929677E+001	-6.1912489E-001	-5.584065359964319E-002	3.4572338E-005	-6.1901462E-001	0
1.1128515E+004	4.996599894424435E+001	-6.2111878E-001	-5.581326954290622E-002	3.4666671E-005	-6.2101454E-001	0
1.1157961E+004	5.016599893919192E+001	-6.2308311E-001	-5.584202483169687E-002	3.4794222E-005	-6.2301439E-001	0
1.1189331E+004	5.036599893413950E+001	-6.2512618E-001	-5.586805887670265E-002	3.4924586E-005	-6.2501431E-001	0
1.1210631E+004	5.056579892909213E+001	-6.2710810E-001	-5.593869842727752E-002	3.5079611E-005	-6.2701398E-001	0
1.1230650E+004	5.076579892403970E+001	-6.2911254E-001	-5.601746128510932E-002	3.5241286E-005	-6.2901407E-001	0
1.1271743E+004	5.096579891898728E+001	-6.3112628E-001	-5.599189711610053E-002	3.5337958E-005	-6.3101399E-001	0
1.1298484E+004	5.116579891393485E+001	-6.3311064E-001	-5.603500836963833E-002	3.5476362E-005	-6.3301384E-001	0
1.1316936E+004	5.136579890888243E+001	-6.3508111E-001	-5.611776413032776E-002	3.5639332E-005	-6.3501382E-001	0
1.1347633E+004	5.156579890383000E+001	-6.3714135E-001	-5.614751336310486E-002	3.5773901E-005	-6.3701367E-001	0
1.1364331E+004	5.176579889877758E+001	-6.3910061E-001	-5.623741577275931E-002	3.5941368E-005	-6.3901353E-001	0
1.1375697E+004	5.196579889372515E+001	-6.4109719E-001	-5.635673582317322E-002	3.6130146E-005	-6.4101338E-001	0
1.1392147E+004	5.216579888867273E+001	-6.4313722E-001	-5.645443421689245E-002	3.6307949E-005	-6.4301324E-001	0
1.1416092E+004	5.236579888362030E+001	-6.4510280E-001	-5.650819991050016E-002	3.6453599E-005	-6.4501321E-001	0
1.1433174E+004	5.256579887856788E+001	-6.4711368E-001	-5.659965508989145E-002	3.6626410E-005	-6.4701307E-001	0
1.1430696E+004	5.276579887351545E+001	-6.4915586E-001	-5.679057860301379E-002	3.6865935E-005	-6.4901292E-001	0
1.1447628E+004	5.296579886846303E+001	-6.5112257E-001	-5.687838517099864E-002	3.7034799E-005	-6.5101284E-001	0
1.1440654E+004	5.316579886341060E+001	-6.5311193E-001	-5.708693792830216E-002	3.7284160E-005	-6.5301275E-001	0
1.1469101E+004	5.336579885835818E+001	-6.5507460E-001	-5.711647634269845E-002	3.7415553E-005	-6.5501267E-001	0
1.1467796E+004	5.356579885330575E+001	-6.5710235E-001	-5.729979596759616E-002	3.7651829E-005	-6.5701252E-001	0
1.1473861E+004	5.376579884825333E+001	-6.5911043E-001	-5.744451977040127E-002	3.7862283E-005	-6.5901238E-001	0
1.1469180E+004	5.396569884320343E+001	-6.6105598E-001	-5.763759688359482E-002	3.8101680E-005	-6.6101187E-001	0
1.1455658E+004	5.416559883815353E+001	-6.6310191E-001	-5.788422548877303E-002	3.8383139E-005	-6.6301215E-001	0
1.1466265E+004	5.436559883310110E+001	-6.6513902E-001	-5.800834602186372E-002	3.8583614E-005	-6.6501206E-001	0
1.1453166E+004	5.456559882804868E+001	-6.6709316E-001	-5.824530484152718E-002	3.8855043E-005	-6.6701192E-001	0
1.1456986E+004	5.476559882299625E+001	-6.6914052E-001	-5.840458571140039E-002	3.9080875E-005	-6.6901183E-001	0
1.1449247E+004	5.496559881794383E+001	-6.7106533E-001	-5.861217799636609E-002	3.9332601E-005	-6.7101175E-001	0
1.1446120E+004	5.516559881289140E+001	-6.7313367E-001	-5.880889297745984E-002	3.9586244E-005	-6.7301160E-001	0
1.1425236E+004	5.536559880783898E+001	-6.7515272E-001	-5.909310894714181E-002	3.9896873E-005	-6.7501152E-001	0
1.1405416E+004	5.556559880278655E+001	-6.7707932E-001	-5.936471976248991E-002	4.0194624E-005	-6.7701137E-001	0
1.1402086E+004	5.576559879773413E+001	-6.7907804E-001	-5.955735419332031E-002	4.0444091E-005	-6.7901123E-001	0
1.1397544E+004	5.596559879268170E+001	-6.8111050E-001	-5.975940770336546E-002	4.0702762E-005	-6.8101114E-001	0
1.1360388E+004	5.616559878762928E+001	-6.8306988E-001	-6.012733857930874E-002	4.1071173E-005	-6.8301100E-001	0
1.1334604E+004	5.636559878257685E+001	-6.8510324E-001	-6.044350585175874E-002	4.1410043E-005	-6.8501091E-001	0
1.1319277E+004	5.656559877752443E+001	-6.8710285E-001	-6.070200900141731E-002	4.1708525E-005	-6.8701077E-001	0
1.1308757E+004	5.676559877247200E+001	-6.8908554E-001	-6.093380086033118E-002	4.1988602E-005	-6.8901068E-001	0
1.1278337E+004	5.696559876741958E+001	-6.9113928E-001	-6.128025013539512E-002	4.2353189E-005	-6.9101059E-001	0
1.1255907E+004	5.716559876236715E+001	-6.9309282E-001	-6.157592080571483E-002	4.2677828E-005	-6.9301045E-001	0
1.1225713E+004	5.736559875731473E+001	-6.9508666E-001	-6.191915459244568E-002	4.3039177E-005	-6.9501042E-001	0
1.1208552E+004	5.756549875226483E+001	-6.9712067E-001	-6.219542691176444E-002	4.3357719E-005	-6.9701070E-001	0
1.1167368E+004	5.776539874721493E+001	-6.9907647E-001	-6.259993298925326E-002	4.3762142E-005	-6.9901013E-001	0
1.1167031E+004	5.796539874216251E+001	-7.0108336E-001	-6.278153280664212E-002	4.4015087E-005	-7.0101005E-001	0
1.1120127E+004	5.816539873711008E+001	-7.0308346E-001	-6.322620584272576E-002	4.4453300E-005	-7.0300984E-001	0
1.1100544E+004	5.836539873205766E+001	-7.0510423E-001	-6.351978929350111E-002	4.4788074E-005	-7.0500976E-001	0
1.1072988E+004	5.856539872700523E+001	-7.0708400E-001	-6.385665354445633E-002	4.5152017E-005	-7.0700967E-001	0
1.1042637E+004	5.876539872195281E+001	-7.0908248E-001	-6.421314765511221E-002	4.5532419E-005	-7.0900959E-001	0
1.1022715E+004	5.896539871690038E+001	-7.1109211E-001	-6.451152124264747E-002	4.5873636E-005	-7.1100944E-001	0
1.0967378E+004	5.916539871184796E+001	-7.1313554E-001	-6.502333828174178E-002	4.6370453E-005	-7.1300930E-001	0
1.0954311E+004	5.936539870679553E+001	-7.1511555E-001	-6.528165786476403E-002	4.6683930E-005	-7.1500927E-001	0
1.0923249E+004	5.956539870174311E+001	-7.1711254E-001	-6.565011471885840E-002	4.7078520E-005	-7.1700907E-001	0
1.0920885E+004	5.976539869669068E+001	-7.1909010E-001	-6.584540795104024E-002	4.7348782E-005	-7.1900898E-001	0
1.0876654E+004	5.996539869163826E+001	-7.2111875E-001	-6.629968405006426E-002	4.7809946E-005	-7.2100890E-001	0
1.0846984E+004	6.016539868658583E+001	-7.2306335E-001	-6.666030948231971E-002	4.8199625E-005	-7.2300869E-001	0
1.0824447E+004	6.036539868153341E+001	-7.2508645E-001	-6.698600065845861E-002	4.8570641E-005	-7.2500867E-001	0
1.0787983E+004	6.056539867648098E+001	-7.2709876E-001	-6.739894809864477E-002	4.9005692E-005	-7.2700852E-001	0
1.0785381E+004	6.076539867142856E+001	-7.2909343E-001	-6.760015462941249E-002	4.9286828E-005	-7.2900844E-001	0
1.0766085E+004	6.096529866637866E+001	-7.3112839E-001	-6.791033098024579E-002	4.9651171E-005	-7.3100740E-001	0
1.0752324E+004	6.116519866132876E+001	-7.3309815E-001	-6.818043290231979E-002	4.9982948E-005	-7.3300797E-001	0
1.0708396E+004	6.136519865627633E+001	-7.3510373E-001	-6.864741428537675E-002	5.0462972E-005	-7.3500812E-001	0
1.0685915E+004	6.156519865122391E+001	-7.3708659E-001	-6.897739439362216E-002	5.0842315E-005	-7.3700792E-001	0
1.0667292E+004	6.176519864617148E+001	-7.3911256E-001	-6.928773926330262E-002	5.1211438E-005	-7.3900783E-001	0
1.0646257E+004	6.196519864111906E+001	-7.4109888E-001	-6.961121514139690E-002	5.1588795E-005	-7.4100775E-001	0
1.0623092E+004	6.216519863606663E+001	-7.4314475E-001	-6.995559620244374E-002	5.1987136E-005	-7.4300766E-001	0
1.0608662E+004	6.236519863101421E+001	-7.4507904E-001	-7.023308419859002E-002	5.2329200E-005	-7.4500751E-001	0
1.0579508E+004	6.256519862596178E+001	-7.4712574E-001	-7.062008746956683E-002	5.2762087E-005	-7.4700737E-001	0
1.0562147E+004	6.276519862090936E+001	-7.4908060E-001	-7.092124147207607E-002	5.3125725E-005	-7.4900734E-001	0
1.0539022E+004	6.296519861585693E+001	-7.5113457E-001	-7.127174895674904E-002	5.3534673E-005	-7.5100714E-001	0
1.0546106E+004	6.316519861080451E+001	-7.5313830E-001	-7.141386946956807E-002	5.3784519E-005	-7.5300705E-001	0
1.0500796E+004	6.336519860575208E+001	-7.5509238E-001	-7.190810868626329E-002	5.4297267E-005	-7.5500697E-001	0
1.0481475E+004	6.356519860069966E+001	-7.5713360E-001	-7.223541104464959E-002	5.4691856E-005	-7.5700676E-001	0
1.0455708E+004	6.376519859564723E+001	-7.5912750E-001	-7.260412046297238E-002	5.5115783E-005	-7.5900668E-001	0
1.0432646E+004	6.396519859059481E+001	-7.6108873E-001	-7.295261263000469E-002	5.5523411E-005	-7.6100659E-001	0
1.0410422E+004	6.416519858554238E+001	-7.6310551E-001	-7.330207037422687E-002	5.5937213E-005	-7.6300651E-001	0
1.0395686E+004	6.436519858048996E+001	-7.6511061E-001	-7.359885996156923E-002	5.6311270E-005	-7.6500642E-001	0
1.0356728E+004	6.456509857544006E+001	-7.6712120E-001	-7.406984450730625E-002	5.6820547E-005	-7.6700604E-001	0
1.0345411E+004	6.476499857039016E+001	-7.6913774E-001	-7.434578837780381E-002	5.7182151E-005	-7.6900619E-001	0
1.0304277E+004	6.496499856533774E+001	-7.7109808E-001	-7.483281787957907E-002	5.7703441E-005	-7.7100599E-001	0
1.0277044E+004	6.516499856028531E+001	-7.7306616E-001	-7.522261673859121E-002	5.8152058E-005	-7.7300590E-001	0
1.0247130E+004	6.536499855523289E+001	-7.7511567E-001	-7.564222187652792E-002	5.8631471E-005	-7.7500582E-001	0
1.0220639E+004	6.556499855018046E+001	-7.7710563E-001	-7.603298117408759E-002	5.9085658E-005	-7.7700561E-001	0
1.0191462E+004	6.576499854512804E+001	-7.7911282E-001	-7.644760482226498E-002	5.9561309E-005	-7.7900565E-001	0
1.0141915E+004	6.596499854007561E+001	-7.8111959E-001	-7.701894524718389E-002	6.0161008E-005	-7.8100544E-001	0
1.0125582E+004	6.616499853502319E+001	-7.8311729E-001	-7.734047426618296E-002	6.0566665E-005	-7.8300542E-001	0
1.0108232E+004	6.636499852997076E+001	-7.8511304E-001	-7.767065627608112E-002	6.0980245E-005	-7.8500527E-001	0
1.0064421E+004	6.656499852491834E+001	-7.8705192E-001	-7.820141395710217E-002	6.1548570E-005	-7.8700513E-001	0
1.0026951E+004	6.676499851986591E+001	-7.8907442E-001	-7.869534704479420E-002	6.2096486E-005	-7.8900504E-001	0
1.0006479E+004	6.696499851481349E+001	-7.9106569E-001	-7.905535189363100E-002	6.2537976E-005	-7.9100496E-001	0
9.9967578E+003	6.716499850976106E+001	-7.9306012E-001	-7.933173498535795E-002	6.2914834E-005	-7.9300487E-001	0
9.9338779E+003	6.736499850470864E+001	-7.9512274E-001	-8.004152729934128E-002	6.3642838E-005	-7.9500467E-001	0
9.9149033E+003	6.756499849965621E+001	-7.9706651E-001	-8.039075049440747E-002	6.4076776E-005	-7.9700458E-001	0
9.8824287E+003	6.776499849460379E+001	-7.9908794E-001	-8.085946685871043E-002	6.4613821E-005	-7.9900450E-001	0
9.8333564E+003	6.796489848955389E+001	-8.0110896E-001	-8.146851561432750E-002	6.5265158E-005	-8.0100346E-001	0
9.8023164E+003	6.816489848450146E+001	-8.0307895E-001	-8.192746879018409E-002	6.5794229E-005	-8.0300492E-001	0
9.7965869E+003	6.836479847945157E+001	-8.0510277E-001	-8.218196927318489E-002	6.6164932E-005	-8.0500412E-001	0
9.7545547E+003	6.856479847439914E+001	-8.0707753E-001	-8.273853324068600E-002	6.6776411E-005	-8.0700397E-001	0
9.7209736E+003	6.876479846934672E+001	-8.0912238E-001	-8.323470482818118E-002	6.7347064E-005	-8.0900395E-001	0
9.6688613E+003	6.896479846429429E+001	-8.1106198E-001	-8.388392045690585E-002	6.8035057E-005	-8.1100380E-001	0
9.6327305E+003	6.916479845924187E+001	-8.1308573E-001	-8.440864911564788E-002	6.8631467E-005	-8.1300372E-001	0
9.6247402E+003	6.936479845418944E+001	-8.1507510E-001	-8.468541325821799E-002	6.9024973E-005	-8.1500351E-001	0
9.5797568E+003	6.956479844913702E+001	-8.1707025E-001	-8.529133374523989E-002	6.9689013E-005	-8.1700343E-001	0
9.5346230E+003	6.976479844408459E+001	-8.1911433E-001	-8.590946344831912E-002	7.0369671E-005	-8.1900334E-001	0
9.5223799E+003	6.996479843903217E+001	-8.2112706E-001	-8.623128195394592E-002	7.0806840E-005	-8.2100320E-001	0
9.4630928E+003	7.016479843397974E+001	-8.2307190E-001	-8.697705415960311E-002	7.1588373E-005	-8.2300311E-001	0
9.4445430E+003	7.036479842892732E+001	-8.2514274E-001	-8.736714222172814E-002	7.2090363E-005	-8.2500297E-001	0
9.4096650E+003	7.056479842387489E+001	-8.2710791E-001	-8.789982910103289E-002	7.2702642E-005	-8.2700282E-001	0
9.3795049E+003	7.076479841882247E+001	-8.2906836E-001	-8.839148057618340E-002	7.3282579E-005	-8.2900280E-001	0
9.3508096E+003	7.096479841377004E+001	-8.3111763E-001	-8.888189149270787E-002	7.3871306E-005	-8.3100265E-001	0
9.3170205E+003	7.116479840871762E+001	-8.3306479E-001	-8.941322308067479E-002	7.4487005E-005	-8.3300263E-001	0
9.2933721E+003	7.136479840366519E+001	-8.3515733E-001	-8.986591065593919E-002	7.5052172E-005	-8.3500236E-001	0
9.2615186E+003	7.156479839861277E+001	-8.3706313E-001	-9.038076440216614E-002	7.5654403E-005	-8.3700228E-001	0
9.2362773E+003	7.176469839356287E+001	-8.3906591E-001	-9.084460241378067E-002	7.6224605E-005	-8.3900309E-001	0
9.2016367E+003	7.196459838851297E+001	-8.4109974E-001	-9.140762165632288E-002	7.6882927E-005	-8.4100205E-001	0
9.1483779E+003	7.216459838346054E+001	-8.4314561E-001	-9.216339783975336E-002	7.7707162E-005	-8.4300196E-001	0
9.1285703E+003	7.236459837840812E+001	-8.4510571E-001	-9.257810382814458E-002	7.8238285E-005	-8.4500188E-001	0
9.0897041E+003	7.256459837335569E+001	-8.4710485E-001	-9.319388907447088E-002	7.8944999E-005	-8.4700167E-001	0
9.0506445E+003	7.276459836830327E+001	-8.4907401E-001	-9.381364836133677E-002	7.9654732E-005	-8.4900171E-001	0
9.0165557E+003	7.296459836325084E+001	-8.5111731E-001	-9.439494618998168E-002	8.0341175E-005	-8.5100150E-001	0
8.9639004E+003	7.316459835819842E+001	-8.5310173E-001	-9.517081772386959E-002	8.1190388E-005	-8.5300148E-001	0
8.9213027E+003	7.336459835314599E+001	-8.5504222E-001	-9.584275326615521E-002	8.1949598E-005	-8.5500127E-001	0
8.8569297E+003	7.356459834809357E+001	-8.5715884E-001	-9.677832812765663E-002	8.2954401E-005	-8.5700119E-001	0
8.8109434E+003	7.376459834304114E+001	-8.5910410E-001	-9.750421056122671E-002	8.3766266E-005	-8.5900110E-001	0
8.7465703E+003	7.396459833798872E+001	-8.6112827E-001	-9.845324702108937E-002	8.4780877E-005	-8.6100090E-001	0
8.6847539E+003	7.416459833293629E+001	-8.6313909E-001	-9.938555669309790E-002	8.5783562E-005	-8.6300081E-001	0
8.6120449E+003	7.436459832788387E+001	-8.6508489E-001	-1.004505793420414E-001	8.6898275E-005	-8.6500072E-001	0
8.5332813E+003	7.456459832283144E+001	-8.6714077E-001	-1.016186800175038E-001	8.8117704E-005	-8.6700052E-001	0
8.4241514E+003	7.476459831777902E+001	-8.6907917E-001	-1.031651915412168E-001	8.9658723E-005	-8.6900055E-001	0
8.3327979E+003	7.496459831272659E+001	-8.7111932E-001	-1.045410377765399E-001	9.1067719E-005	-8.7100035E-001	0
8.2228428E+003	7.516449830767669E+001	-8.7311882E-001	-1.061821106678784E-001	9.2709597E-005	-8.7299985E-001	0
8.1139170E+003	7.536439830262680E+001	-8.7509578E-001	-1.078512098095350E-001	9.4380142E-005	-8.7500012E-001	0
7.9956548E+003	7.556439829757437E+001	-8.7711304E-001	-1.096987114805313E-001	9.6218173E-005	-8.7700003E-001	0
7.8569941E+003	7.576439829252195E+001	-8.7910932E-001	-1.118887567590676E-001	9.8362449E-005	-8.7899995E-001	0
7.7016157E+003	7.596439828746952E+001	-8.8106680E-001	-1.144002525815883E-001	1.0079426E-004	-8.8099986E-001	0
7.5598862E+003	7.616439828241710E+001	-8.8309395E-001	-1.168131275660020E-001	1.0315697E-004	-8.8299978E-001	0
7.3793960E+003	7.636439827736467E+001	-8.8508880E-001	-1.199405469705694E-001	1.0615803E-004	-8.8499957E-001	0
7.2029160E+003	7.656439827231225E+001	-8.8707364E-001	-1.231547920265634E-001	1.0924737E-004	-8.8699949E-001	0
7.0058750E+003	7.676439826725982E+001	-8.8909972E-001	-1.269077348772036E-001	1.1283363E-004	-8.8899940E-001	0
6.7978066E+003	7.696439826220740E+001	-8.9109647E-001	-1.310858842536655E-001	1.1681017E-004	-8.9099926E-001	0
6.5774180E+003	7.716439825715497E+001	-8.9307129E-001	-1.357784020374453E-001	1.2125979E-004	-8.9299995E-001	0
6.3514238E+003	7.736439825210255E+001	-8.9511943E-001	-1.409320940079839E-001	1.2615106E-004	-8.9500010E-001	0
6.1075620E+003	7.756439824705012E+001	-8.9709044E-001	-1.468819245081514E-001	1.3176637E-004	-8.9700013E-001	0
5.8427603E+003	7.776439824199770E+001	-8.9906877E-001	-1.538774024783853E-001	1.3834637E-004	-8.9900011E-001	0
5.5961021E+003	7.796439823694527E+001	-9.0108919E-001	-1.610208649384690E-001	1.4509416E-004	-9.0100008E-001	0
5.3202324E+003	7.816439823189285E+001	-9.0311301E-001	-1.697506737513069E-001	1.5330405E-004	-9.0300012E-001	0
5.0445186E+003	7.836439822684042E+001	-9.0513939E-001	-1.794302816188096E-001	1.6240941E-004	-9.0500009E-001	0
4.7554878E+003	7.856439822178800E+001	-9.0708101E-001	-1.907440439508615E-001	1.7302029E-004	-9.0700006E-001	0
4.4817715E+003	7.876439821673557E+001	-9.0911800E-001	-2.028479128569159E-001	1.8441268E-004	-9.0900016E-001	0
4.1964863E+003	7.896439821168315E+001	-9.1107059E-001	-2.171032033679063E-001	1.9779634E-004	-9.1100013E-001	0
3.9219275E+003	7.916439820663072E+001	-9.1310948E-001	-2.328216131447123E-001	2.1259162E-004	-9.1300011E-001	0
3.6508013E+003	7.936439820157830E+001	-9.1509157E-001	-2.506549948501205E-001	2.2937228E-004	-9.1500008E-001	0
3.3182820E+003	7.956439819652587E+001	-9.1710204E-001	-2.763785804387471E-001	2.5346735E-004	-9.1700017E-001	0
3.0826277E+003	7.976439819147345E+001	-9.1913259E-001	-2.981652978896392E-001	2.7405345E-004	-9.1900021E-001	0
2.8452390E+003	7.996439818642102E+001	-9.2114639E-001	-3.237501014818065E-001	2.9822125E-004	-9.2100012E-001	0
2.6163933E+003	8.016439818136860E+001	-9.2304796E-001	-3.527940392680033E-001	3.2564581E-004	-9.2300010E-001	0
2.3981418E+003	8.036439817631617E+001	-9.2511821E-001	-3.857645719690150E-001	3.5687783E-004	-9.2500019E-001	0
2.1632207E+003	8.056439817126375E+001	-9.2710048E-001	-4.285741461580297E-001	3.9733129E-004	-9.2700005E-001	0
1.9874302E+003	8.076439816621132E+001	-9.2915362E-001	-4.675150975424467E-001	4.3439335E-004	-9.2900008E-001	0
1.8159811E+003	8.096439816115890E+001	-9.3113244E-001	-5.127434667596877E-001	4.7743207E-004	-9.3100011E-001	0
1.6350758E+003	8.116439815610647E+001	-9.3310237E-001	-5.706783642658717E-001	5.3250132E-004	-9.3300009E-001	0
1.4977556E+003	8.136439815105405E+001	-9.3515009E-001	-6.243675879906028E-001	5.8387738E-004	-9.3500006E-001	0
1.3484967E+003	8.156439814600162E+001	-9.3709183E-001	-6.949159493226392E-001	6.5120007E-004	-9.3700010E-001	0
1.2335122E+003	8.176439814094920E+001	-9.3913907E-001	-7.613536968970820E-001	7.1501703E-004	-9.3900007E-001	0
1.1108666E+003	8.196439813589677E+001	-9.4114161E-001	-8.472139122315134E-001	7.9734827E-004	-9.4100004E-001	0
1.0106118E+003	8.216439813084435E+001	-9.4311041E-001	-9.332074587932371E-001	8.8011764E-004	-9.4300014E-001	0
9.1490198E+002	8.237439812553930E+001	-9.4523948E-001	-1.033159282076690E+000	9.7658299E-004	-9.4510019E-001	0
8.2838159E+002	8.258439812023425E+001	-9.4732362E-001	-1.143583628097694E+000	1.0833438E-003	-9.4720006E-001	0
7.5160223E+002	8.278439811518183E+001	-9.4930154E-001	-1.263037114068357E+000	1.1990031E-003	-9.4920009E-001	0
6.8519604E+002	8.298439811012940E+001	-9.5137697E-001	-1.388474103409681E+000	1.3209623E-003	-9.5120013E-001	0
6.2545264E+002	8.318439810507698E+001	-9.5331395E-001	-1.524198486311292E+000	1.4530397E-003	-9.5320010E-001	0
5.7157715E+002	8.338439810002455E+001	-9.5527792E-001	-1.671301794667091E+000	1.5965577E-003	-9.5520008E-001	0
5.2360071E+002	8.358439809497213E+001	-9.5731127E-001	-1.828323050590058E+000	1.7502742E-003	-9.5720011E-001	0
4.7953372E+002	8.378439808991970E+001	-9.5932543E-001	-2.000538045249009E+000	1.9191670E-003	-9.5920008E-001	0
4.4024203E+002	8.398439808486728E+001	-9.6132201E-001	-2.183621653927961E+000	2.0991636E-003	-9.6120006E-001	0
4.0504483E+002	8.418439807981486E+001	-9.6333194E-001	-2.378334201618934E+000	2.2911252E-003	-9.6320015E-001	0
3.7307410E+002	8.438439807476243E+001	-9.6533644E-001	-2.587519396611762E+000	2.4978267E-003	-9.6520013E-001	0
3.4470941E+002	8.458439806971001E+001	-9.6728677E-001	-2.806093401615584E+000	2.7142970E-003	-9.6720010E-001	0
3.1858102E+002	8.478439806465758E+001	-9.6930158E-001	-3.042559203326441E+000	2.9491575E-003	-9.6920007E-001	0
2.9556079E+002	8.498439805960516E+001	-9.7132885E-001	-3.286392698482586E+000	3.1921680E-003	-9.7120017E-001	0
2.7447369E+002	8.518439805455273E+001	-9.7328025E-001	-3.545987483223811E+000	3.4512396E-003	-9.7320020E-001	0
2.5565257E+002	8.538439804950031E+001	-9.7530884E-001	-3.814977626140978E+000	3.7207813E-003	-9.7520012E-001	0
2.3856027E+002	8.558439804444788E+001	-9.7732836E-001	-4.096777471352610E+000	4.0038968E-003	-9.7720009E-001	0
2.2296024E+002	8.578439803939546E+001	-9.7933495E-001	-4.392419741469979E+000	4.3016500E-003	-9.7920018E-001	0
2.0870683E+002	8.598439803434303E+001	-9.8131561E-001	-4.701885239675194E+000	4.6140333E-003	-9.8120004E-001	0
1.9572307E+002	8.618439802929061E+001	-9.8329610E-001	-5.023915367669801E+000	4.9399962E-003	-9.8320007E-001	0
1.8400664E+002	8.638439802423818E+001	-9.8531377E-001	-5.354773134094501E+000	5.2761319E-003	-9.8520011E-001	0
1.7339156E+002	8.658439801918576E+001	-9.8732352E-001	-5.694184559103846E+000	5.6220023E-003	-9.8720008E-001	0
1.6348419E+002	8.678439801413333E+001	-9.8928529E-001	-6.051259714358267E+000	5.9864223E-003	-9.8920012E-001	0
1.5450606E+002	8.698439800908091E+001	-9.9128294E-001	-6.415819461383535E+000	6.3598924E-003	-9.9120009E-001	0
1.4626187E+002	8.718439800402848E+001	-9.9328691E-001	-6.791153973259917E+000	6.7455643E-003	-9.9320006E-001	0
1.3871400E+002	8.738439799897606E+001	-9.9529457E-001	-7.175155341895533E+000	7.1413931E-003	-9.9519998E-001	0
1.3175946E+002	8.758439799392363E+001	-9.9728787E-001	-7.569004271644047E+000	7.5484761E-003	-9.9720013E-001	0
1.2539494E+002	8.778439798887121E+001	-9.9929321E-001	-7.969167234608384E+000	7.9635344E-003	-9.9919999E-001	0
1.1944298E+002	8.798439798381878E+001	-1.0012972E+000	-8.383056480935892E+000	8.3939312E-003	-1.0012001E+000	0
1.1397753E+002	8.818439797876636E+001	-1.0033453E+000	-8.803009063005437E+000	8.8324575E-003	-1.0032001E+000	0
1.0887390E+002	8.838439797371393E+001	-1.0053488E+000	-9.234065929507999E+000	9.2834570E-003	-1.0052001E+000	0
1.0416997E+002	8.858439796866151E+001	-1.0073111E+000	-9.669880164318357E+000	9.7405780E-003	-1.0072001E+000	0
9.9825180E+001	8.878439796360908E+001	-1.0093312E+000	-1.011098835020917E+001	1.0205336E-002	-1.0092001E+000	0
9.5775513E+001	8.898439795855666E+001	-1.0113747E+000	-1.055984673397343E+001	1.0679962E-002	-1.0112001E+000	0
9.1602173E+001	8.919439795325161E+001	-1.0134612E+000	-1.106372516191735E+001	1.1212656E-002	-1.0133002E+000	0
8.7830292E+001	8.940439794794656E+001	-1.0155387E+000	-1.156251103929378E+001	1.1742177E-002	-1.0154001E+000	0
8.4578300E+001	8.960439794289414E+001	-1.0175521E+000	-1.203088907360222E+001	1.2242056E-002	-1.0174000E+000	0
8.1475342E+001	8.980439793784171E+001	-1.0194628E+000	-1.251253195819939E+001	1.2756061E-002	-1.0194000E+000	0
7.8680946E+001	9.000439793278929E+001	-1.0215251E+000	-1.298313242075395E+001	1.3262596E-002	-1.0214001E+000	0
7.6028534E+001	9.020439792773686E+001	-1.0235209E+000	-1.346232690724649E+001	1.3778973E-002	-1.0234001E+000	0
7.3446114E+001	9.040439792268444E+001	-1.0255574E+000	-1.396339955581288E+001	1.4320267E-002	-1.0254002E+000	0
7.1083061E+001	9.060439791763201E+001	-1.0275277E+000	-1.445530934033749E+001	1.4853231E-002	-1.0274000E+000	0
6.8831558E+001	9.080439791257959E+001	-1.0295118E+000	-1.495697442149896E+001	1.5398382E-002	-1.0294001E+000	0
6.6669937E+001	9.100439790752716E+001	-1.0314457E+000	-1.547092749053394E+001	1.5957423E-002	-1.0314001E+000	0
6.4652939E+001	9.120439790247474E+001	-1.0334811E+000	-1.598506077387434E+001	1.6520258E-002	-1.0334002E+000	0
6.2754379E+001	9.140439789742231E+001	-1.0355332E+000	-1.650136894717514E+001	1.7087715E-002	-1.0354000E+000	0
6.0944504E+001	9.160439789236989E+001	-1.0375272E+000	-1.702413126278896E+001	1.7663000E-002	-1.0374001E+000	0
5.9182484E+001	9.180439788731746E+001	-1.0395312E+000	-1.756484606693118E+001	1.8259207E-002	-1.0394001E+000	0
5.7554863E+001	9.200439788226504E+001	-1.0415450E+000	-1.809655996934089E+001	1.8848382E-002	-1.0414001E+000	0
5.5985252E+001	9.220439787721261E+001	-1.0435499E+000	-1.863972844909917E+001	1.9451486E-002	-1.0434002E+000	0
5.4462799E+001	9.240439787216019E+001	-1.0455388E+000	-1.919730120451271E+001	2.0071523E-002	-1.0454001E+000	0
5.3032547E+001	9.260439786710776E+001	-1.0475004E+000	-1.975202900995743E+001	2.0690259E-002	-1.0474001E+000	0
5.1646049E+001	9.280439786205534E+001	-1.0495327E+000	-2.032164404681481E+001	2.1328229E-002	-1.0494001E+000	0
5.0347214E+001	9.300439785700291E+001	-1.0515802E+000	-2.088656109463335E+001	2.1963894E-002	-1.0514001E+000	0
4.9081139E+001	9.320439785195049E+001	-1.0534782E+000	-2.146401424391736E+001	2.2611871E-002	-1.0534002E+000	0
4.7858078E+001	9.340439784689806E+001	-1.0555000E+000	-2.205479381265559E+001	2.3278836E-002	-1.0554001E+000	0
4.6712925E+001	9.360439784184564E+001	-1.0574907E+000	-2.263807508802198E+001	2.3939554E-002	-1.0574001E+000	0
4.5602356E+001	9.380439783679321E+001	-1.0594996E+000	-2.323344131527040E+001	2.4615822E-002	-1.0594001E+000	0
4.4533066E+001	9.400439783174079E+001	-1.0615051E+000	-2.383633501216133E+001	2.5302391E-002	-1.0614002E+000	0
4.3491920E+001	9.420439782668836E+001	-1.0635345E+000	-2.445361041306364E+001	2.6007257E-002	-1.0634001E+000	0
4.2500736E+001	9.440439782163594E+001	-1.0655534E+000	-2.507141034795052E+001	2.6714927E-002	-1.0654001E+000	0
4.1512810E+001	9.460439781658351E+001	-1.0675560E+000	-2.571630366670297E+001	2.7453596E-002	-1.0674001E+000	0
4.0595295E+001	9.480439781153109E+001	-1.0695040E+000	-2.634551701497060E+001	2.8176636E-002	-1.0694001E+000	0
3.9712566E+001	9.500439780647866E+001	-1.0715466E+000	-2.698255532236589E+001	2.8913064E-002	-1.0714002E+000	0
3.8841232E+001	9.520439780142624E+001	-1.0734990E+000	-2.763812808357935E+001	2.9669503E-002	-1.0734001E+000	0
3.8019230E+001	9.540439779637381E+001	-1.0755150E+000	-2.828871246530360E+001	3.0424936E-002	-1.0754002E+000	0
3.7228077E+001	9.560439779132139E+001	-1.0774966E+000	-2.894311762883297E+001	3.1186113E-002	-1.0774001E+000	0
3.6448002E+001	9.580439778626896E+001	-1.0795429E+000	-2.961871227007066E+001	3.1974670E-002	-1.0794001E+000	0
3.5674351E+001	9.600439778121654E+001	-1.0815306E+000	-3.031675653338704E+001	3.2788500E-002	-1.0814002E+000	0
3.4932915E+001	9.620439777616411E+001	-1.0835596E+000	-3.101830033812666E+001	3.3610176E-002	-1.0834002E+000	0
3.4222878E+001	9.640439777111169E+001	-1.0854973E+000	-3.171846788783743E+001	3.4430310E-002	-1.0854001E+000	0
3.3545120E+001	9.660439776605926E+001	-1.0875436E+000	-3.242032137046874E+001	3.5258513E-002	-1.0874001E+000	0
3.2892788E+001	9.680439776100684E+001	-1.0895263E+000	-3.312356076624383E+001	3.6088992E-002	-1.0894001E+000	0
3.2234798E+001	9.700439775595441E+001	-1.0915186E+000	-3.386150064517039E+001	3.6960460E-002	-1.0914000E+000	0
3.1615875E+001	9.720439775090199E+001	-1.0935358E+000	-3.458818724960958E+001	3.7823420E-002	-1.0934001E+000	0
3.1011312E+001	9.740439774584956E+001	-1.0955454E+000	-3.532728277474564E+001	3.8702641E-002	-1.0954001E+000	0
3.0414360E+001	9.760439774079714E+001	-1.0975692E+000	-3.608720450714867E+001	3.9608207E-002	-1.0974001E+000	0
2.9833393E+001	9.780439773574471E+001	-1.0995494E+000	-3.685633024769277E+001	4.0525354E-002	-1.0994000E+000	0
2.9275986E+001	9.800439773069229E+001	-1.1015466E+000	-3.762628669398191E+001	4.1447110E-002	-1.1014001E+000	0
2.8724081E+001	9.820439772563986E+001	-1.1035450E+000	-3.841880871298093E+001	4.2396881E-002	-1.1034002E+000	0
2.8194698E+001	9.840439772058744E+001	-1.1055359E+000	-3.921077096489284E+001	4.3348912E-002	-1.1054001E+000	0
2.7694584E+001	9.860439771553501E+001	-1.1075171E+000	-3.999038721428437E+001	4.4290040E-002	-1.1074001E+000	0
2.7207880E+001	9.880439771048259E+001	-1.1095629E+000	-4.078093820742743E+001	4.5249015E-002	-1.1094000E+000	0
2.6724213E+001	9.900439770543016E+001	-1.1115177E+000	-4.159215662971371E+001	4.6230417E-002	-1.1114001E+000	0
2.6258717E+001	9.920439770037774E+001	-1.1135504E+000	-4.240688775564257E+001	4.7222208E-002	-1.1134001E+000	0
2.5816814E+001	9.940439769532532E+001	-1.1155993E+000	-4.321212091548648E+001	4.8207410E-002	-1.1154001E+000	0
2.5358377E+001	9.960439769027289E+001	-1.1175321E+000	-4.406954282508701E+001	4.9249131E-002	-1.1174002E+000	0
2.4924042E+001	9.980439768522047E+001	-1.1195424E+000	-4.491817199589207E+001	5.0287798E-002	-1.1194000E+000	0
2.4505550E+001	1.000043976801680E+002	-1.1215231E+000	-4.576608720415032E+001	5.1327728E-002	-1.1214001E+000	0
2.4095461E+001	1.002043976751156E+002	-1.1235622E+000	-4.662962236588237E+001	5.2391283E-002	-1.1234002E+000	0
2.3681519E+001	1.004043976700632E+002	-1.1255506E+000	-4.752865204411033E+001	5.3495903E-002	-1.1254002E+000	0
2.3298292E+001	1.006043976650108E+002	-1.1275092E+000	-4.839450226430176E+001	5.4565247E-002	-1.1274002E+000	0
2.2917875E+001	1.008043976599583E+002	-1.1295509E+000	-4.928689464365812E+001	5.5672057E-002	-1.1294001E+000	0
2.2531084E+001	1.010043976549059E+002	-1.1315349E+000	-5.022106055688960E+001	5.6826886E-002	-1.1314001E+000	0
2.2173641E+001	1.012043976498535E+002	-1.1336038E+000	-5.112393498528832E+001	5.7954289E-002	-1.1334002E+000	0
2.1817358E+001	1.014043976448011E+002	-1.1355326E+000	-5.204721144645936E+001	5.9101306E-002	-1.1354002E+000	0
2.1464832E+001	1.016043976397486E+002	-1.1374977E+000	-5.299354955020128E+001	6.0280040E-002	-1.1374002E+000	0
2.1139294E+001	1.018043976346962E+002	-1.1395606E+000	-5.390722113617971E+001	6.1430544E-002	-1.1394001E+000	0
2.0812304E+001	1.020043976296438E+002	-1.1415319E+000	-5.484890057332399E+001	6.2611774E-002	-1.1414001E+000	0
2.0497444E+001	1.022043976245914E+002	-1.1435181E+000	-5.578832586498220E+001	6.3794963E-002	-1.1434002E+000	0
2.0152718E+001	1.024043976195389E+002	-1.1455996E+000	-5.684590936950536E+001	6.5122649E-002	-1.1454002E+000	0
1.9860336E+001	1.026043976144865E+002	-1.1475956E+000	-5.778329256873030E+001	6.6311851E-002	-1.1474000E+000	0
1.9558805E+001	1.028043976094341E+002	-1.1496606E+000	-5.877969307964355E+001	6.7576699E-002	-1.1494001E+000	0
1.9263664E+001	1.030043976043817E+002	-1.1515985E+000	-5.978085930006841E+001	6.8843544E-002	-1.1514001E+000	0
1.8972317E+001	1.032043975993292E+002	-1.1535423E+000	-6.080134072974158E+001	7.0136920E-002	-1.1534002E+000	0
1.8703377E+001	1.034043975942768E+002	-1.1556257E+000	-6.178700993769300E+001	7.1402654E-002	-1.1554002E+000	0
1.8444113E+001	1.036043975892244E+002	-1.1575923E+000	-6.276215600210548E+001	7.2652988E-002	-1.1574001E+000	0
1.8184151E+001	1.038043975841720E+002	-1.1596084E+000	-6.377028100398684E+001	7.3948555E-002	-1.1594000E+000	0
1.7939007E+001	1.040043975791195E+002	-1.1616006E+000	-6.475278307575218E+001	7.5216874E-002	-1.1614002E+000	0
1.7709137E+001	1.042043975740671E+002	-1.1636314E+000	-6.570797153611306E+001	7.6459862E-002	-1.1634002E+000	0
1.7458847E+001	1.044043975690147E+002	-1.1655655E+000	-6.676073562315014E+001	7.7814013E-002	-1.1654000E+000	0
1.7211803E+001	1.046043975639623E+002	-1.1676058E+000	-6.783750070303756E+001	7.9207458E-002	-1.1674001E+000	0
1.6995190E+001	1.048043975589098E+002	-1.1696018E+000	-6.881957985700650E+001	8.0491506E-002	-1.1694001E+000	0
1.6773302E+001	1.050043975538574E+002	-1.1715907E+000	-6.984854241022981E+001	8.1833899E-002	-1.1714002E+000	0
1.6539024E+001	1.052043975488050E+002	-1.1735908E+000	-7.095888506203808E+001	8.3276697E-002	-1.1734002E+000	0
1.6312325E+001	1.054043975437526E+002	-1.1755813E+000	-7.206706229142853E+001	8.4720694E-002	-1.1754000E+000	0
1.6123806E+001	1.056043975387001E+002	-1.1775340E+000	-7.303077505126817E+001	8.5996218E-002	-1.1774001E+000	0
1.5920845E+001	1.058043975336477E+002	-1.1795795E+000	-7.409025826043307E+001	8.7395348E-002	-1.1794001E+000	0
1.5740470E+001	1.060043975285953E+002	-1.1815759E+000	-7.506611472787245E+001	8.8696308E-002	-1.1814001E+000	0
1.5554186E+001	1.062043975235429E+002	-1.1835814E+000	-7.609407123146150E+001	9.0063527E-002	-1.1834002E+000	0
1.5370809E+001	1.064043975184904E+002	-1.1855903E+000	-7.713259069665457E+001	9.1447651E-002	-1.1854001E+000	0
1.5187568E+001	1.066043975134380E+002	-1.1875902E+000	-7.819489175392130E+001	9.2863493E-002	-1.1874001E+000	0
1.5001467E+001	1.068043975083856E+002	-1.1896342E+000	-7.930119215009404E+001	9.4339408E-002	-1.1894001E+000	0
1.4823490E+001	1.070043975033332E+002	-1.1915895E+000	-8.038521645615145E+001	9.5786177E-002	-1.1914002E+000	0
1.4652580E+001	1.072043974982807E+002	-1.1935827E+000	-8.145886918530709E+001	9.7227894E-002	-1.1934001E+000	0
1.4488157E+001	1.074043974932283E+002	-1.1955065E+000	-8.251611489990125E+001	9.8648548E-002	-1.1954001E+000	0
1.4326707E+001	1.076043974881759E+002	-1.1975509E+000	-8.358870535048197E+001	1.0010173E-001	-1.1974001E+000	0
1.4145958E+001	1.078043974831235E+002	-1.1996125E+000	-8.480249051496284E+001	1.0173013E-001	-1.1994001E+000	0
1.4000135E+001	1.080043974780710E+002	-1.2015972E+000	-8.582753956777469E+001	1.0313013E-001	-1.2014002E+000	0
1.3842481E+001	1.082043974730186E+002	-1.2035779E+000	-8.694813652752202E+001	1.0464885E-001	-1.2034001E+000	0
1.3691768E+001	1.084043974679662E+002	-1.2056205E+000	-8.805441023595222E+001	1.0616020E-001	-1.2054002E+000	0
1.3548061E+001	1.086043974629138E+002	-1.2075882E+000	-8.913365213616930E+001	1.0763675E-001	-1.2074001E+000	0
1.3404200E+001	1.088043974578613E+002	-1.2096033E+000	-9.024062055849481E+001	1.0915536E-001	-1.2094001E+000	0
1.3283634E+001	1.090043974528089E+002	-1.2115988E+000	-9.120988795384278E+001	1.1050978E-001	-1.2114002E+000	0
1.3159412E+001	1.092043974477565E+002	-1.2135577E+000	-9.221975012268894E+001	1.1191399E-001	-1.2134001E+000	0
1.3032187E+001	1.094043974427041E+002	-1.2156162E+000	-9.327799583130127E+001	1.1339024E-001	-1.2154001E+000	0
1.2887950E+001	1.096043974376516E+002	-1.2175411E+000	-9.447128042396253E+001	1.1502267E-001	-1.2174001E+000	0
1.2773830E+001	1.098043974325992E+002	-1.2196223E+000	-9.547819471845781E+001	1.1644733E-001	-1.2194002E+000	0
1.2621846E+001	1.100043974275468E+002	-1.2215127E+000	-9.677765489705848E+001	1.1821513E-001	-1.2214001E+000	0
1.2507473E+001	1.102043974224944E+002	-1.2235826E+000	-9.782812399658769E+001	1.1970079E-001	-1.2234001E+000	0
1.2356312E+001	1.104043974174419E+002	-1.2256134E+000	-9.918925528839890E+001	1.2156767E-001	-1.2254002E+000	0
1.2248363E+001	1.106043974123895E+002	-1.2275931E+000	-1.002250715913146E+002	1.2303560E-001	-1.2274001E+000	0
1.2137032E+001	1.108043974073371E+002	-1.2296067E+000	-1.013103373466979E+002	1.2457187E-001	-1.2294000E+000	0
1.2019547E+001	1.110043974022847E+002	-1.2316109E+000	-1.024673256311828E+002	1.2619987E-001	-1.2314001E+000	0
1.1902401E+001	1.112043973972322E+002	-1.2335621E+000	-1.036397726119508E+002	1.2784609E-001	-1.2334002E+000	0
1.1801080E+001	1.114043973921798E+002	-1.2355624E+000	-1.046991027942321E+002	1.2936229E-001	-1.2354001E+000	0
1.1667937E+001	1.116043973871274E+002	-1.2375515E+000	-1.060642892973758E+002	1.3126002E-001	-1.2374001E+000	0
1.1550158E+001	1.118043973820750E+002	-1.2395637E+000	-1.073200727503847E+002	1.3303007E-001	-1.2394001E+000	0
1.1487708E+001	1.120043973770225E+002	-1.2416259E+000	-1.080829982357498E+002	1.3419865E-001	-1.2414001E+000	0
1.1361281E+001	1.122043973719701E+002	-1.2436119E+000	-1.094605380607566E+002	1.3612643E-001	-1.2434001E+000	0
1.1193997E+001	1.124243973664125E+002	-1.2457652E+000	-1.112886776891692E+002	1.3863957E-001	-1.2456001E+000	0
1.1112991E+001	1.126243973613600E+002	-1.2477517E+000	-1.122786497020940E+002	1.4009587E-001	-1.2476000E+000	0
1.1018057E+001	1.128243973563076E+002	-1.2497278E+000	-1.134254259587417E+002	1.4175092E-001	-1.2496001E+000	0
1.0920006E+001	1.130243973512552E+002	-1.2517861E+000	-1.146323655543683E+002	1.4349520E-001	-1.2516003E+000	0
1.0834376E+001	1.132243973462028E+002	-1.2536933E+000	-1.157144009164132E+002	1.4507037E-001	-1.2536002E+000	0
1.0725731E+001	1.134243973411503E+002	-1.2557868E+000	-1.170816981278851E+002	1.4702965E-001	-1.2556001E+000	0
1.0649051E+001	1.136243973360979E+002	-1.2577761E+000	-1.181115695700355E+002	1.4855792E-001	-1.2576002E+000	0
1.0567251E+001	1.138243973310455E+002	-1.2597781E+000	-1.192153140801145E+002	1.5018484E-001	-1.2596002E+000	0
1.0448478E+001	1.140243973259931E+002	-1.2617745E+000	-1.207615652095158E+002	1.5237387E-001	-1.2616003E+000	0
1.0377117E+001	1.142243973209406E+002	-1.2637758E+000	-1.217848608239710E+002	1.5390876E-001	-1.2636001E+000	0
1.0310048E+001	1.144243973158882E+002	-1.2657630E+000	-1.227698465215374E+002	1.5539753E-001	-1.2656001E+000	0
1.0248658E+001	1.146243973108358E+002	-1.2677883E+000	-1.237028608830337E+002	1.5682904E-001	-1.2676001E+000	0
1.0145878E+001	1.148243973057834E+002	-1.2697984E+000	-1.251541210431895E+002	1.5892050E-001	-1.2696000E+000	0
1.0053720E+001	1.150243973007309E+002	-1.2717880E+000	-1.264992536698337E+002	1.6088024E-001	-1.2716001E+000	0
9.9919605E+000	1.152243972956785E+002	-1.2737696E+000	-1.274794522477923E+002	1.6237946E-001	-1.2736001E+000	0
9.8914261E+000	1.154243972906261E+002	-1.2757843E+000	-1.289787951564567E+002	1.6454911E-001	-1.2756001E+000	0
9.8264103E+000	1.156243972855737E+002	-1.2777636E+000	-1.300336047808341E+002	1.6615221E-001	-1.2776000E+000	0
9.7469673E+000	1.158243972805212E+002	-1.2797866E+000	-1.313010089186590E+002	1.6803727E-001	-1.2796001E+000	0
9.6682816E+000	1.160243972754688E+002	-1.2817377E+000	-1.325714101564317E+002	1.6992177E-001	-1.2816001E+000	0
9.6192245E+000	1.162243972704164E+002	-1.2837585E+000	-1.334575939546094E+002	1.7132732E-001	-1.2836001E+000	0
9.5376730E+000	1.164243972653640E+002	-1.2857596E+000	-1.348085210263869E+002	1.7333135E-001	-1.2856002E+000	0
9.4701166E+000	1.166243972603115E+002	-1.2877771E+000	-1.359832297009410E+002	1.7511609E-001	-1.2876002E+000	0
9.3662148E+000	1.168243972552591E+002	-1.2897470E+000	-1.377020536128625E+002	1.7760082E-001	-1.2896001E+000	0
9.3090191E+000	1.170243972502067E+002	-1.2917689E+000	-1.387653057342758E+002	1.7925271E-001	-1.2916001E+000	0
9.2480974E+000	1.172243972451543E+002	-1.2937692E+000	-1.398957167006947E+002	1.8099278E-001	-1.2936001E+000	0
9.1529922E+000	1.174243972401018E+002	-1.2957525E+000	-1.415659959851479E+002	1.8343450E-001	-1.2956002E+000	0
9.0704012E+000	1.176243972350494E+002	-1.2977401E+000	-1.430741735023706E+002	1.8567309E-001	-1.2976002E+000	0
9.0198889E+000	1.178243972299970E+002	-1.2997607E+000	-1.440994136328059E+002	1.8729475E-001	-1.2996001E+000	0
8.9609909E+000	1.180243972249446E+002	-1.3017753E+000	-1.452713632215991E+002	1.8911068E-001	-1.3016002E+000	0
8.9084911E+000	1.182243972198921E+002	-1.3037654E+000	-1.463508646558475E+002	1.9080719E-001	-1.3036002E+000	0
8.8395634E+000	1.184243972148397E+002	-1.3057311E+000	-1.477144351675943E+002	1.9287533E-001	-1.3056002E+000	0
8.7935486E+000	1.186243972097873E+002	-1.3078148E+000	-1.487243523651782E+002	1.9450392E-001	-1.3076001E+000	0
8.7137871E+000	1.188243972047349E+002	-1.3097848E+000	-1.503117646619578E+002	1.9687606E-001	-1.3096001E+000	0
8.6788464E+000	1.190243971996824E+002	-1.3118207E+000	-1.511515057989799E+002	1.9828369E-001	-1.3116001E+000	0
8.6175947E+000	1.192243971946300E+002	-1.3137901E+000	-1.524543775009190E+002	2.0029305E-001	-1.3136002E+000	0
8.5207291E+000	1.194243971895776E+002	-1.3157504E+000	-1.544175844333067E+002	2.0317499E-001	-1.3156000E+000	0
8.4569778E+000	1.196243971845252E+002	-1.3177888E+000	-1.558226725563168E+002	2.0534138E-001	-1.3176001E+000	0
8.3558159E+000	1.198243971794727E+002	-1.3197830E+000	-1.579478195054198E+002	2.0845684E-001	-1.3196001E+000	0
8.2644405E+000	1.200243971744203E+002	-1.3218454E+000	-1.599437239499861E+002	2.1142088E-001	-1.3216002E+000	0
8.2240992E+000	1.202243971693679E+002	-1.3237965E+000	-1.609655259623273E+002	2.1308561E-001	-1.3236002E+000	0
8.1758718E+000	1.204243971643155E+002	-1.3257904E+000	-1.621588938306522E+002	2.1498871E-001	-1.3256001E+000	0
8.1015968E+000	1.206243971592630E+002	-1.3277762E+000	-1.638906816982085E+002	2.1761015E-001	-1.3276001E+000	0
8.0517349E+000	1.208243971542106E+002	-1.3297883E+000	-1.651555038341859E+002	2.1962187E-001	-1.3296001E+000	0
7.9593997E+000	1.210243971491582E+002	-1.3318192E+000	-1.673265845024131E+002	2.2284876E-001	-1.3316002E+000	0
7.8137088E+000	1.212243971441058E+002	-1.3337647E+000	-1.706954623598624E+002	2.2766757E-001	-1.3336002E+000	0
7.7735963E+000	1.214243971390533E+002	-1.3358138E+000	-1.718398731430638E+002	2.2954607E-001	-1.3356001E+000	0
7.7362733E+000	1.216243971340009E+002	-1.3378316E+000	-1.729297222161244E+002	2.3135085E-001	-1.3376000E+000	0
7.6631927E+000	1.218243971289485E+002	-1.3398117E+000	-1.748372650741180E+002	2.3424901E-001	-1.3396001E+000	0
7.5863137E+000	1.220243971238961E+002	-1.3418078E+000	-1.768721816069419E+002	2.3732848E-001	-1.3416002E+000	0
7.5438838E+000	1.222243971188436E+002	-1.3437314E+000	-1.781219649293251E+002	2.3934808E-001	-1.3436000E+000	0
7.4935479E+000	1.224243971137912E+002	-1.3457881E+000	-1.795929198773265E+002	2.4169402E-001	-1.3456001E+000	0
7.4252644E+000	1.226243971087388E+002	-1.3478283E+000	-1.815192251475760E+002	2.4465674E-001	-1.3476001E+000	0
7.3716063E+000	1.228243971036864E+002	-1.3498017E+000	-1.831082062851001E+002	2.4715976E-001	-1.3496001E+000	0
7.3113146E+000	1.230243970986339E+002	-1.3517522E+000	-1.848849735800641E+002	2.4991867E-001	-1.3516002E+000	0
7.2444735E+000	1.232243970935815E+002	-1.3537848E+000	-1.868713899502145E+002	2.5298366E-001	-1.3536001E+000	0
7.1990037E+000	1.234143970887817E+002	-1.3557447E+000	-1.883239311789816E+002	2.5531918E-001	-1.3555000E+000	0
7.1435218E+000	1.235845970844821E+002	-1.3574346E+000	-1.900231722736576E+002	2.5794405E-001	-1.3572018E+000	0
7.0946517E+000	1.237747970796772E+002	-1.3592702E+000	-1.915908356230105E+002	2.6042372E-001	-1.3591034E+000	0
7.0501962E+000	1.239547970751300E+002	-1.3611276E+000	-1.930623778504822E+002	2.6278254E-001	-1.3609036E+000	0
6.9988990E+000	1.241349970705778E+002	-1.3629373E+000	-1.947359665863946E+002	2.6541293E-001	-1.3627055E+000	0
6.8845162E+000	1.243153970660205E+002	-1.3647550E+000	-1.982354333991625E+002	2.7054280E-001	-1.3645096E+000	0
6.7797618E+000	1.244957970614632E+002	-1.3665099E+000	-2.015572152628502E+002	2.7542993E-001	-1.3663133E+000	0
6.7292762E+000	1.246861970566533E+002	-1.3684444E+000	-2.033568519883393E+002	2.7828255E-001	-1.3682177E+000	0
6.6899157E+000	1.248867970515857E+002	-1.3704095E+000	-2.048470459942889E+002	2.8072435E-001	-1.3702236E+000	0
6.6569223E+000	1.250771970467758E+002	-1.3723207E+000	-2.061494205323424E+002	2.8290311E-001	-1.3721277E+000	0
6.5926538E+000	1.252376970427213E+002	-1.3739597E+000	-2.084076767745401E+002	2.8634375E-001	-1.3737323E+000	0
6.5263720E+000	1.254281970379088E+002	-1.3757989E+000	-2.108060816593343E+002	2.9002678E-001	-1.3756375E+000	0
6.5046568E+000	1.256281970328564E+002	-1.3778708E+000	-2.118283619591994E+002	2.9187211E-001	-1.3776376E+000	0
6.4759083E+000	1.257983970285568E+002	-1.3795376E+000	-2.130261143313537E+002	2.9387754E-001	-1.3793397E+000	0
6.4068184E+000	1.259885970237519E+002	-1.3814720E+000	-2.156252838306355E+002	2.9788029E-001	-1.3812417E+000	0
6.3360176E+000	1.261789970189420E+002	-1.3833901E+000	-2.183374762843125E+002	3.0204588E-001	-1.3831455E+000	0
6.2795148E+000	1.263693970141321E+002	-1.3852533E+000	-2.205987767662846E+002	3.0558518E-001	-1.3850496E+000	0
6.2242479E+000	1.265598970093197E+002	-1.3871586E+000	-2.228636523917867E+002	3.0914724E-001	-1.3869545E+000	0
6.1983762E+000	1.267403970047599E+002	-1.3889755E+000	-2.240869994589102E+002	3.1125134E-001	-1.3887593E+000	0
6.1403141E+000	1.269110970004476E+002	-1.3907018E+000	-2.264870714173835E+002	3.1497598E-001	-1.3904661E+000	0
6.0791745E+000	1.271014969956377E+002	-1.3926120E+000	-2.290791285585719E+002	3.1901833E-001	-1.3923708E+000	0
5.9909077E+000	1.272717969913356E+002	-1.3943057E+000	-2.327369660919167E+002	3.2450649E-001	-1.3940738E+000	0
5.9633026E+000	1.274523969867732E+002	-1.3960738E+000	-2.341108494217588E+002	3.2683602E-001	-1.3958795E+000	0
5.9365592E+000	1.276430969819558E+002	-1.3980058E+000	-2.354909328392496E+002	3.2921770E-001	-1.3977863E+000	0
5.8822489E+000	1.278235969773959E+002	-1.3998015E+000	-2.379704580409836E+002	3.3311141E-001	-1.3995914E+000	0
5.8170471E+000	1.279938969730938E+002	-1.4015341E+000	-2.409356581502634E+002	3.3767954E-001	-1.4012948E+000	0
5.7626729E+000	1.281644969687841E+002	-1.4032102E+000	-2.434998734117130E+002	3.4168151E-001	-1.4030004E+000	0
5.7399759E+000	1.283351969644718E+002	-1.4049648E+000	-2.447684091681267E+002	3.4389099E-001	-1.4047074E+000	0
5.7084198E+000	1.285354969594118E+002	-1.4069749E+000	-2.464736218224189E+002	3.4678221E-001	-1.4067110E+000	0
5.6612091E+000	1.287357969543518E+002	-1.4089535E+000	-2.488785613817136E+002	3.5065833E-001	-1.4087136E+000	0
5.5777345E+000	1.289259969495470E+002	-1.4108469E+000	-2.529426420170584E+002	3.5686335E-001	-1.4106159E+000	0
5.5316353E+000	1.291060969449973E+002	-1.4126525E+000	-2.553770230280679E+002	3.6075899E-001	-1.4124167E+000	0
5.4933381E+000	1.292865969404374E+002	-1.4144394E+000	-2.574826857740536E+002	3.6419368E-001	-1.4142218E+000	0
5.4543037E+000	1.294768969356301E+002	-1.4163805E+000	-2.596812784296658E+002	3.6780751E-001	-1.4161249E+000	0
5.3998351E+000	1.296772969305675E+002	-1.4183952E+000	-2.626737931888529E+002	3.7257522E-001	-1.4181284E+000	0
5.3260198E+000	1.298676969257576E+002	-1.4202447E+000	-2.666615491822968E+002	3.7872466E-001	-1.4200326E+000	0
5.2636652E+000	1.300478969212054E+002	-1.4220502E+000	-2.701635145094905E+002	3.8418609E-001	-1.4218347E+000	0
5.2232118E+000	1.302081969171559E+002	-1.4236499E+000	-2.725621625235344E+002	3.8803309E-001	-1.4234375E+000	0
5.1736436E+000	1.303686969131013E+002	-1.4252908E+000	-2.754907291427853E+002	3.9265442E-001	-1.4250425E+000	0
5.1079988E+000	1.305292969090442E+002	-1.4269080E+000	-2.793477685231619E+002	3.9860356E-001	-1.4266484E+000	0
5.0542402E+000	1.307095969044894E+002	-1.4286900E+000	-2.826715444363158E+002	4.0384999E-001	-1.4284512E+000	0
5.0511842E+000	1.308998968996821E+002	-1.4306062E+000	-2.832219647945149E+002	4.0517911E-001	-1.4303544E+000	0
5.0352297E+000	1.310905968948646E+002	-1.4325038E+000	-2.844962276539436E+002	4.0754193E-001	-1.4322615E+000	0
4.9887533E+000	1.312613968905498E+002	-1.4341966E+000	-2.874859614229220E+002	4.1231138E-001	-1.4339694E+000	0
4.9718351E+000	1.314318968862426E+002	-1.4359143E+000	-2.888097134727368E+002	4.1470599E-001	-1.4356745E+000	0
4.9364581E+000	1.316121968816879E+002	-1.4377548E+000	-2.912522857581332E+002	4.1874936E-001	-1.4374772E+000	0
4.8842015E+000	1.318026968768754E+002	-1.4396535E+000	-2.947571978750561E+002	4.2434824E-001	-1.4393824E+000	0
4.8632064E+000	1.319929968720680E+002	-1.4415116E+000	-2.964117702422984E+002	4.2728102E-001	-1.4412857E+000	0
4.8494067E+000	1.321830968672657E+002	-1.4434546E+000	-2.976559233688731E+002	4.2965281E-001	-1.4431870E+000	0
4.7778292E+000	1.323734968624558E+002	-1.4453603E+000	-3.025140093108552E+002	4.3724173E-001	-1.4450907E+000	0
4.7030549E+000	1.325642968576358E+002	-1.4472315E+000	-3.077215799839314E+002	4.4534436E-001	-1.4469984E+000	0
4.6540446E+000	1.327547968528233E+002	-1.4492416E+000	-3.113940236722337E+002	4.5128518E-001	-1.4489036E+000	0
4.6530638E+000	1.329352968482635E+002	-1.4509655E+000	-3.118301366241724E+002	4.5245478E-001	-1.4507086E+000	0
4.6457863E+000	1.330956968442115E+002	-1.4525970E+000	-3.126697797303777E+002	4.5418319E-001	-1.4523121E+000	0
4.5964460E+000	1.332560968401594E+002	-1.4541603E+000	-3.163662361632087E+002	4.6004725E-001	-1.4539167E+000	0
4.5809360E+000	1.334361968356097E+002	-1.4559731E+000	-3.178331279412980E+002	4.6275651E-001	-1.4557178E+000	0
4.5543585E+000	1.336164968310550E+002	-1.4578093E+000	-3.200910352792589E+002	4.6663171E-001	-1.4575205E+000	0
4.4935713E+000	1.337969968264952E+002	-1.4596092E+000	-3.248216153512285E+002	4.7411260E-001	-1.4593254E+000	0
4.4601307E+000	1.339672968221930E+002	-1.4612790E+000	-3.276314314421124E+002	4.7876093E-001	-1.4610286E+000	0
4.4008188E+000	1.341376968178884E+002	-1.4630144E+000	-3.324413842372624E+002	4.8636651E-001	-1.4627326E+000	0
4.2931986E+000	1.343281968130759E+002	-1.4648880E+000	-3.412113399346663E+002	4.9983639E-001	-1.4646376E+000	0
4.2701554E+000	1.345084968085212E+002	-1.4666753E+000	-3.434711650153513E+002	5.0376070E-001	-1.4664403E+000	0
4.2413397E+000	1.346889968039613E+002	-1.4685200E+000	-3.462396848576755E+002	5.0845993E-001	-1.4682455E+000	0
4.1995673E+000	1.348891967989039E+002	-1.4705192E+000	-3.501596934353861E+002	5.1491654E-001	-1.4702480E+000	0
4.1974020E+000	1.350891967938514E+002	-1.4724978E+000	-3.508117039090105E+002	5.1656950E-001	-1.4722480E+000	0
4.1828642E+000	1.352891967887990E+002	-1.4745454E+000	-3.525205099079883E+002	5.1980746E-001	-1.4742481E+000	0
4.1696615E+000	1.354891967837466E+002	-1.4765375E+000	-3.541144655534749E+002	5.2286327E-001	-1.4762479E+000	0
4.1348004E+000	1.356891967786942E+002	-1.4785177E+000	-3.575789612123490E+002	5.2868682E-001	-1.4782480E+000	0
4.0549788E+000	1.358891967736417E+002	-1.4805123E+000	-3.651097423570775E+002	5.4054946E-001	-1.4802479E+000	0
3.9842830E+000	1.360891967685893E+002	-1.4825042E+000	-3.720880870883957E+002	5.5162215E-001	-1.4822479E+000	0
3.9341595E+000	1.362891967635369E+002	-1.4845952E+000	-3.773601913733278E+002	5.6022710E-001	-1.4842480E+000	0
3.9019535E+000	1.364891967584845E+002	-1.4865949E+000	-3.809873497978097E+002	5.6637388E-001	-1.4862479E+000	0
3.9013937E+000	1.366891967534320E+002	-1.4885670E+000	-3.815474912574236E+002	5.6795901E-001	-1.4882478E+000	0
3.8933723E+000	1.368891967483796E+002	-1.4905450E+000	-3.828416467632019E+002	5.7064271E-001	-1.4902478E+000	0
3.8624203E+000	1.370891967433272E+002	-1.4926063E+000	-3.864432453514501E+002	5.7680762E-001	-1.4922479E+000	0
3.8388801E+000	1.372891967382748E+002	-1.4945627E+000	-3.893225984378721E+002	5.8186704E-001	-1.4942478E+000	0
3.8467700E+000	1.374891967332223E+002	-1.4965659E+000	-3.890448233048642E+002	5.8223122E-001	-1.4962479E+000	0
3.7648349E+000	1.376891967281699E+002	-1.4985974E+000	-3.980512883084702E+002	5.9651864E-001	-1.4982479E+000	0
3.7351518E+000	1.378891967231175E+002	-1.5005769E+000	-4.017445535335382E+002	6.0284859E-001	-1.5002478E+000	0
3.7129126E+000	1.380891967180651E+002	-1.5025684E+000	-4.046872437665261E+002	6.0807025E-001	-1.5022479E+000	0
3.6876717E+000	1.382891967130126E+002	-1.5045323E+000	-4.079897820133197E+002	6.1383384E-001	-1.5042480E+000	0
3.6358070E+000	1.384891967079602E+002	-1.5065587E+000	-4.143670532589858E+002	6.2426829E-001	-1.5062479E+000	0
3.6156335E+000	1.386891967029078E+002	-1.5085372E+000	-4.172262287442657E+002	6.2940127E-001	-1.5082479E+000	0
3.5940065E+000	1.388891966978554E+002	-1.5105733E+000	-4.203034155017394E+002	6.3489908E-001	-1.5102478E+000	0
3.5631633E+000	1.390891966928029E+002	-1.5125992E+000	-4.245102105648875E+002	6.4211380E-001	-1.5122479E+000	0
3.5464792E+000	1.392891966877505E+002	-1.5145674E+000	-4.270622408644131E+002	6.4681453E-001	-1.5142480E+000	0
3.5084977E+000	1.394891966826981E+002	-1.5165784E+000	-4.322586277509772E+002	6.5555412E-001	-1.5162479E+000	0
3.4830668E+000	1.396891966776457E+002	-1.5185715E+000	-4.359868936517050E+002	6.6207725E-001	-1.5182478E+000	0
3.4738507E+000	1.398891966725932E+002	-1.5205981E+000	-4.377269481434068E+002	6.6560674E-001	-1.5202479E+000	0
3.4655354E+000	1.400891966675408E+002	-1.5226104E+000	-4.393579194032145E+002	6.6897094E-001	-1.5222479E+000	0
3.4590740E+000	1.402891966624884E+002	-1.5246404E+000	-4.407654827792612E+002	6.7200887E-001	-1.5242479E+000	0
3.4031608E+000	1.404891966574360E+002	-1.5270678E+000	-4.487204278439881E+002	6.8522650E-001	-1.5262480E+000	0
3.3870728E+000	1.406891966523835E+002	-1.5290933E+000	-4.514497898906266E+002	6.9030881E-001	-1.5282478E+000	0
3.3925462E+000	1.408891966473311E+002	-1.5310732E+000	-4.513050405541235E+002	6.9098103E-001	-1.5302479E+000	0
3.3888094E+000	1.410891966422787E+002	-1.5330843E+000	-4.523961139082098E+002	6.9356138E-001	-1.5322480E+000	0
3.3512385E+000	1.412891966372263E+002	-1.5351385E+000	-4.580809396107979E+002	7.0321769E-001	-1.5342480E+000	0
3.2980773E+000	1.414891966321738E+002	-1.5371387E+000	-4.660711452371697E+002	7.1641600E-001	-1.5362480E+000	0
3.3193984E+000	1.416891966271214E+002	-1.5391113E+000	-4.636717424068338E+002	7.1364242E-001	-1.5382479E+000	0
3.3382735E+000	1.418891966220690E+002	-1.5410947E+000	-4.616442122599956E+002	7.1143740E-001	-1.5402479E+000	0
3.3049722E+000	1.420891966170166E+002	-1.5431520E+000	-4.669183021943331E+002	7.2052592E-001	-1.5422480E+000	0
3.2510097E+000	1.422891966119641E+002	-1.5451573E+000	-4.752853695270435E+002	7.3439068E-001	-1.5442479E+000	0
3.1891599E+000	1.424891966069117E+002	-1.5471458E+000	-4.851264499136669E+002	7.5056136E-001	-1.5462480E+000	0
3.1492417E+000	1.426891966018593E+002	-1.5491734E+000	-4.919195051214865E+002	7.6206857E-001	-1.5482478E+000	0
3.1578197E+000	1.428891965968069E+002	-1.5511794E+000	-4.912184889613909E+002	7.6196802E-001	-1.5502479E+000	0
3.1640327E+000	1.430891965917544E+002	-1.5530682E+000	-4.908508498522733E+002	7.6232481E-001	-1.5522480E+000	0
3.1414139E+000	1.432891965867020E+002	-1.5551469E+000	-4.950468138956419E+002	7.6987052E-001	-1.5542479E+000	0
3.1029348E+000	1.434891965816496E+002	-1.5571485E+000	-5.018308647570971E+002	7.8142518E-001	-1.5562479E+000	0
3.0316107E+000	1.436891965765972E+002	-1.5591699E+000	-5.143041185867751E+002	8.0188751E-001	-1.5582478E+000	0
3.0293417E+000	1.438891965715447E+002	-1.5611496E+000	-5.153428370720126E+002	8.0452728E-001	-1.5602479E+000	0
3.0257936E+000	1.440891965664923E+002	-1.5631207E+000	-5.165986127572251E+002	8.0750602E-001	-1.5622478E+000	0
2.9724174E+000	1.442891965614399E+002	-1.5651349E+000	-5.265528559133295E+002	8.2412624E-001	-1.5642481E+000	0
2.9716272E+000	1.444891965563875E+002	-1.5672190E+000	-5.273942092713824E+002	8.2654226E-001	-1.5662479E+000	0
2.9513032E+000	1.446891965513350E+002	-1.5691704E+000	-5.316872571741899E+002	8.3430791E-001	-1.5682478E+000	0
2.9205005E+000	1.448891965462826E+002	-1.5711513E+000	-5.379732868557894E+002	8.4523743E-001	-1.5702479E+000	0
2.9124665E+000	1.450891965412302E+002	-1.5731667E+000	-5.401492963907672E+002	8.4974492E-001	-1.5722480E+000	0
2.8986022E+000	1.452891965361778E+002	-1.5751715E+000	-5.434244926911078E+002	8.5598677E-001	-1.5742481E+000	0
2.9115438E+000	1.454891965311253E+002	-1.5772130E+000	-5.417102134903544E+002	8.5439241E-001	-1.5762479E+000	0
2.8929214E+000	1.456891965260729E+002	-1.5792009E+000	-5.458844572357054E+002	8.6206120E-001	-1.5782479E+000	0
2.8607535E+000	1.458891965210205E+002	-1.5811784E+000	-5.527139858280448E+002	8.7393945E-001	-1.5802479E+000	0
2.8690970E+000	1.460891965159681E+002	-1.5831921E+000	-5.518085215648553E+002	8.7361890E-001	-1.5822480E+000	0
2.8867445E+000	1.462891965109156E+002	-1.5851800E+000	-5.491237685318138E+002	8.7046003E-001	-1.5842481E+000	0
2.8947465E+000	1.464891965058632E+002	-1.5871406E+000	-5.482830750342123E+002	8.7020230E-001	-1.5862479E+000	0
2.8797472E+000	1.466891965008108E+002	-1.5891354E+000	-5.518315930701719E+002	8.7693512E-001	-1.5882479E+000	0
2.7812121E+000	1.468891964957584E+002	-1.5911512E+000	-5.721071290645477E+002	9.1030896E-001	-1.5902479E+000	0
2.7629678E+000	1.470891964907059E+002	-1.5931902E+000	-5.766228065793475E+002	9.1866982E-001	-1.5922480E+000	0
2.7631462E+000	1.472891964856535E+002	-1.5951664E+000	-5.773007663631643E+002	9.2089081E-001	-1.5942481E+000	0
2.7388275E+000	1.474891964806011E+002	-1.5972406E+000	-5.831840897514685E+002	9.3148530E-001	-1.5962479E+000	0
2.7593715E+000	1.476391964768118E+002	-1.5987203E+000	-5.793784294225743E+002	9.2626405E-001	-1.5977477E+000	0
2.7588792E+000	1.476801964757760E+002	-1.5992105E+000	-5.796595092773441E+002	9.2699760E-001	-1.5983477E+000	1