EC-Lab ASCII FILE
Nb header lines : 63                          

Linear Sweep Voltammetry

Run on channel : 1 (SN 1340)
User : 
Electrode connection : standard
Potential control : Ewe
Ewe ctrl range : min = -5.00 V, max = 5.00 V
Ewe,I filtering : <None>
Safety Limits :
	Do not start on E overload
Channel : Floating
Acquisition started on : 02/10/2026 16:00:11.002
Technique started on : 02/10/2026 16:00:13.840
Loaded Setting File :  NONE
Saved on :
	File : PtPdCo_2-10_02_LSV_C01.mpr
	Directory : C:\Users\volt\Documents\Platalytix\
	Host : 127.0.0.1
Device : SP-200 (SN 0262)
Address : USB
EC-LAB for windows v11.60 (software)
Internet server v11.60 (firmware)
Command interpretor v11.60 (firmware)
Electrode material : Pt18.75Pd18.75Ni18.75o18.75Cr25
Initial state : 
Electrolyte : KOH (1 M)
Comments : After polishing
Cable : standard
Reference electrode : Hg/HgO (0.140 V)
Electrode surface area : 1.000 cm˛
Characteristic mass : 0.001 g
Equivalent Weight : 0.000 g/eq.
Density : 0.000 g/cm3
Volume (V) : 0.001 cmł
Cycle Definition : Charge/Discharge alternance
tR (h:m:s)          0:00:5.0000         
dER/dt (mV/h)       0.0                 
dER (mV)            0                   
dtR (s)             0.0000              
dE/dt               10.000              
dE/dt unit          mV/s                
Ei (V)              -0.200              
vs.                 Ref                 
EL (V)              -2.500              
vs.                 Ref                 
record              <I>                 
dI                  0.000               
unit dI             µA                  
tI (s)              0.0000              
step percent        50                  
N                   10                  
E range min (V)     -5.000              
E range max (V)     5.000               
I Range             Auto                
I Range min         Unset               
I Range max         Unset               
I Range init        Unset               
Bandwidth           8                   

Rwe/Ohm	time/s	Ewe/V	<I>/mA	Pwe/W	control/V	error	
0.0000000E+000	2.838400134787662E+000	-1.5647301E-001	0.000000000000000E+000	0.0000000E+000	0.0000000E+000	0
0.0000000E+000	7.838200008482090E+000	-8.6003105E-004	0.000000000000000E+000	0.0000000E+000	-1.9989744E-001	0
1.0259872E+003	8.038200003429665E+000	-2.0164652E-001	-1.965390260517599E-001	3.9631410E-005	-2.0179722E-001	0
8.6114435E+002	8.158200000398210E+000	-2.0279254E-001	-2.354919192609291E-001	4.7756006E-005	-2.0299728E-001	0
9.8951001E+002	8.368199995093164E+000	-2.0494680E-001	-2.071194841025932E-001	4.2448475E-005	-2.0509726E-001	0
1.0840018E+003	8.568199990040739E+000	-2.0690656E-001	-1.908728840915050E-001	3.9492850E-005	-2.0709726E-001	0
1.1583501E+003	8.768199984988314E+000	-2.0892425E-001	-1.803636477516788E-001	3.7682341E-005	-2.0909725E-001	0
1.2193932E+003	8.968199979935889E+000	-2.1094908E-001	-1.729951230524001E-001	3.6493162E-005	-2.1109715E-001	0
1.2705836E+003	9.168199974883464E+000	-2.1292889E-001	-1.675835251639219E-001	3.5683373E-005	-2.1309705E-001	0
1.3158333E+003	9.368199969831039E+000	-2.1491212E-001	-1.633277700859167E-001	3.5101119E-005	-2.1509695E-001	0
1.3556771E+003	9.568199964778614E+000	-2.1694185E-001	-1.600247151746312E-001	3.4716057E-005	-2.1709685E-001	0
1.3910917E+003	9.768199959726189E+000	-2.1893224E-001	-1.573816108730641E-001	3.4455908E-005	-2.1909676E-001	0
1.4224867E+003	9.968199954673764E+000	-2.2092143E-001	-1.553065020088396E-001	3.4310535E-005	-2.2109663E-001	0
1.4524658E+003	1.016819994962134E+001	-2.2294411E-001	-1.534935337810222E-001	3.4220480E-005	-2.2309653E-001	0
1.4790227E+003	1.036819994456891E+001	-2.2499734E-001	-1.521256867808857E-001	3.4227876E-005	-2.2509642E-001	0
1.5035593E+003	1.056819993951649E+001	-2.2694899E-001	-1.509411632096031E-001	3.4255943E-005	-2.2709632E-001	0
1.5271466E+003	1.076819993446406E+001	-2.2894768E-001	-1.499185975167958E-001	3.4323515E-005	-2.2909622E-001	0
1.5488431E+003	1.096819992941164E+001	-2.3093835E-001	-1.491037603645101E-001	3.4433775E-005	-2.3109612E-001	0
1.5693271E+003	1.116819992435921E+001	-2.3298204E-001	-1.484598265010475E-001	3.4588473E-005	-2.3309603E-001	0
1.5886857E+003	1.136819991930679E+001	-2.3494384E-001	-1.478856628118690E-001	3.4744826E-005	-2.3509590E-001	0
1.6075903E+003	1.156819991425436E+001	-2.3695780E-001	-1.473993688944280E-001	3.4927431E-005	-2.3709580E-001	0
1.6248456E+003	1.176819990920194E+001	-2.3890179E-001	-1.470304583927899E-001	3.5125839E-005	-2.3909569E-001	0
1.6408778E+003	1.196819990414951E+001	-2.4093594E-001	-1.468335641801457E-001	3.5377481E-005	-2.4109559E-001	0
1.6564421E+003	1.216809989909962E+001	-2.4291721E-001	-1.466499840237745E-001	3.5623805E-005	-2.4309461E-001	0
1.6681276E+003	1.236799989404972E+001	-2.4494015E-001	-1.468353859516375E-001	3.5965881E-005	-2.4509540E-001	0
1.6833584E+003	1.256799988899729E+001	-2.4693929E-001	-1.466944229803857E-001	3.6224617E-005	-2.4709530E-001	0
1.6970667E+003	1.276799988394487E+001	-2.4893801E-001	-1.466872267226551E-001	3.6516027E-005	-2.4909517E-001	0
1.7092211E+003	1.296799987889244E+001	-2.5097156E-001	-1.468338768658923E-001	3.6851128E-005	-2.5109512E-001	0
1.7224789E+003	1.316799987384002E+001	-2.5293311E-001	-1.468425049687272E-001	3.7141333E-005	-2.5309497E-001	0
1.7339574E+003	1.336799986878759E+001	-2.5492737E-001	-1.470205449570989E-001	3.7479560E-005	-2.5509489E-001	0
1.7450870E+003	1.356799986373517E+001	-2.5697917E-001	-1.472586524364479E-001	3.7842405E-005	-2.5709477E-001	0
1.7547378E+003	1.376799985868274E+001	-2.5894621E-001	-1.475697435827215E-001	3.8212627E-005	-2.5909469E-001	0
1.7645801E+003	1.396799985363032E+001	-2.6093394E-001	-1.478731034137727E-001	3.8585113E-005	-2.6109457E-001	0
1.7733458E+003	1.416799984857789E+001	-2.6290295E-001	-1.482524980586066E-001	3.8976017E-005	-2.6309448E-001	0
1.7818843E+003	1.436799984352547E+001	-2.6492500E-001	-1.486768888873460E-001	3.9388226E-005	-2.6509437E-001	0
1.7923113E+003	1.456799983847304E+001	-2.6689845E-001	-1.489129999320951E-001	3.9744649E-005	-2.6709425E-001	0
1.8013053E+003	1.476799983342062E+001	-2.6895151E-001	-1.493092313442643E-001	4.0156941E-005	-2.6909417E-001	0
1.8110426E+003	1.496799982836819E+001	-2.7091813E-001	-1.495923591891724E-001	4.0527284E-005	-2.7109405E-001	0
1.8204489E+003	1.516799982331577E+001	-2.7295253E-001	-1.499369393615999E-001	4.0925668E-005	-2.7309394E-001	0
1.8288601E+003	1.536799981826334E+001	-2.7493533E-001	-1.503315286525019E-001	4.1331448E-005	-2.7509385E-001	0
1.8377382E+003	1.556799981321092E+001	-2.7693191E-001	-1.506917163932405E-001	4.1731346E-005	-2.7709374E-001	0
1.8461576E+003	1.576799980815849E+001	-2.7890158E-001	-1.510713848891477E-001	4.2134048E-005	-2.7909362E-001	0
1.8548506E+003	1.596789980310859E+001	-2.8092101E-001	-1.514520980468581E-001	4.2546078E-005	-2.8109288E-001	0
1.8644434E+003	1.616779979805870E+001	-2.8294986E-001	-1.517610432793408E-001	4.2940766E-005	-2.8309342E-001	0
1.8722679E+003	1.636779979300627E+001	-2.8497687E-001	-1.522094453706103E-001	4.3376171E-005	-2.8509334E-001	0
1.8806671E+003	1.656779978795385E+001	-2.8695327E-001	-1.525805719321398E-001	4.3783493E-005	-2.8709322E-001	0
1.8884341E+003	1.676779978290142E+001	-2.8893501E-001	-1.530024305750488E-001	4.4207758E-005	-2.8909311E-001	0
1.8946749E+003	1.696779977784900E+001	-2.9095474E-001	-1.535644684918227E-001	4.4680310E-005	-2.9109299E-001	0
1.9024520E+003	1.716779977279657E+001	-2.9295221E-001	-1.539866439121740E-001	4.5110726E-005	-2.9309291E-001	0
1.9103217E+003	1.736779976774415E+001	-2.9496387E-001	-1.544053445342093E-001	4.5543999E-005	-2.9509279E-001	0
1.9169784E+003	1.756779976269172E+001	-2.9691967E-001	-1.548894194816400E-001	4.5989716E-005	-2.9709271E-001	0
1.9249240E+003	1.776779975763930E+001	-2.9895660E-001	-1.553082653023563E-001	4.6430432E-005	-2.9909259E-001	0
1.9322739E+003	1.796779975258687E+001	-3.0093241E-001	-1.557400369765374E-001	4.6867226E-005	-3.0109248E-001	0
1.9371154E+003	1.816779974753445E+001	-3.0291671E-001	-1.563751508203035E-001	4.7368645E-005	-3.0309239E-001	0
1.9428247E+003	1.836779974248202E+001	-3.0497992E-001	-1.569775807567766E-001	4.7875012E-005	-3.0509228E-001	0
1.9498450E+003	1.856779973742960E+001	-3.0695909E-001	-1.574274335022756E-001	4.8323782E-005	-3.0709216E-001	0
1.9570771E+003	1.876779973237717E+001	-3.0896482E-001	-1.578705314781231E-001	4.8776441E-005	-3.0909207E-001	0
1.9625009E+003	1.896779972732475E+001	-3.1095397E-001	-1.584478192318590E-001	4.9269980E-005	-3.1109196E-001	0
1.9686696E+003	1.916779972227232E+001	-3.1293380E-001	-1.589569933596333E-001	4.9743016E-005	-3.1309187E-001	0
1.9723467E+003	1.936779971721990E+001	-3.1494525E-001	-1.596804731071437E-001	5.0290608E-005	-3.1509176E-001	0
1.9791854E+003	1.956779971216747E+001	-3.1692040E-001	-1.601266877613794E-001	5.0747414E-005	-3.1709167E-001	0
1.9853348E+003	1.976769970711757E+001	-3.1892249E-001	-1.606391473743978E-001	5.1231436E-005	-3.1909063E-001	0
1.9902875E+003	1.996759970206767E+001	-3.2089639E-001	-1.612311786826268E-001	5.1738501E-005	-3.2109144E-001	0
1.9965906E+003	2.016759969701525E+001	-3.2290214E-001	-1.617267711126074E-001	5.2221920E-005	-3.2309133E-001	0
2.0022112E+003	2.036759969196282E+001	-3.2492122E-001	-1.622811967882907E-001	5.2728603E-005	-3.2509124E-001	0
2.0090109E+003	2.056759968691040E+001	-3.2693538E-001	-1.627344985264454E-001	5.3203665E-005	-3.2709113E-001	0
2.0152294E+003	2.076759968185797E+001	-3.2890800E-001	-1.632111963885674E-001	5.3681466E-005	-3.2909101E-001	0
2.0201527E+003	2.096759967680555E+001	-3.3090758E-001	-1.638032500653230E-001	5.4203738E-005	-3.3109093E-001	0
2.0262017E+003	2.116759967175312E+001	-3.3301026E-001	-1.643519804109719E-001	5.4730895E-005	-3.3309081E-001	0
2.0303162E+003	2.136759966670070E+001	-3.3491734E-001	-1.649582219075687E-001	5.5247368E-005	-3.3509070E-001	0
2.0369878E+003	2.156759966164827E+001	-3.3695656E-001	-1.654190417968339E-001	5.5739030E-005	-3.3709061E-001	0
2.0395712E+003	2.176759965659585E+001	-3.3895674E-001	-1.661902050426451E-001	5.6331290E-005	-3.3909050E-001	0
2.0430920E+003	2.196759965154342E+001	-3.4091857E-001	-1.668640335487486E-001	5.6887049E-005	-3.4109041E-001	0
2.0464504E+003	2.216759964649100E+001	-3.4294504E-001	-1.675804232029654E-001	5.7470876E-005	-3.4309030E-001	0
2.0494666E+003	2.236759964143857E+001	-3.4495056E-001	-1.683123714793182E-001	5.8059446E-005	-3.4509018E-001	0
2.0507104E+003	2.256759963638615E+001	-3.4696010E-001	-1.691901982580301E-001	5.8702248E-005	-3.4709007E-001	0
2.0514719E+003	2.276759963133372E+001	-3.4896263E-001	-1.701035354805941E-001	5.9359780E-005	-3.4908998E-001	0
2.0528162E+003	2.296759962628130E+001	-3.5097411E-001	-1.709720089201672E-001	6.0006751E-005	-3.5108986E-001	0
2.0530088E+003	2.316759962122887E+001	-3.5293040E-001	-1.719088537994430E-001	6.0671860E-005	-3.5308978E-001	0
2.0553115E+003	2.336759961617645E+001	-3.5494077E-001	-1.726943963426937E-001	6.1296283E-005	-3.5508966E-001	0
2.0561365E+003	2.356759961112402E+001	-3.5692990E-001	-1.735925038161428E-001	6.1960352E-005	-3.5708955E-001	0
2.0601604E+003	2.376749960607413E+001	-3.5895497E-001	-1.742364240474332E-001	6.2543033E-005	-3.5909033E-001	0
2.0662466E+003	2.396739960102423E+001	-3.6094940E-001	-1.746884442775042E-001	6.3053689E-005	-3.6108935E-001	0
2.0687083E+003	2.416739959597180E+001	-3.6294240E-001	-1.754439747427712E-001	6.3676060E-005	-3.6308926E-001	0
2.0699126E+003	2.436739959091938E+001	-3.6488998E-001	-1.762827979960395E-001	6.4323824E-005	-3.6508915E-001	0
2.0743162E+003	2.456739958586695E+001	-3.6695701E-001	-1.769050527078916E-001	6.4916552E-005	-3.6708906E-001	0
2.0771995E+003	2.476739958081453E+001	-3.6889842E-001	-1.775941189268693E-001	6.5514192E-005	-3.6908898E-001	0
2.0805310E+003	2.496739957576210E+001	-3.7092817E-001	-1.782853279353591E-001	6.6131048E-005	-3.7108910E-001	0
2.0835713E+003	2.516739957070968E+001	-3.7290946E-001	-1.789760894623592E-001	6.6741879E-005	-3.7308919E-001	0
2.0875896E+003	2.536739956565725E+001	-3.7492487E-001	-1.795970095435577E-001	6.7335386E-005	-3.7508926E-001	0
2.0874705E+003	2.556739956060483E+001	-3.7691990E-001	-1.805629795765649E-001	6.8057780E-005	-3.7708926E-001	0
2.0897446E+003	2.576739955555240E+001	-3.7891343E-001	-1.813204537331643E-001	6.8704758E-005	-3.7908927E-001	0
2.0954167E+003	2.596739955049998E+001	-3.8090125E-001	-1.817782765292408E-001	6.9239570E-005	-3.8108927E-001	0
2.1023511E+003	2.616739954544755E+001	-3.8289112E-001	-1.821251961385700E-001	6.9734117E-005	-3.8308930E-001	0
2.1031550E+003	2.636739954039513E+001	-3.8491479E-001	-1.830177815945695E-001	7.0446251E-005	-3.8508931E-001	0
2.1031206E+003	2.656739953534270E+001	-3.8691995E-001	-1.839742119669010E-001	7.1183291E-005	-3.8708928E-001	0
2.1060991E+003	2.676739953029028E+001	-3.8895059E-001	-1.846781914120292E-001	7.1830691E-005	-3.8908926E-001	0
2.1078230E+003	2.696739952523785E+001	-3.9090273E-001	-1.854532879160593E-001	7.2494193E-005	-3.9108929E-001	0
2.1082588E+003	2.716739952018543E+001	-3.9297628E-001	-1.863985118158418E-001	7.3250194E-005	-3.9308932E-001	0
2.1071260E+003	2.736739951513300E+001	-3.9490888E-001	-1.874158927228913E-001	7.4012198E-005	-3.9508930E-001	0
2.1055056E+003	2.756739951008058E+001	-3.9691174E-001	-1.885113739366320E-001	7.4822376E-005	-3.9708927E-001	0
2.1061294E+003	2.776739950502815E+001	-3.9893621E-001	-1.894167642871463E-001	7.5565207E-005	-3.9908931E-001	0
2.1101755E+003	2.796739949997573E+001	-4.0089110E-001	-1.899799772405188E-001	7.6161283E-005	-4.0108928E-001	0
2.1139351E+003	2.816739949492330E+001	-4.0290648E-001	-1.905954835625998E-001	7.6792152E-005	-4.0308928E-001	0
2.1179619E+003	2.836739948987088E+001	-4.0494058E-001	-1.911935141740901E-001	7.7422010E-005	-4.0508929E-001	0
2.1238716E+003	2.856739948481845E+001	-4.0693218E-001	-1.915992391549155E-001	7.7967896E-005	-4.0708932E-001	0
2.1287859E+003	2.876739947976603E+001	-4.0889511E-001	-1.920790267715446E-001	7.8540172E-005	-4.0908927E-001	0
2.1351841E+003	2.896739947471360E+001	-4.1093591E-001	-1.924592455682212E-001	7.9088415E-005	-4.1108930E-001	0
2.1412324E+003	2.916739946966118E+001	-4.1298720E-001	-1.928735990562980E-001	7.9654325E-005	-4.1308933E-001	0
2.1482649E+003	2.936739946460875E+001	-4.1495052E-001	-1.931561285929755E-001	8.0150239E-005	-4.1508931E-001	0
2.1582036E+003	2.956739945955633E+001	-4.1695827E-001	-1.931969116139913E-001	8.0555052E-005	-4.1708928E-001	0
2.1668867E+003	2.976739945450390E+001	-4.1897705E-001	-1.933543909902848E-001	8.1011050E-005	-4.1908932E-001	0
2.1744446E+003	2.996739944945148E+001	-4.2094699E-001	-1.935882811633078E-001	8.1490405E-005	-4.2108929E-001	0
2.1859255E+003	3.016739944439905E+001	-4.2298633E-001	-1.935044640977175E-001	8.1849743E-005	-4.2308930E-001	0
2.1946162E+003	3.036739943934663E+001	-4.2495525E-001	-1.936353299663292E-001	8.2286351E-005	-4.2508930E-001	0
2.2057295E+003	3.056739943429420E+001	-4.2701262E-001	-1.935924683748200E-001	8.2666425E-005	-4.2708930E-001	0
2.2175061E+003	3.076739942924178E+001	-4.2899150E-001	-1.934567406011196E-001	8.2991297E-005	-4.2908928E-001	0
2.2301296E+003	3.096739942418935E+001	-4.3098396E-001	-1.932551174988451E-001	8.3289859E-005	-4.3108931E-001	0
2.2438997E+003	3.116739941913693E+001	-4.3296516E-001	-1.929521118554708E-001	8.3541541E-005	-4.3308929E-001	0
2.2568491E+003	3.136739941408450E+001	-4.3498927E-001	-1.927418487448502E-001	8.3840634E-005	-4.3508932E-001	0
2.2699958E+003	3.156739940903208E+001	-4.3695435E-001	-1.924912468741421E-001	8.4109888E-005	-4.3708929E-001	0
2.2874014E+003	3.176739940397965E+001	-4.3903166E-001	-1.919346898551321E-001	8.4265404E-005	-4.3908927E-001	0
2.3012832E+003	3.196739939892723E+001	-4.4099209E-001	-1.916287765044151E-001	8.4506777E-005	-4.4108930E-001	0
2.3146025E+003	3.216739939387480E+001	-4.4292849E-001	-1.913626488137672E-001	8.4759973E-005	-4.4308931E-001	0
2.3319224E+003	3.236739938882238E+001	-4.4500881E-001	-1.908334573200765E-001	8.4922569E-005	-4.4508931E-001	0
2.3502449E+003	3.256739938376995E+001	-4.4697750E-001	-1.901833707067582E-001	8.5007690E-005	-4.4708931E-001	0
2.3679119E+003	3.276739937871753E+001	-4.4895935E-001	-1.896013852077933E-001	8.5123313E-005	-4.4908932E-001	0
2.3859834E+003	3.296739937366510E+001	-4.5092994E-001	-1.889912295461444E-001	8.5221807E-005	-4.5108926E-001	0
2.4068186E+003	3.316739936861268E+001	-4.5299044E-001	-1.882112853317741E-001	8.5257911E-005	-4.5308930E-001	0
2.4266479E+003	3.336739936356025E+001	-4.5501626E-001	-1.875081371247788E-001	8.5319247E-005	-4.5508933E-001	0
2.4504604E+003	3.356739935850783E+001	-4.5699322E-001	-1.864927943665000E-001	8.5225940E-005	-4.5708930E-001	0
2.4725559E+003	3.376739935345540E+001	-4.5902556E-001	-1.856482109612454E-001	8.5217274E-005	-4.5908928E-001	0
2.4960908E+003	3.396739934840298E+001	-4.6092552E-001	-1.846589448770969E-001	8.5114021E-005	-4.6108931E-001	0
2.5157417E+003	3.416739934335055E+001	-4.6300030E-001	-1.840412715183839E-001	8.5211163E-005	-4.6308929E-001	0
2.5406462E+003	3.436739933829813E+001	-4.6491423E-001	-1.829905429983811E-001	8.5074906E-005	-4.6508929E-001	0
2.5664165E+003	3.456739933324570E+001	-4.6697101E-001	-1.819544843790837E-001	8.4967469E-005	-4.6708933E-001	0
2.5948269E+003	3.476739932819328E+001	-4.6898744E-001	-1.807393927207372E-001	8.4764506E-005	-4.6908930E-001	0
2.6243240E+003	3.496739932314085E+001	-4.7090691E-001	-1.794393240250312E-001	8.4499217E-005	-4.7108927E-001	0
2.6552407E+003	3.516739931808843E+001	-4.7294810E-001	-1.781187286038719E-001	8.4240914E-005	-4.7308931E-001	0
2.6866011E+003	3.536739931303600E+001	-4.7495270E-001	-1.767857197298326E-001	8.3964856E-005	-4.7508934E-001	0
2.7184753E+003	3.556739930798358E+001	-4.7693816E-001	-1.754432535601476E-001	8.3675579E-005	-4.7708923E-001	0
2.7540952E+003	3.576739930293115E+001	-4.7900859E-001	-1.739259296563587E-001	8.3312014E-005	-4.7908923E-001	0
2.7877891E+003	3.596739929787873E+001	-4.8095530E-001	-1.725221308478300E-001	8.2975435E-005	-4.8108929E-001	0
2.8217693E+003	3.616739929282630E+001	-4.8297071E-001	-1.711588320195618E-001	8.2664701E-005	-4.8308915E-001	0
2.8523398E+003	3.636739928777388E+001	-4.8492655E-001	-1.700100947610719E-001	8.2442406E-005	-4.8508912E-001	0
2.8888252E+003	3.656739928272145E+001	-4.8696050E-001	-1.685669677218002E-001	8.2085455E-005	-4.8708895E-001	0
2.9263074E+003	3.676739927766903E+001	-4.8898214E-001	-1.670986894389317E-001	8.1708276E-005	-4.8908886E-001	0
2.9614587E+003	3.696739927261660E+001	-4.9100634E-001	-1.657988146515545E-001	8.1408267E-005	-4.9108875E-001	0
3.0007510E+003	3.716739926756418E+001	-4.9296769E-001	-1.642814475880381E-001	8.0985446E-005	-4.9308860E-001	0
3.0410193E+003	3.736739926251175E+001	-4.9500379E-001	-1.627756218339339E-001	8.0574551E-005	-4.9508855E-001	0
3.0809460E+003	3.756739925745933E+001	-4.9699864E-001	-1.613136483102937E-001	8.0172664E-005	-4.9708840E-001	0
3.1237532E+003	3.776739925240690E+001	-4.9897787E-001	-1.597366513126854E-001	7.9705052E-005	-4.9908832E-001	0
3.1690735E+003	3.796739924735448E+001	-5.0102335E-001	-1.580977329937854E-001	7.9210658E-005	-5.0108826E-001	0
3.2182354E+003	3.816739924230205E+001	-5.0298405E-001	-1.562918731076914E-001	7.8612320E-005	-5.0308818E-001	0
3.2669895E+003	3.836739923724963E+001	-5.0498366E-001	-1.545715588113281E-001	7.8056109E-005	-5.0508809E-001	0
3.3163035E+003	3.856739923219720E+001	-5.0697994E-001	-1.528750189691950E-001	7.7504570E-005	-5.0708795E-001	0
3.3679053E+003	3.876739922714478E+001	-5.0895619E-001	-1.511195115713386E-001	7.6913209E-005	-5.0908786E-001	0
3.4188364E+003	3.896739922209235E+001	-5.1097101E-001	-1.494575722328891E-001	7.6368487E-005	-5.1108772E-001	0
3.4713298E+003	3.916739921703993E+001	-5.1298356E-001	-1.477772460631652E-001	7.5807300E-005	-5.1308769E-001	0
3.5214089E+003	3.936729921199003E+001	-5.1495963E-001	-1.462368216012485E-001	7.5306059E-005	-5.1508713E-001	0
3.5757307E+003	3.956719920694013E+001	-5.1697671E-001	-1.445793176540786E-001	7.4744137E-005	-5.1708746E-001	0
3.6259614E+003	3.976719920188771E+001	-5.1894021E-001	-1.431179603101378E-001	7.4269665E-005	-5.1908731E-001	0
3.6718979E+003	3.996719919683528E+001	-5.2095801E-001	-1.418770359883976E-001	7.3911979E-005	-5.2108723E-001	0
3.7134480E+003	4.016719919178286E+001	-5.2299792E-001	-1.408388922740694E-001	7.3658448E-005	-5.2308714E-001	0
3.7683545E+003	4.036719918673043E+001	-5.2495402E-001	-1.393059057747421E-001	7.3129195E-005	-5.2508700E-001	0
3.8343677E+003	4.056719918167801E+001	-5.2693087E-001	-1.374231463745912E-001	7.2412498E-005	-5.2708697E-001	0
3.9001992E+003	4.076719917662558E+001	-5.2898049E-001	-1.356290920327115E-001	7.1745148E-005	-5.2908677E-001	0
3.9596765E+003	4.096719917157316E+001	-5.3098106E-001	-1.340970854674062E-001	7.1203016E-005	-5.3108668E-001	0
4.0200591E+003	4.116719916652073E+001	-5.3301018E-001	-1.325876522690996E-001	7.0670569E-005	-5.3308660E-001	0
4.0809824E+003	4.136719916146831E+001	-5.3496093E-001	-1.310863082514666E-001	7.0126051E-005	-5.3508645E-001	0
4.1433232E+003	4.156719915641588E+001	-5.3696346E-001	-1.295972884402450E-001	6.9589012E-005	-5.3708643E-001	0
4.2107944E+003	4.176719915136346E+001	-5.3897405E-001	-1.279981871823992E-001	6.8987698E-005	-5.3908622E-001	0
4.2780981E+003	4.196719914631103E+001	-5.4095304E-001	-1.264470920300371E-001	6.8401940E-005	-5.4108620E-001	0
4.3431567E+003	4.216719914125861E+001	-5.4295111E-001	-1.250130092026134E-001	6.7875953E-005	-5.4308605E-001	0
4.4134697E+003	4.236719913620618E+001	-5.4495955E-001	-1.234764497834862E-001	6.7289671E-005	-5.4508603E-001	0
4.4830879E+003	4.256719913115376E+001	-5.4694831E-001	-1.220025905965483E-001	6.6729110E-005	-5.4708588E-001	0
4.5465591E+003	4.276719912610133E+001	-5.4895109E-001	-1.207398962453341E-001	6.6280300E-005	-5.4908580E-001	0
4.6084097E+003	4.296719912104891E+001	-5.5097693E-001	-1.195590147820393E-001	6.5874257E-005	-5.5108571E-001	0
4.6811138E+003	4.316709911599901E+001	-5.5297142E-001	-1.181281802556458E-001	6.5321510E-005	-5.5308491E-001	0
4.7527456E+003	4.336699911094911E+001	-5.5496734E-001	-1.167677388042891E-001	6.4802283E-005	-5.5508548E-001	0
4.8254014E+003	4.356699910589668E+001	-5.5697668E-001	-1.154259750524499E-001	6.4289576E-005	-5.5708534E-001	0
4.8969453E+003	4.376699910084426E+001	-5.5895758E-001	-1.141441383065395E-001	6.3801730E-005	-5.5908525E-001	0
4.9697002E+003	4.396699909579183E+001	-5.6092721E-001	-1.128694297124939E-001	6.3311534E-005	-5.6108516E-001	0
5.0371494E+003	4.416699909073941E+001	-5.6291169E-001	-1.117520323297738E-001	6.2906525E-005	-5.6308508E-001	0
5.0987490E+003	4.436699908568698E+001	-5.6495690E-001	-1.108030406209111E-001	6.2598941E-005	-5.6508493E-001	0
5.1574209E+003	4.456699908063456E+001	-5.6695139E-001	-1.099292443370414E-001	6.2324536E-005	-5.6708479E-001	0
5.2336665E+003	4.476699907558213E+001	-5.6896007E-001	-1.087115670579686E-001	6.1852537E-005	-5.6908476E-001	0
5.2236519E+003	4.496699907052971E+001	-5.7095045E-001	-1.093010184515584E-001	6.2405466E-005	-5.7108462E-001	0
5.2294810E+003	4.516699906547728E+001	-5.7296067E-001	-1.095635849177889E-001	6.2775624E-005	-5.7308453E-001	0
5.3056719E+003	4.536699906042486E+001	-5.7493204E-001	-1.083617778368242E-001	6.2300656E-005	-5.7508445E-001	0
5.3793354E+003	4.556699905537243E+001	-5.7690680E-001	-1.072449937078459E-001	6.1870363E-005	-5.7708430E-001	0
5.4513042E+003	4.576699905032001E+001	-5.7898080E-001	-1.062095913362354E-001	6.1493316E-005	-5.7908422E-001	0
5.5238921E+003	4.596699904526758E+001	-5.8094680E-001	-1.051698351604120E-001	6.1098079E-005	-5.8108407E-001	0
5.5936006E+003	4.616699904021516E+001	-5.8298182E-001	-1.042229952216740E-001	6.0760111E-005	-5.8308405E-001	0
5.6623667E+003	4.636699903516273E+001	-5.8490944E-001	-1.032976994064985E-001	6.0419799E-005	-5.8508384E-001	0
5.7283784E+003	4.656699903011031E+001	-5.8695251E-001	-1.024639856898126E-001	6.0141494E-005	-5.8708382E-001	0
5.7920986E+003	4.676699902505788E+001	-5.8897477E-001	-1.016859035356109E-001	5.9890433E-005	-5.8908367E-001	0
5.8513682E+003	4.696699902000546E+001	-5.9092075E-001	-1.009884789741435E-001	5.9676186E-005	-5.9108382E-001	0
5.9120552E+003	4.716679901495809E+001	-5.9295785E-001	-1.002963968279516E-001	5.9471535E-005	-5.9308350E-001	0
5.9705801E+003	4.736679900990566E+001	-5.9495229E-001	-9.964731609757083E-002	5.9285398E-005	-5.9508330E-001	0
6.0244004E+003	4.756679900485324E+001	-5.9695441E-001	-9.908942698211709E-002	5.9151869E-005	-5.9708327E-001	0
6.0809272E+003	4.776679899980081E+001	-5.9896541E-001	-9.849902384443576E-002	5.8997506E-005	-5.9908313E-001	0
6.1365605E+003	4.796679899474839E+001	-6.0093927E-001	-9.792770390438948E-002	5.8848604E-005	-6.0108304E-001	0
6.1903735E+003	4.816679898969596E+001	-6.0292846E-001	-9.739775008990814E-002	5.8723876E-005	-6.0308295E-001	0
6.2441250E+003	4.836679898464354E+001	-6.0495150E-001	-9.688330785838128E-002	5.8609701E-005	-6.0508287E-001	0
6.2974663E+003	4.856679897959111E+001	-6.0696995E-001	-9.638319604041823E-002	5.8501704E-005	-6.0708278E-001	0
6.3461870E+003	4.876679897453869E+001	-6.0893703E-001	-9.595320815254227E-002	5.8429461E-005	-6.0908264E-001	0
6.3935049E+003	4.896679896948626E+001	-6.1094230E-001	-9.555671042646519E-002	5.8379635E-005	-6.1108255E-001	0
6.4439526E+003	4.916679896443384E+001	-6.1296660E-001	-9.512276599677838E-002	5.8307080E-005	-6.1308241E-001	0
6.4880376E+003	4.936679895938141E+001	-6.1496955E-001	-9.478514194604681E-002	5.8289977E-005	-6.1508232E-001	0
6.5315723E+003	4.956679895432899E+001	-6.1698228E-001	-9.446152785683148E-002	5.8281090E-005	-6.1708224E-001	0
6.5728677E+003	4.976679894927656E+001	-6.1900491E-001	-9.417577580308123E-002	5.8295267E-005	-6.1908209E-001	0
6.6114639E+003	4.996679894422414E+001	-6.2096739E-001	-9.392282760452808E-002	5.8323014E-005	-6.2108201E-001	0
6.6446592E+003	5.016679893917171E+001	-6.2297815E-001	-9.375622126383616E-002	5.8408077E-005	-6.2308186E-001	0
6.6824204E+003	5.036679893411929E+001	-6.2499022E-001	-9.352752319252033E-002	5.8453788E-005	-6.2508184E-001	0
6.7179370E+003	5.056679892906686E+001	-6.2694484E-001	-9.332401233159265E-002	5.8509009E-005	-6.2708169E-001	0
6.7468442E+003	5.076679892401444E+001	-6.2898868E-001	-9.322709525415829E-002	5.8638787E-005	-6.2908167E-001	0
6.7793184E+003	5.096669891896454E+001	-6.3097101E-001	-9.307292644636278E-002	5.8726320E-005	-6.3108242E-001	0
6.8029526E+003	5.116659891391464E+001	-6.3295078E-001	-9.304059784682073E-002	5.8890120E-005	-6.3308138E-001	0
6.8285400E+003	5.136659890886222E+001	-6.3498551E-001	-9.298993740019612E-002	5.9047263E-005	-6.3508129E-001	0
6.8539780E+003	5.156659890380979E+001	-6.3694876E-001	-9.293125492474158E-002	5.9192447E-005	-6.3708115E-001	0
6.8738618E+003	5.176659889875737E+001	-6.3894737E-001	-9.295318750009995E-002	5.9392194E-005	-6.3908112E-001	0
6.8912915E+003	5.196659889370494E+001	-6.4094073E-001	-9.300734290732748E-002	5.9612194E-005	-6.4108092E-001	0
6.9151079E+003	5.216659888865252E+001	-6.4298797E-001	-9.298307187179544E-002	5.9786995E-005	-6.4308089E-001	0
6.9253086E+003	5.236659888360009E+001	-6.4494532E-001	-9.312874881725958E-002	6.0062950E-005	-6.4508075E-001	0
6.9413174E+003	5.256659887854767E+001	-6.4691687E-001	-9.319799686275254E-002	6.0291357E-005	-6.4708066E-001	0
6.9527334E+003	5.276659887349524E+001	-6.4895779E-001	-9.333851352775380E-002	6.0572755E-005	-6.4908057E-001	0
6.9598765E+003	5.296659886844282E+001	-6.5097314E-001	-9.353228281526627E-002	6.0887003E-005	-6.5108043E-001	0
6.9676465E+003	5.316659886339039E+001	-6.5295887E-001	-9.371297649380306E-002	6.1190716E-005	-6.5308034E-001	0
6.9789844E+003	5.336659885833797E+001	-6.5498227E-001	-9.385065377273882E-002	6.1470513E-005	-6.5508020E-001	0
6.9787070E+003	5.356659885328554E+001	-6.5694082E-001	-9.413503435315773E-002	6.1841143E-005	-6.5708011E-001	0
6.9873340E+003	5.376659884823312E+001	-6.5895432E-001	-9.430697517228775E-002	6.2143990E-005	-6.5908003E-001	0
6.9792632E+003	5.396659884318069E+001	-6.6098189E-001	-9.470654139981549E-002	6.2599313E-005	-6.6107994E-001	0
6.9829995E+003	5.416659883812827E+001	-6.6299045E-001	-9.494350472826296E-002	6.2946638E-005	-6.6307986E-001	0
6.9741045E+003	5.436659883307584E+001	-6.6494584E-001	-9.534497908580475E-002	6.3399246E-005	-6.6507971E-001	0
6.9699175E+003	5.456659882802342E+001	-6.6696429E-001	-9.569185214009426E-002	6.3823049E-005	-6.6707963E-001	0
6.9624326E+003	5.476649882297352E+001	-6.6895694E-001	-9.608091832056131E-002	6.4273998E-005	-6.6907996E-001	0
6.9523789E+003	5.496639881792362E+001	-6.7096198E-001	-9.650825720561285E-002	6.4753374E-005	-6.7107946E-001	0
6.9351738E+003	5.516639881287119E+001	-6.7294496E-001	-9.703360818687590E-002	6.5298278E-005	-6.7307925E-001	0
6.9224004E+003	5.536639880781877E+001	-6.7494202E-001	-9.750115116709698E-002	6.5807624E-005	-6.7507923E-001	0
6.9006157E+003	5.556639880276634E+001	-6.7695928E-001	-9.810128373404314E-002	6.6410576E-005	-6.7707908E-001	0
6.8806719E+003	5.576639879771392E+001	-6.7897457E-001	-9.867852862793369E-002	6.7000212E-005	-6.7907900E-001	0
6.8591333E+003	5.596639879266149E+001	-6.8095338E-001	-9.927688220351105E-002	6.7602930E-005	-6.8107891E-001	0
6.8377739E+003	5.616639878760907E+001	-6.8295962E-001	-9.988040027320499E-002	6.8214278E-005	-6.8307871E-001	0
6.8151709E+003	5.636639878255664E+001	-6.8499333E-001	-1.005100750717042E-001	6.8848727E-005	-6.8507874E-001	0
6.7900244E+003	5.656639877750422E+001	-6.8696290E-001	-1.011723753956069E-001	6.9501672E-005	-6.8707860E-001	0
6.7578755E+003	5.676639877245179E+001	-6.8897814E-001	-1.019518814659982E-001	7.0242619E-005	-6.8907845E-001	0
6.7314688E+003	5.696639876739937E+001	-6.9098920E-001	-1.026505866202010E-001	7.0930444E-005	-6.9107836E-001	0
6.6924199E+003	5.716639876234694E+001	-6.9293779E-001	-1.035406928891720E-001	7.1747258E-005	-6.9307822E-001	0
6.6601909E+003	5.736639875729452E+001	-6.9497949E-001	-1.043482869620652E-001	7.2519921E-005	-6.9507813E-001	0
6.6287646E+003	5.756639875224209E+001	-6.9700992E-001	-1.051492950511577E-001	7.3290103E-005	-6.9707805E-001	0
6.5931709E+003	5.776639874718967E+001	-6.9898772E-001	-1.060169273290505E-001	7.4104530E-005	-6.9907796E-001	0
6.5539937E+003	5.796639874213724E+001	-7.0100182E-001	-1.069579622834969E-001	7.4977725E-005	-7.0107782E-001	0
6.5099741E+003	5.816639873708482E+001	-7.0297110E-001	-1.079836977844271E-001	7.5909418E-005	-7.0307773E-001	0
6.4682969E+003	5.836639873203239E+001	-7.0495850E-001	-1.089867233169890E-001	7.6831115E-005	-7.0507765E-001	0
6.4235811E+003	5.856629872698250E+001	-7.0697433E-001	-1.100592202451414E-001	7.7809040E-005	-7.0707798E-001	0
6.3903467E+003	5.876619872193260E+001	-7.0893455E-001	-1.109383576686864E-001	7.8648038E-005	-7.0907748E-001	0
6.3447866E+003	5.896619871688017E+001	-7.1091485E-001	-1.120470870072934E-001	7.9655940E-005	-7.1107727E-001	0
6.2984482E+003	5.916619871182775E+001	-7.1299160E-001	-1.132011502451117E-001	8.0711470E-005	-7.1307725E-001	0
6.2554370E+003	5.936619870677532E+001	-7.1496516E-001	-1.142949960226205E-001	8.1716942E-005	-7.1507716E-001	0
6.2087598E+003	5.956619870172290E+001	-7.1696764E-001	-1.154767892127033E-001	8.2793122E-005	-7.1707696E-001	0
6.1550386E+003	5.976619869667047E+001	-7.1893042E-001	-1.168035578643668E-001	8.3973631E-005	-7.1907693E-001	0
6.1166943E+003	5.996619869161805E+001	-7.2097141E-001	-1.178694553388171E-001	8.4980507E-005	-7.2107679E-001	0
6.0639380E+003	6.016619868656562E+001	-7.2292697E-001	-1.192174112591091E-001	8.6185486E-005	-7.2307676E-001	0
6.0219146E+003	6.036619868151320E+001	-7.2495645E-001	-1.203863766887002E-001	8.7274879E-005	-7.2507656E-001	0
5.9667061E+003	6.056619867646077E+001	-7.2694379E-001	-1.218333547161949E-001	8.8565997E-005	-7.2707647E-001	0
5.9210078E+003	6.076619867140835E+001	-7.2899216E-001	-1.231196133700747E-001	8.9753230E-005	-7.2907639E-001	0
5.8649346E+003	6.096619866635592E+001	-7.3097932E-001	-1.246355464196262E-001	9.1106005E-005	-7.3107630E-001	0
5.8190000E+003	6.116619866130350E+001	-7.3298389E-001	-1.259638914044370E-001	9.2329501E-005	-7.3307616E-001	0
5.7651733E+003	6.136619865625107E+001	-7.3497790E-001	-1.274858242515344E-001	9.3699266E-005	-7.3507607E-001	0
5.7150723E+003	6.156619865119865E+001	-7.3693907E-001	-1.289465882469081E-001	9.5025782E-005	-7.3707598E-001	0
5.6670952E+003	6.176619864614622E+001	-7.3894924E-001	-1.303929510365851E-001	9.6353775E-005	-7.3907578E-001	0
5.6162344E+003	6.196619864109380E+001	-7.4096346E-001	-1.319324276589557E-001	9.7757111E-005	-7.4107581E-001	0
5.5639312E+003	6.216619863604137E+001	-7.4295050E-001	-1.335297815349636E-001	9.9206016E-005	-7.4307567E-001	0
5.5139063E+003	6.236609863099147E+001	-7.4495327E-001	-1.351044508952768E-001	1.0064650E-004	-7.4507552E-001	0
5.4652061E+003	6.256599862594157E+001	-7.4702775E-001	-1.366879335422985E-001	1.0210968E-004	-7.4707550E-001	0
5.4166128E+003	6.276599862088915E+001	-7.4895120E-001	-1.382692940226942E-001	1.0355695E-004	-7.4907529E-001	0
5.3645186E+003	6.296599861583672E+001	-7.5100136E-001	-1.399941727193809E-001	1.0513581E-004	-7.5107521E-001	0
5.3165347E+003	6.316599861078430E+001	-7.5297219E-001	-1.416283832533524E-001	1.0664223E-004	-7.5307512E-001	0
5.2698770E+003	6.336599860573187E+001	-7.5493252E-001	-1.432542965964938E-001	1.0814733E-004	-7.5507504E-001	0
5.2148149E+003	6.356599860067945E+001	-7.5694364E-001	-1.451525405543495E-001	1.0987229E-004	-7.5707489E-001	0
5.1637729E+003	6.376599859562702E+001	-7.5900108E-001	-1.469857559197263E-001	1.1156235E-004	-7.5907481E-001	0
5.1180986E+003	6.396599859057460E+001	-7.6095599E-001	-1.486794236580717E-001	1.1313850E-004	-7.6107472E-001	0
5.0674570E+003	6.416599858552217E+001	-7.6295328E-001	-1.505593956551617E-001	1.1486978E-004	-7.6307464E-001	0
5.0172778E+003	6.436599858046975E+001	-7.6496518E-001	-1.524661751727983E-001	1.1663132E-004	-7.6507455E-001	0
4.9690518E+003	6.456599857541732E+001	-7.6696008E-001	-1.543473720428044E-001	1.1837827E-004	-7.6707435E-001	0
4.9173691E+003	6.476599857036490E+001	-7.6894504E-001	-1.563732650504783E-001	1.2024245E-004	-7.6907432E-001	0
4.8711807E+003	6.496599856531248E+001	-7.7095085E-001	-1.582677620716502E-001	1.2201667E-004	-7.7107418E-001	0
4.8221699E+003	6.516599856026005E+001	-7.7296889E-001	-1.602948318127871E-001	1.2390292E-004	-7.7307403E-001	0
4.7719346E+003	6.536599855520763E+001	-7.7497339E-001	-1.624023503573222E-001	1.2585751E-004	-7.7507395E-001	0
4.7229082E+003	6.556599855015520E+001	-7.7696407E-001	-1.645096652273117E-001	1.2781810E-004	-7.7707386E-001	0
4.6791089E+003	6.576599854510278E+001	-7.7896869E-001	-1.664780038377254E-001	1.2968115E-004	-7.7907383E-001	0
4.6274004E+003	6.596599854005035E+001	-7.8090626E-001	-1.687570026866632E-001	1.3178340E-004	-7.8107363E-001	0
4.5771792E+003	6.616589853500045E+001	-7.8297573E-001	-1.710607553791849E-001	1.3393642E-004	-7.8307319E-001	0
4.5296064E+003	6.636579852995055E+001	-7.8494471E-001	-1.732920249417220E-001	1.3602465E-004	-7.8507352E-001	0
4.4787798E+003	6.656579852489813E+001	-7.8699958E-001	-1.757174103674974E-001	1.3828953E-004	-7.8707343E-001	0
4.4346592E+003	6.676579851984570E+001	-7.8890216E-001	-1.778946597247368E-001	1.4034148E-004	-7.8907335E-001	0
4.3858687E+003	6.696579851479328E+001	-7.9095370E-001	-1.803414010370994E-001	1.4264170E-004	-7.9107338E-001	0
4.3331211E+003	6.716579850974085E+001	-7.9293025E-001	-1.829928653219675E-001	1.4510058E-004	-7.9307342E-001	0
4.2844297E+003	6.736579850468843E+001	-7.9494065E-001	-1.855417624466508E-001	1.4749469E-004	-7.9507327E-001	0
4.2313804E+003	6.756579849963600E+001	-7.9697317E-001	-1.883482776145084E-001	1.5010852E-004	-7.9707336E-001	0
4.1785640E+003	6.776579849458358E+001	-7.9893458E-001	-1.911983536704192E-001	1.5275498E-004	-7.9907346E-001	0
4.1268203E+003	6.796579848953115E+001	-8.0093324E-001	-1.940799818950750E-001	1.5544512E-004	-8.0107331E-001	0
4.0756174E+003	6.816579848447873E+001	-8.0293119E-001	-1.970084777034284E-001	1.5818425E-004	-8.0307341E-001	0
4.0314126E+003	6.836579847942630E+001	-8.0496800E-001	-1.996739282633886E-001	1.6073113E-004	-8.0507338E-001	0
3.9903721E+003	6.856579847437388E+001	-8.0698353E-001	-2.022326488487103E-001	1.6319842E-004	-8.0707335E-001	0
3.9565542E+003	6.876579846932145E+001	-8.0895275E-001	-2.044589136053467E-001	1.6539761E-004	-8.0907333E-001	0
3.9094126E+003	6.896579846426903E+001	-8.1096935E-001	-2.074402035900356E-001	1.6822765E-004	-8.1107336E-001	0
3.8619783E+003	6.916579845921660E+001	-8.1293374E-001	-2.104967169066607E-001	1.7111989E-004	-8.1307346E-001	0
3.8103613E+003	6.936579845416418E+001	-8.1495309E-001	-2.138781698099642E-001	1.7430067E-004	-8.1507337E-001	0
3.7550979E+003	6.956579844911175E+001	-8.1691688E-001	-2.175487570629335E-001	1.7771925E-004	-8.1707329E-001	0
3.6962490E+003	6.976579844405933E+001	-8.1895292E-001	-2.215632484727400E-001	1.8144987E-004	-8.1907344E-001	0
3.6318237E+003	6.996579843900690E+001	-8.2095879E-001	-2.260458847283973E-001	1.8557436E-004	-8.2107341E-001	0
3.5746943E+003	7.016579843395448E+001	-8.2298559E-001	-2.302254375784134E-001	1.8947222E-004	-8.2307333E-001	0
3.5378276E+003	7.036579842890205E+001	-8.2497746E-001	-2.331875755795854E-001	1.9237450E-004	-8.2507336E-001	0
3.5077153E+003	7.056579842384963E+001	-8.2696635E-001	-2.357563989389013E-001	1.9496260E-004	-8.2707340E-001	0
3.4709739E+003	7.076579841879720E+001	-8.2895148E-001	-2.388238876428705E-001	1.9797341E-004	-8.2907337E-001	0
3.4360657E+003	7.096579841374478E+001	-8.3093309E-001	-2.418268953308529E-001	2.0094197E-004	-8.3107334E-001	0
3.4043560E+003	7.116579840869235E+001	-8.3293831E-001	-2.446684017017189E-001	2.0379368E-004	-8.3307344E-001	0
3.3690718E+003	7.136579840363993E+001	-8.3492905E-001	-2.478216845592880E-001	2.0691352E-004	-8.3507329E-001	0
3.3291179E+003	7.156579839858750E+001	-8.3696651E-001	-2.514078856790074E-001	2.1041998E-004	-8.3707339E-001	0
3.2861931E+003	7.176579839353508E+001	-8.3896863E-001	-2.553010832100195E-001	2.1418960E-004	-8.3907336E-001	0
3.2429563E+003	7.196579838848265E+001	-8.4097153E-001	-2.593225010643261E-001	2.1808285E-004	-8.4107333E-001	0
3.1894360E+003	7.216579838343023E+001	-8.4299254E-001	-2.643077126883671E-001	2.2280944E-004	-8.4307343E-001	0
3.1638518E+003	7.236579837837780E+001	-8.4499484E-001	-2.670778831289615E-001	2.2567944E-004	-8.4507334E-001	0
3.1514880E+003	7.256579837332538E+001	-8.4700227E-001	-2.687626383320119E-001	2.2764257E-004	-8.4707350E-001	0
3.1229199E+003	7.276579836827295E+001	-8.4900439E-001	-2.718623559964209E-001	2.3081234E-004	-8.4907335E-001	0
3.0998694E+003	7.296579836322053E+001	-8.5097581E-001	-2.745199001662417E-001	2.3360980E-004	-8.5107327E-001	0
3.0747322E+003	7.316579835816810E+001	-8.5295576E-001	-2.774081526349490E-001	2.3661688E-004	-8.5307342E-001	0
3.0529446E+003	7.336579835311568E+001	-8.5498679E-001	-2.800531647127964E-001	2.3944175E-004	-8.5507339E-001	0
3.0252734E+003	7.356579834806325E+001	-8.5697734E-001	-2.832726898947371E-001	2.4275828E-004	-8.5707337E-001	0
3.0025894E+003	7.376579834301083E+001	-8.5901499E-001	-2.860913951194899E-001	2.4575679E-004	-8.5907340E-001	0
2.9788345E+003	7.396579833795840E+001	-8.6095673E-001	-2.890246850807996E-001	2.4883775E-004	-8.6107337E-001	0
2.9615830E+003	7.416579833290598E+001	-8.6300230E-001	-2.913990012790303E-001	2.5147802E-004	-8.6307335E-001	0
2.9482441E+003	7.436579832785355E+001	-8.6500752E-001	-2.933975123777102E-001	2.5379105E-004	-8.6507332E-001	0
2.9299512E+003	7.456579832280113E+001	-8.6698401E-001	-2.959039003066648E-001	2.5654395E-004	-8.6707342E-001	0
2.8975750E+003	7.476579831774870E+001	-8.6898917E-001	-2.999022218616272E-001	2.6061179E-004	-8.6907339E-001	0
2.8632292E+003	7.496579831269628E+001	-8.7097251E-001	-3.041923656540153E-001	2.6494320E-004	-8.7107337E-001	0
2.8385693E+003	7.516579830764385E+001	-8.7297833E-001	-3.075416632600616E-001	2.6847722E-004	-8.7307334E-001	0
2.8263958E+003	7.536579830259143E+001	-8.7498486E-001	-3.095762059557132E-001	2.7087450E-004	-8.7507331E-001	0
2.8161431E+003	7.556579829753900E+001	-8.7696046E-001	-3.114047886237770E-001	2.7308968E-004	-8.7707341E-001	0
2.8093894E+003	7.576579829248658E+001	-8.7898958E-001	-3.128756629408675E-001	2.7501443E-004	-8.7907332E-001	0
2.7977495E+003	7.596579828743415E+001	-8.8094860E-001	-3.148775912774830E-001	2.7739097E-004	-8.8107347E-001	0
2.7817146E+003	7.616579828238173E+001	-8.8300574E-001	-3.174321913665126E-001	2.8029445E-004	-8.8307345E-001	0
2.7590432E+003	7.636579827732930E+001	-8.8498920E-001	-3.207594692272009E-001	2.8386866E-004	-8.8507330E-001	0
2.7261721E+003	7.656579827227688E+001	-8.8695306E-001	-3.253474296207903E-001	2.8856788E-004	-8.8707340E-001	0
2.6852766E+003	7.676579826722445E+001	-8.8897604E-001	-3.310556703684281E-001	2.9430055E-004	-8.8907337E-001	0
2.6373064E+003	7.696579826217203E+001	-8.9099777E-001	-3.378438437906626E-001	3.0101812E-004	-8.9107335E-001	0
2.5876372E+003	7.716579825711960E+001	-8.9297867E-001	-3.450942381143642E-001	3.0816181E-004	-8.9307338E-001	0
2.5141907E+003	7.736579825206718E+001	-8.9493603E-001	-3.559539148862765E-001	3.1855598E-004	-8.9507341E-001	0
2.4469341E+003	7.756579824701475E+001	-8.9699906E-001	-3.665808081234090E-001	3.2882264E-004	-8.9707339E-001	0
2.3685000E+003	7.776579824196233E+001	-8.9896381E-001	-3.795498457511304E-001	3.4120158E-004	-8.9907336E-001	0
2.2918174E+003	7.796579823690990E+001	-9.0100491E-001	-3.931399135493479E-001	3.5422100E-004	-9.0107340E-001	0
2.2111575E+003	7.816579823185748E+001	-9.0297186E-001	-4.083706829908094E-001	3.6874725E-004	-9.0307337E-001	0
2.1237893E+003	7.836579822680505E+001	-9.0498286E-001	-4.261170453233589E-001	3.8562863E-004	-9.0507334E-001	0
2.0306337E+003	7.856579822175263E+001	-9.0700650E-001	-4.466618060972740E-001	4.0512517E-004	-9.0707344E-001	0
1.9348904E+003	7.876579821670020E+001	-9.0898675E-001	-4.697871966975944E-001	4.2703035E-004	-9.0907341E-001	0
1.8349098E+003	7.896579821164778E+001	-9.1095400E-001	-4.964571170965026E-001	4.5224960E-004	-9.1107339E-001	0
1.7313732E+003	7.916579820659535E+001	-9.1300076E-001	-5.273275580299437E-001	4.8145046E-004	-9.1307336E-001	0
1.6112064E+003	7.936579820154293E+001	-9.1501224E-001	-5.679050245852384E-001	5.1964005E-004	-9.1507345E-001	0
1.5187307E+003	7.956579819649050E+001	-9.1700381E-001	-6.037961797970341E-001	5.5368338E-004	-9.1707349E-001	0
1.4245173E+003	7.976579819143808E+001	-9.1901225E-001	-6.451393799632434E-001	5.9289101E-004	-9.1907340E-001	0
1.3322329E+003	7.996579818638565E+001	-9.2097485E-001	-6.913016619764782E-001	6.3667144E-004	-9.2107338E-001	0
1.2171100E+003	8.016579818133323E+001	-9.2308265E-001	-7.584216990159689E-001	7.0008589E-004	-9.2307347E-001	0
1.1412054E+003	8.036579817628080E+001	-9.2500615E-001	-8.105517841807952E-001	7.4976537E-004	-9.2507333E-001	0
1.0603645E+003	8.056579817122838E+001	-9.2699981E-001	-8.742275162264175E-001	8.1040873E-004	-9.2707336E-001	0
9.6141663E+002	8.076579816617596E+001	-9.2897624E-001	-9.662577072052851E-001	8.9763047E-004	-9.2907339E-001	0
8.9125659E+002	8.097579816087091E+001	-9.3107110E-001	-1.044672336170539E+000	9.7266422E-004	-9.3117344E-001	0
8.1336481E+002	8.118579815556586E+001	-9.3317860E-001	-1.147306321488688E+000	1.0706417E-003	-9.3327338E-001	0
7.5483679E+002	8.138579815051344E+001	-9.3515640E-001	-1.238885550423948E+000	1.1585518E-003	-9.3527347E-001	0
6.8897980E+002	8.158579814546101E+001	-9.3714100E-001	-1.360186465625183E+000	1.2746865E-003	-9.3727344E-001	0
6.3436584E+002	8.178579814040859E+001	-9.3919152E-001	-1.480520291891704E+000	1.3904921E-003	-9.3927336E-001	0
5.8609528E+002	8.198579813535616E+001	-9.4113231E-001	-1.605766733723971E+000	1.5112390E-003	-9.4127339E-001	0
5.3939581E+002	8.218579813030374E+001	-9.4315535E-001	-1.748540349068158E+000	1.6491452E-003	-9.4327348E-001	0
4.9582257E+002	8.238579812525131E+001	-9.4513261E-001	-1.906191180943772E+000	1.8016035E-003	-9.4527334E-001	0
4.5778015E+002	8.258579812019889E+001	-9.4713974E-001	-2.068983833434366E+000	1.9596168E-003	-9.4727337E-001	0
4.2417844E+002	8.278579811514646E+001	-9.4915849E-001	-2.237639714834909E+000	2.1238748E-003	-9.4927341E-001	0
3.9357016E+002	8.298579811009404E+001	-9.5116705E-001	-2.416766202132177E+000	2.2987484E-003	-9.5127338E-001	0
3.6594965E+002	8.318579810504161E+001	-9.5317024E-001	-2.604648543019145E+000	2.4826734E-003	-9.5327336E-001	0
3.4129288E+002	8.338579809998919E+001	-9.5510662E-001	-2.798495547689676E+000	2.6728616E-003	-9.5527339E-001	0
3.1833725E+002	8.358579809493676E+001	-9.5718610E-001	-3.006830329578079E+000	2.8780962E-003	-9.5727336E-001	0
2.9755200E+002	8.378579808988434E+001	-9.5918864E-001	-3.223599971928842E+000	3.0920405E-003	-9.5927334E-001	0
2.7910483E+002	8.398579808483191E+001	-9.6114278E-001	-3.443662164162620E+000	3.3098510E-003	-9.6127343E-001	0
2.6250739E+002	8.418579807977949E+001	-9.6317726E-001	-3.669143537646519E+000	3.5340355E-003	-9.6327341E-001	0
2.4743513E+002	8.438579807472706E+001	-9.6517587E-001	-3.900722861458931E+000	3.7648836E-003	-9.6527338E-001	0
2.3353264E+002	8.458579806967464E+001	-9.6716607E-001	-4.141460052220459E+000	4.0054796E-003	-9.6727335E-001	0
2.2098482E+002	8.478579806462221E+001	-9.6919864E-001	-4.385815461409067E+000	4.2507262E-003	-9.6927345E-001	0
2.0955225E+002	8.498579805956979E+001	-9.7117811E-001	-4.634539236151994E+000	4.5009633E-003	-9.7127348E-001	0
1.9912503E+002	8.518579805451736E+001	-9.7314954E-001	-4.887128268712772E+000	4.7559068E-003	-9.7327340E-001	0
1.8988402E+002	8.538579804946494E+001	-9.7516835E-001	-5.135600042383683E+000	5.0080745E-003	-9.7527337E-001	0
1.8097794E+002	8.558579804441251E+001	-9.7716349E-001	-5.399351666641337E+000	5.2760495E-003	-9.7727346E-001	0
1.7293112E+002	8.578579803936009E+001	-9.7913039E-001	-5.661967495435221E+000	5.5438043E-003	-9.7927332E-001	0
1.6526070E+002	8.598579803430766E+001	-9.8114055E-001	-5.936926126378722E+000	5.8249589E-003	-9.8127335E-001	0
1.5845569E+002	8.618579802925524E+001	-9.8313284E-001	-6.204465624223758E+000	6.0998141E-003	-9.8327339E-001	0
1.5203708E+002	8.638579802420281E+001	-9.8515970E-001	-6.479733285787688E+000	6.3835722E-003	-9.8527336E-001	0
1.4605563E+002	8.658579801915039E+001	-9.8715270E-001	-6.758744501608021E+000	6.6719130E-003	-9.8727340E-001	0
1.4039218E+002	8.678579801409796E+001	-9.8913395E-001	-7.045505641133893E+000	6.9689490E-003	-9.8927337E-001	0
1.3523712E+002	8.698579800904554E+001	-9.9114609E-001	-7.328950227996415E+000	7.2640604E-003	-9.9127334E-001	0
1.3027779E+002	8.718579800399311E+001	-9.9316812E-001	-7.623464717008105E+000	7.5713820E-003	-9.9327326E-001	0
1.2577090E+002	8.738579799894069E+001	-9.9513406E-001	-7.912275410022872E+000	7.8737745E-003	-9.9527341E-001	0
1.2139282E+002	8.758579799388826E+001	-9.9717164E-001	-8.214420073494608E+000	8.1911869E-003	-9.9727327E-001	0
1.1723379E+002	8.778579798883584E+001	-9.9918711E-001	-8.523030012643261E+000	8.5161021E-003	-9.9927336E-001	0
1.1338057E+002	8.798599798377836E+001	-1.0011578E+000	-8.830064733908230E+000	8.8402880E-003	-1.0012749E+000	0
1.0968865E+002	8.818619797872088E+001	-1.0032040E+000	-9.145923480290108E+000	9.1752270E-003	-1.0032773E+000	0
1.0627895E+002	8.838619797366846E+001	-1.0051750E+000	-9.457893163236093E+000	9.5068375E-003	-1.0052773E+000	0
1.0295290E+002	8.858629796861351E+001	-1.0071735E+000	-9.782856824697916E+000	9.8530343E-003	-1.0072782E+000	0
9.9800629E+001	8.878639796355856E+001	-1.0091553E+000	-1.011171240925517E+001	1.0204288E-002	-1.0092794E+000	0
9.6803780E+001	8.898639795850613E+001	-1.0112033E+000	-1.044590694813772E+001	1.0562936E-002	-1.0112795E+000	0
9.3681046E+001	8.919639795320109E+001	-1.0132537E+000	-1.081599448815905E+001	1.0959347E-002	-1.0133795E+000	0
9.0573357E+001	8.940659794789099E+001	-1.0153632E+000	-1.121039648148661E+001	1.1382625E-002	-1.0154810E+000	0
8.7942337E+001	8.960699794282846E+001	-1.0174146E+000	-1.156910991493535E+001	1.1770581E-002	-1.0174853E+000	0
8.5479973E+001	8.980699793777603E+001	-1.0193789E+000	-1.192535364262915E+001	1.2156454E-002	-1.0194855E+000	0
8.3094254E+001	9.000699793272361E+001	-1.0213748E+000	-1.229176225021583E+001	1.2554497E-002	-1.0214853E+000	0
8.0809814E+001	9.020699792767118E+001	-1.0233178E+000	-1.266328683461734E+001	1.2958567E-002	-1.0234854E+000	0
7.8620468E+001	9.040699792261876E+001	-1.0253676E+000	-1.304199381993735E+001	1.3372838E-002	-1.0254854E+000	0
7.6584946E+001	9.060719791756128E+001	-1.0273390E+000	-1.341437191005599E+001	1.3781107E-002	-1.0274870E+000	0
7.4600578E+001	9.080739791250380E+001	-1.0293584E+000	-1.379826351723159E+001	1.4203358E-002	-1.0294894E+000	0
7.2684288E+001	9.100739790745138E+001	-1.0313723E+000	-1.418975532406314E+001	1.4634920E-002	-1.0314894E+000	0
7.0810249E+001	9.120739790239895E+001	-1.0333619E+000	-1.459339489201574E+001	1.5080258E-002	-1.0334893E+000	0
6.8922562E+001	9.140739789734653E+001	-1.0353568E+000	-1.502202952583906E+001	1.5553160E-002	-1.0354893E+000	0
6.7173119E+001	9.160739789229410E+001	-1.0373976E+000	-1.544364296781771E+001	1.6021198E-002	-1.0374893E+000	0
6.5428787E+001	9.180739788724168E+001	-1.0393552E+000	-1.588528860128923E+001	1.6510457E-002	-1.0394894E+000	0
6.3824902E+001	9.200749788218673E+001	-1.0413997E+000	-1.631651116370002E+001	1.6992010E-002	-1.0414902E+000	0
6.2195530E+001	9.220759787713178E+001	-1.0434084E+000	-1.677625972789423E+001	1.7504491E-002	-1.0434914E+000	0
6.0595959E+001	9.240769787207682E+001	-1.0453731E+000	-1.725153166068002E+001	1.8034287E-002	-1.0454922E+000	0
5.9029423E+001	9.260779786702187E+001	-1.0474316E+000	-1.774422856077311E+001	1.8585866E-002	-1.0474933E+000	0
5.7603397E+001	9.280779786196945E+001	-1.0493798E+000	-1.821732584013694E+001	1.9116893E-002	-1.0494934E+000	0
5.6195858E+001	9.300789785691450E+001	-1.0514296E+000	-1.871009067560643E+001	1.9672344E-002	-1.0514942E+000	0
5.4929161E+001	9.320819785185449E+001	-1.0534178E+000	-1.917775192982396E+001	2.0202186E-002	-1.0534968E+000	0
5.3539146E+001	9.340839784679702E+001	-1.0554256E+000	-1.971315807387953E+001	2.0805772E-002	-1.0554993E+000	0
5.2205868E+001	9.360849784174206E+001	-1.0573970E+000	-2.025437134571283E+001	2.1416912E-002	-1.0575001E+000	0
5.0932522E+001	9.380859783668711E+001	-1.0593592E+000	-2.079926885471866E+001	2.2033896E-002	-1.0595014E+000	0
4.9706165E+001	9.400869783163216E+001	-1.0614699E+000	-2.135489398247648E+001	2.2667577E-002	-1.0615022E+000	0
4.8502045E+001	9.420889782657468E+001	-1.0634408E+000	-2.192568947952789E+001	2.3316672E-002	-1.0635042E+000	0
4.7317837E+001	9.440909782151721E+001	-1.0654452E+000	-2.251677681396424E+001	2.3990391E-002	-1.0655062E+000	0
4.6199654E+001	9.460919781646226E+001	-1.0674051E+000	-2.310418044858523E+001	2.4661520E-002	-1.0675074E+000	0
4.5091724E+001	9.480929781140730E+001	-1.0694423E+000	-2.371704138272472E+001	2.5364006E-002	-1.0695081E+000	0
4.4021500E+001	9.500949780634983E+001	-1.0714020E+000	-2.433815270492585E+001	2.6075944E-002	-1.0715102E+000	0
4.2933876E+001	9.520969780129235E+001	-1.0734162E+000	-2.500161455620213E+001	2.6837138E-002	-1.0735122E+000	0
4.1820824E+001	9.540989779623487E+001	-1.0754107E+000	-2.571471904361454E+001	2.7653884E-002	-1.0755142E+000	0
4.0705112E+001	9.560999779117992E+001	-1.0774018E+000	-2.646846288185816E+001	2.8517168E-002	-1.0775154E+000	0
3.9663204E+001	9.581019778612244E+001	-1.0794312E+000	-2.721492687621083E+001	2.9376641E-002	-1.0795172E+000	0
3.8659569E+001	9.601029778106749E+001	-1.0814123E+000	-2.797269578094512E+001	3.0250018E-002	-1.0815182E+000	0
3.7661171E+001	9.621039777601254E+001	-1.0833954E+000	-2.876690662772207E+001	3.1165933E-002	-1.0835195E+000	0
3.6708668E+001	9.641059777095506E+001	-1.0854139E+000	-2.956832840371345E+001	3.2093875E-002	-1.0855210E+000	0
3.5748787E+001	9.661089776589506E+001	-1.0874330E+000	-3.041873632079898E+001	3.3078339E-002	-1.0875242E+000	0
3.4760235E+001	9.681109776083758E+001	-1.0894195E+000	-3.134097143486096E+001	3.4143467E-002	-1.0895262E+000	0
3.3795044E+001	9.701129775578011E+001	-1.0914410E+000	-3.229589103501816E+001	3.5249062E-002	-1.0915282E+000	0
3.2861916E+001	9.721139775072515E+001	-1.0934098E+000	-3.327285400458742E+001	3.6380865E-002	-1.0935293E+000	0
3.1955309E+001	9.741139774567273E+001	-1.0954551E+000	-3.428084601215230E+001	3.7553124E-002	-1.0955294E+000	0
3.1061415E+001	9.761139774062030E+001	-1.0974978E+000	-3.533315709659036E+001	3.8778063E-002	-1.0975294E+000	0
3.0198959E+001	9.781159773556283E+001	-1.0994358E+000	-3.640641455462526E+001	4.0026516E-002	-1.0995309E+000	0
2.9436796E+001	9.801179773050535E+001	-1.1014231E+000	-3.741654227136742E+001	4.1211445E-002	-1.1015334E+000	0
2.8670462E+001	9.821179772545293E+001	-1.1033919E+000	-3.848531855288013E+001	4.2464387E-002	-1.1035334E+000	0
2.7870523E+001	9.841199772039545E+001	-1.1054679E+000	-3.966441223314291E+001	4.3847736E-002	-1.1055353E+000	0
2.7158808E+001	9.861219771533797E+001	-1.1074564E+000	-4.077706431715387E+001	4.5158822E-002	-1.1075373E+000	0
2.6462170E+001	9.881229771028302E+001	-1.1094512E+000	-4.192593497585688E+001	4.6514779E-002	-1.1095383E+000	0
2.5829498E+001	9.901249770522554E+001	-1.1114711E+000	-4.303107459798485E+001	4.7827795E-002	-1.1115402E+000	0
2.5217978E+001	9.921269770016806E+001	-1.1135039E+000	-4.415516234598203E+001	4.9166948E-002	-1.1135422E+000	0
2.4605074E+001	9.941279769511311E+001	-1.1154763E+000	-4.533521251099991E+001	5.0570354E-002	-1.1155434E+000	0
2.4020670E+001	9.961309769005311E+001	-1.1174465E+000	-4.652020865514669E+001	5.1983844E-002	-1.1175461E+000	0
2.3411409E+001	9.981329768499563E+001	-1.1194780E+000	-4.781762647463700E+001	5.3530779E-002	-1.1195482E+000	0
2.2872677E+001	1.000133976799407E+002	-1.1214415E+000	-4.902974263367440E+001	5.4983988E-002	-1.1215495E+000	0
2.2349070E+001	1.002133976748883E+002	-1.1234601E+000	-5.026876198785919E+001	5.6474946E-002	-1.1235495E+000	0
2.1857822E+001	1.004133976698358E+002	-1.1254702E+000	-5.149049764587778E+001	5.7951018E-002	-1.1255494E+000	0
2.1359341E+001	1.006134976647809E+002	-1.1274759E+000	-5.278607786346697E+001	5.9515029E-002	-1.1275502E+000	0
2.0883303E+001	1.008135976597259E+002	-1.1294565E+000	-5.408419208461737E+001	6.1085742E-002	-1.1295514E+000	0
2.0463120E+001	1.010135976546735E+002	-1.1314820E+000	-5.529371891054188E+001	6.2563851E-002	-1.1315515E+000	0
2.0020067E+001	1.012135976496211E+002	-1.1334677E+000	-5.661657947369417E+001	6.4173065E-002	-1.1335514E+000	0
1.9615211E+001	1.014135976445687E+002	-1.1354787E+000	-5.788766333521653E+001	6.5730214E-002	-1.1355513E+000	0
1.9187359E+001	1.016135976395162E+002	-1.1374985E+000	-5.928374696372612E+001	6.7435175E-002	-1.1375513E+000	0
1.8807144E+001	1.018136976344613E+002	-1.1394916E+000	-6.058822835550495E+001	6.9039777E-002	-1.1395522E+000	0
1.8399538E+001	1.020138976294038E+002	-1.1415116E+000	-6.204022929292523E+001	7.0819639E-002	-1.1415541E+000	0
1.8007055E+001	1.022140976243463E+002	-1.1435102E+000	-6.350345319155753E+001	7.2616845E-002	-1.1435562E+000	0
1.7656841E+001	1.024142976192888E+002	-1.1455426E+000	-6.487811400425733E+001	7.4320644E-002	-1.1455584E+000	0
1.7286425E+001	1.026145976142288E+002	-1.1474893E+000	-6.638095293708602E+001	7.6171435E-002	-1.1475610E+000	0
1.6891808E+001	1.028148976091688E+002	-1.1495640E+000	-6.805452678604246E+001	7.8233033E-002	-1.1495641E+000	0
1.6544191E+001	1.030151976041088E+002	-1.1515253E+000	-6.960299505605735E+001	8.0149606E-002	-1.1515669E+000	0
1.6205549E+001	1.032154975990488E+002	-1.1535437E+000	-7.118201528342559E+001	8.2111567E-002	-1.1535702E+000	0
1.5869866E+001	1.034156975939914E+002	-1.1555544E+000	-7.281437534872623E+001	8.4140971E-002	-1.1555722E+000	0
1.5521162E+001	1.036157975889364E+002	-1.1575588E+000	-7.457938919856701E+001	8.6330026E-002	-1.1575733E+000	0
1.5221324E+001	1.038157975838840E+002	-1.1595646E+000	-7.618027355989864E+001	8.8335946E-002	-1.1595734E+000	0
1.4914351E+001	1.040157975788316E+002	-1.1615741E+000	-7.788298175772866E+001	9.0466857E-002	-1.1615734E+000	0
1.4636083E+001	1.042157975737791E+002	-1.1635503E+000	-7.949874857169401E+001	9.2500791E-002	-1.1635734E+000	0
1.4262655E+001	1.044157975687267E+002	-1.1655623E+000	-8.172126605072799E+001	9.5251225E-002	-1.1655735E+000	0
1.3997071E+001	1.046158975636718E+002	-1.1675750E+000	-8.341566633038497E+001	9.7394049E-002	-1.1675743E+000	0
1.3724293E+001	1.048159975586168E+002	-1.1696028E+000	-8.522134913500759E+001	9.9675126E-002	-1.1695753E+000	0
1.3443455E+001	1.050160975535618E+002	-1.1715925E+000	-8.714966029239122E+001	1.0210389E-001	-1.1715761E+000	0
1.3198618E+001	1.052162975485044E+002	-1.1736075E+000	-8.891896600399036E+001	1.0435596E-001	-1.1735781E+000	0
1.2983849E+001	1.054165975434444E+002	-1.1755776E+000	-9.054153786002303E+001	1.0643861E-001	-1.1755809E+000	0
1.2743317E+001	1.056167975383869E+002	-1.1775851E+000	-9.240805699765815E+001	1.0881835E-001	-1.1775835E+000	0
1.2493902E+001	1.058168975333319E+002	-1.1795787E+000	-9.441234883113816E+001	1.1136679E-001	-1.1795841E+000	0
1.2212907E+001	1.060170975282745E+002	-1.1815554E+000	-9.674644795159952E+001	1.1431129E-001	-1.1815861E+000	0
1.1952170E+001	1.062172975232170E+002	-1.1835706E+000	-9.902558117046532E+001	1.1720377E-001	-1.1835881E+000	0
1.1769394E+001	1.064173975181620E+002	-1.1855654E+000	-1.007329127556072E+002	1.1942545E-001	-1.1855894E+000	0
1.1519105E+001	1.066174975131071E+002	-1.1875620E+000	-1.030949874648925E+002	1.2243169E-001	-1.1875902E+000	0
1.1312542E+001	1.068176975080496E+002	-1.1895577E+000	-1.051538826925453E+002	1.2508661E-001	-1.1895922E+000	0
1.1169522E+001	1.070179975029896E+002	-1.1916120E+000	-1.066842378219603E+002	1.2712622E-001	-1.1915948E+000	0
1.0950540E+001	1.072281974976795E+002	-1.1937057E+000	-1.090088439172629E+002	1.3012448E-001	-1.1936975E+000	0
1.0673862E+001	1.074382974923719E+002	-1.1957611E+000	-1.120270349696088E+002	1.3395756E-001	-1.1957982E+000	0
1.0424452E+001	1.076383974873170E+002	-1.1977817E+000	-1.149011650928830E+002	1.3762651E-001	-1.1977994E+000	0
1.0224045E+001	1.078383974822646E+002	-1.1997511E+000	-1.173460396325510E+002	1.4078605E-001	-1.1997994E+000	0
1.0089301E+001	1.080383974772121E+002	-1.2018030E+000	-1.191165738743716E+002	1.4315465E-001	-1.2017995E+000	0
9.9431877E+000	1.082383974721597E+002	-1.2037717E+000	-1.210649726947691E+002	1.4573459E-001	-1.2037995E+000	0
9.7911329E+000	1.084383974671073E+002	-1.2057635E+000	-1.231485110756487E+002	1.4848797E-001	-1.2057993E+000	0
9.6177635E+000	1.086383974620549E+002	-1.2077738E+000	-1.255774051272679E+002	1.5166910E-001	-1.2077993E+000	0
9.4765320E+000	1.088384974569999E+002	-1.2097273E+000	-1.276550568931225E+002	1.5442781E-001	-1.2098002E+000	0
9.3658743E+000	1.090385974519450E+002	-1.2117870E+000	-1.293832228167527E+002	1.5678491E-001	-1.2118014E+000	0
9.1508636E+000	1.092386974468900E+002	-1.2137953E+000	-1.326427053230505E+002	1.6100109E-001	-1.2138022E+000	0
8.9558640E+000	1.094387974418351E+002	-1.2157578E+000	-1.357499226215467E+002	1.6503903E-001	-1.2158034E+000	0
8.8218527E+000	1.096387974367826E+002	-1.2178195E+000	-1.380457756157093E+002	1.6811483E-001	-1.2178034E+000	0
8.7586622E+000	1.098387974317302E+002	-1.2197936E+000	-1.392671084263427E+002	1.6987713E-001	-1.2198033E+000	0
8.5784149E+000	1.100387974266778E+002	-1.2217803E+000	-1.424249554891427E+002	1.7401201E-001	-1.2218034E+000	0
8.4248152E+000	1.102388974216228E+002	-1.2237800E+000	-1.452589761817471E+002	1.7776504E-001	-1.2238042E+000	0
8.3134499E+000	1.104389974165679E+002	-1.2257503E+000	-1.474418358759542E+002	1.8072689E-001	-1.2258054E+000	0
8.1852102E+000	1.106390974115129E+002	-1.2277793E+000	-1.499997206617677E+002	1.8416655E-001	-1.2278062E+000	0
8.1288862E+000	1.108393974064529E+002	-1.2297552E+000	-1.512821163123392E+002	1.8603997E-001	-1.2298090E+000	0
8.0118246E+000	1.110396974013929E+002	-1.2317767E+000	-1.537448388676412E+002	1.8937932E-001	-1.2318124E+000	0
7.7731767E+000	1.112398973963354E+002	-1.2338187E+000	-1.587277212275647E+002	1.9584122E-001	-1.2338142E+000	0
7.7187872E+000	1.114400973912780E+002	-1.2357842E+000	-1.601008180119075E+002	1.9785006E-001	-1.2358162E+000	0
7.6136699E+000	1.116401973862230E+002	-1.2378130E+000	-1.625777096467216E+002	2.0124081E-001	-1.2378174E+000	0
7.4692578E+000	1.118401973811706E+002	-1.2397544E+000	-1.659809408804186E+002	2.0577560E-001	-1.2398174E+000	0
7.4521379E+000	1.120402973761156E+002	-1.2417746E+000	-1.666333329398558E+002	2.0692103E-001	-1.2418182E+000	0
7.3960128E+000	1.122403973710607E+002	-1.2438078E+000	-1.681727441454690E+002	2.0917457E-001	-1.2438195E+000	0
7.2471752E+000	1.124404973660057E+002	-1.2457753E+000	-1.718980531382733E+002	2.1414636E-001	-1.2458202E+000	0
7.1050887E+000	1.126407973609457E+002	-1.2478604E+000	-1.756291160545029E+002	2.1916063E-001	-1.2478230E+000	0
6.9708915E+000	1.128413973558781E+002	-1.2498128E+000	-1.792902460560736E+002	2.2407925E-001	-1.2498288E+000	0
6.9327073E+000	1.130415973508207E+002	-1.2518225E+000	-1.805676221025788E+002	2.2603860E-001	-1.2518314E+000	0
6.8762264E+000	1.132415973457682E+002	-1.2538133E+000	-1.823403143136679E+002	2.2862071E-001	-1.2538314E+000	0
6.7445550E+000	1.134416973407133E+002	-1.2558205E+000	-1.861976869367509E+002	2.3383087E-001	-1.2558323E+000	0
6.6763654E+000	1.136418973356558E+002	-1.2578079E+000	-1.883970921584582E+002	2.3696734E-001	-1.2578343E+000	0
6.5551319E+000	1.138420973305983E+002	-1.2598243E+000	-1.921890019090506E+002	2.4212436E-001	-1.2598362E+000	0
6.4739065E+000	1.140422973255409E+002	-1.2617998E+000	-1.949054764214934E+002	2.4593170E-001	-1.2618382E+000	0
6.3786383E+000	1.142424973204834E+002	-1.2638109E+000	-1.981317674329039E+002	2.5040108E-001	-1.2638402E+000	0
6.2783647E+000	1.144425973154284E+002	-1.2658597E+000	-2.016225188908384E+002	2.5522584E-001	-1.2658414E+000	0
6.2083330E+000	1.146427973103710E+002	-1.2678767E+000	-2.042217717844988E+002	2.5892803E-001	-1.2678434E+000	0
6.1535630E+000	1.148429973053135E+002	-1.2698421E+000	-2.063588472684655E+002	2.6204315E-001	-1.2698452E+000	0
6.0721087E+000	1.150429973002611E+002	-1.2718163E+000	-2.094521597302137E+002	2.6638466E-001	-1.2718456E+000	0
5.9527464E+000	1.152430972952061E+002	-1.2738717E+000	-2.139973073585988E+002	2.7260509E-001	-1.2738461E+000	0
5.8795524E+000	1.154432972901486E+002	-1.2758952E+000	-2.170054982129304E+002	2.7687627E-001	-1.2758482E+000	0
5.8454995E+000	1.156434972850911E+002	-1.2778420E+000	-2.186027122586488E+002	2.7933973E-001	-1.2778502E+000	0
5.7859221E+000	1.158436972800337E+002	-1.2798469E+000	-2.212001693287339E+002	2.8310236E-001	-1.2798523E+000	0
5.6781874E+000	1.160438972749762E+002	-1.2818866E+000	-2.257563068469708E+002	2.8939399E-001	-1.2818543E+000	0
5.6464453E+000	1.162439972699212E+002	-1.2838145E+000	-2.273668685381101E+002	2.9189688E-001	-1.2838553E+000	0
5.5973864E+000	1.164440972648663E+002	-1.2858301E+000	-2.297197363778678E+002	2.9538056E-001	-1.2858562E+000	0
5.4968848E+000	1.166442972598088E+002	-1.2878845E+000	-2.342935094909271E+002	3.0174297E-001	-1.2878581E+000	0
5.4442267E+000	1.168445972547488E+002	-1.2898833E+000	-2.369267968543418E+002	3.0560791E-001	-1.2898610E+000	0
5.3046303E+000	1.170447972496913E+002	-1.2919009E+000	-2.435421113838142E+002	3.1463227E-001	-1.2918634E+000	0
5.2288647E+000	1.172450972446313E+002	-1.2939013E+000	-2.474535913760983E+002	3.2018054E-001	-1.2938657E+000	0
5.2260690E+000	1.174453972395713E+002	-1.2959027E+000	-2.479689384728604E+002	3.2134363E-001	-1.2958694E+000	0
5.1473470E+000	1.176456972345113E+002	-1.2978868E+000	-2.521467684857248E+002	3.2725796E-001	-1.2978716E+000	0
5.0810084E+000	1.178460972294488E+002	-1.2998716E+000	-2.558294351178486E+002	3.3254540E-001	-1.2998761E+000	0
5.0664587E+000	1.180462972243913E+002	-1.3019280E+000	-2.569700417482190E+002	3.3455649E-001	-1.3018781E+000	0
5.0067406E+000	1.182464972193338E+002	-1.3038653E+000	-2.604219925945740E+002	3.3955520E-001	-1.3038801E+000	0
4.9718814E+000	1.184465972142789E+002	-1.3059093E+000	-2.626589698553628E+002	3.4300879E-001	-1.3058814E+000	0
4.9417143E+000	1.186466972092239E+002	-1.3079127E+000	-2.646678115911013E+002	3.4616241E-001	-1.3078822E+000	0
4.8821392E+000	1.188467972041690E+002	-1.3099132E+000	-2.683072161793420E+002	3.5145915E-001	-1.3098835E+000	0
4.8697762E+000	1.190471971991064E+002	-1.3118925E+000	-2.693948260347452E+002	3.5341707E-001	-1.3118868E+000	0
4.7853098E+000	1.192473971940490E+002	-1.3139377E+000	-2.745773383484407E+002	3.6077750E-001	-1.3138893E+000	0
4.7540488E+000	1.194474971889940E+002	-1.3159322E+000	-2.768023968814947E+002	3.6425316E-001	-1.3158902E+000	0
4.6264238E+000	1.196477971839340E+002	-1.3179392E+000	-2.848721082988436E+002	3.7544411E-001	-1.3178929E+000	0
4.5175858E+000	1.198282971793742E+002	-1.3197660E+000	-2.921396747957633E+002	3.8555601E-001	-1.3196975E+000	0
4.5647035E+000	1.199986971750695E+002	-1.3214288E+000	-2.894884101051148E+002	3.8253832E-001	-1.3214018E+000	0
4.5575266E+000	1.201592971710124E+002	-1.3230402E+000	-2.902978603355887E+002	3.8407576E-001	-1.3230075E+000	0
4.5570068E+000	1.202995971674682E+002	-1.3244677E+000	-2.906442229911372E+002	3.8494888E-001	-1.3244108E+000	0
4.5078278E+000	1.204299971641740E+002	-1.3257866E+000	-2.941076568427161E+002	3.8992399E-001	-1.3257147E+000	0
4.4720626E+000	1.205607971608697E+002	-1.3270807E+000	-2.967491263339198E+002	3.9381003E-001	-1.3270223E+000	0
4.4026475E+000	1.207213971568126E+002	-1.3286650E+000	-3.017877350740928E+002	4.0097481E-001	-1.3286285E+000	0
4.3644533E+000	1.208323971540085E+002	-1.3297902E+000	-3.046865507824909E+002	4.0516919E-001	-1.3297386E+000	0
4.3658080E+000	1.208741971529525E+002	-1.3302021E+000	-3.046863505027441E+002	4.0529442E-001	-1.3301553E+000	0
4.2623343E+000	1.209854971501409E+002	-1.3313102E+000	-3.123429523440318E+002	4.1582534E-001	-1.3312695E+000	0
4.2377057E+000	1.211460971460838E+002	-1.3329498E+000	-3.145451288799886E+002	4.1927284E-001	-1.3328754E+000	0
4.2739186E+000	1.213066971420267E+002	-1.3345751E+000	-3.122602984714213E+002	4.1673481E-001	-1.3344817E+000	0
4.3182178E+000	1.214468971384849E+002	-1.3359513E+000	-3.093756270056520E+002	4.1331077E-001	-1.3358835E+000	0
4.3113918E+000	1.215973971346830E+002	-1.3374323E+000	-3.102089416123690E+002	4.1488343E-001	-1.3373886E+000	0
4.2659454E+000	1.217379971311311E+002	-1.3388699E+000	-3.138507077463249E+002	4.2020527E-001	-1.3387940E+000	0
4.2325473E+000	1.218784971275818E+002	-1.3402671E+000	-3.166573107853524E+002	4.2440537E-001	-1.3401995E+000	0
4.1540942E+000	1.220289971237798E+002	-1.3417577E+000	-3.229964277078054E+002	4.3338293E-001	-1.3417042E+000	0
4.0991931E+000	1.221398971209783E+002	-1.3428124E+000	-3.275796889168741E+002	4.3987808E-001	-1.3428130E+000	0
4.1121426E+000	1.222703971176816E+002	-1.3441811E+000	-3.268809609039208E+002	4.3938720E-001	-1.3441184E+000	0
4.1218495E+000	1.224107971141348E+002	-1.3455807E+000	-3.264507017862888E+002	4.3926576E-001	-1.3455222E+000	0
4.0993066E+000	1.225510971105905E+002	-1.3470019E+000	-3.285926325166120E+002	4.4261491E-001	-1.3469257E+000	0
4.0299959E+000	1.226815971072938E+002	-1.3483263E+000	-3.345726305680062E+002	4.5111308E-001	-1.3482305E+000	0
4.0394735E+000	1.228221971037419E+002	-1.3496647E+000	-3.341189534167515E+002	4.5094857E-001	-1.3496364E+000	0
4.0496440E+000	1.229529971004376E+002	-1.3509881E+000	-3.336066624901171E+002	4.5069864E-001	-1.3509439E+000	0
4.0468302E+000	1.230735970973910E+002	-1.3522333E+000	-3.341463093734283E+002	4.5184377E-001	-1.3521502E+000	0
3.9931581E+000	1.231942970943419E+002	-1.3534352E+000	-3.389385343839519E+002	4.5873132E-001	-1.3533570E+000	0
3.8981433E+000	1.233648970900322E+002	-1.3551545E+000	-3.476410240495431E+002	4.7110730E-001	-1.3550637E+000	0
3.9156199E+000	1.235355970857199E+002	-1.3568226E+000	-3.465153977638056E+002	4.7015992E-001	-1.3567704E+000	0
3.9180946E+000	1.236660970824232E+002	-1.3581426E+000	-3.466334399578664E+002	4.7077766E-001	-1.3580754E+000	0
3.9360127E+000	1.238066970788714E+002	-1.3595308E+000	-3.454081264148508E+002	4.6959299E-001	-1.3594809E+000	0
3.9188044E+000	1.239172970760774E+002	-1.3606664E+000	-3.472146746930312E+002	4.7244334E-001	-1.3605877E+000	0
3.8773861E+000	1.240478970727781E+002	-1.3619636E+000	-3.512582020303489E+002	4.7840089E-001	-1.3618931E+000	0
3.8212769E+000	1.241787970694713E+002	-1.3632814E+000	-3.567606892132362E+002	4.8636520E-001	-1.3632023E+000	0
3.7886972E+000	1.243493970651616E+002	-1.3650242E+000	-3.602885408457075E+002	4.9180257E-001	-1.3649082E+000	0
3.7118378E+000	1.244899970616098E+002	-1.3664247E+000	-3.681261756625645E+002	5.0301671E-001	-1.3663141E+000	0
3.6446648E+000	1.246007970588107E+002	-1.3675027E+000	-3.752067061348343E+002	5.1309615E-001	-1.3674220E+000	0
3.6288359E+000	1.247216970557565E+002	-1.3687081E+000	-3.771755478982377E+002	5.1624322E-001	-1.3686309E+000	0
3.6578159E+000	1.248624970521996E+002	-1.3701621E+000	-3.745847572954190E+002	5.1324183E-001	-1.3700395E+000	0
3.6161480E+000	1.250028970486528E+002	-1.3715148E+000	-3.792750847741659E+002	5.2018142E-001	-1.3714433E+000	0
3.5493624E+000	1.251334970453536E+002	-1.3728496E+000	-3.867876496820736E+002	5.3100127E-001	-1.3727497E+000	0
3.5858114E+000	1.252837970415567E+002	-1.3743513E+000	-3.832748387392694E+002	5.2675426E-001	-1.3742523E+000	0
3.6012940E+000	1.254143970382574E+002	-1.3756779E+000	-3.819954412550260E+002	5.2550268E-001	-1.3755584E+000	0
3.6118171E+000	1.255452970349506E+002	-1.3769598E+000	-3.812374057539273E+002	5.2494860E-001	-1.3768668E+000	0
3.6519754E+000	1.256663970318914E+002	-1.3781780E+000	-3.773787805427646E+002	5.2009511E-001	-1.3780777E+000	0
3.6141877E+000	1.257971970285871E+002	-1.3794591E+000	-3.816788885064093E+002	5.2651042E-001	-1.3793865E+000	0
3.5550406E+000	1.259577970245300E+002	-1.3810344E+000	-3.884721785445126E+002	5.3649342E-001	-1.3809925E+000	0
3.5781913E+000	1.260586970219811E+002	-1.3821412E+000	-3.862681164462556E+002	5.3387707E-001	-1.3820008E+000	0
3.5682104E+000	1.261197970204375E+002	-1.3826584E+000	-3.874934996075624E+002	5.3577113E-001	-1.3826126E+000	0
3.5594919E+000	1.262503970171383E+002	-1.3839762E+000	-3.888128664444994E+002	5.3810775E-001	-1.3839190E+000	0
3.5524726E+000	1.264007970133389E+002	-1.3854938E+000	-3.900082813252384E+002	5.4035401E-001	-1.3854220E+000	0
3.5543809E+000	1.264720970115377E+002	-1.3862174E+000	-3.900024820963536E+002	5.4062819E-001	-1.3861344E+000	0
3.5547688E+000	1.264740970114872E+002	-1.3862389E+000	-3.899660019212298E+002	5.4058605E-001	-1.3861544E+000	0
3.5540721E+000	1.265154970104413E+002	-1.3866603E+000	-3.901610096890155E+002	5.4102081E-001	-1.3865690E+000	0
3.5514030E+000	1.266359970073972E+002	-1.3878706E+000	-3.907950050430900E+002	5.4237288E-001	-1.3877749E+000	0
3.4718645E+000	1.268064970030900E+002	-1.3895668E+000	-4.002364768179436E+002	5.5615532E-001	-1.3894792E+000	0
3.4173408E+000	1.269569969992881E+002	-1.3911256E+000	-4.070783746524075E+002	5.6629711E-001	-1.3909844E+000	0
3.4628985E+000	1.270876969959863E+002	-1.3923317E+000	-4.020711808677324E+002	5.5981648E-001	-1.3922906E+000	0
3.4106643E+000	1.272185969926795E+002	-1.3937389E+000	-4.086414701331651E+002	5.6953949E-001	-1.3936005E+000	0
3.3529723E+000	1.273592969891251E+002	-1.3950790E+000	-4.160723278331109E+002	5.8045375E-001	-1.3950073E+000	0
3.3383961E+000	1.274900969858209E+002	-1.3964376E+000	-4.182959863942485E+002	5.8412427E-001	-1.3963153E+000	0
3.3102577E+000	1.276308969822639E+002	-1.3978673E+000	-4.222835278635539E+002	5.9029633E-001	-1.3977236E+000	0
3.2680783E+000	1.277913969782094E+002	-1.3994614E+000	-4.282214870619091E+002	5.9927946E-001	-1.3993287E+000	0
3.2894289E+000	1.279517969741573E+002	-1.4010365E+000	-4.259208999734551E+002	5.9673071E-001	-1.4009327E+000	0
3.2742383E+000	1.280823969708581E+002	-1.4023861E+000	-4.283090964577405E+002	6.0065472E-001	-1.4022379E+000	0
3.2340150E+000	1.282127969675639E+002	-1.4036696E+000	-4.340331222374252E+002	6.0923910E-001	-1.4035424E+000	0
3.2725194E+000	1.283432969642672E+002	-1.4050143E+000	-4.293372029434959E+002	6.0322487E-001	-1.4048471E+000	0
3.3174331E+000	1.284740969609629E+002	-1.4063293E+000	-4.239209148082628E+002	5.9617239E-001	-1.4061549E+000	0
3.3294046E+000	1.285948969579113E+002	-1.4074761E+000	-4.227410744365770E+002	5.9499794E-001	-1.4073627E+000	0
3.3259776E+000	1.286958969553598E+002	-1.4085342E+000	-4.234947783009220E+002	5.9650689E-001	-1.4083731E+000	0
3.2594409E+000	1.288362969518130E+002	-1.4099029E+000	-4.325597341062276E+002	6.0986722E-001	-1.4097774E+000	0
3.2299116E+000	1.289668969485138E+002	-1.4112345E+000	-4.369266825396844E+002	6.1660600E-001	-1.4110837E+000	0
3.1851664E+000	1.291170969447194E+002	-1.4127190E+000	-4.435306751745725E+002	6.2658423E-001	-1.4125857E+000	0
3.1820450E+000	1.292377969416702E+002	-1.4139252E+000	-4.443448027597988E+002	6.2827033E-001	-1.4137920E+000	0
3.1766975E+000	1.293384969391263E+002	-1.4149109E+000	-4.454031046808880E+002	6.3020569E-001	-1.4147996E+000	0
3.2002006E+000	1.294687969358347E+002	-1.4162421E+000	-4.425479398990303E+002	6.2675506E-001	-1.4161021E+000	0
3.1876395E+000	1.296193969320302E+002	-1.4177421E+000	-4.447624005196967E+002	6.3055837E-001	-1.4176083E+000	0
3.1456032E+000	1.297700969282232E+002	-1.4192435E+000	-4.511832367681827E+002	6.4033884E-001	-1.4191152E+000	0
3.1244018E+000	1.298907969251741E+002	-1.4204926E+000	-4.546446824339300E+002	6.4581943E-001	-1.4203223E+000	0
3.0680659E+000	1.300209969218849E+002	-1.4217330E+000	-4.633971489184792E+002	6.5882701E-001	-1.4216241E+000	0
3.0291374E+000	1.301514969185882E+002	-1.4230845E+000	-4.697986070945312E+002	6.6856313E-001	-1.4229292E+000	0
3.0515492E+000	1.302822969152840E+002	-1.4243597E+000	-4.667660827556913E+002	6.6484278E-001	-1.4242374E+000	0
3.0796928E+000	1.303932969124799E+002	-1.4254891E+000	-4.628672890395801E+002	6.5981227E-001	-1.4253473E+000	0
3.0783021E+000	1.305336969089331E+002	-1.4268844E+000	-4.635296735058300E+002	6.6140324E-001	-1.4267515E+000	0
3.0510941E+000	1.306744969053761E+002	-1.4283283E+000	-4.681364460716159E+002	6.6865253E-001	-1.4281595E+000	0
3.0590596E+000	1.308449969010690E+002	-1.4300092E+000	-4.674669308875109E+002	6.6848201E-001	-1.4298645E+000	0
3.0446961E+000	1.309954968972670E+002	-1.4314529E+000	-4.701463723058832E+002	6.7299235E-001	-1.4313695E+000	0
2.9325483E+000	1.311160968942204E+002	-1.4327178E+000	-4.885572676687498E+002	6.9996470E-001	-1.4325756E+000	0
2.8612816E+000	1.312365968911763E+002	-1.4339372E+000	-5.011520807186052E+002	7.1862060E-001	-1.4337804E+000	0
2.8714204E+000	1.313472968883798E+002	-1.4350553E+000	-4.997719175109737E+002	7.1720034E-001	-1.4348872E+000	0
2.8817647E+000	1.314679968853306E+002	-1.4362308E+000	-4.983858735813510E+002	7.1579713E-001	-1.4360940E+000	0
2.9117827E+000	1.316086968817763E+002	-1.4376675E+000	-4.937413229314807E+002	7.0983583E-001	-1.4375017E+000	0
2.8980396E+000	1.317097968792223E+002	-1.4386513E+000	-4.964222437966323E+002	7.1417850E-001	-1.4385114E+000	0
2.8874478E+000	1.318010968769158E+002	-1.4395950E+000	-4.985700360221854E+002	7.1773893E-001	-1.4394249E+000	0
2.8941534E+000	1.319517968731088E+002	-1.4410954E+000	-4.979333239579178E+002	7.1756941E-001	-1.4409326E+000	0
2.9320400E+000	1.321223968687991E+002	-1.4427918E+000	-4.920778092535902E+002	7.0996583E-001	-1.4426385E+000	0
2.9667723E+000	1.322727968649997E+002	-1.4442769E+000	-4.868175897417459E+002	7.0309943E-001	-1.4441421E+000	0
2.9685836E+000	1.324036968616929E+002	-1.4456277E+000	-4.869755767840015E+002	7.0398539E-001	-1.4454515E+000	0
2.9231381E+000	1.325145968588913E+002	-1.4467708E+000	-4.949375551448070E+002	7.1606117E-001	-1.4465598E+000	0
2.9095309E+000	1.326550968553420E+002	-1.4481330E+000	-4.977204366924634E+002	7.2076541E-001	-1.4479654E+000	0
2.8513236E+000	1.328353968507872E+002	-1.4498898E+000	-5.084970941132701E+002	7.3726475E-001	-1.4497693E+000	0
2.8794842E+000	1.330353968457348E+002	-1.4519085E+000	-5.042251890057066E+002	7.3208880E-001	-1.4517691E+000	0
2.8073592E+000	1.332353968406824E+002	-1.4539272E+000	-5.178985166830807E+002	7.5298673E-001	-1.4537692E+000	0
2.7860749E+000	1.334353968356299E+002	-1.4559147E+000	-5.225684199949504E+002	7.6081508E-001	-1.4557692E+000	0
2.7860823E+000	1.336353968305775E+002	-1.4579084E+000	-5.232825916964991E+002	7.6289809E-001	-1.4577693E+000	0
2.8152895E+000	1.338353968255251E+002	-1.4599185E+000	-5.185677906045039E+002	7.5706673E-001	-1.4597692E+000	0
2.7903051E+000	1.340353968204727E+002	-1.4619139E+000	-5.239261887176199E+002	7.6593500E-001	-1.4617692E+000	0
2.7413368E+000	1.342353968154202E+002	-1.4639533E+000	-5.340289504728116E+002	7.8179342E-001	-1.4637692E+000	0
2.7088494E+000	1.344353968103678E+002	-1.4659899E+000	-5.411854797804431E+002	7.9337245E-001	-1.4657693E+000	0
2.6477363E+000	1.346353968053154E+002	-1.4679867E+000	-5.544308643470831E+002	8.1389713E-001	-1.4677691E+000	0
2.6920247E+000	1.348353968002630E+002	-1.4699720E+000	-5.460469823910789E+002	8.0267376E-001	-1.4697692E+000	0
2.6496732E+000	1.350353967952105E+002	-1.4719675E+000	-5.555279092680576E+002	8.1771898E-001	-1.4717691E+000	0
2.6009319E+000	1.352353967901581E+002	-1.4739711E+000	-5.667088582521133E+002	8.3531249E-001	-1.4737692E+000	0
2.6526630E+000	1.354353967851057E+002	-1.4759694E+000	-5.564104419241121E+002	8.2124478E-001	-1.4757693E+000	0
2.6587389E+000	1.356353967800533E+002	-1.4779845E+000	-5.558968430343953E+002	8.2160693E-001	-1.4777691E+000	0
2.6604044E+000	1.358353967750008E+002	-1.4799765E+000	-5.562975542150652E+002	8.2330734E-001	-1.4797692E+000	0
2.6277659E+000	1.360353967699484E+002	-1.4819779E+000	-5.639687914426650E+002	8.3578932E-001	-1.4817691E+000	0
2.5989437E+000	1.362353967648960E+002	-1.4839400E+000	-5.709781314131906E+002	8.4729731E-001	-1.4837692E+000	0
2.6245852E+000	1.364353967598436E+002	-1.4859384E+000	-5.661612720230005E+002	8.4128082E-001	-1.4857693E+000	0
2.6302965E+000	1.365453967570647E+002	-1.4868836E+000	-5.652912659937024E+002	8.4052235E-001	-1.4868689E+000	0
2.6273780E+000	1.365521967568930E+002	-1.4871929E+000	-5.660369154986220E+002	8.4180605E-001	-1.4870689E+000	1