EC-Lab ASCII FILE
Nb header lines : 63                          

Linear Sweep Voltammetry

Run on channel : 1 (SN 1340)
User : 
Electrode connection : standard
Potential control : Ewe
Ewe ctrl range : min = -5.00 V, max = 5.00 V
Ewe,I filtering : <None>
Safety Limits :
	Do not start on E overload
Channel : Floating
Acquisition started on : 02/19/2026 12:22:28.083
Technique started on : 02/19/2026 12:22:30.920
Loaded Setting File :  NONE
Saved on :
	File : PtPdCo_2-19_02_LSV_C01.mpr
	Directory : C:\Users\volt\Documents\Platalytix\
	Host : 127.0.0.1
Device : SP-200 (SN 0262)
Address : USB
EC-LAB for windows v11.60 (software)
Internet server v11.60 (firmware)
Command interpretor v11.60 (firmware)
Electrode material : PtPdCo
Initial state : 
Electrolyte : KOH (1 M)
Comments : 
Cable : standard
Reference electrode : Hg/HgO (0.140 V)
Electrode surface area : 1.000 cm˛
Characteristic mass : 0.001 g
Equivalent Weight : 0.000 g/eq.
Density : 0.000 g/cm3
Volume (V) : 0.001 cmł
Cycle Definition : Charge/Discharge alternance
tR (h:m:s)          0:00:5.0000         
dER/dt (mV/h)       0.0                 
dER (mV)            0                   
dtR (s)             0.0000              
dE/dt               10.000              
dE/dt unit          mV/s                
Ei (V)              -0.200              
vs.                 Ref                 
EL (V)              -2.000              
vs.                 Ref                 
record              <I>                 
dI                  0.000               
unit dI             µA                  
tI (s)              0.0000              
step percent        50                  
N                   10                  
E range min (V)     -5.000              
E range max (V)     5.000               
I Range             Auto                
I Range min         Unset               
I Range max         Unset               
I Range init        Unset               
Bandwidth           8                   

Rwe/Ohm	time/s	Ewe/V	<I>/mA	Pwe/W	control/V	error	
0.0000000E+000	2.837400134740165E+000	-1.8947791E-001	0.000000000000000E+000	0.0000000E+000	0.0000000E+000	0
0.0000000E+000	7.837200008434593E+000	-1.2566881E-001	0.000000000000000E+000	0.0000000E+000	-1.9980070E-001	0
4.5361258E+002	8.037200003382168E+000	-2.0141017E-001	4.440136522054672E-001	-8.9428868E-005	-2.0170048E-001	0
1.9161184E+003	8.157200000350713E+000	-2.0276929E-001	1.058229471457057E-001	-2.1457645E-005	-2.0290053E-001	0
7.3389321E+003	8.367199995045667E+000	-2.0482308E-001	2.790911131603926E-002	-5.7164302E-006	-2.0500053E-001	0
2.0593748E+004	8.567199989993242E+000	-2.0686029E-001	1.004481011325975E-002	-2.0778723E-006	-2.0700054E-001	0
1.6767111E+005	8.767199984940817E+000	-2.0887496E-001	1.245742104311385E-003	-2.6020433E-007	-2.0900051E-001	0
4.7784617E+004	8.967199979888392E+000	-2.1085358E-001	-4.412582757977956E-003	9.3040887E-007	-2.1100055E-001	0
2.6418490E+004	9.167199974835967E+000	-2.1288231E-001	-8.058079827630710E-003	1.7154226E-006	-2.1300052E-001	0
1.9382779E+004	9.387199969278299E+000	-2.1508531E-001	-1.109672177414692E-002	2.3867419E-006	-2.1520051E-001	0
1.6795217E+004	9.607199963720632E+000	-2.1731222E-001	-1.293893486820746E-002	2.8117886E-006	-2.1740054E-001	0
1.4973599E+004	9.807199958668207E+000	-2.1926901E-001	-1.464370834441057E-002	3.2109115E-006	-2.1940054E-001	0
1.3813438E+004	1.000719995361578E+001	-2.2128882E-001	-1.601982136576940E-002	3.5450073E-006	-2.2140051E-001	0
1.2934094E+004	1.020719994856336E+001	-2.2325432E-001	-1.726091786946610E-002	3.8535745E-006	-2.2340055E-001	0
1.2257650E+004	1.040719994351093E+001	-2.2525273E-001	-1.837650129081610E-002	4.1393573E-006	-2.2540052E-001	0
1.1776150E+004	1.060719993845851E+001	-2.2724900E-001	-1.929739264276645E-002	4.3853133E-006	-2.2740051E-001	0
1.1390469E+004	1.080719993340608E+001	-2.2927731E-001	-2.012887434076187E-002	4.6150944E-006	-2.2940055E-001	0
1.1064511E+004	1.100719992835366E+001	-2.3128290E-001	-2.090312927117144E-002	4.8345364E-006	-2.3140052E-001	0
1.0800176E+004	1.120719992330123E+001	-2.3325604E-001	-2.159742968496930E-002	5.0377312E-006	-2.3340055E-001	0
1.0562498E+004	1.140719991824881E+001	-2.3522665E-001	-2.226998153670068E-002	5.2384930E-006	-2.3540053E-001	0
1.0389143E+004	1.160719991319638E+001	-2.3728551E-001	-2.283975807910305E-002	5.4195434E-006	-2.3740053E-001	0
1.0234957E+004	1.180719990814396E+001	-2.3922829E-001	-2.337364791765756E-002	5.5916380E-006	-2.3940052E-001	0
1.0127652E+004	1.200719990309153E+001	-2.4125002E-001	-2.382092237435052E-002	5.7467983E-006	-2.4140052E-001	0
9.9930186E+003	1.220719989803911E+001	-2.4330828E-001	-2.434782472071109E-002	5.9240274E-006	-2.4340053E-001	0
9.8868271E+003	1.240719989298668E+001	-2.4526784E-001	-2.480753787525014E-002	6.0844914E-006	-2.4540052E-001	0
9.7996104E+003	1.260719988793426E+001	-2.4722841E-001	-2.522839113220976E-002	6.2371751E-006	-2.4740054E-001	0
9.7419863E+003	1.280719988288183E+001	-2.4927668E-001	-2.558786950344441E-002	6.3784591E-006	-2.4940053E-001	0
9.6779980E+003	1.300719987782941E+001	-2.5128570E-001	-2.596463719245623E-002	6.5245422E-006	-2.5140053E-001	0
9.6196445E+003	1.320719987277698E+001	-2.5322232E-001	-2.632345750932164E-002	6.6656867E-006	-2.5340053E-001	0
9.5756934E+003	1.340719986772456E+001	-2.5527060E-001	-2.665818353656618E-002	6.8050504E-006	-2.5540054E-001	0
9.5222656E+003	1.360719986267213E+001	-2.5726831E-001	-2.701755116436039E-002	6.9507596E-006	-2.5740054E-001	0
9.5029287E+003	1.380719985761971E+001	-2.5925738E-001	-2.728183856503197E-002	7.0730180E-006	-2.5940055E-001	0
9.4724004E+003	1.400719985256728E+001	-2.6128337E-001	-2.758365013697883E-002	7.2071489E-006	-2.6140055E-001	0
9.4431670E+003	1.420719984751486E+001	-2.6328006E-001	-2.788048466934681E-002	7.3403758E-006	-2.6340052E-001	0
9.4377871E+003	1.440719984246243E+001	-2.6522663E-001	-2.810263071529132E-002	7.4535660E-006	-2.6540053E-001	0
9.4353857E+003	1.460719983741001E+001	-2.6726496E-001	-2.832581126949454E-002	7.5704970E-006	-2.6740053E-001	0
9.4025693E+003	1.480719983235758E+001	-2.6921010E-001	-2.863154632816528E-002	7.7079012E-006	-2.6940051E-001	0
9.3986299E+003	1.500719982730516E+001	-2.7124369E-001	-2.885991976968100E-002	7.8280709E-006	-2.7140054E-001	0
9.3854912E+003	1.520719982225273E+001	-2.7333778E-001	-2.912343948258000E-002	7.9605361E-006	-2.7340055E-001	0
9.3916533E+003	1.540719981720031E+001	-2.7525234E-001	-2.930818931115142E-002	8.0671480E-006	-2.7540055E-001	0
9.3942793E+003	1.560719981214788E+001	-2.7723888E-001	-2.951145840385327E-002	8.1817234E-006	-2.7740052E-001	0
9.3830693E+003	1.580719980709546E+001	-2.7922091E-001	-2.975794934544096E-002	8.3090417E-006	-2.7940053E-001	0
9.3714063E+003	1.600719980204303E+001	-2.8127533E-001	-3.001420867081339E-002	8.4422563E-006	-2.8140053E-001	0
9.3728848E+003	1.620719979699061E+001	-2.8320706E-001	-3.021556929718966E-002	8.5572628E-006	-2.8340054E-001	0
9.3826494E+003	1.640719979193818E+001	-2.8524217E-001	-3.040102516172154E-002	8.6716545E-006	-2.8540051E-001	0
9.3922168E+003	1.660719978688576E+001	-2.8728744E-001	-3.058781972537233E-002	8.7874969E-006	-2.8740051E-001	0
9.3761494E+003	1.680719978183333E+001	-2.8921899E-001	-3.084624335861416E-002	8.9213190E-006	-2.8940052E-001	0
9.3989795E+003	1.700719977678091E+001	-2.9126471E-001	-3.098897194720013E-002	9.0259937E-006	-2.9140052E-001	0
9.4211260E+003	1.720719977172848E+001	-2.9326138E-001	-3.112806123311807E-002	9.1286583E-006	-2.9340053E-001	0
9.4389072E+003	1.740719976667606E+001	-2.9521355E-001	-3.127624203114143E-002	9.2331702E-006	-2.9540056E-001	0
9.4162236E+003	1.760719976162363E+001	-2.9719558E-001	-3.156207772969655E-002	9.3801100E-006	-2.9740050E-001	0
9.4157891E+003	1.780719975657121E+001	-2.9920414E-001	-3.177685403241826E-002	9.5077667E-006	-2.9940054E-001	0
9.4398916E+003	1.800719975151878E+001	-3.0125603E-001	-3.191308265149614E-002	9.6140084E-006	-3.0140054E-001	0
9.4327197E+003	1.820719974646636E+001	-3.0321112E-001	-3.214461360017972E-002	9.7466045E-006	-3.0340055E-001	0
9.4370957E+003	1.840719974141393E+001	-3.0527997E-001	-3.234893080800577E-002	9.8754808E-006	-3.0540052E-001	0
9.4367119E+003	1.860719973636151E+001	-3.0725121E-001	-3.255913868285670E-002	1.0003835E-005	-3.0740052E-001	0
9.4615654E+003	1.880719973130908E+001	-3.0931768E-001	-3.269202002670513E-002	1.0112220E-005	-3.0940053E-001	0
9.4475928E+003	1.900719972625666E+001	-3.1123313E-001	-3.294311587903620E-002	1.0252989E-005	-3.1140053E-001	0
9.4392910E+003	1.920719972120423E+001	-3.1320837E-001	-3.318134665699310E-002	1.0392676E-005	-3.1340054E-001	0
9.4563320E+003	1.940719971615181E+001	-3.1527108E-001	-3.333967912925279E-002	1.0511037E-005	-3.1540054E-001	0
9.4710186E+003	1.960719971109938E+001	-3.1728342E-001	-3.350045247179767E-002	1.0629138E-005	-3.1740054E-001	0
9.4483799E+003	1.980719970604696E+001	-3.1921074E-001	-3.378470566349684E-002	1.0784441E-005	-3.1940055E-001	0
9.4482803E+003	2.000719970099453E+001	-3.2121825E-001	-3.399753514751203E-002	1.0920628E-005	-3.2140052E-001	0
9.4449072E+003	2.020719969594211E+001	-3.2325718E-001	-3.422555246109532E-002	1.1063656E-005	-3.2340053E-001	0
9.4550654E+003	2.040719969088968E+001	-3.2523182E-001	-3.439762870793794E-002	1.1187203E-005	-3.2540053E-001	0
9.4359336E+003	2.060719968583726E+001	-3.2722870E-001	-3.467899509980144E-002	1.1347963E-005	-3.2740054E-001	0
9.4472705E+003	2.080719968078483E+001	-3.2927525E-001	-3.485400927207644E-002	1.1476563E-005	-3.2940054E-001	0
9.4319590E+003	2.100719967573241E+001	-3.3124244E-001	-3.511915627873319E-002	1.1632955E-005	-3.3140054E-001	0
9.4139326E+003	2.120719967067998E+001	-3.3327967E-001	-3.540280927474204E-002	1.1799037E-005	-3.3340055E-001	0
9.4149375E+003	2.140719966562756E+001	-3.3526108E-001	-3.560948620371884E-002	1.1938475E-005	-3.3540055E-001	0
9.4153711E+003	2.160719966057513E+001	-3.3725822E-001	-3.581995970692042E-002	1.2080576E-005	-3.3740056E-001	0
9.3958994E+003	2.180719965552271E+001	-3.3925107E-001	-3.610629115629582E-002	1.2249098E-005	-3.3940053E-001	0
9.3921299E+003	2.200719965047028E+001	-3.4126431E-001	-3.633513340759226E-002	1.2399884E-005	-3.4140053E-001	0
9.3749326E+003	2.220719964541786E+001	-3.4329516E-001	-3.661841499120788E-002	1.2570925E-005	-3.4340051E-001	0
9.3649424E+003	2.240719964036543E+001	-3.4527725E-001	-3.686912809371895E-002	1.2730071E-005	-3.4540054E-001	0
9.3378604E+003	2.260719963531301E+001	-3.4728646E-001	-3.719122347801014E-002	1.2916008E-005	-3.4740052E-001	0
9.3336982E+003	2.280719963026058E+001	-3.4924346E-001	-3.741747859095648E-002	1.3067810E-005	-3.4940052E-001	0
9.3262383E+003	2.300719962520816E+001	-3.5132164E-001	-3.767024090776527E-002	1.3234370E-005	-3.5140055E-001	0
9.3072676E+003	2.320719962015573E+001	-3.5327846E-001	-3.795726864562787E-002	1.3409485E-005	-3.5340053E-001	0
9.2889063E+003	2.340719961510331E+001	-3.5524371E-001	-3.824386854108019E-002	1.3585894E-005	-3.5540056E-001	0
9.2651621E+003	2.360719961005088E+001	-3.5718971E-001	-3.855191211769463E-002	1.3770346E-005	-3.5740054E-001	0
9.2578535E+003	2.380719960499846E+001	-3.5916707E-001	-3.879593306827171E-002	1.3934222E-005	-3.5940057E-001	0
9.2385088E+003	2.400719959994603E+001	-3.6132124E-001	-3.911034086462573E-002	1.4131397E-005	-3.6140054E-001	0
9.2217676E+003	2.420719959489361E+001	-3.6333975E-001	-3.940022685390809E-002	1.4315669E-005	-3.6340052E-001	0
9.2038301E+003	2.440719958984118E+001	-3.6537147E-001	-3.969776320198343E-002	1.4504430E-005	-3.6540055E-001	0
9.1742266E+003	2.460719958478876E+001	-3.6728394E-001	-4.003432094934667E-002	1.4703963E-005	-3.6740053E-001	0
9.1651719E+003	2.480719957973633E+001	-3.6916202E-001	-4.027878906991739E-002	1.4869399E-005	-3.6940053E-001	0
9.1300693E+003	2.500719957468391E+001	-3.7117144E-001	-4.065373833233149E-002	1.5089507E-005	-3.7140054E-001	0
9.1161123E+003	2.520719956963148E+001	-3.7337884E-001	-4.095812053329895E-002	1.5292895E-005	-3.7340054E-001	0
9.0982383E+003	2.540719956457906E+001	-3.7532544E-001	-4.125253934795448E-002	1.5483127E-005	-3.7540051E-001	0
9.0796602E+003	2.560719955952663E+001	-3.7726504E-001	-4.155056573537159E-002	1.5675576E-005	-3.7740055E-001	0
9.0653105E+003	2.580719955447421E+001	-3.7911004E-001	-4.181986253327424E-002	1.5854330E-005	-3.7940052E-001	0
9.0399053E+003	2.600719954942178E+001	-3.8106260E-001	-4.215338539391289E-002	1.6063079E-005	-3.8140056E-001	0
9.0136641E+003	2.620719954436936E+001	-3.8331792E-001	-4.252631569443829E-002	1.6301099E-005	-3.8340053E-001	0
9.0092559E+003	2.640719953931693E+001	-3.8529575E-001	-4.276665397618784E-002	1.6477810E-005	-3.8540056E-001	0
8.9874346E+003	2.660719953426451E+001	-3.8743225E-001	-4.310821386977023E-002	1.6701511E-005	-3.8740051E-001	0
8.9615195E+003	2.680719952921208E+001	-3.8931286E-001	-4.344272854671427E-002	1.6912812E-005	-3.8940054E-001	0
8.9500010E+003	2.700719952415966E+001	-3.9120561E-001	-4.371011782202094E-002	1.7099643E-005	-3.9140055E-001	0
8.9285928E+003	2.720719951910723E+001	-3.9326856E-001	-4.404597147684663E-002	1.7321896E-005	-3.9340055E-001	0
8.9053896E+003	2.740719951405481E+001	-3.9529088E-001	-4.438782629214844E-002	1.7546103E-005	-3.9540055E-001	0
8.9039883E+003	2.760719950900238E+001	-3.9736438E-001	-4.462768318756660E-002	1.7733451E-005	-3.9740059E-001	0
8.8818984E+003	2.780719950394996E+001	-3.9929047E-001	-4.495553319873570E-002	1.7950317E-005	-3.9940053E-001	0
8.8706514E+003	2.800719949889753E+001	-4.0122539E-001	-4.523065848098629E-002	1.8147688E-005	-4.0140057E-001	0
8.8566289E+003	2.820719949384511E+001	-4.0321717E-001	-4.552716204195417E-002	1.8357334E-005	-4.0340060E-001	0
8.8365674E+003	2.840719948879268E+001	-4.0522638E-001	-4.585789668224849E-002	1.8582830E-005	-4.0540057E-001	0
8.8318174E+003	2.860719948374026E+001	-4.0728241E-001	-4.611535601702232E-002	1.8781973E-005	-4.0740055E-001	0
8.8209766E+003	2.880719947868783E+001	-4.0935090E-001	-4.640652814430180E-002	1.8996554E-005	-4.0940058E-001	0
8.7953525E+003	2.900719947363541E+001	-4.1121775E-001	-4.675398274222398E-002	1.9226067E-005	-4.1140056E-001	0
8.7938965E+003	2.920719946858299E+001	-4.1332692E-001	-4.700156517486298E-002	1.9427012E-005	-4.1340056E-001	0
8.7857939E+003	2.940719946353056E+001	-4.1532508E-001	-4.727234463460839E-002	1.9633389E-005	-4.1540056E-001	0
8.7763008E+003	2.960719945847814E+001	-4.1730118E-001	-4.754864155523941E-002	1.9842104E-005	-4.1740057E-001	0
8.7708447E+003	2.980719945342571E+001	-4.1935623E-001	-4.781252363260613E-002	2.0050480E-005	-4.1940054E-001	0
8.7522529E+003	3.000719944837329E+001	-4.2130494E-001	-4.813674198360085E-002	2.0280248E-005	-4.2140052E-001	0
8.7529014E+003	3.020719944332086E+001	-4.2332074E-001	-4.836347442708466E-002	2.0473262E-005	-4.2340055E-001	0
8.7484258E+003	3.040719943826844E+001	-4.2530468E-001	-4.861499825592819E-002	2.0676187E-005	-4.2540058E-001	0
8.7382090E+003	3.060719943321601E+001	-4.2730200E-001	-4.890041074466350E-002	2.0895244E-005	-4.2740056E-001	0
8.7404697E+003	3.080719942816359E+001	-4.2932504E-001	-4.911922074351760E-002	2.1088112E-005	-4.2940053E-001	0
8.7368066E+003	3.100719942311116E+001	-4.3126300E-001	-4.936162894063711E-002	2.1287844E-005	-4.3140057E-001	0
8.7316582E+003	3.120719941805874E+001	-4.3330777E-001	-4.962491368781996E-002	2.1502861E-005	-4.3340051E-001	0
8.7329023E+003	3.140719941300631E+001	-4.3528521E-001	-4.984427838482774E-002	2.1696476E-005	-4.3540058E-001	0
8.7394570E+003	3.160719940795389E+001	-4.3731204E-001	-5.003881278868083E-002	2.1882575E-005	-4.3740058E-001	0
8.7315957E+003	3.180719940290146E+001	-4.3937451E-001	-5.032006897298347E-002	2.2109356E-005	-4.3940058E-001	0
8.7384199E+003	3.200719939784904E+001	-4.4137669E-001	-5.050989408616213E-002	2.2293889E-005	-4.4140053E-001	0
8.7361748E+003	3.220719939279661E+001	-4.4332373E-001	-5.074574812336528E-002	2.2496795E-005	-4.4340056E-001	0
8.7462881E+003	3.240719938774419E+001	-4.4527525E-001	-5.091019567522448E-002	2.2669050E-005	-4.4540060E-001	0
8.7409961E+003	3.260719938269176E+001	-4.4726387E-001	-5.116852609199962E-002	2.2885833E-005	-4.4740057E-001	0
8.7516416E+003	3.280719937763934E+001	-4.4926649E-001	-5.133511181002115E-002	2.3063145E-005	-4.4940054E-001	0
8.7567998E+003	3.300719937258691E+001	-4.5126358E-001	-5.153293162161911E-002	2.3254936E-005	-4.5140058E-001	0
8.7544863E+003	3.320719936753449E+001	-4.5335579E-001	-5.178553796354324E-002	2.3477274E-005	-4.5340055E-001	0
8.7725723E+003	3.340719936248206E+001	-4.5530328E-001	-5.190077269356919E-002	2.3630591E-005	-4.5540056E-001	0
8.7804385E+003	3.360719935742964E+001	-4.5735365E-001	-5.208779242398665E-002	2.3822542E-005	-4.5740059E-001	0
8.7905898E+003	3.380719935237721E+001	-4.5932546E-001	-5.225194791910526E-002	2.4000650E-005	-4.5940056E-001	0
8.7989834E+003	3.400719934732479E+001	-4.6128038E-001	-5.242428004735322E-002	2.4182291E-005	-4.6140054E-001	0
8.8089502E+003	3.420719934227236E+001	-4.6335435E-001	-5.260040760335927E-002	2.4372628E-005	-4.6340057E-001	0
8.8151650E+003	3.440719933721994E+001	-4.6528164E-001	-5.278195250914530E-002	2.4558472E-005	-4.6540061E-001	0
8.8448672E+003	3.460719933216751E+001	-4.6725583E-001	-5.282790580861563E-002	2.4684146E-005	-4.6740055E-001	0
8.8460625E+003	3.480719932711509E+001	-4.6919820E-001	-5.304034563497373E-002	2.4886434E-005	-4.6940055E-001	0
8.8573740E+003	3.500719932206266E+001	-4.7134173E-001	-5.321461535555194E-002	2.5082269E-005	-4.7140059E-001	0
8.8696719E+003	3.520719931701024E+001	-4.7334987E-001	-5.336723372692909E-002	2.5261374E-005	-4.7340056E-001	0
8.8856963E+003	3.540719931195781E+001	-4.7533554E-001	-5.349446304486727E-002	2.5427820E-005	-4.7540057E-001	0
8.9090225E+003	3.560719930690539E+001	-4.7729549E-001	-5.357439650324014E-002	2.5570818E-005	-4.7740057E-001	0
8.9277061E+003	3.580719930185296E+001	-4.7929004E-001	-5.368568936928819E-002	2.5731017E-005	-4.7940058E-001	0
8.9353574E+003	3.600719929680054E+001	-4.8136997E-001	-5.387249258251819E-002	2.5932601E-005	-4.8140055E-001	0
8.9416846E+003	3.620719929174811E+001	-4.8331931E-001	-5.405237656424555E-002	2.6124557E-005	-4.8340052E-001	0
8.9667979E+003	3.640719928669569E+001	-4.8522091E-001	-5.411306188163034E-002	2.6256788E-005	-4.8540056E-001	0
8.9786748E+003	3.660719928164326E+001	-4.8724586E-001	-5.426701375540977E-002	2.6441377E-005	-4.8740059E-001	0
8.9934785E+003	3.680719927659084E+001	-4.8933613E-001	-5.441010513716693E-002	2.6624830E-005	-4.8940054E-001	0
9.0062754E+003	3.700719927153841E+001	-4.9138120E-001	-5.455986800647908E-002	2.6809694E-005	-4.9140057E-001	0
9.0204766E+003	3.720719926648599E+001	-4.9329919E-001	-5.468659666197917E-002	2.6976853E-005	-4.9340057E-001	0
9.0392969E+003	3.740719926143356E+001	-4.9528205E-001	-5.479209674279439E-002	2.7137543E-005	-4.9540052E-001	0
9.0583984E+003	3.760719925638114E+001	-4.9731615E-001	-5.490111062818470E-002	2.7303209E-005	-4.9740055E-001	0
9.0769629E+003	3.780719925132871E+001	-4.9936014E-001	-5.501401213910051E-002	2.7471806E-005	-4.9940059E-001	0
9.0954785E+003	3.800719924627629E+001	-5.0134879E-001	-5.512065990868120E-002	2.7634676E-005	-5.0140059E-001	0
9.1172031E+003	3.820719924122386E+001	-5.0329387E-001	-5.520265940112187E-002	2.7783160E-005	-5.0340056E-001	0
9.1370293E+003	3.840719923617144E+001	-5.0526065E-001	-5.529812985161087E-002	2.7939968E-005	-5.0540054E-001	0
9.1600176E+003	3.860719923111901E+001	-5.0729918E-001	-5.538189864047988E-002	2.8095192E-005	-5.0740063E-001	0
9.1814971E+003	3.880719922606659E+001	-5.0928593E-001	-5.546872558857796E-002	2.8249442E-005	-5.0940055E-001	0
9.2073828E+003	3.900719922101416E+001	-5.1131910E-001	-5.553359659378110E-002	2.8395389E-005	-5.1140052E-001	0
9.2253379E+003	3.920719921596174E+001	-5.1330894E-001	-5.564120930224625E-002	2.8561130E-005	-5.1340061E-001	0
9.2585098E+003	3.940719921090931E+001	-5.1532114E-001	-5.565918961755240E-002	2.8682356E-005	-5.1540053E-001	0
9.2767998E+003	3.960719920585689E+001	-5.1730150E-001	-5.576292503162666E-002	2.8846245E-005	-5.1740056E-001	0
9.2887100E+003	3.980719920080446E+001	-5.1929271E-001	-5.590579435524945E-002	2.9031471E-005	-5.1940054E-001	0
9.3254805E+003	4.000719919575204E+001	-5.2129912E-001	-5.590050966930854E-002	2.9140887E-005	-5.2140063E-001	0
9.3507227E+003	4.020719919069961E+001	-5.2334189E-001	-5.596807188895050E-002	2.9290437E-005	-5.2340055E-001	0
9.3783350E+003	4.040719918564719E+001	-5.2526933E-001	-5.600880585027990E-002	2.9419707E-005	-5.2540058E-001	0
9.3795244E+003	4.060719918059476E+001	-5.2726626E-001	-5.621460784657484E-002	2.9640067E-005	-5.2740061E-001	0
9.4161953E+003	4.080719917554234E+001	-5.2930248E-001	-5.621192783176432E-002	2.9753113E-005	-5.2940059E-001	0
9.4270723E+003	4.100719917048991E+001	-5.3133273E-001	-5.636243532304036E-002	2.9947207E-005	-5.3140056E-001	0
9.4597070E+003	4.120719916543749E+001	-5.3337586E-001	-5.638397103566192E-002	3.0073848E-005	-5.3340060E-001	0
9.4735078E+003	4.140719916038506E+001	-5.3527385E-001	-5.650218218499506E-002	3.0244140E-005	-5.3540057E-001	0
9.5008984E+003	4.160719915533264E+001	-5.3730619E-001	-5.655319578554954E-002	3.0386382E-005	-5.3740060E-001	0
9.5244248E+003	4.180719915028021E+001	-5.3927720E-001	-5.662044828236035E-002	3.0534116E-005	-5.3940058E-001	0
9.5307256E+003	4.200719914522779E+001	-5.4129344E-001	-5.679456861805818E-002	3.0742529E-005	-5.4140061E-001	0
9.5475693E+003	4.220719914017536E+001	-5.4327720E-001	-5.690214954593298E-002	3.0913641E-005	-5.4340059E-001	0
9.5735664E+003	4.240719913512294E+001	-5.4528111E-001	-5.695694937875451E-002	3.1057549E-005	-5.4540056E-001	0
9.5951943E+003	4.260719913007051E+001	-5.4734594E-001	-5.704375707846381E-002	3.1222669E-005	-5.4740059E-001	0
9.6149961E+003	4.280719912501809E+001	-5.4934579E-001	-5.713427117117625E-002	3.1386473E-005	-5.4940057E-001	0
9.6267490E+003	4.300719911996566E+001	-5.5129772E-001	-5.726727923534625E-002	3.1571322E-005	-5.5140054E-001	0
9.6567207E+003	4.320719911491324E+001	-5.5329287E-001	-5.729614657005655E-002	3.1701551E-005	-5.5340058E-001	0
9.6712676E+003	4.340719910986081E+001	-5.5533159E-001	-5.742076430057960E-002	3.1887565E-005	-5.5540061E-001	0
9.6917451E+003	4.360719910480839E+001	-5.5726993E-001	-5.749944369931659E-002	3.2042710E-005	-5.5740058E-001	0
9.7084531E+003	4.380719909975596E+001	-5.5927616E-001	-5.760713322499936E-002	3.2218297E-005	-5.5940056E-001	0
9.7283877E+003	4.400719909470354E+001	-5.6126314E-001	-5.769333419180944E-002	3.2381144E-005	-5.6140059E-001	0
9.7290381E+003	4.420719908965111E+001	-5.6327957E-001	-5.789673880593715E-002	3.2612050E-005	-5.6340057E-001	0
9.7491309E+003	4.440719908459869E+001	-5.6535220E-001	-5.799000851108849E-002	3.2784777E-005	-5.6540054E-001	0
9.7698770E+003	4.460719907954626E+001	-5.6733364E-001	-5.806968167958493E-002	3.2944885E-005	-5.6740057E-001	0
9.7905576E+003	4.480719907449384E+001	-5.6931865E-001	-5.814976795352633E-002	3.3105749E-005	-5.6940061E-001	0
9.8057598E+003	4.500719906944141E+001	-5.7129538E-001	-5.826120608319385E-002	3.3284359E-005	-5.7140058E-001	0
9.8212705E+003	4.520719906438899E+001	-5.7331544E-001	-5.837487394323837E-002	3.3467215E-005	-5.7340056E-001	0
9.8300850E+003	4.540719905933656E+001	-5.7530272E-001	-5.852469273836525E-002	3.3669414E-005	-5.7540059E-001	0
9.8542676E+003	4.560719905428414E+001	-5.7728142E-001	-5.858186750341199E-002	3.3818222E-005	-5.7740062E-001	0
9.8663408E+003	4.580719904923171E+001	-5.7931042E-001	-5.871583143768667E-002	3.4014694E-005	-5.7940054E-001	0
9.8809619E+003	4.600719904417929E+001	-5.8131975E-001	-5.883230109986259E-002	3.4200377E-005	-5.8140057E-001	0
9.9064336E+003	4.620719903912686E+001	-5.8332944E-001	-5.888389700932883E-002	3.4348712E-005	-5.8340061E-001	0
9.9026250E+003	4.640719903407444E+001	-5.8531594E-001	-5.910714941580786E-002	3.4596356E-005	-5.8540052E-001	0
9.9191260E+003	4.660719902902201E+001	-5.8735359E-001	-5.921425059482144E-002	3.4779703E-005	-5.8740056E-001	0
9.9323896E+003	4.680719902396959E+001	-5.8928978E-001	-5.933010920274001E-002	3.4962628E-005	-5.8940059E-001	0
9.9482832E+003	4.700719901891716E+001	-5.9132183E-001	-5.943958550087636E-002	3.5147925E-005	-5.9140056E-001	0
9.9605547E+003	4.720719901386474E+001	-5.9328616E-001	-5.956356795219619E-002	3.5338242E-005	-5.9340054E-001	0
9.9722773E+003	4.740719900881231E+001	-5.9527183E-001	-5.969266377889926E-002	3.5533361E-005	-5.9540057E-001	0
9.9813008E+003	4.760719900375989E+001	-5.9729815E-001	-5.984171289188245E-002	3.5743346E-005	-5.9740061E-001	0
1.0007576E+004	4.780719899870746E+001	-5.9934688E-001	-5.988931263028241E-002	3.5894471E-005	-5.9940052E-001	0
1.0011335E+004	4.800719899365504E+001	-6.0128033E-001	-6.005995298573164E-002	3.6112870E-005	-6.0140055E-001	0
1.0020019E+004	4.820719898860261E+001	-6.0330802E-001	-6.021027081401020E-002	3.6325338E-005	-6.0340059E-001	0
1.0036552E+004	4.840719898355019E+001	-6.0526121E-001	-6.030569457641222E-002	3.6500696E-005	-6.0540056E-001	0
1.0040009E+004	4.860719897849776E+001	-6.0727400E-001	-6.048540675921832E-002	3.6731213E-005	-6.0740060E-001	0
1.0058254E+004	4.880719897344534E+001	-6.0932052E-001	-6.057915534209585E-002	3.6912123E-005	-6.0940057E-001	0
1.0065938E+004	4.900719896839291E+001	-6.1126864E-001	-6.072644013151240E-002	3.7120168E-005	-6.1140060E-001	0
1.0072511E+004	4.920719896334049E+001	-6.1329764E-001	-6.088825625202743E-002	3.7342623E-005	-6.1340058E-001	0
1.0079950E+004	4.940719895828806E+001	-6.1534733E-001	-6.104666314746710E-002	3.7564900E-005	-6.1540055E-001	0
1.0092551E+004	4.960719895323564E+001	-6.1725748E-001	-6.115970896005773E-002	3.7751288E-005	-6.1740059E-001	0
1.0097453E+004	4.980719894818321E+001	-6.1933011E-001	-6.133528222813522E-002	3.7986785E-005	-6.1940050E-001	0
1.0098451E+004	5.000719894313079E+001	-6.2133914E-001	-6.152815943374779E-002	3.8229853E-005	-6.2140059E-001	0
1.0109474E+004	5.020719893807836E+001	-6.2335664E-001	-6.166064336657295E-002	3.8436570E-005	-6.2340063E-001	0
1.0107928E+004	5.040719893302594E+001	-6.2523621E-001	-6.185602411984652E-002	3.8674625E-005	-6.2540060E-001	0
1.0118348E+004	5.060719892797351E+001	-6.2724322E-001	-6.199067609507125E-002	3.8883230E-005	-6.2740058E-001	0
1.0099456E+004	5.080719892292109E+001	-6.2929320E-001	-6.230961498455934E-002	3.9211016E-005	-6.2940055E-001	0
1.0102678E+004	5.100719891786866E+001	-6.3130558E-001	-6.248893469198291E-002	3.9449613E-005	-6.3140064E-001	0
1.0109866E+004	5.120719891281624E+001	-6.3332307E-001	-6.264405804179418E-002	3.9673927E-005	-6.3340056E-001	0
1.0088912E+004	5.140719890776381E+001	-6.3534904E-001	-6.297498254386330E-002	4.0011095E-005	-6.3540053E-001	0
1.0073061E+004	5.160719890271139E+001	-6.3734788E-001	-6.327251411231066E-002	4.0326602E-005	-6.3740063E-001	0
1.0065537E+004	5.180719889765896E+001	-6.3930720E-001	-6.351446470693456E-002	4.0605253E-005	-6.3940054E-001	0
1.0063608E+004	5.200719889260654E+001	-6.4131379E-001	-6.372603025580942E-002	4.0868381E-005	-6.4140058E-001	0
1.0047840E+004	5.220719888755411E+001	-6.4330548E-001	-6.402425522031152E-002	4.1187155E-005	-6.4340055E-001	0
1.0020802E+004	5.240719888250169E+001	-6.4529687E-001	-6.439573176959068E-002	4.1554365E-005	-6.4540058E-001	0
1.0001147E+004	5.260719887744926E+001	-6.4726496E-001	-6.471907119625708E-002	4.1890387E-005	-6.4740056E-001	0
9.9783477E+003	5.280719887239684E+001	-6.4929044E-001	-6.506993381101700E-002	4.2249285E-005	-6.4940059E-001	0
9.9548662E+003	5.300719886734441E+001	-6.5135020E-001	-6.543033453741443E-002	4.2618063E-005	-6.5140063E-001	0
9.9241016E+003	5.320719886229199E+001	-6.5334815E-001	-6.583449134577801E-002	4.3012842E-005	-6.5340060E-001	0
9.8929785E+003	5.340719885723956E+001	-6.5531296E-001	-6.624020639355034E-002	4.3408065E-005	-6.5540051E-001	0
9.8643799E+003	5.360719885218714E+001	-6.5733069E-001	-6.663680045713427E-002	4.3802414E-005	-6.5740061E-001	0
9.8312822E+003	5.380719884713471E+001	-6.5929639E-001	-6.706107564295860E-002	4.4213124E-005	-6.5940058E-001	0
9.7828154E+003	5.400719884208229E+001	-6.6129649E-001	-6.759777035070025E-002	4.4702167E-005	-6.6140056E-001	0
9.7385195E+003	5.420719883702986E+001	-6.6334581E-001	-6.811567280090969E-002	4.5184246E-005	-6.6340053E-001	0
9.6971455E+003	5.440719883197744E+001	-6.6530198E-001	-6.860802409739625E-002	4.5645054E-005	-6.6540062E-001	0
9.6423232E+003	5.460719882692501E+001	-6.6733563E-001	-6.920900818672193E-002	4.6185636E-005	-6.6740060E-001	0
9.6042295E+003	5.480719882187259E+001	-6.6929901E-001	-6.968794215909835E-002	4.6642072E-005	-6.6940057E-001	0
9.5474990E+003	5.500719881682016E+001	-6.7132008E-001	-7.031371250332574E-002	4.7203008E-005	-6.7140061E-001	0
9.4902432E+003	5.520719881176774E+001	-6.7333055E-001	-7.094977002024910E-002	4.7772646E-005	-6.7340052E-001	0
9.4323896E+003	5.540719880671531E+001	-6.7534786E-001	-7.159880799813667E-002	4.8354101E-005	-6.7540056E-001	0
9.3647393E+003	5.560719880166289E+001	-6.7732316E-001	-7.232696768857316E-002	4.8988732E-005	-6.7740053E-001	0
9.2988740E+003	5.580719879661046E+001	-6.7929721E-001	-7.305155816602027E-002	4.9623719E-005	-6.7940056E-001	0
9.2382559E+003	5.600719879155804E+001	-6.8135434E-001	-7.375356682645928E-002	5.0252314E-005	-6.8140060E-001	0
9.1636738E+003	5.620719878650561E+001	-6.8330550E-001	-7.456676550938091E-002	5.0951880E-005	-6.8340057E-001	0
9.0993828E+003	5.640719878145319E+001	-6.8525469E-001	-7.530782337389152E-002	5.1605039E-005	-6.8540061E-001	0
9.0210127E+003	5.660719877640076E+001	-6.8730378E-001	-7.618920416243835E-002	5.2365129E-005	-6.8740058E-001	0
8.9474102E+003	5.680719877134834E+001	-6.8932569E-001	-7.704192284988787E-002	5.3106978E-005	-6.8940055E-001	0
8.8657305E+003	5.700719876629591E+001	-6.9131881E-001	-7.797651718869009E-002	5.3906631E-005	-6.9140059E-001	0
8.7866240E+003	5.720719876124349E+001	-6.9332868E-001	-7.890728821285270E-002	5.4708686E-005	-6.9340062E-001	0
8.7068857E+003	5.740719875619106E+001	-6.9533300E-001	-7.986012959531819E-002	5.5529385E-005	-6.9540060E-001	0
8.6260273E+003	5.760719875113864E+001	-6.9731909E-001	-8.083895783789075E-002	5.6370547E-005	-6.9740057E-001	0
8.5335381E+003	5.780719874608621E+001	-6.9937176E-001	-8.195565835902263E-002	5.7317473E-005	-6.9940066E-001	0
8.4488770E+003	5.800719874103379E+001	-7.0133752E-001	-8.300955408958155E-002	5.8217716E-005	-7.0140064E-001	0
8.3657119E+003	5.820719873598136E+001	-7.0333016E-001	-8.407296081413573E-002	5.9131049E-005	-7.0340061E-001	0
8.2696465E+003	5.840719873092894E+001	-7.0532054E-001	-8.529029255827925E-002	6.0156995E-005	-7.0540059E-001	0
8.1818735E+003	5.860719872587651E+001	-7.0732397E-001	-8.645012364944493E-002	6.1148246E-005	-7.0740068E-001	0
8.0830972E+003	5.880719872082409E+001	-7.0933402E-001	-8.775522665103763E-002	6.2247767E-005	-7.0940053E-001	0
7.9950884E+003	5.900719871577166E+001	-7.1128660E-001	-8.896544859945221E-002	6.3279935E-005	-7.1140063E-001	0
7.9094307E+003	5.920719871071924E+001	-7.1333057E-001	-9.018734462248768E-002	6.4333391E-005	-7.1340060E-001	0
7.7975454E+003	5.941719870541419E+001	-7.1540463E-001	-9.174741441469370E-002	6.5636523E-005	-7.1550059E-001	0
7.6701304E+003	5.962719870010915E+001	-7.1743029E-001	-9.353560364917146E-002	6.7105277E-005	-7.1760058E-001	0
7.5728809E+003	5.982719869505672E+001	-7.1942967E-001	-9.500079122403671E-002	6.8346388E-005	-7.1960068E-001	0
7.4832354E+003	6.002719869000430E+001	-7.2156179E-001	-9.642377387533740E-002	6.9575712E-005	-7.2160065E-001	0
7.3805376E+003	6.022719868495187E+001	-7.2354716E-001	-9.803447611165361E-002	7.0932569E-005	-7.2360063E-001	0
7.2820327E+003	6.042719867989945E+001	-7.2545367E-001	-9.962241634063429E-002	7.2271447E-005	-7.2560060E-001	0
7.1954888E+003	6.062719867484702E+001	-7.2750372E-001	-1.011055312151101E-001	7.3554649E-005	-7.2760057E-001	0
7.1023003E+003	6.082719866979460E+001	-7.2953445E-001	-1.027180519822961E-001	7.4936361E-005	-7.2960055E-001	0
7.0008535E+003	6.102719866474217E+001	-7.3142266E-001	-1.044762103444561E-001	7.6416269E-005	-7.3160064E-001	0
6.9133159E+003	6.122719865968975E+001	-7.3349696E-001	-1.060991555815591E-001	7.7823410E-005	-7.3360062E-001	0
6.8251113E+003	6.142719865463732E+001	-7.3555291E-001	-1.077715579542813E-001	7.9271682E-005	-7.3560059E-001	0
6.7305908E+003	6.162719864958490E+001	-7.3754621E-001	-1.095811975148435E-001	8.0821199E-005	-7.3760056E-001	0
6.6368052E+003	6.182719864453247E+001	-7.3948407E-001	-1.114216934997261E-001	8.2394567E-005	-7.3960066E-001	0
6.5517036E+003	6.202719863948005E+001	-7.4156845E-001	-1.131871215800617E-001	8.3936000E-005	-7.4160057E-001	0
6.4553760E+003	6.222719863442762E+001	-7.4352527E-001	-1.151792383108652E-001	8.5638676E-005	-7.4360055E-001	0
6.3650664E+003	6.242719862937520E+001	-7.4550748E-001	-1.171248547147845E-001	8.7317458E-005	-7.4560058E-001	0
6.2798711E+003	6.262719862432277E+001	-7.4750739E-001	-1.190322841456386E-001	8.8977511E-005	-7.4760062E-001	0
6.1945469E+003	6.282719861927035E+001	-7.4955946E-001	-1.210031173077923E-001	9.0699032E-005	-7.4960059E-001	0
6.1107710E+003	6.302719861421792E+001	-7.5151563E-001	-1.229821322454130E-001	9.2422997E-005	-7.5160056E-001	0
6.0242910E+003	6.322719860916550E+001	-7.5351948E-001	-1.250801948532712E-001	9.4250361E-005	-7.5360066E-001	0
5.9465957E+003	6.342719860411307E+001	-7.5554615E-001	-1.270552451179583E-001	9.5996103E-005	-7.5560063E-001	0
5.8627261E+003	6.362719859906065E+001	-7.5753254E-001	-1.292116530609153E-001	9.7882032E-005	-7.5760061E-001	0
5.7148413E+003	6.382719859400822E+001	-7.5951612E-001	-1.329023941639647E-001	1.0094151E-004	-7.5960058E-001	0
5.6239424E+003	6.402719858895580E+001	-7.6156193E-001	-1.354142446028669E-001	1.0312633E-004	-7.6160067E-001	0
5.5180649E+003	6.422719858390337E+001	-7.6354176E-001	-1.383712922007507E-001	1.0565226E-004	-7.6360053E-001	0
5.4434346E+003	6.442719857885095E+001	-7.6550657E-001	-1.406293343889892E-001	1.0765268E-004	-7.6560062E-001	0
5.3607012E+003	6.462719857379852E+001	-7.6749951E-001	-1.431714792074876E-001	1.0988404E-004	-7.6760072E-001	0
5.2787964E+003	6.482719856874610E+001	-7.6954645E-001	-1.457806660988005E-001	1.1218499E-004	-7.6960057E-001	0
5.2138276E+003	6.502719856369367E+001	-7.7151942E-001	-1.479756275895148E-001	1.1416607E-004	-7.7160054E-001	0
5.1288667E+003	6.522719855864125E+001	-7.7354002E-001	-1.508208511475378E-001	1.1666596E-004	-7.7360064E-001	0
5.0693613E+003	6.542719855358882E+001	-7.7544373E-001	-1.529667543230450E-001	1.1861711E-004	-7.7560061E-001	0
4.9861929E+003	6.562719854853640E+001	-7.7751493E-001	-1.559335843030611E-001	1.2124069E-004	-7.7760053E-001	0
4.9074224E+003	6.582719854348397E+001	-7.7953219E-001	-1.588475892442767E-001	1.2382682E-004	-7.7960062E-001	0
4.8433535E+003	6.602719853843155E+001	-7.8148896E-001	-1.613528696121118E-001	1.2609549E-004	-7.8160065E-001	0
4.7871719E+003	6.622719853337912E+001	-7.8347844E-001	-1.636620650940119E-001	1.2822570E-004	-7.8360063E-001	0
4.7320767E+003	6.642719852832670E+001	-7.8552496E-001	-1.660000553931158E-001	1.3039718E-004	-7.8560054E-001	0
4.6719434E+003	6.662719852327427E+001	-7.8748018E-001	-1.685551555991984E-001	1.3273384E-004	-7.8760070E-001	0
4.6145122E+003	6.682719851822185E+001	-7.8949499E-001	-1.710895855706220E-001	1.3507437E-004	-7.8960067E-001	0
4.5580967E+003	6.702719851316942E+001	-7.9150784E-001	-1.736487668723523E-001	1.3744437E-004	-7.9160058E-001	0
4.4999839E+003	6.722719850811700E+001	-7.9347515E-001	-1.763284394713938E-001	1.3991224E-004	-7.9360062E-001	0
4.4394849E+003	6.742719850306457E+001	-7.9550683E-001	-1.791889883489128E-001	1.4254607E-004	-7.9560065E-001	0
4.3584287E+003	6.762719849801215E+001	-7.9750502E-001	-1.829799418073666E-001	1.4592742E-004	-7.9760063E-001	0
4.3049624E+003	6.782719849295972E+001	-7.9947317E-001	-1.857096783525387E-001	1.4846990E-004	-7.9960060E-001	0
4.2465195E+003	6.802719848790730E+001	-8.0150199E-001	-1.887432807251863E-001	1.5127812E-004	-8.0160069E-001	0
4.1904478E+003	6.822719848285487E+001	-8.0351555E-001	-1.917493274116504E-001	1.5407357E-004	-8.0360055E-001	0
4.1381040E+003	6.842719847780245E+001	-8.0552465E-001	-1.946603185349389E-001	1.5680368E-004	-8.0560064E-001	0
4.0799629E+003	6.862719847275002E+001	-8.0752033E-001	-1.979234497508455E-001	1.5982721E-004	-8.0760062E-001	0
4.0241648E+003	6.882719846769760E+001	-8.0949664E-001	-2.011589160349532E-001	1.6283747E-004	-8.0960059E-001	0
3.9699915E+003	6.902719846264517E+001	-8.1152093E-001	-2.044137793396716E-001	1.6588606E-004	-8.1160069E-001	0
3.9202339E+003	6.922719845759275E+001	-8.1349826E-001	-2.075126836152412E-001	1.6881121E-004	-8.1360060E-001	0
3.8779858E+003	6.942719845254032E+001	-8.1551987E-001	-2.102946985635450E-001	1.7149950E-004	-8.1560069E-001	0
3.8296218E+003	6.962719844748790E+001	-8.1752563E-001	-2.134742498516085E-001	1.7452067E-004	-8.1760061E-001	0
3.7743291E+003	6.982719844243547E+001	-8.1955141E-001	-2.171383004491974E-001	1.7795600E-004	-8.1960052E-001	0
3.7178809E+003	7.002719843738305E+001	-8.2153916E-001	-2.209697399064561E-001	1.8153530E-004	-8.2160068E-001	0
3.6606472E+003	7.022719843233062E+001	-8.2352847E-001	-2.249679985580766E-001	1.8526755E-004	-8.2360065E-001	0
3.5962241E+003	7.042719842727820E+001	-8.2552302E-001	-2.295527211400996E-001	1.8950105E-004	-8.2560062E-001	0
3.5456208E+003	7.062719842222577E+001	-8.2753009E-001	-2.333949799237610E-001	1.9314137E-004	-8.2760060E-001	0
3.4941663E+003	7.082719841717335E+001	-8.2946336E-001	-2.373851995404107E-001	1.9690233E-004	-8.2960063E-001	0
3.4501489E+003	7.102719841212092E+001	-8.3153063E-001	-2.410129758438546E-001	2.0040968E-004	-8.3160061E-001	0
3.3881062E+003	7.122719840706850E+001	-8.3353817E-001	-2.460189000312696E-001	2.0506614E-004	-8.3360058E-001	0
3.3295459E+003	7.142719840201607E+001	-8.3551431E-001	-2.509394084016821E-001	2.0966347E-004	-8.3560067E-001	0
3.2677102E+003	7.162719839696365E+001	-8.3752656E-001	-2.563038085969565E-001	2.1466125E-004	-8.3760065E-001	0
3.2180303E+003	7.182719839191122E+001	-8.3951360E-001	-2.608780860562986E-001	2.1901070E-004	-8.3960062E-001	0
3.1758220E+003	7.202719838685880E+001	-8.4151161E-001	-2.649744170107564E-001	2.2297904E-004	-8.4160060E-001	0
3.1335808E+003	7.222719838180637E+001	-8.4353077E-001	-2.691906909321071E-001	2.2707063E-004	-8.4360057E-001	0
3.0989639E+003	7.242719837675395E+001	-8.4555233E-001	-2.728500023395539E-001	2.3070896E-004	-8.4560066E-001	0
3.0592703E+003	7.262719837170152E+001	-8.4755743E-001	-2.770456140248485E-001	2.3481206E-004	-8.4760058E-001	0
3.0184448E+003	7.282719836664910E+001	-8.4955394E-001	-2.814541823524221E-001	2.3911051E-004	-8.4960073E-001	0
2.9700725E+003	7.302719836159667E+001	-8.5153407E-001	-2.867048035023081E-001	2.4413891E-004	-8.5160071E-001	0
2.9117749E+003	7.322719835654425E+001	-8.5352087E-001	-2.931273548131008E-001	2.5019032E-004	-8.5360056E-001	0
2.8586318E+003	7.342719835149182E+001	-8.5550803E-001	-2.992718591187966E-001	2.5602948E-004	-8.5560066E-001	0
2.8245857E+003	7.362719834643940E+001	-8.5748094E-001	-3.035776005094858E-001	2.6031199E-004	-8.5760063E-001	0
2.7922798E+003	7.382719834138697E+001	-8.5951608E-001	-3.078187672619843E-001	2.6457518E-004	-8.5960060E-001	0
2.7621479E+003	7.402719833633455E+001	-8.6155427E-001	-3.119145899022706E-001	2.6873135E-004	-8.6160064E-001	0
2.7098101E+003	7.422719833128212E+001	-8.6349714E-001	-3.186559670704014E-001	2.7515853E-004	-8.6360067E-001	0
2.6740217E+003	7.442719832622970E+001	-8.6551481E-001	-3.236753050609581E-001	2.8014576E-004	-8.6560065E-001	0
2.6337153E+003	7.462719832117727E+001	-8.6752939E-001	-3.293937499278030E-001	2.8575875E-004	-8.6760062E-001	0
2.5945557E+003	7.482719831612485E+001	-8.6950272E-001	-3.351258713321226E-001	2.9139285E-004	-8.6960065E-001	0
2.5582695E+003	7.502719831107243E+001	-8.7150615E-001	-3.406623601575562E-001	2.9688934E-004	-8.7160063E-001	0
2.5256091E+003	7.522719830602000E+001	-8.7350839E-001	-3.458604858132279E-001	3.0211205E-004	-8.7360060E-001	0
2.4943247E+003	7.542719830096758E+001	-8.7550545E-001	-3.509989877161726E-001	3.0730153E-004	-8.7560058E-001	0
2.4662832E+003	7.562719829591515E+001	-8.7755257E-001	-3.558198721538757E-001	3.1225063E-004	-8.7760067E-001	0
2.4328091E+003	7.582719829086273E+001	-8.7952763E-001	-3.615276174885897E-001	3.1797352E-004	-8.7960064E-001	0
2.3924719E+003	7.602719828581030E+001	-8.8152170E-001	-3.684564545716824E-001	3.2480236E-004	-8.8160062E-001	0
2.3252754E+003	7.622719828075788E+001	-8.8353431E-001	-3.799697489724776E-001	3.3571632E-004	-8.8360071E-001	0
2.2590029E+003	7.642719827570545E+001	-8.8552821E-001	-3.919995678483148E-001	3.4712668E-004	-8.8560069E-001	0
2.2496587E+003	7.662719827065303E+001	-8.8750654E-001	-3.945072181607330E-001	3.5012772E-004	-8.8760054E-001	0
2.2494026E+003	7.682719826560060E+001	-8.8953805E-001	-3.954552311847284E-001	3.5177247E-004	-8.8960063E-001	0
2.2443872E+003	7.702719826054818E+001	-8.9146066E-001	-3.971955606126798E-001	3.5408422E-004	-8.9160073E-001	0
2.2082068E+003	7.722719825549575E+001	-8.9347309E-001	-4.046147530623916E-001	3.6151239E-004	-8.9360058E-001	0
2.1725200E+003	7.742719825044333E+001	-8.9549744E-001	-4.121929364840669E-001	3.6911771E-004	-8.9560062E-001	0
2.1228872E+003	7.762719824539090E+001	-8.9749950E-001	-4.227730469849984E-001	3.7943860E-004	-8.9760065E-001	0
2.0741309E+003	7.782719824033848E+001	-8.9953542E-001	-4.336926964852892E-001	3.9012195E-004	-8.9960063E-001	0
1.9967903E+003	7.802719823528605E+001	-9.0152240E-001	-4.514857673987995E-001	4.0702452E-004	-9.0160060E-001	0
1.9190815E+003	7.822719823023363E+001	-9.0353322E-001	-4.708154401372351E-001	4.2539739E-004	-9.0360063E-001	0
1.8513058E+003	7.842719822518120E+001	-9.0545392E-001	-4.890893256363551E-001	4.4284784E-004	-9.0560061E-001	0
1.7708551E+003	7.862719822012878E+001	-9.0751076E-001	-5.124703653097629E-001	4.6507237E-004	-9.0760058E-001	0
1.6538470E+003	7.882719821507635E+001	-9.0952069E-001	-5.499424498967525E-001	5.0018402E-004	-9.0960068E-001	0
1.6020565E+003	7.902719821002393E+001	-9.1152406E-001	-5.689712142373278E-001	5.1863096E-004	-9.1160071E-001	0
1.5422571E+003	7.922719820497150E+001	-9.1352212E-001	-5.923280525496395E-001	5.4110476E-004	-9.1360062E-001	0
1.4807397E+003	7.942719819991908E+001	-9.1551948E-001	-6.182851797083813E-001	5.6605210E-004	-9.1560066E-001	0
1.4222946E+003	7.962719819486665E+001	-9.1752964E-001	-6.451052430290694E-001	5.9190317E-004	-9.1760069E-001	0
1.3712115E+003	7.982719818981423E+001	-9.1954178E-001	-6.706053487779124E-001	6.1664963E-004	-9.1960073E-001	0
1.3098461E+003	8.002719818476180E+001	-9.2153215E-001	-7.035423175319799E-001	6.4833689E-004	-9.2160064E-001	0
1.2700806E+003	8.022719817970938E+001	-9.2349732E-001	-7.271171409315755E-001	6.7149074E-004	-9.2360061E-001	0
1.2132312E+003	8.042719817465695E+001	-9.2555225E-001	-7.628820238047886E-001	7.0608716E-004	-9.2560071E-001	0
1.1276871E+003	8.062719816960453E+001	-9.2757088E-001	-8.225427667215417E-001	7.6296669E-004	-9.2760056E-001	0
1.0602211E+003	8.082719816455210E+001	-9.2952108E-001	-8.767238719359254E-001	8.1493333E-004	-9.2960060E-001	0
1.0080136E+003	8.102719815949968E+001	-9.3150610E-001	-9.241007121275651E-001	8.6080545E-004	-9.3160063E-001	0
9.3775427E+002	8.122719815444725E+001	-9.3354386E-001	-9.955101231970467E-001	9.2935236E-004	-9.3360060E-001	0
8.7436591E+002	8.143719814914220E+001	-9.3560296E-001	-1.070035940857585E+000	1.0011288E-003	-9.3570071E-001	0
8.1164282E+002	8.164719814383716E+001	-9.3769687E-001	-1.155307278535469E+000	1.0833280E-003	-9.3780071E-001	0
7.6879071E+002	8.184719813878473E+001	-9.3969327E-001	-1.222300512162867E+000	1.1485876E-003	-9.3980074E-001	0
7.1327087E+002	8.204719813373231E+001	-9.4170856E-001	-1.320267834740775E+000	1.2433075E-003	-9.4180065E-001	0
6.7258209E+002	8.224719812867988E+001	-9.4370121E-001	-1.403101880196274E+000	1.3241089E-003	-9.4380063E-001	0
6.3050055E+002	8.244719812362746E+001	-9.4569248E-001	-1.499907439629506E+000	1.4184512E-003	-9.4580072E-001	0
5.9340027E+002	8.264719811857503E+001	-9.4772005E-001	-1.597100815366179E+000	1.5136044E-003	-9.4780058E-001	0
5.5841321E+002	8.284719811352261E+001	-9.4973421E-001	-1.700773153749729E+000	1.6152825E-003	-9.4980061E-001	0
5.2347668E+002	8.304719810847018E+001	-9.5168310E-001	-1.818004862403249E+000	1.7301645E-003	-9.5180064E-001	0
4.9436020E+002	8.324719810341776E+001	-9.5368141E-001	-1.929122583007189E+000	1.8397684E-003	-9.5380062E-001	0
4.6621097E+002	8.344719809836533E+001	-9.5574170E-001	-2.050019804210883E+000	1.9592894E-003	-9.5580059E-001	0
4.4113086E+002	8.364719809331291E+001	-9.5769888E-001	-2.171008623105873E+000	2.0791725E-003	-9.5780063E-001	0
4.1662054E+002	8.384719808826048E+001	-9.5972544E-001	-2.303596089131581E+000	2.2108199E-003	-9.5980060E-001	0
3.9497971E+002	8.404719808320806E+001	-9.6173507E-001	-2.434897366767551E+000	2.3417261E-003	-9.6180063E-001	0
3.7521863E+002	8.424719807815563E+001	-9.6365213E-001	-2.568241815566338E+000	2.4748917E-003	-9.6380067E-001	0
3.5666690E+002	8.444719807310321E+001	-9.6571285E-001	-2.707604404479726E+000	2.6147685E-003	-9.6580070E-001	0
3.3890228E+002	8.464719806805078E+001	-9.6766752E-001	-2.855299602932149E+000	2.7629808E-003	-9.6780062E-001	0
3.2227472E+002	8.484719806299836E+001	-9.6971017E-001	-3.008955104111827E+000	2.9178143E-003	-9.6980059E-001	0
3.0738528E+002	8.504719805794593E+001	-9.7171599E-001	-3.161231303735383E+000	3.0718190E-003	-9.7180068E-001	0
2.9389120E+002	8.524719805289351E+001	-9.7373879E-001	-3.313262889377107E+000	3.2262525E-003	-9.7380072E-001	0
2.8106247E+002	8.544719804784108E+001	-9.7571146E-001	-3.471511049538236E+000	3.3871932E-003	-9.7580063E-001	0
2.6867331E+002	8.564719804278866E+001	-9.7764987E-001	-3.638805308715035E+000	3.5574776E-003	-9.7780061E-001	0
2.5749915E+002	8.584719803773623E+001	-9.7966796E-001	-3.804548587421969E+000	3.7271944E-003	-9.7980070E-001	0
2.4681874E+002	8.604719803268381E+001	-9.8175323E-001	-3.977628320928602E+000	3.9050495E-003	-9.8180068E-001	0
2.3709302E+002	8.624719802763138E+001	-9.8368102E-001	-4.148924374222212E+000	4.0812180E-003	-9.8380059E-001	0
2.2799617E+002	8.644719802257896E+001	-9.8572272E-001	-4.323417775079520E+000	4.2616911E-003	-9.8580062E-001	0
2.1942029E+002	8.664719801752653E+001	-9.8777026E-001	-4.501727220253883E+000	4.4466723E-003	-9.8780060E-001	0
2.1117598E+002	8.684719801247411E+001	-9.8968172E-001	-4.686526175191347E+000	4.6381694E-003	-9.8980069E-001	0
2.0342723E+002	8.704719800742168E+001	-9.9167085E-001	-4.874818686961873E+000	4.8342156E-003	-9.9180067E-001	0
1.9616653E+002	8.724719800236926E+001	-9.9369287E-001	-5.065557437385014E+000	5.0336085E-003	-9.9380058E-001	0
1.8931386E+002	8.744719799731683E+001	-9.9573439E-001	-5.259701352304617E+000	5.2372655E-003	-9.9580055E-001	0
1.8309557E+002	8.764719799226441E+001	-9.9782026E-001	-5.449723821648639E+000	5.4378449E-003	-9.9780065E-001	0
1.7695616E+002	8.784719798721198E+001	-9.9975163E-001	-5.649713398783106E+000	5.6483103E-003	-9.9980068E-001	0
1.7135428E+002	8.804719798215956E+001	-1.0017059E+000	-5.845817811702659E+000	5.8557899E-003	-1.0018007E+000	0
1.6592766E+002	8.824719797710713E+001	-1.0037208E+000	-6.049146606504511E+000	6.0716541E-003	-1.0038006E+000	0
1.6081427E+002	8.844719797205471E+001	-1.0057334E+000	-6.254005574754331E+000	6.2898621E-003	-1.0058007E+000	0
1.5599240E+002	8.864719796700228E+001	-1.0077560E+000	-6.460289116754574E+000	6.5103951E-003	-1.0078007E+000	0
1.5190813E+002	8.884719796194986E+001	-1.0097347E+000	-6.647009254785893E+000	6.7117163E-003	-1.0098007E+000	0
1.4759436E+002	8.904719795689743E+001	-1.0117095E+000	-6.854661895507043E+000	6.9349264E-003	-1.0118006E+000	0
1.4338858E+002	8.924719795184501E+001	-1.0137095E+000	-7.069666951218956E+000	7.1665887E-003	-1.0138007E+000	0
1.3934322E+002	8.944719794679258E+001	-1.0157177E+000	-7.289323133541032E+000	7.4038948E-003	-1.0158006E+000	0
1.3529747E+002	8.964719794174016E+001	-1.0177433E+000	-7.522264798347095E+000	7.6557351E-003	-1.0178006E+000	0
1.3164909E+002	8.984719793668773E+001	-1.0197942E+000	-7.746306427549603E+000	7.8996383E-003	-1.0198007E+000	0
1.2807072E+002	9.004719793163531E+001	-1.0217694E+000	-7.978165423113225E+000	8.1518451E-003	-1.0218006E+000	0
1.2467654E+002	9.024719792658289E+001	-1.0237515E+000	-8.211259660131560E+000	8.4062889E-003	-1.0238006E+000	0
1.2143878E+002	9.044719792153046E+001	-1.0256929E+000	-8.446172719031509E+000	8.6631794E-003	-1.0258006E+000	0
1.1827535E+002	9.064719791647804E+001	-1.0277845E+000	-8.689760106018113E+000	8.9312000E-003	-1.0278007E+000	0
1.1524115E+002	9.084719791142561E+001	-1.0297642E+000	-8.935733478693720E+000	9.2016980E-003	-1.0298007E+000	0
1.1216396E+002	9.104719790637319E+001	-1.0317310E+000	-9.198417713920552E+000	9.4902925E-003	-1.0318006E+000	0
1.0922292E+002	9.124719790132076E+001	-1.0337789E+000	-9.464853548071005E+000	9.7845662E-003	-1.0338006E+000	0
1.0653036E+002	9.144719789626834E+001	-1.0357499E+000	-9.722578958994649E+000	1.0070160E-002	-1.0358006E+000	0
1.0385694E+002	9.164719789121591E+001	-1.0376967E+000	-9.991597099909711E+000	1.0368248E-002	-1.0378006E+000	0
1.0114301E+002	9.184719788616349E+001	-1.0398008E+000	-1.028050115143634E+001	1.0689673E-002	-1.0398006E+000	0
9.8602280E+001	9.204719788111106E+001	-1.0417274E+000	-1.056494249028412E+001	1.1005790E-002	-1.0418007E+000	0
9.5954254E+001	9.225719787580601E+001	-1.0438372E+000	-1.087848817103975E+001	1.1355370E-002	-1.0439007E+000	0
9.3256187E+001	9.246719787050097E+001	-1.0459176E+000	-1.121553042497226E+001	1.1730521E-002	-1.0460006E+000	0
9.1018661E+001	9.266719786544854E+001	-1.0479352E+000	-1.151341120131713E+001	1.2065309E-002	-1.0480007E+000	0
8.8886559E+001	9.286719786039612E+001	-1.0499198E+000	-1.181190742427253E+001	1.2401556E-002	-1.0500008E+000	0
8.6820137E+001	9.306719785534369E+001	-1.0519345E+000	-1.211625036326936E+001	1.2745501E-002	-1.0520006E+000	0
8.4617096E+001	9.326719785029127E+001	-1.0539395E+000	-1.245539628695735E+001	1.3127234E-002	-1.0540006E+000	0
8.2537041E+001	9.346719784523884E+001	-1.0559169E+000	-1.279324857366873E+001	1.3508608E-002	-1.0560006E+000	0
8.0544533E+001	9.366719784018642E+001	-1.0579627E+000	-1.313512682293009E+001	1.3896474E-002	-1.0580006E+000	0
7.8549355E+001	9.386719783513399E+001	-1.0599515E+000	-1.349408407668133E+001	1.4303075E-002	-1.0600007E+000	0
7.6607826E+001	9.406719783008157E+001	-1.0619041E+000	-1.386156163248074E+001	1.4719649E-002	-1.0620006E+000	0
7.4737061E+001	9.426719782502914E+001	-1.0639006E+000	-1.423524791853765E+001	1.5144888E-002	-1.0640006E+000	0
7.2851555E+001	9.446719781997672E+001	-1.0659426E+000	-1.463170822839886E+001	1.5596562E-002	-1.0660006E+000	0
7.1081444E+001	9.466719781492429E+001	-1.0678902E+000	-1.502347386072553E+001	1.6043421E-002	-1.0680007E+000	0
6.9364105E+001	9.486719780987187E+001	-1.0699377E+000	-1.542494710124254E+001	1.6503733E-002	-1.0700008E+000	0
6.7599617E+001	9.506719780481944E+001	-1.0718561E+000	-1.585595075478631E+001	1.6995298E-002	-1.0720006E+000	0
6.5895798E+001	9.526719779976702E+001	-1.0739361E+000	-1.629748919991411E+001	1.7502462E-002	-1.0740006E+000	0
6.4343460E+001	9.546719779471459E+001	-1.0759248E+000	-1.672158602197693E+001	1.7991168E-002	-1.0760006E+000	0
6.2736542E+001	9.566719778966217E+001	-1.0779021E+000	-1.718140760719641E+001	1.8519875E-002	-1.0780007E+000	0
6.1220177E+001	9.586719778460974E+001	-1.0799145E+000	-1.763984546707337E+001	1.9049523E-002	-1.0800006E+000	0
5.9675034E+001	9.606719777955732E+001	-1.0819231E+000	-1.813024746479636E+001	1.9615535E-002	-1.0820006E+000	0
5.8278564E+001	9.626719777450489E+001	-1.0838989E+000	-1.859858649833939E+001	2.0158987E-002	-1.0840006E+000	0
5.6808884E+001	9.646719776945247E+001	-1.0859255E+000	-1.911541585330247E+001	2.0757917E-002	-1.0860006E+000	0
5.5455883E+001	9.666719776440004E+001	-1.0879416E+000	-1.961814689852480E+001	2.1343399E-002	-1.0880007E+000	0
5.4117298E+001	9.686719775934762E+001	-1.0899079E+000	-2.013973180547595E+001	2.1950452E-002	-1.0900007E+000	0
5.2829773E+001	9.706719775429519E+001	-1.0918946E+000	-2.066816765759268E+001	2.2567460E-002	-1.0920007E+000	0
5.1576309E+001	9.726719774924277E+001	-1.0938926E+000	-2.120920625943990E+001	2.3200594E-002	-1.0940007E+000	0
5.0352707E+001	9.746719774419034E+001	-1.0959215E+000	-2.176489806972667E+001	2.3852620E-002	-1.0960007E+000	0
4.9157673E+001	9.766719773913792E+001	-1.0978936E+000	-2.233412456093470E+001	2.4520492E-002	-1.0980006E+000	0
4.7984093E+001	9.786719773408549E+001	-1.0999286E+000	-2.292277629926900E+001	2.5213419E-002	-1.1000007E+000	0
4.6820309E+001	9.806719772903307E+001	-1.1019207E+000	-2.353510204734721E+001	2.5933817E-002	-1.1020007E+000	0
4.5702881E+001	9.826719772398064E+001	-1.1039008E+000	-2.415385620083136E+001	2.6663462E-002	-1.1040007E+000	0
4.4583466E+001	9.846719771892822E+001	-1.1059279E+000	-2.480578624431786E+001	2.7433412E-002	-1.1060007E+000	0
4.3565929E+001	9.866719771387579E+001	-1.1078889E+000	-2.543016814104282E+001	2.8173802E-002	-1.1080006E+000	0
4.2485226E+001	9.886719770882337E+001	-1.1099000E+000	-2.612437503516264E+001	2.8995443E-002	-1.1100007E+000	0
4.1527176E+001	9.906719770377094E+001	-1.1119399E+000	-2.677619878883536E+001	2.9773524E-002	-1.1120007E+000	0
4.0572388E+001	9.926719769871852E+001	-1.1138991E+000	-2.745460976764986E+001	3.0581666E-002	-1.1140006E+000	0
3.9616226E+001	9.946719769366609E+001	-1.1159043E+000	-2.816785943129702E+001	3.1432636E-002	-1.1160007E+000	0
3.8715843E+001	9.966719768861367E+001	-1.1179317E+000	-2.887530488600271E+001	3.2280620E-002	-1.1180006E+000	0
3.7838661E+001	9.986719768356124E+001	-1.1199197E+000	-2.959723161461676E+001	3.3146523E-002	-1.1200007E+000	0
3.7000263E+001	1.000671976785088E+002	-1.1219428E+000	-3.032256081179975E+001	3.4020178E-002	-1.1220007E+000	0
3.6156101E+001	1.002671976734564E+002	-1.1239797E+000	-3.108685993310280E+001	3.4940999E-002	-1.1240007E+000	0
3.5325832E+001	1.004671976684040E+002	-1.1259353E+000	-3.187285911685501E+001	3.5886779E-002	-1.1260005E+000	0
3.4548428E+001	1.006671976633515E+002	-1.1279479E+000	-3.264831279194550E+001	3.6825597E-002	-1.1280007E+000	0
3.3802238E+001	1.008671976582991E+002	-1.1299624E+000	-3.342862679979952E+001	3.7773091E-002	-1.1300007E+000	0
3.3043282E+001	1.010671976532467E+002	-1.1319418E+000	-3.425633542256537E+001	3.8776178E-002	-1.1320006E+000	0
3.2344307E+001	1.012671976481943E+002	-1.1339624E+000	-3.505910435906878E+001	3.9755706E-002	-1.1340007E+000	0
3.1618553E+001	1.014671976431418E+002	-1.1359296E+000	-3.592604528641209E+001	4.0809456E-002	-1.1360006E+000	0
3.0943726E+001	1.016671976380894E+002	-1.1379293E+000	-3.677415390755311E+001	4.1846387E-002	-1.1380007E+000	0
3.0263805E+001	1.018671976330370E+002	-1.1399486E+000	-3.766705991675792E+001	4.2938512E-002	-1.1400007E+000	0
2.9642302E+001	1.020671976279846E+002	-1.1418715E+000	-3.852168711918551E+001	4.3986816E-002	-1.1420006E+000	0
2.9006748E+001	1.022671976229321E+002	-1.1439017E+000	-3.943570980112020E+001	4.5110576E-002	-1.1440006E+000	0
2.8364313E+001	1.024671976178797E+002	-1.1458958E+000	-4.039920867922086E+001	4.6293285E-002	-1.1460006E+000	0
2.7741640E+001	1.026671976128273E+002	-1.1478825E+000	-4.137759873115562E+001	4.7496621E-002	-1.1480006E+000	0
2.7161390E+001	1.028671976077749E+002	-1.1499212E+000	-4.233660926921570E+001	4.8683763E-002	-1.1500007E+000	0
2.6559776E+001	1.030671976027224E+002	-1.1519005E+000	-4.337011303301583E+001	4.9958058E-002	-1.1520007E+000	0
2.6036566E+001	1.032671975976700E+002	-1.1539460E+000	-4.432021073257033E+001	5.1143132E-002	-1.1540006E+000	0
2.5479568E+001	1.034671975926176E+002	-1.1559187E+000	-4.536649369220328E+001	5.2439980E-002	-1.1560006E+000	0
2.4942129E+001	1.036671975875652E+002	-1.1579218E+000	-4.642433647071448E+001	5.3755749E-002	-1.1580007E+000	0
2.4452944E+001	1.038671975825127E+002	-1.1599141E+000	-4.743453854822508E+001	5.5019993E-002	-1.1600007E+000	0
2.3945242E+001	1.040671975774603E+002	-1.1619104E+000	-4.852364659660805E+001	5.6380130E-002	-1.1620007E+000	0
2.3425760E+001	1.042671975724079E+002	-1.1638863E+000	-4.968403707907572E+001	5.7826571E-002	-1.1640006E+000	0
2.2968176E+001	1.044671975673555E+002	-1.1659422E+000	-5.076337970195186E+001	5.9187166E-002	-1.1660006E+000	0
2.2484882E+001	1.046671975623030E+002	-1.1680217E+000	-5.194697848415149E+001	6.0675196E-002	-1.1680007E+000	0
2.2040674E+001	1.048671975572506E+002	-1.1700120E+000	-5.308421892373747E+001	6.2109172E-002	-1.1700007E+000	0
2.1585361E+001	1.050671975521982E+002	-1.1719204E+000	-5.429237058265403E+001	6.3626334E-002	-1.1720006E+000	0
2.1141760E+001	1.052671975471458E+002	-1.1739655E+000	-5.552827694843143E+001	6.5188281E-002	-1.1740006E+000	0
2.0712580E+001	1.054671975420933E+002	-1.1759813E+000	-5.677618736907198E+001	6.6767737E-002	-1.1760006E+000	0
2.0308283E+001	1.056671975370409E+002	-1.1779525E+000	-5.800354886811851E+001	6.8325430E-002	-1.1780007E+000	0
1.9921593E+001	1.058671975319885E+002	-1.1799953E+000	-5.923197588412395E+001	6.9893450E-002	-1.1800007E+000	0
1.9520161E+001	1.060671975269361E+002	-1.1819690E+000	-6.055119741584699E+001	7.1569644E-002	-1.1820006E+000	0
1.9088158E+001	1.062671975218836E+002	-1.1839882E+000	-6.202737055289781E+001	7.3439673E-002	-1.1840006E+000	0
1.8727489E+001	1.064671975168312E+002	-1.1860162E+000	-6.333022929157005E+001	7.5110681E-002	-1.1860007E+000	0
1.8357021E+001	1.066671975117788E+002	-1.1879838E+000	-6.471549986549536E+001	7.6880962E-002	-1.1880007E+000	0
1.8017111E+001	1.068671975067264E+002	-1.1899610E+000	-6.604616005242269E+001	7.8592353E-002	-1.1900007E+000	0
1.7660156E+001	1.070671975016739E+002	-1.1919875E+000	-6.749586303704439E+001	8.0454223E-002	-1.1920007E+000	0
1.7291451E+001	1.072671974966215E+002	-1.1939832E+000	-6.905049332956105E+001	8.2445130E-002	-1.1940007E+000	0
1.6951855E+001	1.074671974915691E+002	-1.1959394E+000	-7.054918096881863E+001	8.4372550E-002	-1.1960006E+000	0
1.6638577E+001	1.076671974865167E+002	-1.1980214E+000	-7.200263473452401E+001	8.6260699E-002	-1.1980007E+000	0
1.6346498E+001	1.078671974814642E+002	-1.1999973E+000	-7.341005469666061E+001	8.8091865E-002	-1.2000008E+000	0
1.6048174E+001	1.080671974764118E+002	-1.2019960E+000	-7.489923931790054E+001	9.0028584E-002	-1.2020006E+000	0
1.5777843E+001	1.082671974713594E+002	-1.2039856E+000	-7.630863079732751E+001	9.1874488E-002	-1.2040006E+000	0
1.5439065E+001	1.084671974663070E+002	-1.2059757E+000	-7.811196306611430E+001	9.4201125E-002	-1.2060007E+000	0
1.5134190E+001	1.086671974612545E+002	-1.2079880E+000	-7.981847918060589E+001	9.6419767E-002	-1.2080007E+000	0
1.4857799E+001	1.088671974562021E+002	-1.2099992E+000	-8.143866124823535E+001	9.8540716E-002	-1.2100006E+000	0
1.4634895E+001	1.090671974511497E+002	-1.2120595E+000	-8.281982615853667E+001	1.0038256E-001	-1.2120006E+000	0
1.4361730E+001	1.092671974460973E+002	-1.2139510E+000	-8.452679499585054E+001	1.0261139E-001	-1.2140006E+000	0
1.4097618E+001	1.094671974410448E+002	-1.2159809E+000	-8.625434866351570E+001	1.0488364E-001	-1.2160006E+000	0
1.3821345E+001	1.096671974359924E+002	-1.2179799E+000	-8.812310588495006E+001	1.0733217E-001	-1.2180007E+000	0
1.3580140E+001	1.098671974309400E+002	-1.2199756E+000	-8.983527065242492E+001	1.0959684E-001	-1.2200007E+000	0
1.3377168E+001	1.100671974258876E+002	-1.2220389E+000	-9.135258459666434E+001	1.1163641E-001	-1.2220006E+000	0
1.3173326E+001	1.102671974208351E+002	-1.2239741E+000	-9.291306055322025E+001	1.1372318E-001	-1.2240006E+000	0
1.2961959E+001	1.104671974157827E+002	-1.2259623E+000	-9.458156152539277E+001	1.1595343E-001	-1.2260007E+000	0
1.2724289E+001	1.106671974107303E+002	-1.2279700E+000	-9.650598044946867E+001	1.1850645E-001	-1.2280006E+000	0
1.2537504E+001	1.108671974056779E+002	-1.2300111E+000	-9.810653928780539E+001	1.2067214E-001	-1.2300006E+000	0
1.2326447E+001	1.110671974006254E+002	-1.2319974E+000	-9.994748174035908E+001	1.2313504E-001	-1.2320006E+000	0
1.2166602E+001	1.112671973955730E+002	-1.2340035E+000	-1.014254865170608E+002	1.2515941E-001	-1.2340007E+000	0
1.1909616E+001	1.114671973905206E+002	-1.2360079E+000	-1.037823432632590E+002	1.2827580E-001	-1.2360007E+000	0
1.1699950E+001	1.116671973854682E+002	-1.2379955E+000	-1.058120305370585E+002	1.3099481E-001	-1.2380006E+000	0
1.1533459E+001	1.118671973804157E+002	-1.2399863E+000	-1.075120919750926E+002	1.3331352E-001	-1.2400006E+000	0
1.1377938E+001	1.120671973753633E+002	-1.2420036E+000	-1.091589304368242E+002	1.3557579E-001	-1.2420007E+000	0
1.1148900E+001	1.122871973698057E+002	-1.2441757E+000	-1.115962724480232E+002	1.3884537E-001	-1.2442006E+000	0
1.0935509E+001	1.124871973647532E+002	-1.2461390E+000	-1.139534554708571E+002	1.4200185E-001	-1.2462007E+000	0
1.0802039E+001	1.126871973597008E+002	-1.2481124E+000	-1.155441543639649E+002	1.4421210E-001	-1.2482007E+000	0
1.0654812E+001	1.128871973546484E+002	-1.2501684E+000	-1.173336919786711E+002	1.4668688E-001	-1.2502006E+000	0
1.0491570E+001	1.130871973495960E+002	-1.2521440E+000	-1.193476246165578E+002	1.4944041E-001	-1.2522007E+000	0
1.0290791E+001	1.132871973445435E+002	-1.2541625E+000	-1.218723184786691E+002	1.5284769E-001	-1.2542007E+000	0
1.0143444E+001	1.134871973394911E+002	-1.2561961E+000	-1.238431619213819E+002	1.5557130E-001	-1.2562007E+000	0
9.9594450E+000	1.136871973344387E+002	-1.2581145E+000	-1.263237558535716E+002	1.5892975E-001	-1.2582006E+000	0
9.8479261E+000	1.138871973293863E+002	-1.2601950E+000	-1.279655187621947E+002	1.6126151E-001	-1.2602006E+000	0
9.7118950E+000	1.140871973243338E+002	-1.2621694E+000	-1.299611778151152E+002	1.6403301E-001	-1.2622007E+000	0
9.5980968E+000	1.142871973192814E+002	-1.2641289E+000	-1.317062023232038E+002	1.6649362E-001	-1.2642007E+000	0
9.3986158E+000	1.144871973142290E+002	-1.2661438E+000	-1.347159888782203E+002	1.7056981E-001	-1.2662007E+000	0
9.2590542E+000	1.146871973091766E+002	-1.2681713E+000	-1.369655280675474E+002	1.7369576E-001	-1.2682008E+000	0
9.1668310E+000	1.148871973041241E+002	-1.2701548E+000	-1.385598654336127E+002	1.7599249E-001	-1.2702007E+000	0
9.0539837E+000	1.150871972990717E+002	-1.2721722E+000	-1.405096609857349E+002	1.7875248E-001	-1.2722007E+000	0
8.9538269E+000	1.152871972940193E+002	-1.2741861E+000	-1.423063231509286E+002	1.8132475E-001	-1.2742007E+000	0
8.8365793E+000	1.154871972889669E+002	-1.2761332E+000	-1.444148418151872E+002	1.8429257E-001	-1.2762007E+000	0
8.7532873E+000	1.156871972839144E+002	-1.2781827E+000	-1.460231747248813E+002	1.8664430E-001	-1.2782007E+000	0
8.6359215E+000	1.158871972788620E+002	-1.2801536E+000	-1.482359038567056E+002	1.8976474E-001	-1.2802007E+000	0
8.5615215E+000	1.160871972738096E+002	-1.2821584E+000	-1.497582442852381E+002	1.9201379E-001	-1.2822006E+000	0
8.4399748E+000	1.162871972687572E+002	-1.2841855E+000	-1.521551316849495E+002	1.9539542E-001	-1.2842007E+000	0
8.2602472E+000	1.164871972637047E+002	-1.2861496E+000	-1.557035222896910E+002	2.0025803E-001	-1.2862008E+000	0
8.1551933E+000	1.166871972586523E+002	-1.2881781E+000	-1.579580130760901E+002	2.0347805E-001	-1.2882007E+000	0
8.0994625E+000	1.168871972535999E+002	-1.2901309E+000	-1.592859847961904E+002	2.0549977E-001	-1.2902007E+000	0
8.0088844E+000	1.170871972485475E+002	-1.2921467E+000	-1.613391542456320E+002	2.0847385E-001	-1.2922007E+000	0
7.8555655E+000	1.172871972434950E+002	-1.2941393E+000	-1.647417016970062E+002	2.1319871E-001	-1.2942007E+000	0
7.7123642E+000	1.174871972384426E+002	-1.2961829E+000	-1.680655695251321E+002	2.1784371E-001	-1.2962006E+000	0
7.6105957E+000	1.176871972333902E+002	-1.2981665E+000	-1.705735762027383E+002	2.2143291E-001	-1.2982007E+000	0
7.4197855E+000	1.178871972283378E+002	-1.3001430E+000	-1.752264892876551E+002	2.2781949E-001	-1.3002007E+000	0
7.3345141E+000	1.180871972232853E+002	-1.3021621E+000	-1.775389689653096E+002	2.3118451E-001	-1.3022007E+000	0
7.2361465E+000	1.182871972182329E+002	-1.3041543E+000	-1.802277342586558E+002	2.3504478E-001	-1.3042005E+000	0
7.0862460E+000	1.184871972131805E+002	-1.3061812E+000	-1.843262536574380E+002	2.4076349E-001	-1.3062006E+000	0
6.9664993E+000	1.186871972081281E+002	-1.3081787E+000	-1.877813535298887E+002	2.4565156E-001	-1.3082007E+000	0
6.9317145E+000	1.188871972030756E+002	-1.3101355E+000	-1.890059794784945E+002	2.4762344E-001	-1.3102006E+000	0
6.8611350E+000	1.190871971980232E+002	-1.3121847E+000	-1.912489271845138E+002	2.5095391E-001	-1.3122007E+000	0
6.8196340E+000	1.192871971929708E+002	-1.3142211E+000	-1.927113954615429E+002	2.5326538E-001	-1.3142006E+000	0
6.7670751E+000	1.194871971879184E+002	-1.3161585E+000	-1.944944520969766E+002	2.5598553E-001	-1.3162006E+000	0
6.6261549E+000	1.196871971828659E+002	-1.3182272E+000	-1.989430013708525E+002	2.6225206E-001	-1.3182007E+000	0
6.5184703E+000	1.198871971778135E+002	-1.3202153E+000	-2.025345361497675E+002	2.6738921E-001	-1.3202007E+000	0
6.5098257E+000	1.200871971727611E+002	-1.3221928E+000	-2.031072426296419E+002	2.6854694E-001	-1.3222007E+000	0
6.4246259E+000	1.202871971677087E+002	-1.3242437E+000	-2.061199649110131E+002	2.7295306E-001	-1.3242006E+000	0
6.3061571E+000	1.204871971626562E+002	-1.3261985E+000	-2.103021564440396E+002	2.7890238E-001	-1.3262006E+000	0
6.2069755E+000	1.206871971576038E+002	-1.3281990E+000	-2.139849051110059E+002	2.8421456E-001	-1.3282007E+000	0
6.1747241E+000	1.208871971525514E+002	-1.3302187E+000	-2.154296553886397E+002	2.8656855E-001	-1.3302007E+000	0
6.1270237E+000	1.210871971474990E+002	-1.3321825E+000	-2.174273471161896E+002	2.8965291E-001	-1.3322006E+000	0
6.0849576E+000	1.212871971424465E+002	-1.3342233E+000	-2.192658310520410E+002	2.9254958E-001	-1.3342006E+000	0
5.9912887E+000	1.214871971373941E+002	-1.3362175E+000	-2.230267346116145E+002	2.9801223E-001	-1.3362007E+000	0
5.9535089E+000	1.216871971323417E+002	-1.3382286E+000	-2.247798032890375E+002	3.0080676E-001	-1.3382007E+000	0
5.8968801E+000	1.218871971272893E+002	-1.3402355E+000	-2.272787319538004E+002	3.0460700E-001	-1.3402007E+000	0
5.7769742E+000	1.220871971222368E+002	-1.3422197E+000	-2.323395641006846E+002	3.1185076E-001	-1.3422006E+000	0
5.6968794E+000	1.222871971171844E+002	-1.3442523E+000	-2.359629357266588E+002	3.1719372E-001	-1.3442006E+000	0
5.6246819E+000	1.224873971121269E+002	-1.3461906E+000	-2.393363094194192E+002	3.2219228E-001	-1.3462021E+000	0
5.4992485E+000	1.226878971070619E+002	-1.3482186E+000	-2.451641545911060E+002	3.3053488E-001	-1.3482074E+000	0
5.3893270E+000	1.228881971020019E+002	-1.3502203E+000	-2.505359738645202E+002	3.3827877E-001	-1.3502102E+000	0
5.3886018E+000	1.230885970969393E+002	-1.3522698E+000	-2.509500184884096E+002	3.3935213E-001	-1.3522142E+000	0
5.3759580E+000	1.232887970918819E+002	-1.3542702E+000	-2.519123556975926E+002	3.4115741E-001	-1.3542165E+000	0
5.3115225E+000	1.234890970868219E+002	-1.3562430E+000	-2.553397961282551E+002	3.4630281E-001	-1.3562189E+000	0
5.2306356E+000	1.236894970817593E+002	-1.3582824E+000	-2.596782753609614E+002	3.5271645E-001	-1.3582234E+000	0
5.1891060E+000	1.238900970766917E+002	-1.3602877E+000	-2.621429756017053E+002	3.5658985E-001	-1.3602287E+000	0
5.1734147E+000	1.240905970716267E+002	-1.3622864E+000	-2.633244314056243E+002	3.5872331E-001	-1.3622341E+000	0
5.0914779E+000	1.242910970665616E+002	-1.3642619E+000	-2.679500759308698E+002	3.6555406E-001	-1.3642395E+000	0
5.0985513E+000	1.244911970615067E+002	-1.3662777E+000	-2.679736983651751E+002	3.6612648E-001	-1.3662406E+000	0
5.0129724E+000	1.246914970564467E+002	-1.3682843E+000	-2.729487042767860E+002	3.7347144E-001	-1.3682433E+000	0
4.9861412E+000	1.248916970513892E+002	-1.3702605E+000	-2.748138109376295E+002	3.7656650E-001	-1.3702453E+000	0
4.9560313E+000	1.250918970463317E+002	-1.3722532E+000	-2.768854937973219E+002	3.7995699E-001	-1.3722475E+000	0
4.9263635E+000	1.252921970412717E+002	-1.3742604E+000	-2.789604289283006E+002	3.8336429E-001	-1.3742502E+000	0
4.8966069E+000	1.254924970362117E+002	-1.3762902E+000	-2.810701805774779E+002	3.8683414E-001	-1.3762535E+000	0
4.8295999E+000	1.256928970311492E+002	-1.3782750E+000	-2.853807877811087E+002	3.9333323E-001	-1.3782570E+000	0
4.7382894E+000	1.258933970260841E+002	-1.3803270E+000	-2.913133474874653E+002	4.0210769E-001	-1.3802623E+000	0
4.6251483E+000	1.260936970210241E+002	-1.3823534E+000	-2.988776296760793E+002	4.1315451E-001	-1.3822654E+000	0
4.5364141E+000	1.262941970159591E+002	-1.3842857E+000	-3.051497732807911E+002	4.2241445E-001	-1.3842702E+000	0
4.5279164E+000	1.264944970108991E+002	-1.3863295E+000	-3.061738231799277E+002	4.2445782E-001	-1.3862734E+000	0
4.5167170E+000	1.266947970058391E+002	-1.3883514E+000	-3.073806716977087E+002	4.2675239E-001	-1.3882760E+000	0
4.5171719E+000	1.268949970007816E+002	-1.3903575E+000	-3.077937978108725E+002	4.2794341E-001	-1.3902786E+000	0
4.4499345E+000	1.270951969957241E+002	-1.3923018E+000	-3.128814184556541E+002	4.3562537E-001	-1.3922803E+000	0
4.3422179E+000	1.272957969906565E+002	-1.3943434E+000	-3.211131685518640E+002	4.4774202E-001	-1.3942860E+000	0
4.3336310E+000	1.274962969855915E+002	-1.3964034E+000	-3.222248193348273E+002	4.4995585E-001	-1.3962915E+000	0
4.3235354E+000	1.276966969805289E+002	-1.3983383E+000	-3.234247343248744E+002	4.5225719E-001	-1.3982949E+000	0
4.3017540E+000	1.278971969754639E+002	-1.4003773E+000	-3.255363512219064E+002	4.5587370E-001	-1.4003001E+000	0
4.3120503E+000	1.280974969704039E+002	-1.4023045E+000	-3.252059831814804E+002	4.5603782E-001	-1.4023032E+000	0
4.2690082E+000	1.282976969653464E+002	-1.4043765E+000	-3.289702138781586E+002	4.6199805E-001	-1.4043055E+000	0
4.1868582E+000	1.284982969602788E+002	-1.4064496E+000	-3.359200238782469E+002	4.7245458E-001	-1.4063109E+000	0
4.1100912E+000	1.286987969552138E+002	-1.4083922E+000	-3.426669030782191E+002	4.8260939E-001	-1.4083163E+000	0
4.1068950E+000	1.288992969501487E+002	-1.4104245E+000	-3.434284133992087E+002	4.8437983E-001	-1.4103211E+000	0
4.0449014E+000	1.290993969450938E+002	-1.4123880E+000	-3.491773758194086E+002	4.9317393E-001	-1.4123228E+000	0
3.9273906E+000	1.292997969400312E+002	-1.4143660E+000	-3.601286810174388E+002	5.0935376E-001	-1.4143256E+000	0
3.9291065E+000	1.295000969349712E+002	-1.4164207E+000	-3.604943472119985E+002	5.1061165E-001	-1.4163295E+000	0
3.8126800E+000	1.297004969299087E+002	-1.4184797E+000	-3.720426857883431E+002	5.2773499E-001	-1.4183329E+000	0
3.8040948E+000	1.299008969248462E+002	-1.4204758E+000	-3.734070551253462E+002	5.3041571E-001	-1.4203374E+000	0
3.7666807E+000	1.301009969197912E+002	-1.4224514E+000	-3.776405514373273E+002	5.3717530E-001	-1.4223386E+000	0
3.7447605E+000	1.303012969147312E+002	-1.4244491E+000	-3.803845548987240E+002	5.4183841E-001	-1.4243410E+000	0
3.7549765E+000	1.305015969096712E+002	-1.4264477E+000	-3.798819480255879E+002	5.4188174E-001	-1.4263448E+000	0
3.7134347E+000	1.307020969046062E+002	-1.4284664E+000	-3.846752558266880E+002	5.4949570E-001	-1.4283488E+000	0
3.6947198E+000	1.309025968995411E+002	-1.4304626E+000	-3.871640331116813E+002	5.5382365E-001	-1.4303541E+000	0
3.6290822E+000	1.311032968944710E+002	-1.4324392E+000	-3.947111486168292E+002	5.6539971E-001	-1.4323610E+000	0
3.6072741E+000	1.313037968894059E+002	-1.4345020E+000	-3.976692495527057E+002	5.7045734E-001	-1.4343661E+000	0
3.5759549E+000	1.315042968843409E+002	-1.4364817E+000	-4.017057659034381E+002	5.7704300E-001	-1.4363710E+000	0
3.5935531E+000	1.317047968792758E+002	-1.4384849E+000	-4.002959989590408E+002	5.7581973E-001	-1.4383757E+000	0
3.6169238E+000	1.319051968742133E+002	-1.4404702E+000	-3.982583721497067E+002	5.7367933E-001	-1.4403800E+000	0
3.6381142E+000	1.321055968691508E+002	-1.4424554E+000	-3.964843586179722E+002	5.7191104E-001	-1.4423840E+000	0
3.6155396E+000	1.323061968640832E+002	-1.4444560E+000	-3.995132524661694E+002	5.7707930E-001	-1.4443901E+000	0
3.5469358E+000	1.325066968590181E+002	-1.4465261E+000	-4.078241474622846E+002	5.8992827E-001	-1.4463950E+000	0
3.5072763E+000	1.327071968539531E+002	-1.4485276E+000	-4.130063921173023E+002	5.9825116E-001	-1.4484001E+000	0
3.5070786E+000	1.329076968488880E+002	-1.4504821E+000	-4.135869884627646E+002	5.9990054E-001	-1.4504054E+000	0
3.4275618E+000	1.331079968438280E+002	-1.4525008E+000	-4.237708594767837E+002	6.1552751E-001	-1.4524082E+000	0
3.4049780E+000	1.333084968387629E+002	-1.4545449E+000	-4.271818731373787E+002	6.2135524E-001	-1.4544129E+000	0
3.3596253E+000	1.335091968336928E+002	-1.4565116E+000	-4.335339511284274E+002	6.3144726E-001	-1.4564201E+000	0
3.3623888E+000	1.337096968286278E+002	-1.4585410E+000	-4.337811746424331E+002	6.3268763E-001	-1.4584248E+000	0
3.4011545E+000	1.339099968235678E+002	-1.4605151E+000	-4.294174684061745E+002	6.2717074E-001	-1.4604287E+000	0
3.3897557E+000	1.341099968185154E+002	-1.4625158E+000	-4.314517016248610E+002	6.3100493E-001	-1.4624286E+000	0
3.3392792E+000	1.343099968134629E+002	-1.4645072E+000	-4.385698648439784E+002	6.4228874E-001	-1.4644284E+000	0
3.2595544E+000	1.345099968084105E+002	-1.4665227E+000	-4.499150920660313E+002	6.5981072E-001	-1.4664285E+000	0
3.1941442E+000	1.347099968033581E+002	-1.4685636E+000	-4.597674487453464E+002	6.7519772E-001	-1.4684285E+000	0
3.0862880E+000	1.349099967983057E+002	-1.4705892E+000	-4.764912209110744E+002	7.0072281E-001	-1.4704283E+000	0
3.0594666E+000	1.351099967932532E+002	-1.4725941E+000	-4.813238063907429E+002	7.0879459E-001	-1.4724284E+000	0
3.0322723E+000	1.353099967882008E+002	-1.4745710E+000	-4.862923991404423E+002	7.1707267E-001	-1.4744284E+000	0
3.0226531E+000	1.355099967831484E+002	-1.4766165E+000	-4.885166794740162E+002	7.2135180E-001	-1.4764285E+000	0
3.0429204E+000	1.357099967780960E+002	-1.4786639E+000	-4.859358012962766E+002	7.1853572E-001	-1.4784286E+000	0
3.0452302E+000	1.359099967730435E+002	-1.4806103E+000	-4.862063633579239E+002	7.1988213E-001	-1.4804285E+000	0
3.0402334E+000	1.361099967679911E+002	-1.4826149E+000	-4.876648377658548E+002	7.2301912E-001	-1.4824284E+000	0
3.0506856E+000	1.363099967629387E+002	-1.4845718E+000	-4.866354685716360E+002	7.2244531E-001	-1.4844285E+000	0
3.0632923E+000	1.365099967578863E+002	-1.4866102E+000	-4.852981760063949E+002	7.2144920E-001	-1.4864285E+000	0
3.0934989E+000	1.367099967528338E+002	-1.4885870E+000	-4.811984836292916E+002	7.1630579E-001	-1.4884285E+000	0
3.1067936E+000	1.369099967477814E+002	-1.4906186E+000	-4.797932425777931E+002	7.1518874E-001	-1.4904286E+000	0
3.0762451E+000	1.371099967427290E+002	-1.4925877E+000	-4.851978998768063E+002	7.2420043E-001	-1.4924284E+000	0
3.1023059E+000	1.373099967376766E+002	-1.4945482E+000	-4.817539597033365E+002	7.2000450E-001	-1.4944285E+000	0
3.0368011E+000	1.375099967326241E+002	-1.4966117E+000	-4.928250580050208E+002	7.3756778E-001	-1.4964285E+000	0
3.0450587E+000	1.377099967275717E+002	-1.4985695E+000	-4.921315520366579E+002	7.3749334E-001	-1.4984282E+000	0
2.9941611E+000	1.379099967225193E+002	-1.5006011E+000	-5.011757939570089E+002	7.5206494E-001	-1.5004286E+000	0
2.9808428E+000	1.381099967174669E+002	-1.5026017E+000	-5.040861973405699E+002	7.5744081E-001	-1.5024284E+000	0
2.9734442E+000	1.383099967124144E+002	-1.5045594E+000	-5.059988642712001E+002	7.6130533E-001	-1.5044285E+000	0
2.9438884E+000	1.385099967073620E+002	-1.5066125E+000	-5.117763815683029E+002	7.7104872E-001	-1.5064286E+000	0
2.9425986E+000	1.387099967023096E+002	-1.5086086E+000	-5.126790245644361E+002	7.7343196E-001	-1.5084285E+000	0
2.8922558E+000	1.389099966972572E+002	-1.5105952E+000	-5.222896306649927E+002	7.8896821E-001	-1.5104283E+000	0
2.9035816E+000	1.391099966922047E+002	-1.5125722E+000	-5.209332191268313E+002	7.8794909E-001	-1.5124284E+000	0
2.8924332E+000	1.393099966871523E+002	-1.5146074E+000	-5.236447297353625E+002	7.9311621E-001	-1.5144285E+000	0
2.8753026E+000	1.395099966820999E+002	-1.5165641E+000	-5.274450528108046E+002	7.9990423E-001	-1.5164286E+000	0
2.9118578E+000	1.397099966770475E+002	-1.5186286E+000	-5.215325369283469E+002	7.9201424E-001	-1.5184284E+000	0
2.9228232E+000	1.399099966719950E+002	-1.5205928E+000	-5.202479808573817E+002	7.9108536E-001	-1.5204283E+000	0
2.9325531E+000	1.401099966669426E+002	-1.5226196E+000	-5.192129948241909E+002	7.9056388E-001	-1.5224284E+000	0
2.9261672E+000	1.403099966618902E+002	-1.5246218E+000	-5.210303139329753E+002	7.9437423E-001	-1.5244285E+000	0
2.8132231E+000	1.405099966568378E+002	-1.5268760E+000	-5.427496945863417E+002	8.2871145E-001	-1.5264283E+000	0
2.8315499E+000	1.407099966517853E+002	-1.5291597E+000	-5.400433480874735E+002	8.2581252E-001	-1.5284284E+000	0
2.8482294E+000	1.409099966467329E+002	-1.5311317E+000	-5.375731728395904E+002	8.2309532E-001	-1.5304284E+000	0
2.7769713E+000	1.411099966416805E+002	-1.5331315E+000	-5.520876311520606E+002	8.4642291E-001	-1.5324284E+000	0
2.7357402E+000	1.413099966366281E+002	-1.5351155E+000	-5.611335014118376E+002	8.6140472E-001	-1.5344285E+000	0
2.7445259E+000	1.415099966315756E+002	-1.5371643E+000	-5.600837364975278E+002	8.6094075E-001	-1.5364286E+000	0
2.6663206E+000	1.417099966265232E+002	-1.5391681E+000	-5.772629902768313E+002	8.8850480E-001	-1.5384284E+000	0
2.6771472E+000	1.419099966214708E+002	-1.5411851E+000	-5.756818703631980E+002	8.8723236E-001	-1.5404284E+000	0
2.6639783E+000	1.420599966176815E+002	-1.5426636E+000	-5.790826390227480E+002	8.9332968E-001	-1.5419282E+000	0
2.6711624E+000	1.421121966163628E+002	-1.5432024E+000	-5.777269165039061E+002	8.9154959E-001	-1.5425282E+000	1