EC-Lab ASCII FILE
Nb header lines : 63                          

Linear Sweep Voltammetry

Run on channel : 1 (SN 1340)
User : 
Electrode connection : standard
Potential control : Ewe
Ewe ctrl range : min = -5.00 V, max = 5.00 V
Ewe,I filtering : <None>
Safety Limits :
	Do not start on E overload
Channel : Floating
Acquisition started on : 02/18/2026 18:41:16.081
Technique started on : 02/18/2026 18:41:18.919
Loaded Setting File :  NONE
Saved on :
	File : PtPdCoNiCrFe_2_18_02_LSV_C01.mpr
	Directory : C:\Users\volt\Documents\Platalytix\
	Host : 127.0.0.1
Device : SP-200 (SN 0262)
Address : USB
EC-LAB for windows v11.60 (software)
Internet server v11.60 (firmware)
Command interpretor v11.60 (firmware)
Electrode material : PtPdCoNiCrFe
Initial state : 
Electrolyte : KOH (1M)
Comments : 
Cable : standard
Reference electrode : Hg/HgO (0.140 V)
Electrode surface area : 1.000 cm˛
Characteristic mass : 0.001 g
Equivalent Weight : 0.000 g/eq.
Density : 0.000 g/cm3
Volume (V) : 0.001 cmł
Cycle Definition : Charge/Discharge alternance
tR (h:m:s)          0:00:5.0000         
dER/dt (mV/h)       0.0                 
dER (mV)            0                   
dtR (s)             0.0000              
dE/dt               10.000              
dE/dt unit          mV/s                
Ei (V)              -0.200              
vs.                 Ref                 
EL (V)              -2.500              
vs.                 Ref                 
record              <I>                 
dI                  0.000               
unit dI             µA                  
tI (s)              0.0000              
step percent        50                  
N                   10                  
E range min (V)     -5.000              
E range max (V)     5.000               
I Range             Auto                
I Range min         Unset               
I Range max         Unset               
I Range init        Unset               
Bandwidth           8                   

Rwe/Ohm	time/s	Ewe/V	<I>/mA	Pwe/W	control/V	error	
0.0000000E+000	2.838400134787662E+000	-1.5951049E-001	0.000000000000000E+000	0.0000000E+000	0.0000000E+000	0
0.0000000E+000	7.838200008482090E+000	-5.0401695E-002	0.000000000000000E+000	0.0000000E+000	-1.9999303E-001	0
4.6847915E+003	8.038200003429665E+000	-2.0178024E-001	4.307133712107315E-002	-8.6909449E-006	-2.0189281E-001	0
1.9249818E+003	8.158200000398210E+000	-2.0314118E-001	-1.055288870904443E-001	2.1437263E-005	-2.0309287E-001	0
1.7252394E+003	8.368199995093164E+000	-2.0524429E-001	-1.189656896651838E-001	2.4417028E-005	-2.0519285E-001	0
1.7977239E+003	8.568199990040739E+000	-2.0722297E-001	-1.152696285096937E-001	2.3886514E-005	-2.0719287E-001	0
1.8835984E+003	8.768199984988314E+000	-2.0925824E-001	-1.110949396037513E-001	2.3247532E-005	-2.0919287E-001	0
1.9665543E+003	8.968199979935889E+000	-2.1122482E-001	-1.074085865378833E-001	2.2687360E-005	-2.1119285E-001	0
2.0454486E+003	9.168199974883464E+000	-2.1325357E-001	-1.042576024674156E-001	2.2233306E-005	-2.1319288E-001	0
2.1188494E+003	9.368199969831039E+000	-2.1525852E-001	-1.015921771682613E-001	2.1868582E-005	-2.1519285E-001	0
2.1893005E+003	9.568199964778614E+000	-2.1727559E-001	-9.924429419921377E-002	2.1563363E-005	-2.1719284E-001	0
2.2563291E+003	9.768199959726189E+000	-2.1923538E-001	-9.716462786731772E-002	2.1301923E-005	-2.1919288E-001	0
2.3206909E+003	9.968199954673764E+000	-2.2126941E-001	-9.534635679910330E-002	2.1097232E-005	-2.2119285E-001	0
2.3832576E+003	1.016819994962134E+001	-2.2326079E-001	-9.367883744620009E-002	2.0914811E-005	-2.2319286E-001	0
2.4427642E+003	1.036819994456891E+001	-2.2524413E-001	-9.220871200062797E-002	2.0769472E-005	-2.2519286E-001	0
2.5012432E+003	1.056819993951649E+001	-2.2722851E-001	-9.084623000508474E-002	2.0642854E-005	-2.2719285E-001	0
2.5591978E+003	1.076819993446406E+001	-2.2926405E-001	-8.958434568329565E-002	2.0538469E-005	-2.2919285E-001	0
2.6169524E+003	1.096819992941164E+001	-2.3128025E-001	-8.837770542991519E-002	2.0440018E-005	-2.3119286E-001	0
2.6707949E+003	1.116819992435921E+001	-2.3324747E-001	-8.733260740743565E-002	2.0370109E-005	-2.3319286E-001	0
2.7260237E+003	1.136819991930679E+001	-2.3528637E-001	-8.631119850807528E-002	2.0307849E-005	-2.3519285E-001	0
2.7814094E+003	1.156819991425436E+001	-2.3727055E-001	-8.530586856827038E-002	2.0240570E-005	-2.3719287E-001	0
2.8334368E+003	1.176819990920194E+001	-2.3925644E-001	-8.444036673089217E-002	2.0202902E-005	-2.3919286E-001	0
2.8853005E+003	1.196819990414951E+001	-2.4121472E-001	-8.360124904242094E-002	2.0165851E-005	-2.4119285E-001	0
2.9386987E+003	1.216819989909709E+001	-2.4323836E-001	-8.277077155077878E-002	2.0133026E-005	-2.4319287E-001	0
2.9920259E+003	1.236819989404466E+001	-2.4528131E-001	-8.197833839360458E-002	2.0107755E-005	-2.4519287E-001	0
3.0420430E+003	1.256819988899224E+001	-2.4724512E-001	-8.127601345517399E-002	2.0095098E-005	-2.4719286E-001	0
3.0962930E+003	1.276819988393981E+001	-2.4925563E-001	-8.050130386710130E-002	2.0065403E-005	-2.4919286E-001	0
3.1481316E+003	1.296819987888739E+001	-2.5125441E-001	-7.981064215845202E-002	2.0052776E-005	-2.5119284E-001	0
3.1988838E+003	1.316819987383496E+001	-2.5320908E-001	-7.915544735643665E-002	2.0042879E-005	-2.5319287E-001	0
3.2505632E+003	1.336819986878254E+001	-2.5527221E-001	-7.853168280015960E-002	2.0046957E-005	-2.5519285E-001	0
3.3036616E+003	1.356819986373011E+001	-2.5723028E-001	-7.786217482724622E-002	2.0028509E-005	-2.5719288E-001	0
3.3554475E+003	1.376819985867769E+001	-2.5921509E-001	-7.725201591072156E-002	2.0024889E-005	-2.5919285E-001	0
3.4058252E+003	1.396819985362527E+001	-2.6121601E-001	-7.669683437965491E-002	2.0034442E-005	-2.6119289E-001	0
3.4616140E+003	1.416819984857284E+001	-2.6323843E-001	-7.604499917652620E-002	2.0017966E-005	-2.6319283E-001	0
3.5114998E+003	1.436819984352042E+001	-2.6525739E-001	-7.553962842918227E-002	2.0037445E-005	-2.6519287E-001	0
3.5616951E+003	1.456819983846799E+001	-2.6720506E-001	-7.502187954266137E-002	2.0046225E-005	-2.6719287E-001	0
3.6161882E+003	1.476819983341557E+001	-2.6918817E-001	-7.443975674594558E-002	2.0038302E-005	-2.6919284E-001	0
3.6677661E+003	1.496819982836314E+001	-2.7120376E-001	-7.394248795275349E-002	2.0053480E-005	-2.7119285E-001	0
3.7197412E+003	1.516819982331072E+001	-2.7324373E-001	-7.345772303784437E-002	2.0071862E-005	-2.7319285E-001	0
3.7710808E+003	1.536819981825829E+001	-2.7517337E-001	-7.296936298443885E-002	2.0079226E-005	-2.7519289E-001	0
3.8258281E+003	1.556819981320587E+001	-2.7720827E-001	-7.245706150185749E-002	2.0085696E-005	-2.7719286E-001	0
3.8792883E+003	1.576819980815344E+001	-2.7922726E-001	-7.197899185332202E-002	2.0098496E-005	-2.7919289E-001	0
3.9323831E+003	1.596819980310102E+001	-2.8125069E-001	-7.152169210468828E-002	2.0115525E-005	-2.8119284E-001	0
3.9839221E+003	1.616819979804859E+001	-2.8319561E-001	-7.108462420070427E-002	2.0130854E-005	-2.8319284E-001	0
4.0375432E+003	1.636819979299617E+001	-2.8522560E-001	-7.064335545537626E-002	2.0149293E-005	-2.8519285E-001	0
4.0920061E+003	1.656819978794374E+001	-2.8723079E-001	-7.019314954750025E-002	2.0161633E-005	-2.8719285E-001	0
4.1461401E+003	1.676819978289132E+001	-2.8921601E-001	-6.975548559706890E-002	2.0174404E-005	-2.8919286E-001	0
4.2015649E+003	1.696819977783889E+001	-2.9125962E-001	-6.932170097050916E-002	2.0190611E-005	-2.9119286E-001	0
4.2553628E+003	1.716819977278647E+001	-2.9323891E-001	-6.891043557703080E-002	2.0207221E-005	-2.9319286E-001	0
4.3089917E+003	1.736819976773404E+001	-2.9524195E-001	-6.851764122138226E-002	2.0229281E-005	-2.9519287E-001	0
4.3634668E+003	1.756819976268162E+001	-2.9719707E-001	-6.811030867959345E-002	2.0242185E-005	-2.9719287E-001	0
4.4197871E+003	1.776819975762919E+001	-2.9921329E-001	-6.769857443541738E-002	2.0256313E-005	-2.9919288E-001	0
4.4724971E+003	1.796819975257677E+001	-3.0126518E-001	-6.735950555861447E-002	2.0293073E-005	-3.0119285E-001	0
4.5316060E+003	1.816819974752434E+001	-3.0322108E-001	-6.691249498470253E-002	2.0289279E-005	-3.0319285E-001	0
4.5864014E+003	1.836819974247192E+001	-3.0521080E-001	-6.654690098663685E-002	2.0310832E-005	-3.0519286E-001	0
4.6416118E+003	1.856819973741949E+001	-3.0723444E-001	-6.619132197802025E-002	2.0336254E-005	-3.0719286E-001	0
4.6945220E+003	1.876819973236707E+001	-3.0929479E-001	-6.588419449469185E-002	2.0377638E-005	-3.0919287E-001	0
4.7514233E+003	1.896819972731464E+001	-3.1121254E-001	-6.549880560223509E-002	2.0384050E-005	-3.1119287E-001	0
4.8067373E+003	1.916819972226222E+001	-3.1325680E-001	-6.517036022067257E-002	2.0415058E-005	-3.1319287E-001	0
4.8645210E+003	1.936819971720979E+001	-3.1524009E-001	-6.480393307642518E-002	2.0428797E-005	-3.1519285E-001	0
4.9217446E+003	1.956819971215737E+001	-3.1723043E-001	-6.445487643868703E-002	2.0447049E-005	-3.1719288E-001	0
4.9771782E+003	1.976819970710494E+001	-3.1920421E-001	-6.413356788232571E-002	2.0471705E-005	-3.1919286E-001	0
5.0352920E+003	1.996819970205252E+001	-3.2122889E-001	-6.379548362414011E-002	2.0492953E-005	-3.2119289E-001	0
5.0911748E+003	2.016819969700009E+001	-3.2326525E-001	-6.349521975588412E-002	2.0525798E-005	-3.2319283E-001	0
5.1488320E+003	2.036819969194767E+001	-3.2525414E-001	-6.317046854609076E-002	2.0546457E-005	-3.2519284E-001	0
5.2063799E+003	2.056819968689524E+001	-3.2720199E-001	-6.284635667868654E-002	2.0563453E-005	-3.2719284E-001	0
5.2635977E+003	2.076819968184282E+001	-3.2925323E-001	-6.255288623366306E-002	2.0595740E-005	-3.2919285E-001	0
5.3223286E+003	2.096819967679039E+001	-3.3122721E-001	-6.223351324067905E-002	2.0613434E-005	-3.3119288E-001	0
5.3795356E+003	2.116819967173797E+001	-3.3327338E-001	-6.195207212971365E-002	2.0646976E-005	-3.3319288E-001	0
5.4373032E+003	2.136819966668554E+001	-3.3527812E-001	-6.166257676320008E-002	2.0674113E-005	-3.3519286E-001	0
5.4900825E+003	2.156819966163312E+001	-3.3725363E-001	-6.142961264740007E-002	2.0717360E-005	-3.3719286E-001	0
5.5503896E+003	2.176819965658069E+001	-3.3923504E-001	-6.111913683872816E-002	2.0733753E-005	-3.3919287E-001	0
5.6082383E+003	2.196819965152827E+001	-3.4124762E-001	-6.084756256300788E-002	2.0764086E-005	-3.4119284E-001	0
5.6706118E+003	2.216819964647584E+001	-3.4327129E-001	-6.053514107100882E-002	2.0779975E-005	-3.4319285E-001	0
5.7251357E+003	2.236819964142342E+001	-3.4523824E-001	-6.030219274017612E-002	2.0818623E-005	-3.4519285E-001	0
5.7888662E+003	2.256819963637099E+001	-3.4724256E-001	-5.998455601176267E-002	2.0829191E-005	-3.4719285E-001	0
5.8440771E+003	2.276819963131857E+001	-3.4922016E-001	-5.975625354030056E-002	2.0868089E-005	-3.4919289E-001	0
5.8996245E+003	2.296819962626614E+001	-3.5122770E-001	-5.953390840092543E-002	2.0909958E-005	-3.5119286E-001	0
5.9597290E+003	2.316819962121372E+001	-3.5322312E-001	-5.926832046714536E-002	2.0934940E-005	-3.5319287E-001	0
6.0206553E+003	2.336819961616129E+001	-3.5524720E-001	-5.900473836038544E-002	2.0961268E-005	-3.5519290E-001	0
6.0735684E+003	2.356819961110887E+001	-3.5725194E-001	-5.882076684928284E-002	2.1013833E-005	-3.5719287E-001	0
6.1354385E+003	2.376819960605644E+001	-3.5924804E-001	-5.855295241466107E-002	2.1035034E-005	-3.5919291E-001	0
6.1946011E+003	2.396819960100402E+001	-3.6125427E-001	-5.831759985453955E-002	2.1067483E-005	-3.6119288E-001	0
6.2483677E+003	2.416819959595159E+001	-3.6318070E-001	-5.812409030148935E-002	2.1109548E-005	-3.6319286E-001	0
6.3066108E+003	2.436819959089917E+001	-3.6522415E-001	-5.791131706428948E-002	2.1150612E-005	-3.6519286E-001	0
6.3652900E+003	2.456819958584674E+001	-3.6722842E-001	-5.769233206971291E-002	2.1186264E-005	-3.6719286E-001	0
6.4284795E+003	2.476819958079432E+001	-3.6928007E-001	-5.744438986726903E-002	2.1213069E-005	-3.6919290E-001	0
6.4793223E+003	2.496819957574189E+001	-3.7123817E-001	-5.729583351843287E-002	2.1270400E-005	-3.7119287E-001	0
6.5408604E+003	2.516819957068947E+001	-3.7321067E-001	-5.705834375092489E-002	2.1294783E-005	-3.7319288E-001	0
6.5966387E+003	2.536819956563704E+001	-3.7515602E-001	-5.687078630262365E-002	2.1335418E-005	-3.7519288E-001	0
6.6566904E+003	2.556819956058462E+001	-3.7721959E-001	-5.666773974242934E-002	2.1376181E-005	-3.7719288E-001	0
6.7140352E+003	2.576819955553219E+001	-3.7921938E-001	-5.648158862289313E-002	2.1418913E-005	-3.7919286E-001	0
6.7738223E+003	2.596819955047977E+001	-3.8123199E-001	-5.628018694414483E-002	2.1455808E-005	-3.8119289E-001	0
6.8280996E+003	2.616819954542734E+001	-3.8322809E-001	-5.612514716944728E-002	2.1508733E-005	-3.8319287E-001	0
6.8822593E+003	2.636819954037492E+001	-3.8523647E-001	-5.597529213562985E-002	2.1563725E-005	-3.8519287E-001	0
6.9384067E+003	2.656819953532249E+001	-3.8725862E-001	-5.581376879568944E-002	2.1614364E-005	-3.8719288E-001	0
6.9936841E+003	2.676819953027007E+001	-3.8921368E-001	-5.565216602776601E-002	2.1660584E-005	-3.8919288E-001	0
7.0511118E+003	2.696819952521764E+001	-3.9123014E-001	-5.548488683607863E-002	2.1707359E-005	-3.9119288E-001	0
7.1094116E+003	2.716819952016522E+001	-3.9321497E-001	-5.530907346839575E-002	2.1748356E-005	-3.9319292E-001	0
7.1669380E+003	2.736819951511279E+001	-3.9524287E-001	-5.514808186084919E-002	2.1796886E-005	-3.9519286E-001	0
7.2218945E+003	2.756819951006037E+001	-3.9722046E-001	-5.500225161198047E-002	2.1848020E-005	-3.9719290E-001	0
7.2812539E+003	2.776819950500794E+001	-3.9925748E-001	-5.483361555668886E-002	2.1892731E-005	-3.9919287E-001	0
7.3331519E+003	2.796819949995552E+001	-4.0121379E-001	-5.471232444651919E-002	2.1951339E-005	-4.0119293E-001	0
7.3917725E+003	2.816819949490309E+001	-4.0323281E-001	-5.455157287997503E-002	2.1996984E-005	-4.0319288E-001	0
7.4429385E+003	2.836819948985067E+001	-4.0521148E-001	-5.444240731993921E-002	2.2060689E-005	-4.0519285E-001	0
7.5048877E+003	2.856819948479824E+001	-4.0723386E-001	-5.426248710902426E-002	2.2097522E-005	-4.0719289E-001	0
7.5570386E+003	2.876819947974582E+001	-4.0922564E-001	-5.415158967916212E-002	2.2160219E-005	-4.0919286E-001	0
7.6040728E+003	2.896819947469339E+001	-4.1123420E-001	-5.408078344547257E-002	2.2239868E-005	-4.1119289E-001	0
7.6582192E+003	2.916819946964097E+001	-4.1329589E-001	-5.396762309657221E-002	2.2304597E-005	-4.1319290E-001	0
7.7128652E+003	2.936819946458854E+001	-4.1525269E-001	-5.383896700300861E-002	2.2356775E-005	-4.1519290E-001	0
7.7674668E+003	2.956819945953612E+001	-4.1727778E-001	-5.372121955464476E-002	2.2416671E-005	-4.1719285E-001	0
7.8246904E+003	2.976819945448369E+001	-4.1926789E-001	-5.358268052462056E-002	2.2465498E-005	-4.1919288E-001	0
7.8770015E+003	2.996819944943127E+001	-4.2127159E-001	-5.348121164294772E-002	2.2530116E-005	-4.2119291E-001	0
7.9278276E+003	3.016819944437884E+001	-4.2326573E-001	-5.338987434027376E-002	2.2598104E-005	-4.2319289E-001	0
7.9809404E+003	3.036819943932642E+001	-4.2528370E-001	-5.328741624408623E-002	2.2662269E-005	-4.2519286E-001	0
8.0440630E+003	3.056819943427399E+001	-4.2728120E-001	-5.311758595185090E-002	2.2696146E-005	-4.2719290E-001	0
8.0833955E+003	3.076819942922157E+001	-4.2928788E-001	-5.310737179241709E-002	2.2798351E-005	-4.2919287E-001	0
8.1400669E+003	3.096819942416914E+001	-4.3125573E-001	-5.297938246193357E-002	2.2847662E-005	-4.3119287E-001	0
8.1906157E+003	3.116819941911672E+001	-4.3329591E-001	-5.290150493034962E-002	2.2922006E-005	-4.3319288E-001	0
8.2435371E+003	3.136819941406429E+001	-4.3527526E-001	-5.280200232669308E-002	2.2983406E-005	-4.3519291E-001	0
8.2962988E+003	3.156819940901187E+001	-4.3729183E-001	-5.270926857656488E-002	2.3049333E-005	-4.3719286E-001	0
8.3455479E+003	3.176819940395944E+001	-4.3927833E-001	-5.263624889216478E-002	2.3121964E-005	-4.3919289E-001	0
8.3958438E+003	3.196819939890702E+001	-4.4129267E-001	-5.256084604727351E-002	2.3194716E-005	-4.4119292E-001	0
8.4480420E+003	3.216819939385459E+001	-4.4329956E-001	-5.247364658703962E-002	2.3261544E-005	-4.4319287E-001	0
8.4969268E+003	3.236819938880217E+001	-4.4528458E-001	-5.240536701776843E-002	2.3335302E-005	-4.4519287E-001	0
8.5506592E+003	3.256819938374974E+001	-4.4726646E-001	-5.230783677528999E-002	2.3395542E-005	-4.4719291E-001	0
8.5889307E+003	3.276819937869732E+001	-4.4928545E-001	-5.230982183920138E-002	2.3502042E-005	-4.4919294E-001	0
8.6425186E+003	3.296819937364489E+001	-4.5126936E-001	-5.221503064334121E-002	2.3563043E-005	-4.5119289E-001	0
8.6924551E+003	3.316819936859247E+001	-4.5330215E-001	-5.214892191941223E-002	2.3639219E-005	-4.5319289E-001	0
8.7363223E+003	3.336819936354004E+001	-4.5524898E-001	-5.210990882415301E-002	2.3722983E-005	-4.5519289E-001	0
8.7862002E+003	3.356819935848762E+001	-4.5727387E-001	-5.204455209885411E-002	2.3798613E-005	-4.5719287E-001	0
8.8355859E+003	3.376819935343519E+001	-4.5926565E-001	-5.197908144545593E-002	2.3872206E-005	-4.5919290E-001	0
8.8840908E+003	3.396819934838277E+001	-4.6127579E-001	-5.192155390555497E-002	2.3950155E-005	-4.6119294E-001	0
8.9206709E+003	3.416819934333034E+001	-4.6326944E-001	-5.193213252942019E-002	2.4058570E-005	-4.6319291E-001	0
8.9810859E+003	3.436819933827792E+001	-4.6529078E-001	-5.180785394867143E-002	2.4105717E-005	-4.6519288E-001	0
9.0171797E+003	3.456819933322549E+001	-4.6724230E-001	-5.181689855173793E-002	2.4211047E-005	-4.6719289E-001	0
9.0585488E+003	3.476819932817307E+001	-4.6926612E-001	-5.180367685816423E-002	2.4309711E-005	-4.6919289E-001	0
9.1129111E+003	3.496819932312064E+001	-4.7125030E-001	-5.171237769695070E-002	2.4369474E-005	-4.7119290E-001	0
9.1531035E+003	3.516819931806822E+001	-4.7327781E-001	-5.170681082713247E-002	2.4471687E-005	-4.7319290E-001	0
9.2017275E+003	3.536819931301579E+001	-4.7528914E-001	-5.165216250212040E-002	2.4549712E-005	-4.7519290E-001	0
9.2406416E+003	3.556819930796337E+001	-4.7728345E-001	-5.165046652992267E-002	2.4651912E-005	-4.7719291E-001	0
9.2905977E+003	3.576819930291094E+001	-4.7927082E-001	-5.158665302672016E-002	2.4723977E-005	-4.7919285E-001	0
9.3200107E+003	3.596819929785852E+001	-4.8126367E-001	-5.163767080133153E-002	2.4851335E-005	-4.8119289E-001	0
9.3762168E+003	3.616819929280609E+001	-4.8326614E-001	-5.154169676455828E-002	2.4908357E-005	-4.8319292E-001	0
9.4122520E+003	3.636819928775367E+001	-4.8523751E-001	-5.155381389583136E-002	2.5015845E-005	-4.8519289E-001	0
9.4547686E+003	3.656819928270124E+001	-4.8724276E-001	-5.153407371189056E-002	2.5109604E-005	-4.8719287E-001	0
9.4935410E+003	3.676819927764882E+001	-4.8925662E-001	-5.153573477269069E-002	2.5214200E-005	-4.8919290E-001	0
9.5368564E+003	3.696819927259639E+001	-4.9127585E-001	-5.151339421257850E-002	2.5307287E-005	-4.9119291E-001	0
9.5768975E+003	3.716819926754397E+001	-4.9328521E-001	-5.150783024337610E-002	2.5408051E-005	-4.9319288E-001	0
9.6038965E+003	3.736819926249154E+001	-4.9524435E-001	-5.156702314114914E-002	2.5538277E-005	-4.9519292E-001	0
9.6453818E+003	3.756819925743912E+001	-4.9724656E-001	-5.155281275204554E-002	2.5634459E-005	-4.9719292E-001	0
9.6809551E+003	3.776819925238669E+001	-4.9926499E-001	-5.157187362856197E-002	2.5748031E-005	-4.9919286E-001	0
9.7219746E+003	3.796819924733427E+001	-5.0127798E-001	-5.156133377179073E-002	2.5846561E-005	-5.0119293E-001	0
9.7646045E+003	3.816819924228184E+001	-5.0326258E-001	-5.153947494039213E-002	2.5937888E-005	-5.0319290E-001	0
9.7994648E+003	3.836819923722942E+001	-5.0526327E-001	-5.156029367665277E-002	2.6051523E-005	-5.0519288E-001	0
9.8318467E+003	3.856819923217699E+001	-5.0727928E-001	-5.159552569042825E-002	2.6173340E-005	-5.0719285E-001	0
9.8716191E+003	3.876819922712457E+001	-5.0927532E-001	-5.158984535553235E-002	2.6273436E-005	-5.0919288E-001	0
9.9138760E+003	3.896819922207214E+001	-5.1130050E-001	-5.157422720847438E-002	2.6369928E-005	-5.1119292E-001	0
9.9420430E+003	3.916819921701972E+001	-5.1328981E-001	-5.162820081720698E-002	2.6500229E-005	-5.1319283E-001	0
9.9695693E+003	3.936819921196729E+001	-5.1525426E-001	-5.168270087027971E-002	2.6629732E-005	-5.1519287E-001	0
1.0012036E+004	3.956819920691487E+001	-5.1724052E-001	-5.166187384609344E-002	2.6721615E-005	-5.1719290E-001	0
1.0038149E+004	3.976819920186244E+001	-5.1929188E-001	-5.173183470603315E-002	2.6863921E-005	-5.1919287E-001	0
1.0075562E+004	3.996819919681002E+001	-5.2123773E-001	-5.173287379065461E-002	2.6965126E-005	-5.2119291E-001	0
1.0107965E+004	4.016819919175759E+001	-5.2323896E-001	-5.176501632815922E-002	2.7085473E-005	-5.2319288E-001	0
1.0135647E+004	4.036819918670517E+001	-5.2525491E-001	-5.182253248839669E-002	2.7220040E-005	-5.2519298E-001	0
1.0172650E+004	4.056819918165274E+001	-5.2722526E-001	-5.182771938229958E-002	2.7324882E-005	-5.2719289E-001	0
1.0197382E+004	4.076819917660032E+001	-5.2924931E-001	-5.190050718216177E-002	2.7468308E-005	-5.2919286E-001	0
1.0228616E+004	4.096819917154789E+001	-5.3124750E-001	-5.193737826664879E-002	2.7591603E-005	-5.3119296E-001	0
1.0257643E+004	4.116819916649547E+001	-5.3325754E-001	-5.198636500834319E-002	2.7722121E-005	-5.3319287E-001	0
1.0292611E+004	4.136819916144304E+001	-5.3524345E-001	-5.200268888039328E-002	2.7834099E-005	-5.3519291E-001	0
1.0320154E+004	4.156819915639062E+001	-5.3729516E-001	-5.206270438572508E-002	2.7973039E-005	-5.3719294E-001	0
1.0338267E+004	4.176819915133819E+001	-5.3928608E-001	-5.216407275161039E-002	2.8131359E-005	-5.3919291E-001	0
1.0368421E+004	4.196819914628577E+001	-5.4129529E-001	-5.220614552557012E-002	2.8258941E-005	-5.4119289E-001	0
1.0403935E+004	4.216819914123334E+001	-5.4327410E-001	-5.221813822021504E-002	2.8368762E-005	-5.4319286E-001	0
1.0430602E+004	4.236819913618092E+001	-5.4525715E-001	-5.227475371919244E-002	2.8503184E-005	-5.4519296E-001	0
1.0461061E+004	4.256819913112849E+001	-5.4725587E-001	-5.231361233633514E-002	2.8628932E-005	-5.4719287E-001	0
1.0493574E+004	4.276819912607607E+001	-5.4927915E-001	-5.234433238736669E-002	2.8751650E-005	-5.4919285E-001	0
1.0507741E+004	4.296819912102364E+001	-5.5125922E-001	-5.246220012417169E-002	2.8920271E-005	-5.5119294E-001	0
1.0526759E+004	4.316819911597122E+001	-5.5329603E-001	-5.256091264950857E-002	2.9081744E-005	-5.5319285E-001	0
1.0569141E+004	4.336819911091879E+001	-5.5530310E-001	-5.254004432718434E-002	2.9175650E-005	-5.5519289E-001	0
1.0583359E+004	4.356819910586637E+001	-5.5723870E-001	-5.265234638736171E-002	2.9339924E-005	-5.5719286E-001	0
1.0611271E+004	4.376819910081394E+001	-5.5930537E-001	-5.270861315777498E-002	2.9480210E-005	-5.5919296E-001	0
1.0640876E+004	4.396819909576152E+001	-5.6128067E-001	-5.274759811325991E-002	2.9606206E-005	-5.6119287E-001	0
1.0662978E+004	4.416819909070909E+001	-5.6327456E-001	-5.282525971474872E-002	2.9755125E-005	-5.6319290E-001	0
1.0690277E+004	4.436819908565667E+001	-5.6529784E-001	-5.287962174729421E-002	2.9892735E-005	-5.6519294E-001	0
1.0708163E+004	4.456819908060425E+001	-5.6726205E-001	-5.297473008752873E-002	3.0050554E-005	-5.6719291E-001	0
1.0741539E+004	4.476819907555182E+001	-5.6925815E-001	-5.299595932797230E-002	3.0168381E-005	-5.6919289E-001	0
1.0758125E+004	4.496819907049940E+001	-5.7128716E-001	-5.310285473696465E-002	3.0336978E-005	-5.7119292E-001	0
1.0774853E+004	4.516819906544697E+001	-5.7324743E-001	-5.320234822590841E-002	3.0498109E-005	-5.7319289E-001	0
1.0802308E+004	4.536819906039455E+001	-5.7525486E-001	-5.325295985887502E-002	3.0634023E-005	-5.7519293E-001	0
1.0830165E+004	4.556819905534212E+001	-5.7726336E-001	-5.330143858786342E-002	3.0768966E-005	-5.7719290E-001	0
1.0850124E+004	4.576819905028970E+001	-5.7923841E-001	-5.338541967498656E-002	3.0922885E-005	-5.7919294E-001	0
1.0874218E+004	4.596819904523727E+001	-5.8126199E-001	-5.345322572269271E-002	3.1070329E-005	-5.8119291E-001	0
1.0889020E+004	4.616819904018485E+001	-5.8325261E-001	-5.356337048077459E-002	3.1240976E-005	-5.8319288E-001	0
1.0905059E+004	4.636819903513242E+001	-5.8523804E-001	-5.366665529099851E-002	3.1407770E-005	-5.8519292E-001	0
1.0922425E+004	4.656819903008000E+001	-5.8724171E-001	-5.376477333951468E-002	3.1572916E-005	-5.8719289E-001	0
1.0953493E+004	4.676819902502757E+001	-5.8929038E-001	-5.379931245985383E-002	3.1703417E-005	-5.8919287E-001	0
1.0967403E+004	4.696819901997515E+001	-5.9123659E-001	-5.390852834773796E-002	3.1872696E-005	-5.9119290E-001	0
1.0988765E+004	4.716819901492272E+001	-5.9323502E-001	-5.398559492543881E-002	3.2026146E-005	-5.9319293E-001	0
1.1011090E+004	4.736819900987030E+001	-5.9525460E-001	-5.405955124792150E-002	3.2179196E-005	-5.9519285E-001	0
1.1029102E+004	4.756819900481787E+001	-5.9725881E-001	-5.415298758431536E-002	3.2343349E-005	-5.9719288E-001	0
1.1041280E+004	4.776819899976545E+001	-5.9924781E-001	-5.427339813374255E-002	3.2523214E-005	-5.9919292E-001	0
1.1071111E+004	4.796819899471302E+001	-6.0123962E-001	-5.430707008611668E-002	3.2651562E-005	-6.0119289E-001	0
1.1091603E+004	4.816819898966060E+001	-6.0329866E-001	-5.439237885329185E-002	3.2814849E-005	-6.0319287E-001	0
1.1107827E+004	4.836819898460817E+001	-6.0522342E-001	-5.448621308986445E-002	3.2976332E-005	-6.0519290E-001	0
1.1119304E+004	4.856819897955575E+001	-6.0722184E-001	-5.460969927771431E-002	3.3160202E-005	-6.0719293E-001	0
1.1130641E+004	4.876819897450332E+001	-6.0925567E-001	-5.473680101607481E-002	3.3348708E-005	-6.0919291E-001	0
1.1160781E+004	4.896819896945090E+001	-6.1124706E-001	-5.476741036167909E-002	3.3476419E-005	-6.1119294E-001	0
1.1169031E+004	4.916819896439847E+001	-6.1326116E-001	-5.490728348858887E-002	3.3672506E-005	-6.1319292E-001	0
1.1193721E+004	4.936819895934605E+001	-6.1526126E-001	-5.496485492049846E-002	3.3817745E-005	-6.1519295E-001	0
1.1205174E+004	4.956819895429362E+001	-6.1727762E-001	-5.508862545263959E-002	3.4004977E-005	-6.1719286E-001	0
1.1222598E+004	4.976819894924120E+001	-6.1926544E-001	-5.518022414334889E-002	3.4171204E-005	-6.1919290E-001	0
1.1246575E+004	4.996819894418877E+001	-6.2129188E-001	-5.524276284809282E-002	3.4321878E-005	-6.2119293E-001	0
1.1250458E+004	5.016819893913635E+001	-6.2329429E-001	-5.540168391437172E-002	3.4531553E-005	-6.2319285E-001	0
1.1256587E+004	5.036819893408392E+001	-6.2528443E-001	-5.554831284573503E-002	3.4733494E-005	-6.2519294E-001	0
1.1287939E+004	5.056819892903150E+001	-6.2729597E-001	-5.557222869046552E-002	3.4860233E-005	-6.2719297E-001	0
1.1294541E+004	5.076819892397907E+001	-6.2924850E-001	-5.571262277514943E-002	3.5057084E-005	-6.2919295E-001	0
1.1306703E+004	5.096819891892665E+001	-6.3132179E-001	-5.583606531913243E-002	3.5250523E-005	-6.3119286E-001	0
1.1327407E+004	5.116819891387422E+001	-6.3324946E-001	-5.590418499499528E-002	3.5401295E-005	-6.3319290E-001	0
1.1338325E+004	5.136819890882180E+001	-6.3525409E-001	-5.602715502687364E-002	3.5591478E-005	-6.3519293E-001	0
1.1358870E+004	5.156819890376937E+001	-6.3734609E-001	-5.610998953342039E-002	3.5761481E-005	-6.3719290E-001	0
1.1350565E+004	5.176819889871695E+001	-6.3927823E-001	-5.632126888961386E-002	3.6004960E-005	-6.3919288E-001	0
1.1369014E+004	5.196819889366452E+001	-6.4128405E-001	-5.640630652840806E-002	3.6172463E-005	-6.4119297E-001	0
1.1369131E+004	5.216819888861210E+001	-6.4323497E-001	-5.657731955174072E-002	3.6392510E-005	-6.4319289E-001	0
1.1378200E+004	5.236819888355967E+001	-6.4527869E-001	-5.671184252822969E-002	3.6594942E-005	-6.4519292E-001	0
1.1390029E+004	5.256819887850725E+001	-6.4726347E-001	-5.682720079946246E-002	3.6782170E-005	-6.4719290E-001	0
1.1395309E+004	5.276819887345482E+001	-6.4927185E-001	-5.697711756771795E-002	3.6993639E-005	-6.4919293E-001	0
1.1388443E+004	5.296819886840240E+001	-6.5129524E-001	-5.718913902169565E-002	3.7247013E-005	-6.5119290E-001	0
1.1398940E+004	5.316819886334997E+001	-6.5328330E-001	-5.731088040679544E-002	3.7440241E-005	-6.5319294E-001	0
1.1406383E+004	5.336819885829755E+001	-6.5527380E-001	-5.744799366432041E-002	3.7644164E-005	-6.5519297E-001	0
1.1410929E+004	5.356819885324512E+001	-6.5728694E-001	-5.760152772852489E-002	3.7860733E-005	-6.5719289E-001	0
1.1410057E+004	5.376819884819270E+001	-6.5928555E-001	-5.778109089971917E-002	3.8094237E-005	-6.5919286E-001	0
1.1412923E+004	5.396819884314027E+001	-6.6127831E-001	-5.794118717312782E-002	3.8315251E-005	-6.6119295E-001	0
1.1402203E+004	5.416819883808785E+001	-6.6328442E-001	-5.817160133458210E-002	3.8584316E-005	-6.6319287E-001	0
1.1390706E+004	5.436819883303542E+001	-6.6529596E-001	-5.840691309232204E-002	3.8857885E-005	-6.6519290E-001	0
1.1385921E+004	5.456819882798300E+001	-6.6729861E-001	-5.860734563437031E-002	3.9108600E-005	-6.6719288E-001	0
1.1371666E+004	5.476819882293057E+001	-6.6929042E-001	-5.885597065095372E-002	3.9391736E-005	-6.6919297E-001	0
1.1365184E+004	5.496819881787815E+001	-6.7126369E-001	-5.906316519201693E-002	3.9646959E-005	-6.7119288E-001	0
1.1341854E+004	5.516819881282572E+001	-6.7325300E-001	-5.936005269652406E-002	3.9964332E-005	-6.7319286E-001	0
1.1338198E+004	5.536819880777330E+001	-6.7522144E-001	-5.955280041767719E-002	4.0211329E-005	-6.7519295E-001	0
1.1311516E+004	5.556819880272087E+001	-6.7725784E-001	-5.987330739990382E-002	4.0549665E-005	-6.7719287E-001	0
1.1299715E+004	5.576819879766845E+001	-6.7929631E-001	-6.011623260934673E-002	4.0836734E-005	-6.7919290E-001	0
1.1267332E+004	5.596819879261602E+001	-6.8130279E-001	-6.046708887960350E-002	4.1196396E-005	-6.8119287E-001	0
1.1233184E+004	5.616819878756360E+001	-6.8325847E-001	-6.082500780873457E-002	4.1559200E-005	-6.8319291E-001	0
1.1207410E+004	5.636819878251117E+001	-6.8528855E-001	-6.114601982860934E-002	4.1902666E-005	-6.8519294E-001	0
1.1170132E+004	5.656819877745875E+001	-6.8726718E-001	-6.152722398146482E-002	4.2285643E-005	-6.8719292E-001	0
1.1140177E+004	5.676819877240632E+001	-6.8925947E-001	-6.187149966473515E-002	4.2645515E-005	-6.8919295E-001	0
1.1109870E+004	5.696819876735390E+001	-6.9125253E-001	-6.221967780447279E-002	4.3009510E-005	-6.9119292E-001	0
1.1064666E+004	5.716819876230147E+001	-6.9324285E-001	-6.265375200741397E-002	4.3434266E-005	-6.9319284E-001	0
1.1027697E+004	5.736819875724905E+001	-6.9523537E-001	-6.304447512224709E-002	4.3830751E-005	-6.9519293E-001	0
1.0992959E+004	5.756819875219662E+001	-6.9723690E-001	-6.342577343529976E-002	4.4222790E-005	-6.9719297E-001	0
1.0944690E+004	5.776819874714420E+001	-6.9928199E-001	-6.389234882363382E-002	4.4678767E-005	-6.9919294E-001	0
1.0885167E+004	5.796819874209177E+001	-7.0126402E-001	-6.442381639842409E-002	4.5178105E-005	-7.0119292E-001	0
1.0843350E+004	5.816819873703935E+001	-7.0328575E-001	-6.485871924140199E-002	4.5614212E-005	-7.0319301E-001	0
1.0795940E+004	5.836819873198692E+001	-7.0526314E-001	-6.532670049231237E-002	4.6072513E-005	-7.0519298E-001	0
1.0747666E+004	5.856819872693450E+001	-7.0727408E-001	-6.580722582623677E-002	4.6543744E-005	-7.0719284E-001	0
1.0686867E+004	5.876819872188207E+001	-7.0930302E-001	-6.637146279042616E-002	4.7077479E-005	-7.0919293E-001	0
1.0635735E+004	5.896819871682965E+001	-7.1126699E-001	-6.687520566616079E-002	4.7566125E-005	-7.1119291E-001	0
1.0582309E+004	5.916819871177722E+001	-7.1326625E-001	-6.740176503212847E-002	4.8075406E-005	-7.1319288E-001	0
1.0505853E+004	5.936819870672480E+001	-7.1528637E-001	-6.808456028030270E-002	4.8699960E-005	-7.1519297E-001	0
1.0456604E+004	5.956819870167237E+001	-7.1728170E-001	-6.859604783974960E-002	4.9202688E-005	-7.1719295E-001	0
1.0401929E+004	5.976819869661995E+001	-7.1930182E-001	-6.915081092452113E-002	4.9740305E-005	-7.1919292E-001	0
1.0333446E+004	5.996819869156752E+001	-7.2125834E-001	-6.979843434801647E-002	5.0342704E-005	-7.2119290E-001	0
1.0276686E+004	6.016819868651510E+001	-7.2326458E-001	-7.037917017575590E-002	5.0902760E-005	-7.2319299E-001	0
1.0222615E+004	6.036819868146267E+001	-7.2529507E-001	-7.095004749207734E-002	5.1459720E-005	-7.2519290E-001	0
1.0161406E+004	6.056819867641025E+001	-7.2728127E-001	-7.157289833801883E-002	5.2053627E-005	-7.2719288E-001	0
1.0101440E+004	6.076819867135782E+001	-7.2926205E-001	-7.219386605710598E-002	5.2648247E-005	-7.2919291E-001	0
1.0049964E+004	6.096819866630540E+001	-7.3126560E-001	-7.276300953589199E-002	5.3209085E-005	-7.3119295E-001	0
9.9935508E+003	6.116819866125297E+001	-7.3325974E-001	-7.337329533772619E-002	5.3801683E-005	-7.3319292E-001	0
9.9321514E+003	6.136819865620055E+001	-7.3527807E-001	-7.403008786427134E-002	5.4432701E-005	-7.3519289E-001	0
9.8710439E+003	6.156819865114812E+001	-7.3725313E-001	-7.468846260650230E-002	5.5064302E-005	-7.3719299E-001	0
9.8193623E+003	6.176819864609570E+001	-7.3928547E-001	-7.528854026606968E-002	5.5659722E-005	-7.3919296E-001	0
9.7601260E+003	6.196819864104327E+001	-7.4125665E-001	-7.594744615571436E-002	5.6296551E-005	-7.4119294E-001	0
9.7118779E+003	6.216819863599085E+001	-7.4326044E-001	-7.653107247241420E-002	5.6882520E-005	-7.4319291E-001	0
9.6438994E+003	6.236819863093842E+001	-7.4524826E-001	-7.727665563331543E-002	5.7590292E-005	-7.4519300E-001	0
9.5706133E+003	6.256819862588600E+001	-7.4725139E-001	-7.807769469046744E-002	5.8343667E-005	-7.4719286E-001	0
9.5195869E+003	6.276819862083357E+001	-7.4928117E-001	-7.870942153894012E-002	5.8975489E-005	-7.4919295E-001	0
9.4720049E+003	6.296819861578115E+001	-7.5126374E-001	-7.931412243423686E-002	5.9585826E-005	-7.5119299E-001	0
9.4919814E+003	6.316819861072872E+001	-7.5325209E-001	-7.935667573315941E-002	5.9775582E-005	-7.5319290E-001	0
9.4017734E+003	6.336819860567630E+001	-7.5521427E-001	-8.032678914585845E-002	6.0663937E-005	-7.5519288E-001	0
9.3199512E+003	6.356819860062387E+001	-7.5727534E-001	-8.125314900499506E-002	6.1531005E-005	-7.5719297E-001	0
9.2485225E+003	6.376819859557145E+001	-7.5925267E-001	-8.209448251999985E-002	6.2330451E-005	-7.5919294E-001	0
9.1729023E+003	6.396819859051902E+001	-7.6123762E-001	-8.298765232811878E-002	6.3173320E-005	-7.6119286E-001	0
9.1054531E+003	6.416819858546660E+001	-7.6324880E-001	-8.382326192454814E-002	6.3978005E-005	-7.6319289E-001	0
9.0834512E+003	6.436819858041417E+001	-7.6525062E-001	-8.424668084268305E-002	6.4469823E-005	-7.6519299E-001	0
9.0810801E+003	6.456819857536175E+001	-7.6724470E-001	-8.448826710222623E-002	6.4823173E-005	-7.6719290E-001	0
9.0055762E+003	6.476819857030932E+001	-7.6930207E-001	-8.542507847553521E-002	6.5717686E-005	-7.6919293E-001	0
8.9584033E+003	6.496819856525690E+001	-7.7125025E-001	-8.609237668607128E-002	6.6398767E-005	-7.7119297E-001	0
8.9514277E+003	6.516819856020447E+001	-7.7319258E-001	-8.637645714303865E-002	6.6785637E-005	-7.7319294E-001	0
8.9113564E+003	6.536819855515205E+001	-7.7525872E-001	-8.699671429890277E-002	6.7444962E-005	-7.7519292E-001	0
8.9397529E+003	6.556819855009962E+001	-7.7724862E-001	-8.694296027744963E-002	6.7576293E-005	-7.7719289E-001	0
8.9297666E+003	6.576819854504720E+001	-7.7919370E-001	-8.725801624290153E-002	6.7990899E-005	-7.7919298E-001	0
8.9061592E+003	6.596819853999477E+001	-7.8125274E-001	-8.772050226033379E-002	6.8531881E-005	-7.8119284E-001	0
8.8468467E+003	6.616819853494235E+001	-7.8324062E-001	-8.853331322004587E-002	6.9342888E-005	-7.8319293E-001	0
8.7839727E+003	6.636819852988992E+001	-7.8524762E-001	-8.939550434030119E-002	7.0197610E-005	-7.8519303E-001	0
8.6978359E+003	6.656819852483750E+001	-7.8724903E-001	-9.051090475518131E-002	7.1254624E-005	-7.8719288E-001	0
8.6151367E+003	6.676819851978507E+001	-7.8924215E-001	-9.161110233796393E-002	7.2303344E-005	-7.8919297E-001	0
8.5763398E+003	6.696819851473265E+001	-7.9126412E-001	-9.226128754476326E-002	7.3003044E-005	-7.9119295E-001	0
8.5495615E+003	6.716819850968022E+001	-7.9325527E-001	-9.278315372444079E-002	7.3600728E-005	-7.9319292E-001	0
8.5325801E+003	6.736819850462780E+001	-7.9523003E-001	-9.319924449499539E-002	7.4114840E-005	-7.9519302E-001	0
8.5060107E+003	6.756819849957537E+001	-7.9730153E-001	-9.373389930483340E-002	7.4734184E-005	-7.9719293E-001	0
8.4742490E+003	6.776819849452295E+001	-7.9924685E-001	-9.431477446297021E-002	7.5380784E-005	-7.9919302E-001	0
8.4635928E+003	6.796819848947052E+001	-8.0122733E-001	-9.466752016023583E-002	7.5850206E-005	-8.0119294E-001	0
8.4474727E+003	6.816819848441810E+001	-8.0325484E-001	-9.508818991866619E-002	7.6380049E-005	-8.0319285E-001	0
8.3954707E+003	6.836819847936567E+001	-8.0523658E-001	-9.591321841192757E-002	7.7232835E-005	-8.0519301E-001	0
8.3385947E+003	6.856819847431325E+001	-8.0721003E-001	-9.680408496587045E-002	7.8141231E-005	-8.0719298E-001	0
8.3070215E+003	6.876819846926082E+001	-8.0930704E-001	-9.742445963943802E-002	7.8846300E-005	-8.0919296E-001	0
8.2989414E+003	6.896819846420840E+001	-8.1125712E-001	-9.775429427499138E-002	7.9303871E-005	-8.1119293E-001	0
8.2756436E+003	6.916819845915597E+001	-8.1325364E-001	-9.827073762412941E-002	7.9919038E-005	-8.1319296E-001	0
8.2592139E+003	6.936819845410355E+001	-8.1518996E-001	-9.870067067220423E-002	8.0459795E-005	-8.1519294E-001	0
8.2726885E+003	6.956819844905112E+001	-8.1730676E-001	-9.879578892859575E-002	8.0746468E-005	-8.1719291E-001	0
8.2792188E+003	6.976819844399870E+001	-8.1928337E-001	-9.895660036482129E-002	8.1073500E-005	-8.1919301E-001	0
8.2707900E+003	6.996819843894627E+001	-8.2124418E-001	-9.929453109785946E-002	8.1545055E-005	-8.2119298E-001	0
8.2717559E+003	7.016819843389385E+001	-8.2325196E-001	-9.952566096909704E-002	8.1934697E-005	-8.2319295E-001	0
8.2714102E+003	7.036819842884142E+001	-8.2525301E-001	-9.977174179877712E-002	8.2336934E-005	-8.2519293E-001	0
8.2036025E+003	7.056819842378900E+001	-8.2728565E-001	-1.008441929416115E-001	8.3426952E-005	-8.2719290E-001	0
8.1976348E+003	7.076819841873657E+001	-8.2925409E-001	-1.011577211172570E-001	8.3885454E-005	-8.2919300E-001	0
8.1774966E+003	7.096819841368415E+001	-8.3128905E-001	-1.016556917089970E-001	8.4505264E-005	-8.3119291E-001	0
8.1519224E+003	7.116819840863172E+001	-8.3324939E-001	-1.022150792802370E-001	8.5170650E-005	-8.3319300E-001	0
8.1051660E+003	7.136819840357930E+001	-8.3526802E-001	-1.030537811152281E-001	8.6077525E-005	-8.3519304E-001	0
8.0883643E+003	7.156819839852687E+001	-8.3727628E-001	-1.035161433338097E-001	8.6671615E-005	-8.3719289E-001	0
8.0530278E+003	7.176819839347445E+001	-8.3927870E-001	-1.042190220105601E-001	8.7468805E-005	-8.3919299E-001	0
8.0176465E+003	7.196819838842202E+001	-8.4126526E-001	-1.049267116019632E-001	8.8271197E-005	-8.4119296E-001	0
7.9847305E+003	7.216819838336960E+001	-8.4327596E-001	-1.056110751350536E-001	8.9059278E-005	-8.4319293E-001	0
7.9293286E+003	7.236819837831717E+001	-8.4524989E-001	-1.065979110966111E-001	9.0101872E-005	-8.4519297E-001	0
7.9192515E+003	7.256819837326475E+001	-8.4726310E-001	-1.069877784236701E-001	9.0646798E-005	-8.4719300E-001	0
7.8986997E+003	7.276819836821232E+001	-8.4928006E-001	-1.075214998154586E-001	9.1315866E-005	-8.4919298E-001	0
7.8450820E+003	7.296819836315990E+001	-8.5131192E-001	-1.085153617442096E-001	9.2380418E-005	-8.5119295E-001	0
7.8098701E+003	7.316819835810747E+001	-8.5327351E-001	-1.092557899491298E-001	9.3225070E-005	-8.5319299E-001	0
7.7281807E+003	7.336819835305505E+001	-8.5526043E-001	-1.106677574534263E-001	9.4649753E-005	-8.5519296E-001	0
7.6978296E+003	7.356819834800262E+001	-8.5729498E-001	-1.113683999898314E-001	9.5475567E-005	-8.5719293E-001	0
7.6413691E+003	7.376819834295020E+001	-8.5928810E-001	-1.124521097360511E-001	9.6628763E-005	-8.5919291E-001	0
7.5798257E+003	7.396819833789777E+001	-8.6128187E-001	-1.136281925777304E-001	9.7865901E-005	-8.6119300E-001	0
7.4986929E+003	7.416819833284535E+001	-8.6326861E-001	-1.151225441431125E-001	9.9381679E-005	-8.6319298E-001	0
7.4181816E+003	7.436819832779292E+001	-8.6528933E-001	-1.166443994834745E-001	1.0093115E-004	-8.6519295E-001	0
7.3306826E+003	7.456819832274050E+001	-8.6726618E-001	-1.183063352444627E-001	1.0260308E-004	-8.6719304E-001	0
7.2285649E+003	7.476819831768807E+001	-8.6930978E-001	-1.202603514810981E-001	1.0454350E-004	-8.6919302E-001	0
7.1703765E+003	7.496819831263565E+001	-8.7128299E-001	-1.215114727555064E-001	1.0587088E-004	-8.7119287E-001	0
7.0866528E+003	7.516819830758323E+001	-8.7329215E-001	-1.232305569468641E-001	1.0761628E-004	-8.7319297E-001	0
6.9749224E+003	7.536819830253080E+001	-8.7529236E-001	-1.254913388379770E-001	1.0984161E-004	-8.7519306E-001	0
6.8493594E+003	7.556819829747838E+001	-8.7728292E-001	-1.280824796100255E-001	1.1236457E-004	-8.7719291E-001	0
6.7218931E+003	7.576819829242595E+001	-8.7926447E-001	-1.308060782230851E-001	1.1501314E-004	-8.7919295E-001	0
6.5768887E+003	7.596819828737353E+001	-8.8125813E-001	-1.339931665526919E-001	1.1808256E-004	-8.8119298E-001	0
6.4205757E+003	7.616819828232110E+001	-8.8328677E-001	-1.375712712523427E-001	1.2151489E-004	-8.8319296E-001	0
6.2741675E+003	7.636819827726868E+001	-8.8528490E-001	-1.410999757146923E-001	1.2491368E-004	-8.8519293E-001	0
6.0933491E+003	7.656819827221625E+001	-8.8726014E-001	-1.456112449781768E-001	1.2919505E-004	-8.8719296E-001	0
5.9199150E+003	7.676819826716383E+001	-8.8927478E-001	-1.502174914850436E-001	1.3358463E-004	-8.8919300E-001	0
5.7662949E+003	7.696819826211140E+001	-8.9127451E-001	-1.545662405180519E-001	1.3776094E-004	-8.9119291E-001	0
5.5932852E+003	7.716819825705898E+001	-8.9328146E-001	-1.597060434828572E-001	1.4266245E-004	-8.9319295E-001	0
5.4221699E+003	7.736819825200655E+001	-8.9526248E-001	-1.651114772756057E-001	1.4781811E-004	-8.9519304E-001	0
5.2459766E+003	7.756819824695413E+001	-8.9729923E-001	-1.710452170242178E-001	1.5347874E-004	-8.9719296E-001	0
5.0638481E+003	7.776819824190170E+001	-8.9925206E-001	-1.775827413750070E-001	1.5969164E-004	-8.9919299E-001	0
4.9091641E+003	7.796819823684928E+001	-9.0125263E-001	-1.835857596060433E-001	1.6545715E-004	-9.0119302E-001	0
4.7428315E+003	7.816819823179685E+001	-9.0323842E-001	-1.904428629088484E-001	1.7201531E-004	-9.0319306E-001	0
4.5882007E+003	7.836819822674443E+001	-9.0523690E-001	-1.972967002777346E-001	1.7860025E-004	-9.0519297E-001	0
4.4021719E+003	7.856819822169200E+001	-9.0730453E-001	-2.061038392737453E-001	1.8699895E-004	-9.0719295E-001	0
4.2185596E+003	7.876819821663958E+001	-9.0925610E-001	-2.155371042572440E-001	1.9597843E-004	-9.0919304E-001	0
4.0455950E+003	7.896819821158715E+001	-9.1127694E-001	-2.252516512423255E-001	2.0526664E-004	-9.1119289E-001	0
3.8698684E+003	7.916819820653473E+001	-9.1326189E-001	-2.359930066594567E-001	2.1552343E-004	-9.1319293E-001	0
3.7009170E+003	7.936819820148230E+001	-9.1526550E-001	-2.473077544680633E-001	2.2635226E-004	-9.1519296E-001	0
3.5181208E+003	7.956819819642988E+001	-9.1727489E-001	-2.607286543355170E-001	2.3915985E-004	-9.1719294E-001	0
3.3359744E+003	7.976819819137745E+001	-9.1931361E-001	-2.755757329389965E-001	2.5334052E-004	-9.1919291E-001	0
3.1709712E+003	7.996819818632503E+001	-9.2126280E-001	-2.905301660164152E-001	2.6765463E-004	-9.2119300E-001	0
2.9997451E+003	8.016819818127260E+001	-9.2331988E-001	-3.077994307329923E-001	2.8419733E-004	-9.2319298E-001	0
2.7957234E+003	8.036819817622018E+001	-9.2530429E-001	-3.309713317410791E-001	3.0624919E-004	-9.2519295E-001	0
2.6361660E+003	8.056819817116775E+001	-9.2727941E-001	-3.517530364936858E-001	3.2617335E-004	-9.2719299E-001	0
2.4825430E+003	8.076819816611533E+001	-9.2925966E-001	-3.743176530442658E-001	3.4783830E-004	-9.2919302E-001	0
2.3317029E+003	8.096819816106290E+001	-9.3128657E-001	-3.994018899809033E-001	3.7195761E-004	-9.3119299E-001	0
2.1905830E+003	8.116819815601048E+001	-9.3329018E-001	-4.260465005442278E-001	3.9762503E-004	-9.3319297E-001	0
2.0435127E+003	8.136819815095805E+001	-9.3529117E-001	-4.576879799273068E-001	4.2807154E-004	-9.3519300E-001	0
1.9013099E+003	8.156819814590563E+001	-9.3728346E-001	-4.929672150815620E-001	4.6205003E-004	-9.3719304E-001	0
1.7642588E+003	8.176819814085320E+001	-9.3927443E-001	-5.323904080911959E-001	5.0006068E-004	-9.3919295E-001	0
1.6495319E+003	8.196819813580078E+001	-9.4128805E-001	-5.706395030511624E-001	5.3713616E-004	-9.4119292E-001	0
1.5383832E+003	8.216819813074835E+001	-9.4329798E-001	-6.131749094343513E-001	5.7840667E-004	-9.4319302E-001	0
1.4328777E+003	8.236819812569593E+001	-9.4529462E-001	-6.597175786858802E-001	6.2362745E-004	-9.4519299E-001	0
1.3249240E+003	8.256819812064350E+001	-9.4731629E-001	-7.149967022468240E-001	6.7732803E-004	-9.4719291E-001	0
1.2357872E+003	8.276819811559108E+001	-9.4930220E-001	-7.681761186595288E-001	7.2923128E-004	-9.4919306E-001	0
1.1537041E+003	8.296819811053865E+001	-9.5129889E-001	-8.245605433152807E-001	7.8440353E-004	-9.5119292E-001	0
1.0647468E+003	8.316819810548623E+001	-9.5327449E-001	-8.953062995440417E-001	8.5347268E-004	-9.5319301E-001	0
9.9568970E+002	8.336819810043380E+001	-9.5529240E-001	-9.594278526988713E-001	9.1653416E-004	-9.5519298E-001	0
9.2517938E+002	8.357819809512876E+001	-9.5738304E-001	-1.034808018980439E+000	9.9070766E-004	-9.5729303E-001	0
8.5741760E+002	8.378819808982371E+001	-9.5950580E-001	-1.119064691039368E+000	1.0737490E-003	-9.5939296E-001	0
7.9941248E+002	8.398819808477128E+001	-9.6148539E-001	-1.202740045268584E+000	1.1564170E-003	-9.6139294E-001	0
7.4461304E+002	8.418819807971886E+001	-9.6348542E-001	-1.293941140504310E+000	1.2466934E-003	-9.6339303E-001	0
6.9421490E+002	8.438819807466643E+001	-9.6547753E-001	-1.390747360412092E+000	1.3427354E-003	-9.6539301E-001	0
6.4921991E+002	8.458819806961401E+001	-9.6748132E-001	-1.490221196587051E+000	1.4417612E-003	-9.6739292E-001	0
6.0554614E+002	8.478819806456158E+001	-9.6946347E-001	-1.600973671036108E+000	1.5520855E-003	-9.6939296E-001	0
5.6777869E+002	8.498819805950916E+001	-9.7150767E-001	-1.711067557875531E+000	1.6623152E-003	-9.7139293E-001	0
5.3183734E+002	8.518819805445673E+001	-9.7344822E-001	-1.830349540612454E+000	1.7817505E-003	-9.7339302E-001	0
4.9776343E+002	8.538819804940431E+001	-9.7543615E-001	-1.959638037953251E+000	1.9115017E-003	-9.7539300E-001	0
4.6712137E+002	8.558819804435188E+001	-9.7747326E-001	-2.092546621806363E+000	2.0454084E-003	-9.7739297E-001	0
4.3866660E+002	8.578819803929946E+001	-9.7946316E-001	-2.232819106184843E+000	2.1869640E-003	-9.7939295E-001	0
4.1198743E+002	8.598819803424703E+001	-9.8143172E-001	-2.382188599007598E+000	2.3379554E-003	-9.8139298E-001	0
3.8785074E+002	8.618819802919461E+001	-9.8342967E-001	-2.535587960444481E+000	2.4935724E-003	-9.8339301E-001	0
3.6460675E+002	8.638819802414218E+001	-9.8546177E-001	-2.702807260934868E+000	2.6635132E-003	-9.8539299E-001	0
3.4346207E+002	8.658819801908976E+001	-9.8746252E-001	-2.875026354426851E+000	2.8389809E-003	-9.8739290E-001	0
3.2410956E+002	8.678819801403733E+001	-9.8947209E-001	-3.052893843358198E+000	3.0207532E-003	-9.8939300E-001	0
3.0608884E+002	8.698819800898491E+001	-9.9149132E-001	-3.239227430485286E+000	3.2116659E-003	-9.9139303E-001	0
2.8983160E+002	8.718819800393248E+001	-9.9344337E-001	-3.427657263247866E+000	3.4051833E-003	-9.9339294E-001	0
2.7396890E+002	8.738819799888006E+001	-9.9545807E-001	-3.633470859792510E+000	3.6169679E-003	-9.9539292E-001	0
2.5970221E+002	8.758819799382763E+001	-9.9747324E-001	-3.840834838158697E+000	3.8311300E-003	-9.9739301E-001	0
2.4599199E+002	8.778829798877268E+001	-9.9949646E-001	-4.063125999629975E+000	4.0610800E-003	-9.9939382E-001	0
2.3331796E+002	8.798839798371773E+001	-1.0014595E+000	-4.292251990394256E+000	4.2985165E-003	-1.0013950E+000	0
2.2171886E+002	8.818839797866531E+001	-1.0034428E+000	-4.525743804348295E+000	4.5413249E-003	-1.0033948E+000	0
2.1078020E+002	8.838839797361288E+001	-1.0054380E+000	-4.770078031553155E+000	4.7960174E-003	-1.0053949E+000	0
2.0042958E+002	8.858839796856046E+001	-1.0074776E+000	-5.026591660653374E+000	5.0641787E-003	-1.0073950E+000	0
1.9096973E+002	8.878839796350803E+001	-1.0095057E+000	-5.286208291848524E+000	5.3364579E-003	-1.0093950E+000	0
1.8222737E+002	8.898839795845561E+001	-1.0114853E+000	-5.550677411410277E+000	5.6144288E-003	-1.0113949E+000	0
1.7379732E+002	8.918839795340318E+001	-1.0134498E+000	-5.831216547967614E+000	5.9096450E-003	-1.0133950E+000	0
1.6561902E+002	8.938849794834823E+001	-1.0154892E+000	-6.131477032485407E+000	6.2264488E-003	-1.0153958E+000	0
1.5801367E+002	8.958859794329328E+001	-1.0175030E+000	-6.439335194236847E+000	6.5520429E-003	-1.0173970E+000	0
1.5100427E+002	8.978859793824086E+001	-1.0195183E+000	-6.751585657769610E+000	6.8833646E-003	-1.0193970E+000	0
1.4455907E+002	8.998859793318843E+001	-1.0215112E+000	-7.066392792460576E+000	7.2183996E-003	-1.0213970E+000	0
1.3818825E+002	9.018879792813095E+001	-1.0235043E+000	-7.406594473671774E+000	7.5806808E-003	-1.0233984E+000	0
1.3228853E+002	9.038909792307095E+001	-1.0255443E+000	-7.752329246609030E+000	7.9503572E-003	-1.0254017E+000	0
1.2671956E+002	9.058919791801600E+001	-1.0275179E+000	-8.108597654807042E+000	8.3317291E-003	-1.0274029E+000	0
1.2138066E+002	9.078919791296357E+001	-1.0295355E+000	-8.481874697940938E+000	8.7323915E-003	-1.0294030E+000	0
1.1633466E+002	9.098919790791115E+001	-1.0315295E+000	-8.866915078255090E+000	9.1464845E-003	-1.0314029E+000	0
1.1158347E+002	9.118919790285872E+001	-1.0335540E+000	-9.262607733543760E+000	9.5734047E-003	-1.0334029E+000	0
1.0737591E+002	9.138939789780125E+001	-1.0355163E+000	-9.643841948966752E+000	9.9863550E-003	-1.0354044E+000	0
1.0321651E+002	9.158959789274377E+001	-1.0375526E+000	-1.005219551501904E+001	1.0429681E-002	-1.0374069E+000	0
9.9286362E+001	9.178969788768882E+001	-1.0395290E+000	-1.047000758178834E+001	1.0883876E-002	-1.0394077E+000	0
9.5089172E+001	9.199979788238124E+001	-1.0417030E+000	-1.095501148676388E+001	1.1411868E-002	-1.0415090E+000	0
9.1199348E+001	9.220979787707620E+001	-1.0436790E+000	-1.144393022638872E+001	1.1943789E-002	-1.0436090E+000	0
8.7963013E+001	9.240979787202377E+001	-1.0457110E+000	-1.188807620983278E+001	1.2431492E-002	-1.0456090E+000	0
8.4851074E+001	9.260979786697135E+001	-1.0476707E+000	-1.234717117368228E+001	1.2935770E-002	-1.0476090E+000	0
8.1825333E+001	9.280989786191640E+001	-1.0497056E+000	-1.282861411444216E+001	1.3466269E-002	-1.0496098E+000	0
7.8927216E+001	9.300999785686145E+001	-1.0517312E+000	-1.332533016834668E+001	1.4014666E-002	-1.0516109E+000	0
7.6287651E+001	9.321009785180649E+001	-1.0537485E+000	-1.381283119441633E+001	1.4555250E-002	-1.0536118E+000	0
7.3751015E+001	9.341019784675154E+001	-1.0557302E+000	-1.431478902609706E+001	1.5112556E-002	-1.0556130E+000	0
7.1211220E+001	9.361029784169659E+001	-1.0577314E+000	-1.485343701607675E+001	1.5710946E-002	-1.0576138E+000	0
6.8933144E+001	9.381049783663912E+001	-1.0597298E+000	-1.537329831913860E+001	1.6291542E-002	-1.0596159E+000	0
6.6701805E+001	9.401059783158416E+001	-1.0617205E+000	-1.591741788644097E+001	1.6899848E-002	-1.0616170E+000	0
6.4495346E+001	9.421059782653174E+001	-1.0637139E+000	-1.649287763866428E+001	1.7543703E-002	-1.0636171E+000	0
6.2518337E+001	9.441069782147679E+001	-1.0656959E+000	-1.704613251095498E+001	1.8165993E-002	-1.0656178E+000	0
6.0542259E+001	9.461089781641931E+001	-1.0677276E+000	-1.763607083118791E+001	1.8830519E-002	-1.0676198E+000	0
5.8711098E+001	9.481099781136436E+001	-1.0696963E+000	-1.821966147882321E+001	1.9489504E-002	-1.0696210E+000	0
5.6864120E+001	9.501119780630688E+001	-1.0717413E+000	-1.884740956816813E+001	2.0199548E-002	-1.0716228E+000	0
5.5176491E+001	9.521119780125446E+001	-1.0737253E+000	-1.945983379106133E+001	2.0894516E-002	-1.0736229E+000	0
5.3521038E+001	9.541129779619951E+001	-1.0757098E+000	-2.009882171968057E+001	2.1620499E-002	-1.0756239E+000	0
5.1941761E+001	9.561149779114203E+001	-1.0777345E+000	-2.074890121585534E+001	2.2361806E-002	-1.0776258E+000	0
5.0402340E+001	9.581169778608455E+001	-1.0797424E+000	-2.142246631223361E+001	2.3130747E-002	-1.0796278E+000	0
4.8944023E+001	9.601189778102707E+001	-1.0817400E+000	-2.210157616887795E+001	2.3908159E-002	-1.0816296E+000	0
4.7576466E+001	9.621199777597212E+001	-1.0837455E+000	-2.277902485440382E+001	2.4686664E-002	-1.0836310E+000	0
4.6169209E+001	9.641209777091717E+001	-1.0857266E+000	-2.351624908763381E+001	2.5532218E-002	-1.0856318E+000	0
4.4924225E+001	9.661229776585969E+001	-1.0877504E+000	-2.421300429878221E+001	2.6337706E-002	-1.0876338E+000	0
4.3647087E+001	9.681249776080222E+001	-1.0897423E+000	-2.496712559934537E+001	2.7207732E-002	-1.0896357E+000	0
4.2475368E+001	9.701259775574727E+001	-1.0917639E+000	-2.570345819239719E+001	2.8062107E-002	-1.0916369E+000	0
4.1323318E+001	9.721269775069231E+001	-1.0937558E+000	-2.646824776461176E+001	2.8949801E-002	-1.0936377E+000	0
4.0182384E+001	9.741289774563484E+001	-1.0957744E+000	-2.727002076079668E+001	2.9881790E-002	-1.0956399E+000	0
3.9081421E+001	9.761299774057989E+001	-1.0977597E+000	-2.808904333233568E+001	3.0835021E-002	-1.0976410E+000	0
3.8060467E+001	9.781299773552746E+001	-1.0997578E+000	-2.889501450878151E+001	3.1777516E-002	-1.0996410E+000	0
3.7085724E+001	9.801309773047251E+001	-1.1017456E+000	-2.970807825309174E+001	3.2730743E-002	-1.1016418E+000	0
3.6110977E+001	9.821329772541503E+001	-1.1037393E+000	-3.056520018154293E+001	3.3736013E-002	-1.1036437E+000	0
3.5175339E+001	9.841349772035755E+001	-1.1058003E+000	-3.143680477558337E+001	3.4762826E-002	-1.1056458E+000	0
3.4261665E+001	9.861359771530260E+001	-1.1077474E+000	-3.233197745714600E+001	3.5815664E-002	-1.1076471E+000	0
3.3376194E+001	9.881369771024765E+001	-1.1097426E+000	-3.324952665453998E+001	3.6898419E-002	-1.1096478E+000	0
3.2533054E+001	9.901389770519017E+001	-1.1117861E+000	-3.417404631785934E+001	3.7994232E-002	-1.1116498E+000	0
3.1699419E+001	9.921399770013522E+001	-1.1137819E+000	-3.513572026488475E+001	3.9133530E-002	-1.1136510E+000	0
3.0932770E+001	9.941409769508027E+001	-1.1158078E+000	-3.607203008258773E+001	4.0249452E-002	-1.1156518E+000	0
3.0175261E+001	9.961419769002532E+001	-1.1177715E+000	-3.704264701007446E+001	4.1405216E-002	-1.1176529E+000	0
2.9433731E+001	9.981419768497290E+001	-1.1197569E+000	-3.804332352549578E+001	4.2599276E-002	-1.1196530E+000	0
2.8722746E+001	1.000141976799205E+002	-1.1217831E+000	-3.905556778626635E+001	4.3811876E-002	-1.1216530E+000	0
2.8046068E+001	1.002141976748680E+002	-1.1237940E+000	-4.006957361703553E+001	4.5029946E-002	-1.1236529E+000	0
2.7393448E+001	1.004142976698131E+002	-1.1258073E+000	-4.109768549753414E+001	4.6268072E-002	-1.1256537E+000	0
2.6728769E+001	1.006144976647556E+002	-1.1277964E+000	-4.219410238721292E+001	4.7586359E-002	-1.1276559E+000	0
2.6052677E+001	1.008145976597007E+002	-1.1297898E+000	-4.336559277732364E+001	4.8994005E-002	-1.1296570E+000	0
2.5478527E+001	1.010145976546482E+002	-1.1317477E+000	-4.441966881692542E+001	5.0271858E-002	-1.1316570E+000	0
2.4873051E+001	1.012145976495958E+002	-1.1338007E+000	-4.558350212882192E+001	5.1682610E-002	-1.1336570E+000	0
2.4278091E+001	1.014146976445409E+002	-1.1357518E+000	-4.678093593231563E+001	5.3131536E-002	-1.1356578E+000	0
2.3716099E+001	1.016151976394758E+002	-1.1378342E+000	-4.797729267186696E+001	5.4590203E-002	-1.1376625E+000	0
2.3155834E+001	1.018154976344158E+002	-1.1397573E+000	-4.922117115440255E+001	5.6100190E-002	-1.1396657E+000	0
2.2616199E+001	1.020155976293609E+002	-1.1418123E+000	-5.048647990356500E+001	5.7646085E-002	-1.1416670E+000	0
2.2092310E+001	1.022156976243059E+002	-1.1438153E+000	-5.177436293084099E+001	5.9220307E-002	-1.1436677E+000	0
2.1615107E+001	1.024158976192484E+002	-1.1458040E+000	-5.300940913458646E+001	6.0738396E-002	-1.1456698E+000	0
2.1173994E+001	1.026159976141935E+002	-1.1478043E+000	-5.420820918645444E+001	6.2220413E-002	-1.1476710E+000	0
2.0719160E+001	1.028159976091411E+002	-1.1498054E+000	-5.549478974255857E+001	6.3808210E-002	-1.1496710E+000	0
2.0285202E+001	1.030159976040886E+002	-1.1518046E+000	-5.678053058031742E+001	6.5400071E-002	-1.1516711E+000	0
1.9889660E+001	1.032160975990337E+002	-1.1538283E+000	-5.801146139030811E+001	6.6935264E-002	-1.1536719E+000	0
1.9438217E+001	1.034162975939762E+002	-1.1558224E+000	-5.946133596927950E+001	6.8726741E-002	-1.1556739E+000	0
1.8989328E+001	1.036164975889187E+002	-1.1577728E+000	-6.096965489689217E+001	7.0589006E-002	-1.1576757E+000	0
1.8579014E+001	1.038166975838612E+002	-1.1598208E+000	-6.242639177919564E+001	7.2403431E-002	-1.1596777E+000	0
1.8184492E+001	1.040168975788038E+002	-1.1618118E+000	-6.389025594040186E+001	7.4228458E-002	-1.1616797E+000	0
1.7820387E+001	1.042169975737488E+002	-1.1638726E+000	-6.531130012903645E+001	7.6014034E-002	-1.1636810E+000	0
1.7445364E+001	1.044169975686964E+002	-1.1658679E+000	-6.682967158131601E+001	7.7914573E-002	-1.1656810E+000	0
1.7098934E+001	1.046170975636414E+002	-1.1678487E+000	-6.829950504572662E+001	7.9763487E-002	-1.1676817E+000	0
1.6753325E+001	1.048171975585865E+002	-1.1698830E+000	-6.982990160118163E+001	8.1692815E-002	-1.1696830E+000	0
1.6351954E+001	1.050172975535315E+002	-1.1718864E+000	-7.166645045572851E+001	8.3984941E-002	-1.1716837E+000	0
1.6018278E+001	1.052173975484766E+002	-1.1738751E+000	-7.328347971812400E+001	8.6025655E-002	-1.1736850E+000	0
1.5699099E+001	1.054175975434191E+002	-1.1758583E+000	-7.489973208343099E+001	8.8071465E-002	-1.1756868E+000	0
1.5369824E+001	1.056177975383616E+002	-1.1778830E+000	-7.663607643458340E+001	9.0268336E-002	-1.1776888E+000	0
1.5048653E+001	1.058177975333092E+002	-1.1798843E+000	-7.840464878352623E+001	9.2508413E-002	-1.1796889E+000	0
1.4797585E+001	1.060179975282517E+002	-1.1818440E+000	-7.986735476642531E+001	9.4390757E-002	-1.1816905E+000	0
1.4526402E+001	1.062182975231917E+002	-1.1838858E+000	-8.149890339990748E+001	9.6485399E-002	-1.1836936E+000	0
1.4242367E+001	1.064183975181368E+002	-1.1858841E+000	-8.326454197576510E+001	9.8742098E-002	-1.1856949E+000	0
1.3975878E+001	1.066183975130843E+002	-1.1878748E+000	-8.499464488894512E+001	1.0096300E-001	-1.1876950E+000	0
1.3726967E+001	1.068183975080319E+002	-1.1898845E+000	-8.668226410526245E+001	1.0314189E-001	-1.1896950E+000	0
1.3459921E+001	1.070183975029795E+002	-1.1918238E+000	-8.854612744800640E+001	1.0553139E-001	-1.1916950E+000	0
1.3190411E+001	1.072185974979220E+002	-1.1939119E+000	-9.051362473946313E+001	1.0806529E-001	-1.1936967E+000	0
1.2984040E+001	1.074186974928671E+002	-1.1958457E+000	-9.210120035333830E+001	1.1013883E-001	-1.1956978E+000	0
1.2770522E+001	1.076188974878096E+002	-1.1978574E+000	-9.379862486016009E+001	1.1235738E-001	-1.1976998E+000	0
1.2512662E+001	1.078189974827546E+002	-1.1999004E+000	-9.589489499349452E+001	1.1506432E-001	-1.1997010E+000	0
1.2247867E+001	1.080190974776997E+002	-1.2019320E+000	-9.813398762502906E+001	1.1795037E-001	-1.2017018E+000	0
1.1965637E+001	1.082193974726397E+002	-1.2038797E+000	-1.006114182729350E+002	1.2112404E-001	-1.2037048E+000	0
1.1794641E+001	1.084193974675873E+002	-1.2058969E+000	-1.022410765461905E+002	1.2329219E-001	-1.2057049E+000	0
1.1634660E+001	1.086194974625323E+002	-1.2079208E+000	-1.038208942487863E+002	1.2540741E-001	-1.2077057E+000	0
1.1455261E+001	1.088196974574748E+002	-1.2099301E+000	-1.056222183609964E+002	1.2779550E-001	-1.2097079E+000	0
1.1281919E+001	1.090197974524199E+002	-1.2119218E+000	-1.074216041846075E+002	1.3018659E-001	-1.2117090E+000	0
1.1058927E+001	1.092297974471148E+002	-1.2139590E+000	-1.097718628124321E+002	1.3325854E-001	-1.2138090E+000	0
1.0840455E+001	1.094397974418098E+002	-1.2160732E+000	-1.121791599624009E+002	1.3641806E-001	-1.2159090E+000	0
1.0643605E+001	1.096399974367523E+002	-1.2181067E+000	-1.144449348618286E+002	1.3940614E-001	-1.2179105E+000	0
1.0429019E+001	1.098402974316923E+002	-1.2200752E+000	-1.169884943780594E+002	1.4273477E-001	-1.2199138E+000	0
1.0267025E+001	1.100403974266374E+002	-1.2220632E+000	-1.190279740465473E+002	1.4545971E-001	-1.2219150E+000	0
1.0149314E+001	1.102404974215824E+002	-1.2240945E+000	-1.206085980330089E+002	1.4763632E-001	-1.2239158E+000	0
9.9052248E+000	1.104405974165275E+002	-1.2261200E+000	-1.237851810336384E+002	1.5177548E-001	-1.2259170E+000	0
9.8108797E+000	1.106406974114725E+002	-1.2281116E+000	-1.251785391287231E+002	1.5373322E-001	-1.2279178E+000	0
9.7114983E+000	1.108408974064150E+002	-1.2300833E+000	-1.266625710074484E+002	1.5580551E-001	-1.2299197E+000	0
9.5679541E+000	1.110409974013601E+002	-1.2320410E+000	-1.287674408207674E+002	1.5864676E-001	-1.2319210E+000	0
9.4314089E+000	1.112409973963076E+002	-1.2341068E+000	-1.308507387946252E+002	1.6148378E-001	-1.2339209E+000	0
9.2793484E+000	1.114410973912527E+002	-1.2360752E+000	-1.332071024925026E+002	1.6465399E-001	-1.2359217E+000	0
9.1100578E+000	1.116411973861977E+002	-1.2380835E+000	-1.359029282572046E+002	1.6825917E-001	-1.2379230E+000	0
8.9045057E+000	1.118412973811428E+002	-1.2400851E+000	-1.392648960830497E+002	1.7270033E-001	-1.2399238E+000	0
8.8593855E+000	1.120413973760878E+002	-1.2420809E+000	-1.401994513016439E+002	1.7413907E-001	-1.2419250E+000	0
8.7405624E+000	1.122413973710354E+002	-1.2441118E+000	-1.423377227880522E+002	1.7708404E-001	-1.2439250E+000	0
8.4999590E+000	1.124415973659779E+002	-1.2460855E+000	-1.465989982141334E+002	1.8267488E-001	-1.2459269E+000	0
8.3472137E+000	1.126416973609230E+002	-1.2480961E+000	-1.495224765043744E+002	1.8661842E-001	-1.2479278E+000	0
8.1759329E+000	1.128417973558680E+002	-1.2500992E+000	-1.528998879921409E+002	1.9114003E-001	-1.2499290E+000	0
7.9993773E+000	1.130417973508156E+002	-1.2520517E+000	-1.565186445869825E+002	1.9596943E-001	-1.2519290E+000	0
7.9102602E+000	1.132417973457632E+002	-1.2540896E+000	-1.585396133582874E+002	1.9882289E-001	-1.2539291E+000	0
7.8281798E+000	1.134417973407108E+002	-1.2561134E+000	-1.604604685030831E+002	2.0155655E-001	-1.2559290E+000	0
7.8168283E+000	1.136417973356583E+002	-1.2581170E+000	-1.609498025651969E+002	2.0249368E-001	-1.2579290E+000	0
7.7568631E+000	1.138417973306059E+002	-1.2601123E+000	-1.624512749475145E+002	2.0470685E-001	-1.2599289E+000	0
7.5732923E+000	1.140418973255510E+002	-1.2621375E+000	-1.666563844587558E+002	2.1034327E-001	-1.2619299E+000	0
7.5199642E+000	1.142419973204960E+002	-1.2641240E+000	-1.681023974386198E+002	2.1250229E-001	-1.2639310E+000	0
7.4575167E+000	1.144420973154411E+002	-1.2661057E+000	-1.697757739548648E+002	2.1495406E-001	-1.2659317E+000	0
7.3973694E+000	1.146421973103861E+002	-1.2681395E+000	-1.714311386765808E+002	2.1739860E-001	-1.2679330E+000	0
7.3956537E+000	1.148421973053337E+002	-1.2701159E+000	-1.717381415832069E+002	2.1812734E-001	-1.2699330E+000	0
7.3059788E+000	1.150422973002787E+002	-1.2721215E+000	-1.741206223844221E+002	2.2150260E-001	-1.2719338E+000	0
7.1796541E+000	1.152423972952238E+002	-1.2741034E+000	-1.774602709789674E+002	2.2610274E-001	-1.2739350E+000	0
6.9943819E+000	1.154423972901714E+002	-1.2761227E+000	-1.824496765504344E+002	2.3282817E-001	-1.2759351E+000	0
6.8219228E+000	1.156424972851164E+002	-1.2781212E+000	-1.873549788932223E+002	2.3946238E-001	-1.2779357E+000	0
6.7228265E+000	1.158426972800589E+002	-1.2801150E+000	-1.904132166230138E+002	2.4375081E-001	-1.2799377E+000	0
6.6686525E+000	1.160429972749989E+002	-1.2821468E+000	-1.922647456941572E+002	2.4651162E-001	-1.2819405E+000	0
6.6289811E+000	1.162431972699414E+002	-1.2841358E+000	-1.937154107839881E+002	2.4875690E-001	-1.2839431E+000	0
6.5712981E+000	1.164431972648890E+002	-1.2861263E+000	-1.957187569503612E+002	2.5171903E-001	-1.2859430E+000	0
6.3599648E+000	1.166431972598366E+002	-1.2880900E+000	-2.025309980018346E+002	2.6087815E-001	-1.2879430E+000	0
6.2716904E+000	1.168432972547816E+002	-1.2901468E+000	-2.057095911790234E+002	2.6539558E-001	-1.2899438E+000	0
6.2850995E+000	1.170433972497267E+002	-1.2921369E+000	-2.055873483541050E+002	2.6564699E-001	-1.2919450E+000	0
6.2591724E+000	1.172433972446743E+002	-1.2941304E+000	-2.067574345097792E+002	2.6757109E-001	-1.2939450E+000	0
6.1179557E+000	1.174433972396218E+002	-1.2961255E+000	-2.118559896767547E+002	2.7459195E-001	-1.2959450E+000	0
6.0628424E+000	1.176433972345694E+002	-1.2981417E+000	-2.141143836161159E+002	2.7795082E-001	-1.2979448E+000	0
5.9872322E+000	1.178433972295170E+002	-1.3001415E+000	-2.171523391092169E+002	2.8232875E-001	-1.2999450E+000	0
5.9150710E+000	1.180433972244646E+002	-1.3021581E+000	-2.201424323252813E+002	2.8666025E-001	-1.3019450E+000	0
5.9057107E+000	1.182433972194121E+002	-1.3041077E+000	-2.208214635200229E+002	2.8797495E-001	-1.3039451E+000	0
5.8187666E+000	1.184433972143597E+002	-1.3061695E+000	-2.244753166120886E+002	2.9320282E-001	-1.3059450E+000	0
5.6228733E+000	1.186433972093073E+002	-1.3081489E+000	-2.326477586114752E+002	3.0433789E-001	-1.3079451E+000	0
5.5832562E+000	1.188433972042549E+002	-1.3101965E+000	-2.346653110543066E+002	3.0745769E-001	-1.3099450E+000	0
5.5550275E+000	1.190435971991974E+002	-1.3121909E+000	-2.362168229279137E+002	3.0996156E-001	-1.3119466E+000	0
5.4625454E+000	1.192437971941399E+002	-1.3141601E+000	-2.405765065995464E+002	3.1615606E-001	-1.3139489E+000	0
5.3945885E+000	1.194437971890875E+002	-1.3161825E+000	-2.439819957382815E+002	3.2112482E-001	-1.3159490E+000	0
5.3416581E+000	1.196437971840351E+002	-1.3181527E+000	-2.467684531222671E+002	3.2527849E-001	-1.3179491E+000	0
5.3527904E+000	1.198437971789826E+002	-1.3201243E+000	-2.466235747369774E+002	3.2557377E-001	-1.3199489E+000	0
5.3075089E+000	1.200437971739302E+002	-1.3221624E+000	-2.491116703967655E+002	3.2936609E-001	-1.3219490E+000	0
5.2661948E+000	1.202437971688778E+002	-1.3241619E+000	-2.514456715940619E+002	3.3295476E-001	-1.3239490E+000	0
5.2279439E+000	1.204437971638254E+002	-1.3261486E+000	-2.536654312367336E+002	3.3639807E-001	-1.3259490E+000	0
5.1708093E+000	1.206438971587704E+002	-1.3282052E+000	-2.568660224812484E+002	3.4117079E-001	-1.3279498E+000	0
5.0531473E+000	1.208441971537104E+002	-1.3301548E+000	-2.632329387421746E+002	3.5014054E-001	-1.3299524E+000	0
5.0012398E+000	1.210443971486529E+002	-1.3321623E+000	-2.663663942523161E+002	3.5484326E-001	-1.3319548E+000	0
5.0206437E+000	1.212444971435980E+002	-1.3341993E+000	-2.657426833300979E+002	3.5455370E-001	-1.3339559E+000	0
4.9836445E+000	1.214344971387982E+002	-1.3361232E+000	-2.681016284221218E+002	3.5821682E-001	-1.3358555E+000	0
4.9380741E+000	1.215948971347461E+002	-1.3377241E+000	-2.708999580600839E+002	3.6238939E-001	-1.3374591E+000	0
4.7651930E+000	1.217256971314418E+002	-1.3390146E+000	-2.809990306126801E+002	3.7626183E-001	-1.3387671E+000	0
4.6738381E+000	1.218658971279001E+002	-1.3404093E+000	-2.867898492512745E+002	3.8441578E-001	-1.3401692E+000	0
4.6789241E+000	1.220162971241007E+002	-1.3419108E+000	-2.867990191136923E+002	3.8485870E-001	-1.3416728E+000	0
4.6733665E+000	1.221765971200512E+002	-1.3435619E+000	-2.874933774632660E+002	3.8626516E-001	-1.3432763E+000	0
4.6389823E+000	1.223369971159991E+002	-1.3451468E+000	-2.899659326329956E+002	3.9004675E-001	-1.3448800E+000	0
4.4808273E+000	1.224972971119496E+002	-1.3467231E+000	-3.005523396441238E+002	4.0476078E-001	-1.3464835E+000	0
4.4378996E+000	1.226777971073898E+002	-1.3485216E+000	-3.038648311750821E+002	4.0976828E-001	-1.3482882E+000	0
4.4407291E+000	1.228379971033428E+002	-1.3501559E+000	-3.040392585322916E+002	4.1050041E-001	-1.3498907E+000	0
4.4379005E+000	1.229980970992983E+002	-1.3517240E+000	-3.045863702199872E+002	4.1171673E-001	-1.3514916E+000	0
4.4480305E+000	1.231884970944884E+002	-1.3536203E+000	-3.043190350998429E+002	4.1193241E-001	-1.3533952E+000	0
4.3767638E+000	1.233490970904313E+002	-1.3552266E+000	-3.096412407206240E+002	4.1963404E-001	-1.3550009E+000	0
4.3305759E+000	1.234794970871371E+002	-1.3565524E+000	-3.132498880640005E+002	4.2493987E-001	-1.3563048E+000	0
4.3326783E+000	1.236398970830851E+002	-1.3581649E+000	-3.134700370613173E+002	4.2574400E-001	-1.3579097E+000	0
4.3326926E+000	1.238202970785278E+002	-1.3599619E+000	-3.138837650448299E+002	4.2686996E-001	-1.3597134E+000	0
4.3159685E+000	1.239903970742307E+002	-1.3616738E+000	-3.154966959444446E+002	4.2960361E-001	-1.3614144E+000	0
4.3356791E+000	1.241505970701837E+002	-1.3632655E+000	-3.144295430314787E+002	4.2865095E-001	-1.3630166E+000	0
4.2767372E+000	1.243107970661367E+002	-1.3648937E+000	-3.191436958874110E+002	4.3559721E-001	-1.3646182E+000	0
4.2687778E+000	1.244709970620897E+002	-1.3665026E+000	-3.201156558621256E+002	4.3743888E-001	-1.3662206E+000	0
4.2040758E+000	1.246313970580377E+002	-1.3681041E+000	-3.254232550905176E+002	4.4521290E-001	-1.3678244E+000	0
4.1637931E+000	1.247717970544909E+002	-1.3694702E+000	-3.288996941226183E+002	4.5041835E-001	-1.3692276E+000	0
4.0812879E+000	1.248824970516944E+002	-1.3706156E+000	-3.358291886683373E+002	4.6029273E-001	-1.3703346E+000	0
4.0850353E+000	1.250031970486452E+002	-1.3718512E+000	-3.358235674620164E+002	4.6069998E-001	-1.3715422E+000	0
4.0625587E+000	1.251435970450984E+002	-1.3732015E+000	-3.380139411195605E+002	4.6416125E-001	-1.3729464E+000	0
4.0660777E+000	1.253241970405361E+002	-1.3750293E+000	-3.381709540975903E+002	4.6499497E-001	-1.3747520E+000	0
3.9731073E+000	1.255045970359788E+002	-1.3768224E+000	-3.465354061123771E+002	4.7711769E-001	-1.3765569E+000	0
3.9744368E+000	1.256848970314240E+002	-1.3786247E+000	-3.468729779318664E+002	4.7820765E-001	-1.3783592E+000	0
4.0329871E+000	1.258654970268617E+002	-1.3804374E+000	-3.422865701299334E+002	4.7250518E-001	-1.3801651E+000	0
4.0373673E+000	1.260361970225495E+002	-1.3821329E+000	-3.423351857072012E+002	4.7315273E-001	-1.3818722E+000	0
4.0040584E+000	1.261866970187475E+002	-1.3836408E+000	-3.455595902075274E+002	4.7813034E-001	-1.3833774E+000	0
3.9430442E+000	1.263371970149456E+002	-1.3851733E+000	-3.512954025725553E+002	4.8660502E-001	-1.3848819E+000	0
3.9212463E+000	1.265076970106384E+002	-1.3868597E+000	-3.536782863394642E+002	4.9050215E-001	-1.3865875E+000	0
3.8682239E+000	1.266679970065888E+002	-1.3884420E+000	-3.589352870263028E+002	4.9836084E-001	-1.3881906E+000	0
3.9069817E+000	1.268182970027920E+002	-1.3899211E+000	-3.557531626049931E+002	4.9446881E-001	-1.3896933E+000	0
3.9421031E+000	1.269689969989849E+002	-1.3914872E+000	-3.529809350527239E+002	4.9116847E-001	-1.3911998E+000	0
3.9211106E+000	1.271096969954306E+002	-1.3928581E+000	-3.552203115577549E+002	4.9477151E-001	-1.3926071E+000	0
3.8826838E+000	1.272701969913760E+002	-1.3944710E+000	-3.591513320938698E+002	5.0082612E-001	-1.3942121E+000	0
3.8918111E+000	1.274407969870663E+002	-1.3961722E+000	-3.587461258684843E+002	5.0087136E-001	-1.3959184E+000	0
3.9500573E+000	1.276010969830168E+002	-1.3977876E+000	-3.538651446424209E+002	4.9462831E-001	-1.3975211E+000	0
3.9054282E+000	1.277416969794649E+002	-1.3992106E+000	-3.582732879352113E+002	5.0129980E-001	-1.3989271E+000	0
3.8380165E+000	1.279123969751527E+002	-1.4008911E+000	-3.650039174805506E+002	5.1133072E-001	-1.4006343E+000	0
3.8480825E+000	1.280727969711006E+002	-1.4024796E+000	-3.644619525290227E+002	5.1115048E-001	-1.4022382E+000	0
3.7471097E+000	1.282033969678014E+002	-1.4037987E+000	-3.746350642827629E+002	5.2591223E-001	-1.4035442E+000	0
3.6303449E+000	1.283737969634967E+002	-1.4055314E+000	-3.871619505770045E+002	5.4416829E-001	-1.4052486E+000	0
3.6033497E+000	1.285340969594472E+002	-1.4071337E+000	-3.905071094258213E+002	5.4949570E-001	-1.4068512E+000	0
3.5291543E+000	1.286647969561454E+002	-1.4084418E+000	-3.990876195840917E+002	5.6209165E-001	-1.4081585E+000	0
3.4992886E+000	1.287951969528513E+002	-1.4097670E+000	-4.028724648405534E+002	5.6795633E-001	-1.4094620E+000	0
3.5249755E+000	1.289256969495545E+002	-1.4110453E+000	-4.002993277245050E+002	5.6484050E-001	-1.4107673E+000	0
3.5447059E+000	1.290761969457526E+002	-1.4125593E+000	-3.984983063413720E+002	5.6290245E-001	-1.4122720E+000	0
3.5710046E+000	1.292167969422007E+002	-1.4139888E+000	-3.959638624053241E+002	5.5988848E-001	-1.4136781E+000	0
3.5196753E+000	1.293672969383988E+002	-1.4155025E+000	-4.021684999648287E+002	5.6927055E-001	-1.4151831E+000	0
3.4860599E+000	1.295376969340941E+002	-1.4172087E+000	-4.065359407505148E+002	5.7614625E-001	-1.4168875E+000	0
3.4673760E+000	1.296980969300421E+002	-1.4188167E+000	-4.091903041157584E+002	5.8056605E-001	-1.4184911E+000	0
3.4340403E+000	1.298582969259951E+002	-1.4203964E+000	-4.136225303392298E+002	5.8750796E-001	-1.4200933E+000	0
3.4480791E+000	1.300186969219430E+002	-1.4220124E+000	-4.124071480931007E+002	5.8644807E-001	-1.4216970E+000	0
3.4321086E+000	1.301692969181386E+002	-1.4235113E+000	-4.147628681153683E+002	5.9041959E-001	-1.4232030E+000	0
3.4360876E+000	1.303097969145892E+002	-1.4248878E+000	-4.146832021216833E+002	5.9087700E-001	-1.4246082E+000	0
3.4424002E+000	1.304800969102871E+002	-1.4266417E+000	-4.144322538241461E+002	5.9124631E-001	-1.4263114E+000	0
3.4102921E+000	1.306504969059824E+002	-1.4283173E+000	-4.188254959186661E+002	5.9821570E-001	-1.4280150E+000	0
3.3673511E+000	1.308110969019253E+002	-1.4299376E+000	-4.246476177376085E+002	6.0721958E-001	-1.4296213E+000	0
3.3470962E+000	1.309813968976232E+002	-1.4316360E+000	-4.277247852595174E+002	6.1234617E-001	-1.4313238E+000	0
3.3093290E+000	1.311117968943290E+002	-1.4329277E+000	-4.329964616960602E+002	6.2045264E-001	-1.4326279E+000	0
3.2458205E+000	1.312222968915376E+002	-1.4340701E+000	-4.418205229467990E+002	6.3360161E-001	-1.4337331E+000	0
3.2815654E+000	1.313728968877331E+002	-1.4355820E+000	-4.374686788815034E+002	6.2802219E-001	-1.4352391E+000	0
3.3043616E+000	1.315433968834259E+002	-1.4372932E+000	-4.349684995307484E+002	6.2517726E-001	-1.4369444E+000	0
3.3045254E+000	1.316936968796290E+002	-1.4387618E+000	-4.353913809776714E+002	6.2642449E-001	-1.4384472E+000	0
3.3059721E+000	1.318641968753218E+002	-1.4404285E+000	-4.357049648711836E+002	6.2760186E-001	-1.4401523E+000	0
3.2264977E+000	1.320146968715198E+002	-1.4419369E+000	-4.469046696798491E+002	6.4440829E-001	-1.4416572E+000	0
3.2331593E+000	1.321350968684783E+002	-1.4431540E+000	-4.463603142636694E+002	6.4416665E-001	-1.4428611E+000	0
3.2007544E+000	1.322755968649290E+002	-1.4445914E+000	-4.513284047305315E+002	6.5198511E-001	-1.4442663E+000	0
3.1140802E+000	1.324159968613822E+002	-1.4460005E+000	-4.643427208033872E+002	6.7143977E-001	-1.4456699E+000	0
3.0903327E+000	1.325463968580880E+002	-1.4473089E+000	-4.683343271433650E+002	6.7782444E-001	-1.4469746E+000	0
3.1304393E+000	1.327169968537783E+002	-1.4490179E+000	-4.628800494187672E+002	6.7072147E-001	-1.4486800E+000	0
3.1308942E+000	1.328673968499788E+002	-1.4504666E+000	-4.632755237189613E+002	6.7196572E-001	-1.4501846E+000	0
3.0839589E+000	1.330076968464346E+002	-1.4518920E+000	-4.707883817844104E+002	6.8353391E-001	-1.4515872E+000	0
2.9760952E+000	1.331679968423850E+002	-1.4535317E+000	-4.884023024216604E+002	7.0990825E-001	-1.4531906E+000	0
3.0158651E+000	1.333579968375852E+002	-1.4553788E+000	-4.825742356566334E+002	7.0232832E-001	-1.4550908E+000	0
2.9982834E+000	1.335579968325328E+002	-1.4573972E+000	-4.860772088844481E+002	7.0840758E-001	-1.4570909E+000	0
3.0401647E+000	1.337280968282357E+002	-1.4590942E+000	-4.799391858655090E+002	7.0027649E-001	-1.4587915E+000	0
3.0397503E+000	1.339179968234384E+002	-1.4609995E+000	-4.806314130553860E+002	7.0220226E-001	-1.4606907E+000	0
3.0572278E+000	1.341080968186361E+002	-1.4628586E+000	-4.784918157063721E+002	6.9996583E-001	-1.4625918E+000	0
2.9943738E+000	1.342979968138388E+002	-1.4648256E+000	-4.891926599172418E+002	7.1658194E-001	-1.4644908E+000	0
2.9657137E+000	1.344779968092917E+002	-1.4666805E+000	-4.945455305094573E+002	7.2534031E-001	-1.4662904E+000	0
2.9862485E+000	1.346479968049971E+002	-1.4683614E+000	-4.917076879675278E+002	7.2200459E-001	-1.4679906E+000	0
3.0117450E+000	1.348179968007025E+002	-1.4700049E+000	-4.880907555885788E+002	7.1749580E-001	-1.4696904E+000	0
3.0352764E+000	1.349780967966581E+002	-1.4716066E+000	-4.848344534968237E+002	7.1348560E-001	-1.4712914E+000	0
3.0295627E+000	1.351382967926111E+002	-1.4731992E+000	-4.862745565014247E+002	7.1637928E-001	-1.4728935E+000	0
3.0375359E+000	1.353083967883140E+002	-1.4749104E+000	-4.855614751836347E+002	7.1615964E-001	-1.4745946E+000	0
3.0452135E+000	1.354684967842695E+002	-1.4765128E+000	-4.848634758926755E+002	7.1590710E-001	-1.4761956E+000	0
3.0349810E+000	1.356384967799750E+002	-1.4782122E+000	-4.870581507217521E+002	7.1997529E-001	-1.4778957E+000	0
3.0020554E+000	1.358183967754303E+002	-1.4800172E+000	-4.930013018519421E+002	7.2965038E-001	-1.4796948E+000	0
2.9620774E+000	1.360183967703779E+002	-1.4820603E+000	-5.003448896775708E+002	7.4154133E-001	-1.4816948E+000	0
2.9912214E+000	1.361983967658307E+002	-1.4837871E+000	-4.960471968820884E+002	7.3602843E-001	-1.4834944E+000	0
2.9875154E+000	1.363783967612835E+002	-1.4856488E+000	-4.972857121102115E+002	7.3879188E-001	-1.4852947E+000	0
3.0031874E+000	1.365584967567338E+002	-1.4874761E+000	-4.952991326722925E+002	7.3674566E-001	-1.4870956E+000	0
3.0574591E+000	1.367283967524418E+002	-1.4891292E+000	-4.870479529289278E+002	7.2527730E-001	-1.4887947E+000	0
3.0721304E+000	1.369083967478946E+002	-1.4909266E+000	-4.853070549245840E+002	7.2355723E-001	-1.4905946E+000	0
2.8176382E+000	1.370883967433474E+002	-1.4927601E+000	-5.297912476097272E+002	7.9085124E-001	-1.4923946E+000	0
2.7664425E+000	1.372584967390503E+002	-1.4944183E+000	-5.401949273646806E+002	8.0727714E-001	-1.4940957E+000	0
2.7815189E+000	1.374383967345057E+002	-1.4962482E+000	-5.379248830762135E+002	8.0486917E-001	-1.4958948E+000	0
2.7765050E+000	1.376283967297059E+002	-1.4981594E+000	-5.395846095728266E+002	8.0838376E-001	-1.4977946E+000	0
2.8121622E+000	1.378083967251587E+002	-1.4999834E+000	-5.333915327238801E+002	8.0007845E-001	-1.4995946E+000	0
2.7944555E+000	1.379683967211167E+002	-1.5015594E+000	-5.373352304020300E+002	8.0684078E-001	-1.5011945E+000	0
2.7914948E+000	1.381184967173249E+002	-1.5030798E+000	-5.384497927261000E+002	8.0933297E-001	-1.5026957E+000	0
2.7120900E+000	1.382883967130329E+002	-1.5047450E+000	-5.548285580667221E+002	8.3487552E-001	-1.5043944E+000	0
2.7172494E+000	1.384783967082330E+002	-1.5066792E+000	-5.544868857844367E+002	8.3543384E-001	-1.5062947E+000	0
2.6635032E+000	1.386783967031806E+002	-1.5086873E+000	-5.664296873702492E+002	8.5456526E-001	-1.5082948E+000	0
2.6575966E+000	1.388683966983808E+002	-1.5105472E+000	-5.683884274703330E+002	8.5857755E-001	-1.5101947E+000	0
2.5810907E+000	1.390483966938336E+002	-1.5123755E+000	-5.859443377191461E+002	8.8616782E-001	-1.5119945E+000	0
2.5940425E+000	1.391583966910548E+002	-1.5134616E+000	-5.834374862982322E+002	8.8301021E-001	-1.5130945E+000	0
2.6089871E+000	1.391691966907820E+002	-1.5138129E+000	-5.802301177978516E+002	8.7835985E-001	-1.5133945E+000	1