EC-Lab ASCII FILE
Nb header lines : 63                          

Linear Sweep Voltammetry

Run on channel : 1 (SN 1340)
User : 
Electrode connection : standard
Potential control : Ewe
Ewe ctrl range : min = -5.00 V, max = 5.00 V
Ewe,I filtering : <None>
Safety Limits :
	Do not start on E overload
Channel : Floating
Acquisition started on : 11/02/2025 15:24:54.980
Technique started on : 11/02/2025 15:24:54.980
Loaded Setting File :  NONE
Saved on :
	File : PtPdNi_Test3_C01.mpr
	Directory : C:\Users\volt\Documents\Platalytix\
	Host : 127.0.0.1
Device : SP-200 (SN 0262)
Address : USB
EC-LAB for windows v11.60 (software)
Internet server v11.60 (firmware)
Command interpretor v11.60 (firmware)
Electrode material : Au/Pd
Initial state : 
Electrolyte : NaCl (0.2M)
Comments : Fe(CN)63-/Fe(CN)64- 5.10-3 M
Cable : standard
Reference electrode : SCE Saturated Calomel Electrode (0.241 V)
Electrode surface area : 0.001 cm˛
Characteristic mass : 0.001 g
Equivalent Weight : 0.000 g/eq.
Density : 0.000 g/cm3
Volume (V) : 0.001 cmł
Cycle Definition : Charge/Discharge alternance
tR (h:m:s)          0:00:5.0000         
dER/dt (mV/h)       0.0                 
dER (mV)            0                   
dtR (s)             0.0000              
dE/dt               10.000              
dE/dt unit          mV/s                
Ei (V)              -0.200              
vs.                 Ref                 
EL (V)              -2.500              
vs.                 Ref                 
record              <I>                 
dI                  0.000               
unit dI             µA                  
tI (s)              0.0000              
step percent        50                  
N                   10                  
E range min (V)     -5.000              
E range max (V)     5.000               
I Range             Auto                
I Range min         Unset               
I Range max         Unset               
I Range init        Unset               
Bandwidth           8                   

<I>/mA	Ewe/V	control/V	Rwe/Ohm	time/s	
0.000000000000000E+000	-8.3756357E-001	0.0000000E+000	0.0000000E+000	0.000000000000000E+000
0.000000000000000E+000	-8.3251023E-001	-1.9987138E-001	0.0000000E+000	4.999799873694428E+000
1.512481591701507E+000	-2.0198911E-001	-2.0177107E-001	1.3354814E+002	5.199799868642003E+000
4.997119312079579E-001	-2.0322232E-001	-2.0297104E-001	4.0667896E+002	5.319799865610548E+000
2.410062157872073E-001	-2.0528336E-001	-2.0507094E-001	8.5177618E+002	5.529799860305502E+000
1.740491121982028E-001	-2.0730266E-001	-2.0707084E-001	1.1910585E+003	5.729799855253077E+000
1.398486363091204E-001	-2.0931050E-001	-2.0907074E-001	1.4966932E+003	5.929799850200652E+000
1.184702566782618E-001	-2.1133552E-001	-2.1107063E-001	1.7838699E+003	6.129799845148227E+000
1.036270715881248E-001	-2.1329921E-001	-2.1307050E-001	2.0583350E+003	6.329799840095802E+000
9.275290096715105E-002	-2.1533529E-001	-2.1507040E-001	2.3216018E+003	6.529799835043377E+000
8.439768055430652E-002	-2.1731573E-001	-2.1707028E-001	2.5749016E+003	6.729799829990952E+000
7.758577943350839E-002	-2.1934588E-001	-2.1907018E-001	2.8271404E+003	6.929799824938527E+000
7.208125241620300E-002	-2.2132887E-001	-2.2107008E-001	3.0705469E+003	7.129799819886102E+000
6.739978732851659E-002	-2.2329704E-001	-2.2306998E-001	3.3130229E+003	7.329799814833677E+000
6.330926539196846E-002	-2.2530892E-001	-2.2506990E-001	3.5588618E+003	7.529799809781252E+000
5.977372983375506E-002	-2.2729594E-001	-2.2706977E-001	3.8026060E+003	7.729799804728827E+000
5.660637331463403E-002	-2.2930060E-001	-2.2906967E-001	4.0507913E+003	7.929799799676402E+000
5.385893066899405E-002	-2.3132987E-001	-2.3106955E-001	4.2951069E+003	8.129799794623978E+000
5.121301599434147E-002	-2.3329949E-001	-2.3306879E-001	4.5554727E+003	8.329699789574079E+000
4.895759166863534E-002	-2.3531567E-001	-2.3506935E-001	4.8065205E+003	8.529599784524180E+000
4.679552350555449E-002	-2.3733768E-001	-2.3706925E-001	5.0718032E+003	8.729599779471755E+000
4.485994510251240E-002	-2.3934829E-001	-2.3906913E-001	5.3354565E+003	8.929599774419330E+000
4.290945495794538E-002	-2.4133831E-001	-2.4106902E-001	5.6243623E+003	9.129599769366905E+000
4.120543519010689E-002	-2.4330285E-001	-2.4306890E-001	5.9046299E+003	9.329599764314480E+000
3.949523336848552E-002	-2.4530435E-001	-2.4506880E-001	6.2109863E+003	9.529599759262055E+000
3.809845455618088E-002	-2.4732745E-001	-2.4706870E-001	6.4917974E+003	9.729599754209630E+000
3.670520272819716E-002	-2.4929836E-001	-2.4906860E-001	6.7919082E+003	9.929599749157205E+000
3.533755336036015E-002	-2.5130069E-001	-2.5106850E-001	7.1114346E+003	1.012959974410478E+001
3.395474817769617E-002	-2.5333145E-001	-2.5306839E-001	7.4608550E+003	1.032959973905236E+001
3.280771613097799E-002	-2.5528580E-001	-2.5506830E-001	7.7812729E+003	1.052959973399993E+001
3.165553109757310E-002	-2.5734332E-001	-2.5706819E-001	8.1294897E+003	1.072959972894751E+001
3.063633548921568E-002	-2.5927901E-001	-2.5906804E-001	8.4631211E+003	1.092959972389508E+001
2.950690937932798E-002	-2.6126903E-001	-2.6106799E-001	8.8545039E+003	1.112959971884266E+001
2.856173250077676E-002	-2.6332015E-001	-2.6306787E-001	9.2193340E+003	1.132959971379023E+001
2.758334683467656E-002	-2.6529616E-001	-2.6506776E-001	9.6179834E+003	1.152959970873781E+001
2.676611720972910E-002	-2.6732415E-001	-2.6706767E-001	9.9874082E+003	1.172959970368538E+001
2.575971546441384E-002	-2.6929742E-001	-2.6906756E-001	1.0454208E+004	1.192959969863296E+001
2.498224058118409E-002	-2.7131206E-001	-2.7106699E-001	1.0860197E+004	1.212949969358306E+001
2.425139284082378E-002	-2.7329633E-001	-2.7306736E-001	1.1269305E+004	1.232939968853316E+001
2.343451255608281E-002	-2.7531138E-001	-2.7506724E-001	1.1748116E+004	1.252939968348073E+001
2.278162634025005E-002	-2.7733871E-001	-2.7706712E-001	1.2173789E+004	1.272939967842831E+001
2.201100338230333E-002	-2.7929604E-001	-2.7906701E-001	1.2688928E+004	1.292939967337588E+001
2.133533917882219E-002	-2.8129029E-001	-2.8106692E-001	1.3184243E+004	1.312939966832346E+001
2.068195436104964E-002	-2.8325930E-001	-2.8306681E-001	1.3695964E+004	1.332939966327103E+001
1.998671924599285E-002	-2.8527886E-001	-2.8506672E-001	1.4273421E+004	1.352939965821861E+001
1.937457307174800E-002	-2.8729513E-001	-2.8706661E-001	1.4828463E+004	1.372939965316618E+001
1.881842477360104E-002	-2.8927392E-001	-2.8906649E-001	1.5371846E+004	1.392939964811376E+001
1.813179766930859E-002	-2.9131868E-001	-2.9106638E-001	1.6066729E+004	1.412939964306133E+001
1.758890098320909E-002	-2.9328409E-001	-2.9306626E-001	1.6674385E+004	1.432939963800891E+001
1.705881719550867E-002	-2.9528683E-001	-2.9506618E-001	1.7309924E+004	1.452939963295648E+001
1.647772600366407E-002	-2.9727790E-001	-2.9706606E-001	1.8041197E+004	1.472939962790406E+001
1.600577550490928E-002	-2.9932031E-001	-2.9906595E-001	1.8700770E+004	1.492939962285163E+001
1.540128741470892E-002	-3.0128679E-001	-3.0106586E-001	1.9562441E+004	1.512939961779921E+001
1.493079956003746E-002	-3.0328444E-001	-3.0306575E-001	2.0312672E+004	1.532939961274678E+001
1.447580447985392E-002	-3.0530542E-001	-3.0506566E-001	2.1090740E+004	1.552939960769436E+001
1.399617674858195E-002	-3.0729759E-001	-3.0706555E-001	2.1955824E+004	1.572939960264193E+001
1.351650130361187E-002	-3.0929247E-001	-3.0906567E-001	2.2882584E+004	1.592929959759203E+001
1.306016938832152E-002	-3.1127802E-001	-3.1106532E-001	2.3834148E+004	1.612919959254214E+001
1.256471633084344E-002	-3.1328884E-001	-3.1306526E-001	2.4934016E+004	1.632919958748971E+001
1.212937456857659E-002	-3.1525552E-001	-3.1506512E-001	2.5991078E+004	1.652919958243729E+001
1.169110884114655E-002	-3.1729284E-001	-3.1706500E-001	2.7139670E+004	1.672919957738486E+001
1.125561939832248E-002	-3.1929326E-001	-3.1906489E-001	2.8367453E+004	1.692919957233244E+001
1.079460793721771E-002	-3.2128984E-001	-3.2106483E-001	2.9763920E+004	1.712919956728001E+001
1.051328726700994E-002	-3.2331911E-001	-3.2306468E-001	3.0753379E+004	1.732919956222759E+001
9.988640196863741E-003	-3.2531378E-001	-3.2506457E-001	3.2568375E+004	1.752919955717516E+001
9.671585839991489E-003	-3.2728726E-001	-3.2706448E-001	3.3840082E+004	1.772919955212274E+001
9.315060608497086E-003	-3.2929912E-001	-3.2906437E-001	3.5351258E+004	1.792919954707031E+001
8.849650470285436E-003	-3.3127767E-001	-3.3106428E-001	3.7433984E+004	1.812919954201789E+001
8.502060677415352E-003	-3.3330652E-001	-3.3306417E-001	3.9203027E+004	1.832919953696546E+001
8.129449424958440E-003	-3.3530354E-001	-3.3506405E-001	4.1245543E+004	1.852919953191304E+001
7.772060383922683E-003	-3.3732179E-001	-3.3706394E-001	4.3401848E+004	1.872919952686061E+001
7.389363575456970E-003	-3.3926576E-001	-3.3906385E-001	4.5912719E+004	1.892919952180819E+001
7.024810973754403E-003	-3.4130967E-001	-3.4106374E-001	4.8586313E+004	1.912919951675576E+001
6.730212690757437E-003	-3.4330919E-001	-3.4306362E-001	5.1010156E+004	1.932919951170334E+001
6.280173797885272E-003	-3.4528631E-001	-3.4506351E-001	5.4980375E+004	1.952919950665091E+001
5.994513411031160E-003	-3.4729794E-001	-3.4706366E-001	5.7935969E+004	1.972909950160101E+001
5.717183765829859E-003	-3.4929520E-001	-3.4906331E-001	6.1095676E+004	1.992899949655111E+001
5.310448320536849E-003	-3.5130370E-001	-3.5106322E-001	6.6153305E+004	2.012899949149869E+001
5.011849607382695E-003	-3.5327247E-001	-3.5306311E-001	7.0487445E+004	2.032899948644626E+001
4.661158580293916E-003	-3.5527799E-001	-3.5506299E-001	7.6220961E+004	2.052899948139384E+001
4.360155083789188E-003	-3.5733798E-001	-3.5706291E-001	8.1955336E+004	2.072899947634141E+001
4.000641452001730E-003	-3.5926753E-001	-3.5906279E-001	8.9802484E+004	2.092899947128899E+001
3.688920287438414E-003	-3.6131355E-001	-3.6106271E-001	9.7945609E+004	2.112899946623656E+001
3.421402046100527E-003	-3.6331481E-001	-3.6306256E-001	1.0618887E+005	2.132899946118414E+001
3.047727556175578E-003	-3.6528593E-001	-3.6506251E-001	1.1985518E+005	2.152899945613171E+001
2.782479958002598E-003	-3.6729908E-001	-3.6706236E-001	1.3200422E+005	2.172899945107929E+001
2.426681282041813E-003	-3.6929104E-001	-3.6906227E-001	1.5217945E+005	2.192899944602686E+001
2.115708530659002E-003	-3.7127191E-001	-3.7106213E-001	1.7548348E+005	2.212899944097444E+001
1.817793193083235E-003	-3.7328848E-001	-3.7306207E-001	2.0535256E+005	2.232899943592201E+001
1.521677073368564E-003	-3.7526977E-001	-3.7506193E-001	2.4661591E+005	2.252899943086959E+001
1.210916086800085E-003	-3.7730858E-001	-3.7706184E-001	3.1158938E+005	2.272899942581716E+001
8.800303394709157E-004	-3.7931663E-001	-3.7906173E-001	4.3102675E+005	2.292899942076474E+001
6.304526977544220E-004	-3.8125932E-001	-3.8106164E-001	6.0473900E+005	2.312899941571231E+001
3.689247398357470E-004	-3.8329032E-001	-3.8306153E-001	1.0389391E+006	2.332899941065989E+001
6.217295448419469E-005	-3.8529927E-001	-3.8506207E-001	6.1972165E+006	2.352889940560999E+001
-2.176847546751857E-004	-3.8729280E-001	-3.8706130E-001	1.7791453E+006	2.372879940056009E+001
-5.316377503055478E-004	-3.8930383E-001	-3.8906121E-001	7.3227275E+005	2.392879939550767E+001
-7.077227028605918E-004	-3.9132398E-001	-3.9106110E-001	5.5293406E+005	2.412879939045524E+001
-1.085960171549034E-003	-3.9327160E-001	-3.9306101E-001	3.6214181E+005	2.432879938540282E+001
-1.294090080036789E-003	-3.9529598E-001	-3.9506090E-001	3.0546250E+005	2.452879938035039E+001
-1.597165398928832E-003	-3.9733034E-001	-3.9706075E-001	2.4877220E+005	2.472879937529797E+001
-1.883221217023111E-003	-3.9931270E-001	-3.9906070E-001	2.1203706E+005	2.492879937024554E+001
-2.147988910482398E-003	-4.0128618E-001	-4.0106055E-001	1.8681948E+005	2.512879936519312E+001
-2.411233763425436E-003	-4.0328512E-001	-4.0306047E-001	1.6725259E+005	2.532879936014069E+001
-2.704767907799784E-003	-4.0529224E-001	-4.0506038E-001	1.4984363E+005	2.552879935508827E+001
-2.974007634377801E-003	-4.0729973E-001	-4.0706027E-001	1.3695316E+005	2.572879935003584E+001
-3.237222472163258E-003	-4.0930650E-001	-4.0906018E-001	1.2643755E+005	2.592879934498342E+001
-3.420465370454576E-003	-4.1132367E-001	-4.1106004E-001	1.2025371E+005	2.612879933993099E+001
-3.731775720616753E-003	-4.1327885E-001	-4.1305992E-001	1.1074590E+005	2.632879933487857E+001
-4.005388207431390E-003	-4.1527694E-001	-4.1505983E-001	1.0367958E+005	2.652879932982614E+001
-4.235118191485730E-003	-4.1736460E-001	-4.1705975E-001	9.8548516E+004	2.672879932477372E+001
-4.484903483482364E-003	-4.1933912E-001	-4.1905960E-001	9.3500141E+004	2.692879931972129E+001
-4.644881334098239E-003	-4.2130980E-001	-4.2105955E-001	9.0704102E+004	2.712879931466887E+001
-4.923355899934478E-003	-4.2331797E-001	-4.2305988E-001	8.5981594E+004	2.732869930961897E+001
-5.201120030656523E-003	-4.2530555E-001	-4.2505929E-001	8.1771914E+004	2.752859930456907E+001
-5.362841152078413E-003	-4.2737827E-001	-4.2705920E-001	7.9692508E+004	2.772859929951665E+001
-5.555192844838186E-003	-4.2929724E-001	-4.2905906E-001	7.7278547E+004	2.792859929446422E+001
-5.780445695052261E-003	-4.3133160E-001	-4.3105900E-001	7.4619094E+004	2.812859928941180E+001
-6.083819839348165E-003	-4.3329552E-001	-4.3305886E-001	7.1220961E+004	2.832859928435937E+001
-6.205005484858576E-003	-4.3533006E-001	-4.3505880E-001	7.0157883E+004	2.852859927930695E+001
-6.444730732498634E-003	-4.3733707E-001	-4.3705866E-001	6.7859633E+004	2.872859927425452E+001
-6.657384674813471E-003	-4.3932199E-001	-4.3905857E-001	6.5990180E+004	2.892859926920210E+001
-6.830524396541485E-003	-4.4137654E-001	-4.4105846E-001	6.4618250E+004	2.912859926414967E+001
-7.008343673012327E-003	-4.4329309E-001	-4.4305834E-001	6.3252191E+004	2.932859925909725E+001
-7.246234796267056E-003	-4.4532174E-001	-4.4505823E-001	6.1455605E+004	2.952859925404482E+001
-7.449230387471084E-003	-4.4735271E-001	-4.4705814E-001	6.0053547E+004	2.972859924899240E+001
-7.596752058243152E-003	-4.4929034E-001	-4.4905809E-001	5.9142426E+004	2.992859924393997E+001
-7.874261804586072E-003	-4.5135126E-001	-4.5105794E-001	5.7319816E+004	3.012859923888755E+001
-7.939445805646607E-003	-4.5330089E-001	-4.5305783E-001	5.7094777E+004	3.032859923383512E+001
-8.213348972981788E-003	-4.5528242E-001	-4.5505774E-001	5.5432008E+004	3.052859922878270E+001
-8.366142351036696E-003	-4.5738006E-001	-4.5705760E-001	5.4670363E+004	3.072859922373027E+001
-8.493344417230431E-003	-4.5931971E-001	-4.5905754E-001	5.4079957E+004	3.092859921867785E+001
-8.692655594358639E-003	-4.6132275E-001	-4.6105808E-001	5.3070406E+004	3.112849921362795E+001
-8.824126511221414E-003	-4.6334031E-001	-4.6305731E-001	5.2508348E+004	3.132839920857805E+001
-8.982396710061090E-003	-4.6533135E-001	-4.6505719E-001	5.1804809E+004	3.152839920352562E+001
-9.159692516589994E-003	-4.6732813E-001	-4.6705708E-001	5.1020066E+004	3.172839919847320E+001
-9.336707270463991E-003	-4.6932709E-001	-4.6905702E-001	5.0266875E+004	3.192839919342077E+001
-9.388059600667700E-003	-4.7132286E-001	-4.7105682E-001	5.0204504E+004	3.212839918836835E+001
-9.541471688474953E-003	-4.7334063E-001	-4.7305682E-001	4.9608766E+004	3.232839918331592E+001
-9.675827727900176E-003	-4.7532159E-001	-4.7505662E-001	4.9124645E+004	3.252839917826350E+001
-9.799219761954532E-003	-4.7732750E-001	-4.7705656E-001	4.8710766E+004	3.272839917321107E+001
-9.880697150155562E-003	-4.7931558E-001	-4.7905645E-001	4.8510301E+004	3.292839916815865E+001
-1.000252266063632E-002	-4.8134905E-001	-4.8105633E-001	4.8122766E+004	3.312839916310622E+001
-1.016242307536369E-002	-4.8329458E-001	-4.8305628E-001	4.7557023E+004	3.332839915805380E+001
-1.022849351251098E-002	-4.8533210E-001	-4.8505613E-001	4.7449031E+004	3.352839915300137E+001
-1.035255661226078E-002	-4.8732617E-001	-4.8705608E-001	4.7073027E+004	3.372839914794895E+001
-1.050834362701326E-002	-4.8929793E-001	-4.8905590E-001	4.6562801E+004	3.392839914289652E+001
-1.053575625922427E-002	-4.9133718E-001	-4.9105582E-001	4.6635207E+004	3.412839913784410E+001
-1.065823127744744E-002	-4.9331105E-001	-4.9305570E-001	4.6284512E+004	3.432839913279167E+001
-1.073371703446632E-002	-4.9532950E-001	-4.9505556E-001	4.6147063E+004	3.452839912773925E+001
-1.085732074661916E-002	-4.9731952E-001	-4.9705550E-001	4.5804996E+004	3.472839912268682E+001
-1.095045773941072E-002	-4.9931729E-001	-4.9905515E-001	4.5597848E+004	3.492819911763945E+001
-1.094794595544646E-002	-5.0134003E-001	-5.0105530E-001	4.5793066E+004	3.512819911258703E+001
-1.105174933204617E-002	-5.0332582E-001	-5.0305516E-001	4.5542637E+004	3.532819910753460E+001
-1.114428083846866E-002	-5.0531656E-001	-5.0505507E-001	4.5343129E+004	3.552819910248218E+001
-1.118081118296438E-002	-5.0733304E-001	-5.0705498E-001	4.5375332E+004	3.572819909742975E+001
-1.129748986832285E-002	-5.0935066E-001	-5.0905484E-001	4.5085293E+004	3.592819909237733E+001
-1.128115846669620E-002	-5.1129526E-001	-5.1105481E-001	4.5322938E+004	3.612819908732490E+001
-1.135969837598744E-002	-5.1335806E-001	-5.1305467E-001	4.5191168E+004	3.632819908227248E+001
-1.143631857655919E-002	-5.1530457E-001	-5.1505458E-001	4.5058605E+004	3.652819907722005E+001
-1.149632545554213E-002	-5.1730561E-001	-5.1705444E-001	4.4997473E+004	3.672819907216763E+001
-1.156073090973544E-002	-5.1932132E-001	-5.1905429E-001	4.4921148E+004	3.692819906711520E+001
-1.151217229211859E-002	-5.2133620E-001	-5.2105427E-001	4.5285648E+004	3.712819906206278E+001
-1.152519508245950E-002	-5.2329773E-001	-5.2305412E-001	4.5404676E+004	3.732819905701035E+001
-1.164026986238714E-002	-5.2529877E-001	-5.2505404E-001	4.5127715E+004	3.752819905195793E+001
-1.166528704239089E-002	-5.2732444E-001	-5.2705389E-001	4.5204582E+004	3.772819904690550E+001
-1.173716204746704E-002	-5.2931339E-001	-5.2905387E-001	4.5097219E+004	3.792819904185308E+001
-1.174804354004683E-002	-5.3132957E-001	-5.3105372E-001	4.5227070E+004	3.812819903680065E+001
-1.174147386026522E-002	-5.3336072E-001	-5.3305364E-001	4.5425363E+004	3.832819903174823E+001
-1.182204289981235E-002	-5.3534323E-001	-5.3505260E-001	4.5283480E+004	3.852809902669833E+001
-1.172040945609473E-002	-5.3731847E-001	-5.3705430E-001	4.5844684E+004	3.872809902164590E+001
-1.180586614811008E-002	-5.3928381E-001	-5.3905332E-001	4.5679309E+004	3.892799901659600E+001
-1.183172651029896E-002	-5.4128247E-001	-5.4105318E-001	4.5748395E+004	3.912799901154358E+001
-1.182420132041578E-002	-5.4333818E-001	-5.4305309E-001	4.5951363E+004	3.932799900649115E+001
-1.186544126219879E-002	-5.4535425E-001	-5.4505301E-001	4.5961566E+004	3.952799900143873E+001
-1.189786259057490E-002	-5.4726595E-001	-5.4705286E-001	4.5996996E+004	3.972799899638630E+001
-1.194118288834795E-002	-5.4933470E-001	-5.4905277E-001	4.6003375E+004	3.992799899133388E+001
-1.186384526205453E-002	-5.5132133E-001	-5.5105263E-001	4.6470711E+004	4.012799898628145E+001
-1.199223247529363E-002	-5.5328798E-001	-5.5305254E-001	4.6137195E+004	4.032799898122903E+001
-1.193189671589912E-002	-5.5533630E-001	-5.5505240E-001	4.6542164E+004	4.052799897617660E+001
-1.201318768218695E-002	-5.5731004E-001	-5.5705231E-001	4.6391520E+004	4.072799897112418E+001
-1.205979155337217E-002	-5.5934054E-001	-5.5905223E-001	4.6380613E+004	4.092799896607175E+001
-1.208145101303913E-002	-5.6129855E-001	-5.6105208E-001	4.6459531E+004	4.112799896101933E+001
-1.206995076979001E-002	-5.6330937E-001	-5.6305200E-001	4.6670395E+004	4.132799895596690E+001
-1.211179184874941E-002	-5.6534380E-001	-5.6505185E-001	4.6677141E+004	4.152799895091448E+001
-1.211242348245029E-002	-5.6731993E-001	-5.6705183E-001	4.6837855E+004	4.172799894586205E+001
-1.208668054398809E-002	-5.6934750E-001	-5.6905168E-001	4.7105363E+004	4.192799894080963E+001
-1.214595161497969E-002	-5.7128704E-001	-5.7105166E-001	4.7035180E+004	4.212799893575720E+001
-1.217668828471682E-002	-5.7330692E-001	-5.7305175E-001	4.7082336E+004	4.232799893070478E+001
-1.218997992234022E-002	-5.7532543E-001	-5.7505137E-001	4.7196586E+004	4.252779892565741E+001
-1.221370117201906E-002	-5.7727998E-001	-5.7705128E-001	4.7264949E+004	4.272779892060498E+001
-1.219560019883098E-002	-5.7931840E-001	-5.7905114E-001	4.7502246E+004	4.292779891555256E+001
-1.221334226325196E-002	-5.8131796E-001	-5.8105111E-001	4.7596961E+004	4.312779891050013E+001
-1.234186768107851E-002	-5.8328611E-001	-5.8305097E-001	4.7260766E+004	4.332779890544771E+001
-1.227788602142138E-002	-5.8533317E-001	-5.8505088E-001	4.7673773E+004	4.352779890039528E+001
-1.233223164039652E-002	-5.8728182E-001	-5.8705074E-001	4.7621699E+004	4.372779889534286E+001
-1.239217846517615E-002	-5.8927667E-001	-5.8905059E-001	4.7552309E+004	4.392779889029043E+001
-1.238429298056309E-002	-5.9132153E-001	-5.9105057E-001	4.7747703E+004	4.412779888523801E+001
-1.245016091629392E-002	-5.9332681E-001	-5.9305042E-001	4.7656156E+004	4.432779888018558E+001
-1.242585830343468E-002	-5.9531277E-001	-5.9505033E-001	4.7909188E+004	4.452779887513316E+001
-1.245795049514020E-002	-5.9734988E-001	-5.9705025E-001	4.7949289E+004	4.472779887008073E+001
-1.249544520911502E-002	-5.9929788E-001	-5.9905010E-001	4.7961309E+004	4.492779886502831E+001
-1.249192911556594E-002	-6.0134518E-001	-6.0105002E-001	4.8138695E+004	4.512779885997588E+001
-1.260704685545305E-002	-6.0331076E-001	-6.0304987E-001	4.7855043E+004	4.532779885492346E+001
-1.255395953438415E-002	-6.0528529E-001	-6.0504985E-001	4.8214691E+004	4.552779884987103E+001
-1.269730736972457E-002	-6.0736823E-001	-6.0704964E-001	4.7834410E+004	4.572779884481861E+001
-1.273158406590633E-002	-6.0927516E-001	-6.0904962E-001	4.7855410E+004	4.592779883976618E+001
-1.278326211436598E-002	-6.1135173E-001	-6.1104906E-001	4.7824391E+004	4.612769883471628E+001
-1.285387816943989E-002	-6.1334401E-001	-6.1304933E-001	4.7716652E+004	4.632759882966639E+001
-1.284114002155628E-002	-6.1528927E-001	-6.1504924E-001	4.7915473E+004	4.652759882461396E+001
-1.293524671842239E-002	-6.1733896E-001	-6.1704910E-001	4.7725332E+004	4.672759881956154E+001
-1.300644275588214E-002	-6.1935270E-001	-6.1904907E-001	4.7618914E+004	4.692759881450911E+001
-1.307259560306606E-002	-6.2132722E-001	-6.2104893E-001	4.7528988E+004	4.712759880945669E+001
-1.308951085742749E-002	-6.2334859E-001	-6.2304884E-001	4.7621992E+004	4.732759880440426E+001
-1.319967214952072E-002	-6.2533426E-001	-6.2504870E-001	4.7374984E+004	4.752759879935184E+001
-1.330034846855466E-002	-6.2731022E-001	-6.2704861E-001	4.7164945E+004	4.772759879429941E+001
-1.324537629406802E-002	-6.2934327E-001	-6.2904853E-001	4.7514188E+004	4.792759878924699E+001
-1.337990541826264E-002	-6.3131231E-001	-6.3104844E-001	4.7183617E+004	4.812759878419456E+001
-1.343215250263895E-002	-6.3329148E-001	-6.3304836E-001	4.7147430E+004	4.832759877914214E+001
-1.350368587052039E-002	-6.3532990E-001	-6.3504821E-001	4.7048629E+004	4.852759877408971E+001
-1.358783626604230E-002	-6.3729548E-001	-6.3704818E-001	4.6901910E+004	4.872759876903729E+001
-1.364051630863572E-002	-6.3933092E-001	-6.3904798E-001	4.6869996E+004	4.892759876398486E+001
-1.370586895161097E-002	-6.4134598E-001	-6.4104795E-001	4.6793527E+004	4.912759875893244E+001
-1.380206405540479E-002	-6.4333254E-001	-6.4304781E-001	4.6611328E+004	4.932759875388001E+001
-1.387775812655490E-002	-6.4537352E-001	-6.4504766E-001	4.6504164E+004	4.952759874882759E+001
-1.396240939767903E-002	-6.4732188E-001	-6.4704758E-001	4.6361762E+004	4.972759874377516E+001
-1.404498150962345E-002	-6.4931703E-001	-6.4904726E-001	4.6231250E+004	4.992749873872526E+001
-1.420390805931204E-002	-6.5132129E-001	-6.5104735E-001	4.5855078E+004	5.012739873367536E+001
-1.421609167825291E-002	-6.5333968E-001	-6.5304726E-001	4.5957758E+004	5.032739872862294E+001
-1.424402878907466E-002	-6.5533763E-001	-6.5504712E-001	4.6007883E+004	5.052739872357051E+001
-1.445295867605705E-002	-6.5732408E-001	-6.5704703E-001	4.5480242E+004	5.072739871851809E+001
-1.446094209393761E-002	-6.5931654E-001	-6.5904689E-001	4.5592918E+004	5.092739871346566E+001
-1.455052484295705E-002	-6.6133970E-001	-6.6104686E-001	4.5451262E+004	5.112739870841324E+001
-1.471930456095911E-002	-6.6330189E-001	-6.6304672E-001	4.5063398E+004	5.132739870336081E+001
-1.475742193429402E-002	-6.6535664E-001	-6.6504663E-001	4.5086238E+004	5.152739869830839E+001
-1.490859355254290E-002	-6.6733521E-001	-6.6704655E-001	4.4761781E+004	5.172739869325596E+001
-1.502625497169957E-002	-6.6932607E-001	-6.6904640E-001	4.4543770E+004	5.192739868820354E+001
-1.507788017862571E-002	-6.7134088E-001	-6.7104632E-001	4.4524887E+004	5.212739868315111E+001
-1.516404501550528E-002	-6.7335737E-001	-6.7304617E-001	4.4404863E+004	5.232739867809869E+001
-1.529152867584349E-002	-6.7532140E-001	-6.7504615E-001	4.4163105E+004	5.252739867304626E+001
-1.538111954489765E-002	-6.7736465E-001	-6.7704594E-001	4.4038707E+004	5.272739866799384E+001
-1.543442294864267E-002	-6.7931390E-001	-6.7904592E-001	4.4012910E+004	5.292739866294141E+001
-1.564054967003478E-002	-6.8132687E-001	-6.8104577E-001	4.3561566E+004	5.312739865788899E+001
-1.557989849073044E-002	-6.8341982E-001	-6.8314570E-001	4.3865484E+004	5.333739865258394E+001
-1.581968146280219E-002	-6.8554938E-001	-6.8524563E-001	4.3335219E+004	5.354739864727890E+001
-1.598453656921406E-002	-6.8751717E-001	-6.8724567E-001	4.3011391E+004	5.374729864222900E+001
-1.596955161662078E-002	-6.8951041E-001	-6.8924534E-001	4.3176566E+004	5.394719863717910E+001
-1.606800602226310E-002	-6.9151241E-001	-6.9124526E-001	4.3036605E+004	5.414719863212667E+001
-1.627427668644904E-002	-6.9356549E-001	-6.9324511E-001	4.2617285E+004	5.434719862707425E+001
-1.640778183374791E-002	-6.9553727E-001	-6.9524503E-001	4.2390695E+004	5.454719862202182E+001
-1.651246840653775E-002	-6.9747359E-001	-6.9724494E-001	4.2239207E+004	5.474719861696940E+001
-1.655998954281757E-002	-6.9954699E-001	-6.9924486E-001	4.2243203E+004	5.494719861191697E+001
-1.664470686696575E-002	-7.0158517E-001	-7.0124471E-001	4.2150648E+004	5.514719860686455E+001
-1.680783431843996E-002	-7.0353621E-001	-7.0324457E-001	4.1857637E+004	5.534719860181212E+001
-1.701741614125563E-002	-7.0552021E-001	-7.0524454E-001	4.1458715E+004	5.554719859675970E+001
-1.706123019805156E-002	-7.0754254E-001	-7.0724434E-001	4.1470781E+004	5.574719859170727E+001
-1.714290111774967E-002	-7.0952249E-001	-7.0924437E-001	4.1388707E+004	5.594719858665485E+001
-1.727800628343538E-002	-7.1153945E-001	-7.1124417E-001	4.1181805E+004	5.614719858160242E+001
-1.744643646430183E-002	-7.1351445E-001	-7.1324414E-001	4.0897434E+004	5.634719857655000E+001
-1.757371634489888E-002	-7.1554887E-001	-7.1524394E-001	4.0716992E+004	5.654719857149757E+001
-1.769919752627996E-002	-7.1755755E-001	-7.1724385E-001	4.0541813E+004	5.674719856644515E+001
-1.782753667305806E-002	-7.1951801E-001	-7.1924376E-001	4.0359922E+004	5.694719856139272E+001
-1.800533362029144E-002	-7.2151762E-001	-7.2124368E-001	4.0072438E+004	5.714719855634030E+001
-1.807610929258330E-002	-7.2357231E-001	-7.2324359E-001	4.0029207E+004	5.734719855128787E+001
-1.833790010251596E-002	-7.2554141E-001	-7.2524393E-001	3.9565129E+004	5.754709854623798E+001
-1.841989220365525E-002	-7.2748131E-001	-7.2724336E-001	3.9494332E+004	5.774699854118808E+001
-1.859883544597002E-002	-7.2956765E-001	-7.2924328E-001	3.9226523E+004	5.794699853613565E+001
-1.877153435784829E-002	-7.3153996E-001	-7.3124307E-001	3.8970707E+004	5.814699853108323E+001
-1.898443296524244E-002	-7.3351997E-001	-7.3324299E-001	3.8637973E+004	5.834699852603080E+001
-1.920836436962960E-002	-7.3551899E-001	-7.3524290E-001	3.8291598E+004	5.854699852097838E+001
-1.925568808637801E-002	-7.3758173E-001	-7.3724288E-001	3.8304617E+004	5.874699851592595E+001
-1.945036774764652E-002	-7.3949641E-001	-7.3924267E-001	3.8019664E+004	5.894699851087353E+001
-1.962574003496611E-002	-7.4148709E-001	-7.4124259E-001	3.7781355E+004	5.914699850582110E+001
-1.983843944452564E-002	-7.4350727E-001	-7.4324250E-001	3.7478113E+004	5.934699850076868E+001
-2.004447947359219E-002	-7.4555457E-001	-7.4524242E-001	3.7195008E+004	5.954699849571625E+001
-2.019240927661808E-002	-7.4751741E-001	-7.4724233E-001	3.7019723E+004	5.974699849066383E+001
-2.050746589172589E-002	-7.4952996E-001	-7.4924213E-001	3.6549125E+004	5.994699848561140E+001
-2.057635816790340E-002	-7.5154179E-001	-7.5124210E-001	3.6524527E+004	6.014699848055898E+001
-2.085080905870242E-002	-7.5351083E-001	-7.5324190E-001	3.6138207E+004	6.034699847550655E+001
-2.116019138142411E-002	-7.5551772E-001	-7.5524181E-001	3.5704672E+004	6.054699847045413E+001
-2.136436115518466E-002	-7.5749737E-001	-7.5724173E-001	3.5456121E+004	6.074699846540170E+001
-2.161631193299733E-002	-7.5956124E-001	-7.5924164E-001	3.5138336E+004	6.094699846034928E+001
-2.187849166303873E-002	-7.6153302E-001	-7.6124072E-001	3.4807383E+004	6.114689845529938E+001
-2.217964042542378E-002	-7.6353276E-001	-7.6324213E-001	3.4424938E+004	6.134689845024695E+001
-2.248122288183962E-002	-7.6552236E-001	-7.6524132E-001	3.4051633E+004	6.154679844519706E+001
-2.266651859927760E-002	-7.6755655E-001	-7.6724124E-001	3.3863012E+004	6.174679844014463E+001
-2.307452237346508E-002	-7.6951766E-001	-7.6924115E-001	3.3349234E+004	6.194679843509221E+001
-2.324134222249757E-002	-7.7153808E-001	-7.7124107E-001	3.3196797E+004	6.214679843003978E+001
-2.362874049158525E-002	-7.7354330E-001	-7.7324086E-001	3.2737391E+004	6.234679842498736E+001
-2.395502104814093E-002	-7.7550280E-001	-7.7524084E-001	3.2373289E+004	6.254679841993493E+001
-2.424679018038090E-002	-7.7754414E-001	-7.7724063E-001	3.2067920E+004	6.274679841488251E+001
-2.472640177136806E-002	-7.7952570E-001	-7.7924055E-001	3.1526047E+004	6.294679840983008E+001
-2.502356735037015E-002	-7.8152722E-001	-7.8124046E-001	3.1231646E+004	6.314679840477766E+001
-2.547908319971304E-002	-7.8356779E-001	-7.8324038E-001	3.0753375E+004	6.334679839972523E+001
-2.591606272466881E-002	-7.8551501E-001	-7.8524029E-001	3.0309967E+004	6.354679839467281E+001
-2.629284666351717E-002	-7.8750914E-001	-7.8724027E-001	2.9951459E+004	6.374679838962038E+001
-2.660752745300887E-002	-7.8954673E-001	-7.8924018E-001	2.9673811E+004	6.394679838456796E+001
-2.720719694118745E-002	-7.9152226E-001	-7.9123998E-001	2.9092385E+004	6.414679837951553E+001
-2.758797193173113E-002	-7.9351205E-001	-7.9323989E-001	2.8762971E+004	6.434679837446311E+001
-2.824091020593517E-002	-7.9550719E-001	-7.9523975E-001	2.8168609E+004	6.454679836941068E+001
-2.859598942008086E-002	-7.9754084E-001	-7.9723966E-001	2.7889955E+004	6.474679836435826E+001
-2.918118439522904E-002	-7.9956865E-001	-7.9923958E-001	2.7400145E+004	6.494679835930583E+001
-2.964231268650075E-002	-8.0154407E-001	-8.0123937E-001	2.7040537E+004	6.514659835425846E+001
-3.021454357208431E-002	-8.0352008E-001	-8.0323941E-001	2.6593818E+004	6.534659834920603E+001
-3.074372622349181E-002	-8.0553740E-001	-8.0523926E-001	2.6201684E+004	6.554659834415361E+001
-3.125151524414227E-002	-8.0755591E-001	-8.0723917E-001	2.5840537E+004	6.574659833910118E+001
-3.185537424046211E-002	-8.0952919E-001	-8.0923903E-001	2.5412641E+004	6.594659833404876E+001
-3.247206556624482E-002	-8.1153637E-001	-8.1123888E-001	2.4991830E+004	6.614659832899633E+001
-3.302715710298816E-002	-8.1351596E-001	-8.1323886E-001	2.4631729E+004	6.634659832394391E+001
-3.371638027938453E-002	-8.1551129E-001	-8.1523871E-001	2.4187391E+004	6.654659831889148E+001
-3.429035361235333E-002	-8.1754225E-001	-8.1723869E-001	2.3841756E+004	6.674659831383906E+001
-3.502982114668718E-002	-8.1952173E-001	-8.1923842E-001	2.3394973E+004	6.694659830878663E+001
-3.569126532934683E-002	-8.2153505E-001	-8.2123840E-001	2.3017818E+004	6.714659830373421E+001
-3.639514382734318E-002	-8.2354736E-001	-8.2323831E-001	2.2627947E+004	6.734659829868178E+001
-3.709396602883674E-002	-8.2554305E-001	-8.2523823E-001	2.2255453E+004	6.754659829362936E+001
-3.795731727951457E-002	-8.2756972E-001	-8.2723814E-001	2.1802641E+004	6.774659828857693E+001
-3.878480875537277E-002	-8.2953328E-001	-8.2923794E-001	2.1388098E+004	6.794659828352451E+001
-3.944826501531418E-002	-8.3154321E-001	-8.3123785E-001	2.1079336E+004	6.814659827847208E+001
-4.039590931740389E-002	-8.3354783E-001	-8.3323783E-001	2.0634461E+004	6.834659827341966E+001
-4.124154902909097E-002	-8.3553535E-001	-8.3523762E-001	2.0259553E+004	6.854659826836723E+001
-4.222577733548399E-002	-8.3752555E-001	-8.3723754E-001	1.9834461E+004	6.874659826331481E+001
-4.310798689218459E-002	-8.3951235E-001	-8.3923787E-001	1.9474637E+004	6.894649825826491E+001
-4.409066248339835E-002	-8.4152645E-001	-8.4123737E-001	1.9086273E+004	6.914639825321501E+001
-4.508443476522428E-002	-8.4353524E-001	-8.4323722E-001	1.8710121E+004	6.934639824816259E+001
-4.609027597102899E-002	-8.4553945E-001	-8.4523714E-001	1.8345289E+004	6.954639824311016E+001
-4.720653721201096E-002	-8.4746271E-001	-8.4723699E-001	1.7952232E+004	6.974639823805774E+001
-4.806641224917452E-002	-8.4951758E-001	-8.4923685E-001	1.7673830E+004	6.994639823300531E+001
-4.894794949701020E-002	-8.5156322E-001	-8.5123688E-001	1.7397322E+004	7.014639822795289E+001
-5.004756401193755E-002	-8.5351914E-001	-8.5323668E-001	1.7054160E+004	7.034639822290046E+001
-5.090049276700729E-002	-8.5553473E-001	-8.5523665E-001	1.6807984E+004	7.054639821784804E+001
-5.163624099626818E-002	-8.5755944E-001	-8.5723644E-001	1.6607705E+004	7.074639821279561E+001
-5.274296551098084E-002	-8.5955197E-001	-8.5923636E-001	1.6296997E+004	7.094639820774319E+001
-5.371649034665538E-002	-8.6154819E-001	-8.6123627E-001	1.6038803E+004	7.114639820269076E+001
-5.483638058002593E-002	-8.6354852E-001	-8.6323619E-001	1.5747730E+004	7.134639819763834E+001
-5.600647155993721E-002	-8.6554742E-001	-8.6523610E-001	1.5454418E+004	7.154639819258591E+001
-5.750612041420911E-002	-8.6753929E-001	-8.6723590E-001	1.5086034E+004	7.174639818753349E+001
-5.894249498309856E-002	-8.6952829E-001	-8.6923587E-001	1.4752146E+004	7.194639818248106E+001
-6.068278920557990E-002	-8.7154019E-001	-8.7123579E-001	1.4362230E+004	7.214639817742864E+001
-6.241860618295306E-002	-8.7356544E-001	-8.7323570E-001	1.3995273E+004	7.234639817237621E+001
-6.467538330780026E-002	-8.7554866E-001	-8.7523550E-001	1.3537588E+004	7.254639816732379E+001
-6.704371337964704E-002	-8.7753427E-001	-8.7723607E-001	1.3088986E+004	7.274629816227389E+001
-6.973292505687478E-002	-8.7954164E-001	-8.7923533E-001	1.2613004E+004	7.294619815722399E+001
-7.266684573792043E-002	-8.8152272E-001	-8.8123518E-001	1.2131017E+004	7.314619815217156E+001
-7.601246261301831E-002	-8.8354075E-001	-8.8323510E-001	1.1623630E+004	7.334619814711914E+001
-7.988501267397824E-002	-8.8550776E-001	-8.8523501E-001	1.1084779E+004	7.354619814206671E+001
-8.387461901788085E-002	-8.8756937E-001	-8.8723481E-001	1.0582097E+004	7.374619813701429E+001
-8.861912463568822E-002	-8.8959736E-001	-8.8933480E-001	1.0038436E+004	7.395619813170924E+001
-9.415491658068631E-002	-8.9174229E-001	-8.9143461E-001	9.4710117E+003	7.416619812640420E+001
-9.995358808086530E-002	-8.9369565E-001	-8.9343464E-001	8.9411064E+003	7.436619812135177E+001
-1.064933294371240E-001	-8.9570057E-001	-8.9543444E-001	8.4108604E+003	7.456619811629935E+001
-1.137469297321405E-001	-8.9773035E-001	-8.9743441E-001	7.8923481E+003	7.476619811124692E+001
-1.218164410862369E-001	-8.9972466E-001	-8.9943427E-001	7.3859048E+003	7.496619810619450E+001
-1.305985116957349E-001	-9.0172720E-001	-9.0143412E-001	6.9045747E+003	7.516619810114207E+001
-1.403871810606458E-001	-9.0369463E-001	-9.0343404E-001	6.4371592E+003	7.536619809608965E+001
-1.512941602562599E-001	-9.0574247E-001	-9.0543395E-001	5.9866318E+003	7.556619809103722E+001
-1.634163673610225E-001	-9.0770489E-001	-9.0743387E-001	5.5545532E+003	7.576619808598480E+001
-1.766741451344822E-001	-9.0974194E-001	-9.0943378E-001	5.1492646E+003	7.596619808093237E+001
-1.912528927239450E-001	-9.1173565E-001	-9.1143364E-001	4.7671733E+003	7.616619807587995E+001
-2.070946203037978E-001	-9.1375786E-001	-9.1343266E-001	4.4122725E+003	7.636609807083005E+001
-2.243306546001067E-001	-9.1574454E-001	-9.1543335E-001	4.0821196E+003	7.656599806578015E+001
-2.434120714250545E-001	-9.1772217E-001	-9.1743338E-001	3.7702410E+003	7.676599806072772E+001
-2.638769130815917E-001	-9.1971731E-001	-9.1943318E-001	3.4854028E+003	7.696599805567530E+001
-2.858685057994643E-001	-9.2175460E-001	-9.2143309E-001	3.2244006E+003	7.716599805062287E+001
-3.097450195974294E-001	-9.2370856E-001	-9.2343301E-001	2.9821580E+003	7.736599804557045E+001
-3.350886749547146E-001	-9.2572522E-001	-9.2543286E-001	2.7626277E+003	7.756599804051802E+001
-3.623742975058049E-001	-9.2776293E-001	-9.2743289E-001	2.5602339E+003	7.776599803546560E+001
-3.911942582674608E-001	-9.2966509E-001	-9.2943269E-001	2.3764795E+003	7.796599803041318E+001
-4.220456951920806E-001	-9.3172789E-001	-9.3143260E-001	2.2076470E+003	7.816599802536075E+001
-4.544279479639197E-001	-9.3375343E-001	-9.3343246E-001	2.0547888E+003	7.836599802030833E+001
-4.883318879639487E-001	-9.3570697E-001	-9.3543231E-001	1.9161292E+003	7.856599801525590E+001
-5.241641851180043E-001	-9.3769646E-001	-9.3743229E-001	1.7889365E+003	7.876599801020348E+001
-5.615353585641112E-001	-9.3972391E-001	-9.3943208E-001	1.6734902E+003	7.896599800515105E+001
-6.004998148408411E-001	-9.4172972E-001	-9.4143212E-001	1.5682432E+003	7.916599800009863E+001
-6.411597888764682E-001	-9.4371420E-001	-9.4343191E-001	1.4718861E+003	7.936599799504620E+001
-6.837108544878596E-001	-9.4570440E-001	-9.4543189E-001	1.3831935E+003	7.956599798999378E+001
-7.274641155596804E-001	-9.4774020E-001	-9.4743174E-001	1.3027999E+003	7.976599798494135E+001
-7.732158230191031E-001	-9.4975686E-001	-9.4943160E-001	1.2283206E+003	7.996599797988893E+001
-8.198497235272755E-001	-9.5170170E-001	-9.5143187E-001	1.1608246E+003	8.016599797483650E+001
-8.675126661310699E-001	-9.5374274E-001	-9.5343143E-001	1.0993992E+003	8.036579796978913E+001
-9.170719861494279E-001	-9.5575458E-001	-9.5543134E-001	1.0421805E+003	8.056579796473670E+001
-9.679672858021053E-001	-9.5776188E-001	-9.5743120E-001	9.8945685E+002	8.076579795968428E+001
-1.020181189597392E+000	-9.5973486E-001	-9.5943105E-001	9.4074939E+002	8.096579795463185E+001
-1.076842673229653E+000	-9.6183068E-001	-9.6153098E-001	8.9319519E+002	8.117579794932681E+001
-1.134467113239356E+000	-9.6394169E-001	-9.6363086E-001	8.4968677E+002	8.138579794402176E+001
-1.190617063671960E+000	-9.6592230E-001	-9.6563077E-001	8.1127875E+002	8.158579793896934E+001
-1.247910855215485E+000	-9.6790051E-001	-9.6763062E-001	7.7561670E+002	8.178579793391691E+001
-1.306730306624964E+000	-9.6994191E-001	-9.6963054E-001	7.4226636E+002	8.198579792886449E+001
-1.366506914069660E+000	-9.7190279E-001	-9.7163045E-001	7.1123151E+002	8.218579792381206E+001
-1.426968391604568E+000	-9.7393537E-001	-9.7363037E-001	6.8252063E+002	8.238579791875964E+001
-1.489230578220422E+000	-9.7594362E-001	-9.7563028E-001	6.5533411E+002	8.258579791370721E+001
-1.552380138640707E+000	-9.7790283E-001	-9.7763008E-001	6.2993774E+002	8.278579790865479E+001
-1.616958908652233E+000	-9.7990745E-001	-9.7963005E-001	6.0601880E+002	8.298579790360236E+001
-1.682973421248448E+000	-9.8189241E-001	-9.8162991E-001	5.8342719E+002	8.318579789854994E+001
-1.749560055734765E+000	-9.8391950E-001	-9.8362976E-001	5.6238110E+002	8.338579789349751E+001
-1.817785318983120E+000	-9.8589295E-001	-9.8562968E-001	5.4235938E+002	8.358579788844509E+001
-1.887839777230393E+000	-9.8794043E-001	-9.8762959E-001	5.2331793E+002	8.378579788339266E+001
-1.959231288596126E+000	-9.8987824E-001	-9.8962957E-001	5.0523807E+002	8.398569787834276E+001
-2.031123948239141E+000	-9.9190694E-001	-9.9162936E-001	4.8835373E+002	8.418559787329286E+001
-2.104439086840408E+000	-9.9391156E-001	-9.9362928E-001	4.7229288E+002	8.438559786824044E+001
-2.179295758237370E+000	-9.9591291E-001	-9.9562919E-001	4.5698840E+002	8.458559786318801E+001
-2.255580979325472E+000	-9.9789184E-001	-9.9762911E-001	4.4241013E+002	8.478559785813559E+001
-2.333007060025150E+000	-9.9993455E-001	-9.9962902E-001	4.2860330E+002	8.498559785308316E+001
-2.412921178367937E+000	-1.0019045E+000	-1.0016289E+000	4.1522470E+002	8.518559784803074E+001
-2.493220133643572E+000	-1.0039337E+000	-1.0036287E+000	4.0266547E+002	8.538559784297831E+001
-2.575025352288275E+000	-1.0059373E+000	-1.0056287E+000	3.9065143E+002	8.558559783792589E+001
-2.658584052287125E+000	-1.0079298E+000	-1.0076284E+000	3.7912280E+002	8.578559783287346E+001
-2.743643574585583E+000	-1.0099523E+000	-1.0096284E+000	3.6810623E+002	8.598559782782104E+001
-2.830591773601626E+000	-1.0119421E+000	-1.0116283E+000	3.5750198E+002	8.618559782276861E+001
-2.919038071654005E+000	-1.0139308E+000	-1.0136282E+000	3.4735101E+002	8.638559781771619E+001
-3.009103066408322E+000	-1.0159193E+000	-1.0156281E+000	3.3761533E+002	8.658559781266376E+001
-3.101242468403036E+000	-1.0179440E+000	-1.0176281E+000	3.2823746E+002	8.678559780761134E+001
-3.195784039744712E+000	-1.0199237E+000	-1.0196279E+000	3.1914664E+002	8.698559780255891E+001
-3.293244532683261E+000	-1.0219018E+000	-1.0216278E+000	3.1030246E+002	8.718559779750649E+001
-3.394068419460254E+000	-1.0239533E+000	-1.0236276E+000	3.0168906E+002	8.738559779245406E+001
-3.498523119220422E+000	-1.0259202E+000	-1.0256276E+000	2.9324377E+002	8.758559778740164E+001
-3.604745345039792E+000	-1.0279686E+000	-1.0276282E+000	2.8517096E+002	8.778559778234921E+001
-3.712396258399593E+000	-1.0299574E+000	-1.0296273E+000	2.7743735E+002	8.798539777730184E+001
-3.822710694031365E+000	-1.0319448E+000	-1.0316272E+000	2.6995105E+002	8.818539777224942E+001
-3.936032050016773E+000	-1.0339371E+000	-1.0336272E+000	2.6268512E+002	8.838539776719699E+001
-4.052420940359980E+000	-1.0359304E+000	-1.0356271E+000	2.5563248E+002	8.858539776214457E+001
-4.171648480657003E+000	-1.0379347E+000	-1.0376269E+000	2.4880684E+002	8.878539775709214E+001
-4.295591856616957E+000	-1.0399706E+000	-1.0396268E+000	2.4210182E+002	8.898539775203972E+001
-4.422914829485251E+000	-1.0419493E+000	-1.0416267E+000	2.3557977E+002	8.918539774698729E+001
-4.553199388002312E+000	-1.0439537E+000	-1.0436267E+000	2.2927914E+002	8.938539774193487E+001
-4.689140752025455E+000	-1.0459211E+000	-1.0456265E+000	2.2305176E+002	8.958539773688244E+001
-4.829389062800903E+000	-1.0479521E+000	-1.0476264E+000	2.1699475E+002	8.978539773183002E+001
-4.975422794789154E+000	-1.0499187E+000	-1.0496262E+000	2.1102100E+002	8.998539772677759E+001
-5.129716000420430E+000	-1.0519392E+000	-1.0516263E+000	2.0506773E+002	9.018539772172517E+001
-5.289105823757687E+000	-1.0539503E+000	-1.0536261E+000	1.9926814E+002	9.038539771667274E+001
-5.453508426813304E+000	-1.0559235E+000	-1.0556260E+000	1.9362279E+002	9.058539771162032E+001
-5.623107753542016E+000	-1.0579505E+000	-1.0576259E+000	1.8814339E+002	9.078539770656789E+001
-5.796895512647912E+000	-1.0599414E+000	-1.0596259E+000	1.8284639E+002	9.098539770151547E+001
-5.976301880954594E+000	-1.0619535E+000	-1.0616257E+000	1.7769409E+002	9.118539769646304E+001
-6.161881093873475E+000	-1.0639455E+000	-1.0636256E+000	1.7266571E+002	9.138539769141062E+001
-6.357030636374020E+000	-1.0659254E+000	-1.0656253E+000	1.6767661E+002	9.158529768636072E+001
-6.558817205380421E+000	-1.0679649E+000	-1.0676254E+000	1.6282889E+002	9.178519768131082E+001
-6.760249903818377E+000	-1.0699294E+000	-1.0696253E+000	1.5826773E+002	9.198519767625839E+001
-6.963304578582168E+000	-1.0719413E+000	-1.0716251E+000	1.5394145E+002	9.218519767120597E+001
-7.173191258561332E+000	-1.0739486E+000	-1.0736251E+000	1.4971700E+002	9.238519766615354E+001
-7.386962229297296E+000	-1.0759459E+000	-1.0756249E+000	1.4565471E+002	9.258519766110112E+001
-7.609480098531918E+000	-1.0779532E+000	-1.0776248E+000	1.4165924E+002	9.278519765604869E+001
-7.835163816978621E+000	-1.0799216E+000	-1.0796247E+000	1.3783012E+002	9.298519765099627E+001
-8.066216173963994E+000	-1.0819513E+000	-1.0816246E+000	1.3413368E+002	9.318519764594384E+001
-8.301178674105898E+000	-1.0839448E+000	-1.0836245E+000	1.3057721E+002	9.338519764089142E+001
-8.537783571787120E+000	-1.0859457E+000	-1.0856243E+000	1.2719293E+002	9.358519763583899E+001
-8.775510654833269E+000	-1.0879259E+000	-1.0876243E+000	1.2397295E+002	9.378519763078657E+001
-9.020621577290484E+000	-1.0899359E+000	-1.0896243E+000	1.2082714E+002	9.398519762573414E+001
-9.269824118368192E+000	-1.0919394E+000	-1.0916240E+000	1.1779506E+002	9.418519762068172E+001
-9.527320889929248E+000	-1.0939285E+000	-1.0936240E+000	1.1482015E+002	9.438519761562929E+001
-9.787479118898062E+000	-1.0959338E+000	-1.0956239E+000	1.1197304E+002	9.458519761057687E+001
-1.004662536128583E+001	-1.0979254E+000	-1.0976238E+000	1.0928300E+002	9.478519760552445E+001
-1.031334577429858E+001	-1.0999308E+000	-1.0996237E+000	1.0665121E+002	9.498519760047202E+001
-1.058895143873298E+001	-1.1019609E+000	-1.1016235E+000	1.0406705E+002	9.518519759541960E+001
-1.088229227057354E+001	-1.1040846E+000	-1.1037236E+000	1.0145699E+002	9.539509759011708E+001
-1.119515578898168E+001	-1.1060941E+000	-1.1058234E+000	9.8801140E+001	9.560499758481456E+001
-1.147261696634916E+001	-1.1081145E+000	-1.1078233E+000	9.6587769E+001	9.580499757976213E+001
-1.176425056798116E+001	-1.1101235E+000	-1.1098231E+000	9.4364151E+001	9.600499757470971E+001
-1.205930695275599E+001	-1.1121174E+000	-1.1118230E+000	9.2220673E+001	9.620499756965728E+001
-1.235497744263165E+001	-1.1141131E+000	-1.1138228E+000	9.0175240E+001	9.640499756460486E+001
-1.265132075642777E+001	-1.1160913E+000	-1.1158228E+000	8.8219345E+001	9.660499755955243E+001
-1.294784615180384E+001	-1.1181433E+000	-1.1178228E+000	8.6357475E+001	9.680499755450001E+001
-1.324320367931512E+001	-1.1201309E+000	-1.1198225E+000	8.4581566E+001	9.700499754944758E+001
-1.354815655960245E+001	-1.1221043E+000	-1.1218225E+000	8.2823395E+001	9.720499754439516E+001
-1.385783492113192E+001	-1.1241292E+000	-1.1238225E+000	8.1118675E+001	9.740499753934273E+001
-1.416656324503913E+001	-1.1261008E+000	-1.1258223E+000	7.9490044E+001	9.760499753429031E+001
-1.448875844208294E+001	-1.1280988E+000	-1.1278222E+000	7.7860283E+001	9.780499752923788E+001
-1.481060256614705E+001	-1.1300958E+000	-1.1298220E+000	7.6303162E+001	9.800499752418546E+001
-1.514029161027219E+001	-1.1321255E+000	-1.1318220E+000	7.4775673E+001	9.820499751913303E+001
-1.547038874144997E+001	-1.1341196E+000	-1.1338218E+000	7.3309059E+001	9.840499751408061E+001
-1.579494049178766E+001	-1.1361116E+000	-1.1358217E+000	7.1928833E+001	9.860499750902818E+001
-1.613270570996667E+001	-1.1381135E+000	-1.1378217E+000	7.0546967E+001	9.880499750397576E+001
-1.647862272844830E+001	-1.1401213E+000	-1.1398207E+000	6.9187904E+001	9.900489749892586E+001
-1.681666209986827E+001	-1.1421266E+000	-1.1418210E+000	6.7916367E+001	9.920479749387596E+001
-1.715753000636761E+001	-1.1441224E+000	-1.1438214E+000	6.6683395E+001	9.940479748882353E+001
-1.750664715228977E+001	-1.1461082E+000	-1.1458212E+000	6.5467026E+001	9.960479748377111E+001
-1.786102723561712E+001	-1.1481044E+000	-1.1478212E+000	6.4279869E+001	9.980479747871868E+001
-1.822118364061625E+001	-1.1501076E+000	-1.1498209E+000	6.3119259E+001	1.000047974736663E+002
-1.858446350227410E+001	-1.1521261E+000	-1.1518210E+000	6.1994045E+001	1.002047974686138E+002
-1.896108663676816E+001	-1.1541252E+000	-1.1538208E+000	6.0868095E+001	1.004047974635614E+002
-1.933762746400573E+001	-1.1561511E+000	-1.1558207E+000	5.9787636E+001	1.006047974585090E+002
-1.972536683920566E+001	-1.1581635E+000	-1.1578205E+000	5.8714424E+001	1.008047974534566E+002
-2.011628017228207E+001	-1.1601206E+000	-1.1598204E+000	5.7670731E+001	1.010047974484041E+002
-2.050926420207468E+001	-1.1620660E+000	-1.1618204E+000	5.6660542E+001	1.012047974433517E+002
-2.090681221871682E+001	-1.1641364E+000	-1.1638203E+000	5.5682156E+001	1.014047974382993E+002
-2.130883155942229E+001	-1.1661150E+000	-1.1658201E+000	5.4724495E+001	1.016047974332469E+002
-2.172712874561216E+001	-1.1681088E+000	-1.1678200E+000	5.3762688E+001	1.018047974281944E+002
-2.214875214981112E+001	-1.1701514E+000	-1.1698200E+000	5.2831478E+001	1.020047974231420E+002
-2.256994509034689E+001	-1.1721283E+000	-1.1718198E+000	5.1933147E+001	1.022047974180896E+002
-2.299296044073412E+001	-1.1741240E+000	-1.1738198E+000	5.1064499E+001	1.024047974130372E+002
-2.344142794284693E+001	-1.1761144E+000	-1.1758196E+000	5.0172474E+001	1.026047974079847E+002
-2.389413445803157E+001	-1.1781390E+000	-1.1778197E+000	4.9306618E+001	1.028047974029323E+002
-2.434626529945365E+001	-1.1801407E+000	-1.1798192E+000	4.8473175E+001	1.030045973978849E+002
-2.479822912981177E+001	-1.1821047E+000	-1.1818194E+000	4.7668915E+001	1.032045973928325E+002
-2.525507631620849E+001	-1.1841161E+000	-1.1838192E+000	4.6886261E+001	1.034045973877801E+002
-2.573113138983848E+001	-1.1861224E+000	-1.1858191E+000	4.6096783E+001	1.036045973827277E+002
-2.620235075269429E+001	-1.1880955E+000	-1.1878190E+000	4.5343086E+001	1.038045973776752E+002
-2.668208224892334E+001	-1.1901056E+000	-1.1898190E+000	4.4603172E+001	1.040045973726228E+002
-2.717808564747267E+001	-1.1921065E+000	-1.1918187E+000	4.3862785E+001	1.042045973675704E+002
-2.767047233673452E+001	-1.1941233E+000	-1.1938187E+000	4.3155148E+001	1.044045973625180E+002
-2.816958729831538E+001	-1.1961167E+000	-1.1958184E+000	4.2461277E+001	1.046045973574655E+002
-2.866707612597748E+001	-1.1981078E+000	-1.1978184E+000	4.1793861E+001	1.048045973524131E+002
-2.917797941010019E+001	-1.2001088E+000	-1.1998184E+000	4.1130634E+001	1.050045973473607E+002
-2.969949808655963E+001	-1.2020940E+000	-1.2018182E+000	4.0475227E+001	1.052045973423083E+002
-3.022995029960907E+001	-1.2041354E+000	-1.2038181E+000	3.9832531E+001	1.054045973372558E+002
-3.077259942950036E+001	-1.2061441E+000	-1.2058181E+000	3.9195393E+001	1.056045973322034E+002
-3.129689380938777E+001	-1.2081181E+000	-1.2078179E+000	3.8601852E+001	1.058045973271510E+002
-3.183349870905590E+001	-1.2101148E+000	-1.2098179E+000	3.8013882E+001	1.060045973220986E+002
-3.238846127165118E+001	-1.2121153E+000	-1.2118177E+000	3.7424294E+001	1.062045973170461E+002
-3.294666202187256E+001	-1.2141256E+000	-1.2138176E+000	3.6851250E+001	1.064045973119937E+002
-3.351017335979097E+001	-1.2161235E+000	-1.2158180E+000	3.6291172E+001	1.066045973069413E+002
-3.406811228430576E+001	-1.2181034E+000	-1.2178183E+000	3.5754944E+001	1.068044973018914E+002
-3.463031420632009E+001	-1.2201052E+000	-1.2198174E+000	3.5232288E+001	1.070043972968415E+002
-3.519639674389992E+001	-1.2221504E+000	-1.2218171E+000	3.4723736E+001	1.072043972917891E+002
-3.578175267583924E+001	-1.2241006E+000	-1.2238171E+000	3.4210190E+001	1.074043972867366E+002
-3.639574103723038E+001	-1.2261015E+000	-1.2258170E+000	3.3688049E+001	1.076043972816842E+002
-3.698554208165143E+001	-1.2281567E+000	-1.2278169E+000	3.3206398E+001	1.078043972766318E+002
-3.759214496261143E+001	-1.2301323E+000	-1.2298168E+000	3.2723122E+001	1.080043972715794E+002
-3.820242707529322E+001	-1.2321566E+000	-1.2318166E+000	3.2253361E+001	1.082043972665269E+002
-3.880448602900213E+001	-1.2341738E+000	-1.2338165E+000	3.1804926E+001	1.084043972614745E+002
-3.941771623174628E+001	-1.2361510E+000	-1.2358164E+000	3.1360289E+001	1.086043972564221E+002
-4.005149427590163E+001	-1.2381854E+000	-1.2378163E+000	3.0914837E+001	1.088043972513697E+002
-4.069498000474744E+001	-1.2401481E+000	-1.2398162E+000	3.0474228E+001	1.090043972463172E+002
-4.132312771630663E+001	-1.2421732E+000	-1.2418162E+000	3.0059999E+001	1.092043972412648E+002
-4.195516267358050E+001	-1.2441770E+000	-1.2438160E+000	2.9654921E+001	1.094043972362124E+002
-4.259004711888542E+001	-1.2461752E+000	-1.2458159E+000	2.9259775E+001	1.096043972311600E+002
-4.322985968649277E+001	-1.2481836E+000	-1.2478158E+000	2.8873182E+001	1.098043972261075E+002
-4.387211271586597E+001	-1.2501773E+000	-1.2498157E+000	2.8495943E+001	1.100043972210551E+002
-4.453656896928555E+001	-1.2521648E+000	-1.2518157E+000	2.8115431E+001	1.102043972160027E+002
-4.520006762397475E+001	-1.2541740E+000	-1.2538151E+000	2.7747171E+001	1.104042972109528E+002
-4.586267356834708E+001	-1.2561375E+000	-1.2558154E+000	2.7389103E+001	1.106041972059029E+002
-4.653202950035370E+001	-1.2581900E+000	-1.2578154E+000	2.7039225E+001	1.108041972008505E+002
-4.723211635078167E+001	-1.2601712E+000	-1.2598152E+000	2.6680387E+001	1.110041971957980E+002
-4.793487890507356E+001	-1.2621942E+000	-1.2618151E+000	2.6331434E+001	1.112041971907456E+002
-4.862037532183604E+001	-1.2641681E+000	-1.2638149E+000	2.6000790E+001	1.114041971856932E+002
-4.930714553662176E+001	-1.2661809E+000	-1.2658149E+000	2.5679461E+001	1.116041971806408E+002
-5.000966505966483E+001	-1.2682062E+000	-1.2678148E+000	2.5359222E+001	1.118041971755883E+002
-5.072086847828632E+001	-1.2701802E+000	-1.2698146E+000	2.5042557E+001	1.120041971705359E+002
-5.143769626498511E+001	-1.2721643E+000	-1.2718146E+000	2.4732141E+001	1.122041971654835E+002
-5.217750906565831E+001	-1.2742139E+000	-1.2738144E+000	2.4420750E+001	1.124041971604311E+002
-5.289759458111524E+001	-1.2761586E+000	-1.2758143E+000	2.4125078E+001	1.126041971553786E+002
-5.362130243707952E+001	-1.2781967E+000	-1.2778144E+000	2.3837479E+001	1.128041971503262E+002
-5.434447692689446E+001	-1.2801514E+000	-1.2798141E+000	2.3556236E+001	1.130041971452738E+002
-5.507476408735698E+001	-1.2821734E+000	-1.2818141E+000	2.3280598E+001	1.132041971402214E+002
-5.579992880518466E+001	-1.2841612E+000	-1.2838138E+000	2.3013672E+001	1.134041971351689E+002
-5.655970164113046E+001	-1.2861992E+000	-1.2858139E+000	2.2740559E+001	1.136041971301165E+002
-5.730402980369809E+001	-1.2881756E+000	-1.2878138E+000	2.2479668E+001	1.138041971250641E+002
-5.808627171256899E+001	-1.2901596E+000	-1.2898136E+000	2.2211094E+001	1.140041971200117E+002
-5.885395287661891E+001	-1.2921956E+000	-1.2918133E+000	2.1955969E+001	1.142040971149618E+002
-5.959987804570687E+001	-1.2941830E+000	-1.2938133E+000	2.1714525E+001	1.144039971099119E+002
-6.035284265423013E+001	-1.2961553E+000	-1.2958132E+000	2.1476294E+001	1.146039971048594E+002
-6.110879312999657E+001	-1.2981694E+000	-1.2978132E+000	2.1243578E+001	1.148039970998070E+002
-6.188654477147554E+001	-1.3001522E+000	-1.2998130E+000	2.1008640E+001	1.150039970947546E+002
-6.272054654940979E+001	-1.3021739E+000	-1.3018129E+000	2.0761520E+001	1.152039970897022E+002
-6.350629263994654E+001	-1.3041862E+000	-1.3038129E+000	2.0536331E+001	1.154039970846497E+002
-6.433580894264753E+001	-1.3061522E+000	-1.3058127E+000	2.0302103E+001	1.156039970795973E+002
-6.514058062332867E+001	-1.3081685E+000	-1.3078126E+000	2.0082235E+001	1.158039970745449E+002
-6.597357154379087E+001	-1.3101884E+000	-1.3098125E+000	1.9859291E+001	1.160039970694925E+002
-6.677807422235696E+001	-1.3121850E+000	-1.3118124E+000	1.9649939E+001	1.162039970644400E+002
-6.754300174745595E+001	-1.3142011E+000	-1.3138124E+000	1.9457251E+001	1.164039970593876E+002
-6.833530358067969E+001	-1.3161917E+000	-1.3158122E+000	1.9260786E+001	1.166039970543352E+002
-6.920235687751097E+001	-1.3181727E+000	-1.3178121E+000	1.9048090E+001	1.168039970492828E+002
-6.999593941857199E+001	-1.3201690E+000	-1.3198121E+000	1.8860651E+001	1.170039970442303E+002
-7.085828246821609E+001	-1.3221674E+000	-1.3218118E+000	1.8659321E+001	1.172039970391779E+002
-7.170094943154675E+001	-1.3241899E+000	-1.3238119E+000	1.8468233E+001	1.174039970341255E+002
-7.249755796337359E+001	-1.3262117E+000	-1.3258117E+000	1.8293192E+001	1.176039970290731E+002
-7.325050240687494E+001	-1.3281716E+000	-1.3278116E+000	1.8131912E+001	1.178039970240206E+002
-7.410276244620854E+001	-1.3301953E+000	-1.3298117E+000	1.7950684E+001	1.180038970189707E+002
-7.494323178808190E+001	-1.3322121E+000	-1.3318114E+000	1.7776283E+001	1.182037970139208E+002
-7.572489795014417E+001	-1.3341895E+000	-1.3338113E+000	1.7618902E+001	1.184037970088684E+002
-7.666034949069126E+001	-1.3362305E+000	-1.3358113E+000	1.7430531E+001	1.186037970038160E+002
-7.753409815267105E+001	-1.3381968E+000	-1.3378111E+000	1.7259460E+001	1.188037969987636E+002
-7.846481881930981E+001	-1.3401828E+000	-1.3398108E+000	1.7080048E+001	1.190037969937111E+002
-7.926177479999160E+001	-1.3421804E+000	-1.3418108E+000	1.6933514E+001	1.192037969886587E+002
-8.008915045255947E+001	-1.3442063E+000	-1.3438108E+000	1.6783876E+001	1.194037969836063E+002
-8.089330920016141E+001	-1.3461775E+000	-1.3458105E+000	1.6641394E+001	1.196037969785539E+002
-8.181057831922095E+001	-1.3481642E+000	-1.3478105E+000	1.6479094E+001	1.198037969735014E+002
-8.271986373481826E+001	-1.3501738E+000	-1.3498104E+000	1.6322245E+001	1.200037969684490E+002
-8.363980988796629E+001	-1.3521878E+000	-1.3518103E+000	1.6166796E+001	1.202037969633966E+002
-8.453765283636460E+001	-1.3541896E+000	-1.3538103E+000	1.6018774E+001	1.204037969583442E+002
-8.541621649130138E+001	-1.3562154E+000	-1.3558100E+000	1.5877727E+001	1.206037969532917E+002
-8.637410841615269E+001	-1.3581666E+000	-1.3578100E+000	1.5724233E+001	1.208037969482393E+002
-8.719969212711516E+001	-1.3602210E+000	-1.3598099E+000	1.5598920E+001	1.210037969431869E+002
-8.804122853495375E+001	-1.3621616E+000	-1.3618098E+000	1.5471861E+001	1.212037969381345E+002
-8.893840202074216E+001	-1.3641931E+000	-1.3638097E+000	1.5338628E+001	1.214037969330820E+002
-9.001596487324787E+001	-1.3662082E+000	-1.3658087E+000	1.5177399E+001	1.216036969280322E+002
-9.099270300254466E+001	-1.3681817E+000	-1.3678098E+000	1.5036169E+001	1.218036969229797E+002
-9.186678961020732E+001	-1.3701859E+000	-1.3698094E+000	1.4914921E+001	1.220035969179298E+002
-9.282145583170075E+001	-1.3722086E+000	-1.3718092E+000	1.4783313E+001	1.222035969128774E+002
-9.377047378243788E+001	-1.3741834E+000	-1.3738092E+000	1.4654756E+001	1.224035969078250E+002
-9.459901069405419E+001	-1.3761715E+000	-1.3758091E+000	1.4547420E+001	1.226035969027726E+002
-9.552353231814959E+001	-1.3781824E+000	-1.3778090E+000	1.4427674E+001	1.228035968977201E+002
-9.637832721669110E+001	-1.3801743E+000	-1.3798088E+000	1.4320380E+001	1.230035968926677E+002
-9.719653077190469E+001	-1.3821862E+000	-1.3818088E+000	1.4220530E+001	1.232035968876153E+002
-9.807036074381085E+001	-1.3842179E+000	-1.3838085E+000	1.4114538E+001	1.234035968825629E+002
-9.902916328436640E+001	-1.3861946E+000	-1.3858086E+000	1.3997842E+001	1.236035968775104E+002
-9.997262307251458E+001	-1.3881447E+000	-1.3878083E+000	1.3885249E+001	1.238035968724580E+002
-1.010091056326353E+002	-1.3901908E+000	-1.3898084E+000	1.3763025E+001	1.240035968674056E+002
-1.018972124739842E+002	-1.3921965E+000	-1.3918083E+000	1.3662754E+001	1.242035968623532E+002
-1.028261016090983E+002	-1.3942025E+000	-1.3938080E+000	1.3558838E+001	1.244035968573007E+002
-1.038001965157300E+002	-1.3961992E+000	-1.3958080E+000	1.3450834E+001	1.246035968522483E+002
-1.048148615690052E+002	-1.3981842E+000	-1.3978078E+000	1.3339561E+001	1.248035968471959E+002
-1.059832505001232E+002	-1.4001920E+000	-1.3998078E+000	1.3211447E+001	1.250035968421435E+002
-1.070117595395805E+002	-1.4021873E+000	-1.4018077E+000	1.3103114E+001	1.252035968370910E+002
-1.077863520040530E+002	-1.4041890E+000	-1.4038075E+000	1.3027521E+001	1.254035968320386E+002
-1.087421118232846E+002	-1.4062177E+000	-1.4058070E+000	1.2931675E+001	1.256033968269912E+002
-1.100303711861983E+002	-1.4082923E+000	-1.4079075E+000	1.2799124E+001	1.258133968216862E+002
-1.111585642767063E+002	-1.4103798E+000	-1.4100072E+000	1.2687999E+001	1.260233968163811E+002
-1.121210124011486E+002	-1.4123768E+000	-1.4120072E+000	1.2596896E+001	1.262233968113287E+002
-1.130600774801781E+002	-1.4143898E+000	-1.4140071E+000	1.2510074E+001	1.264233968062763E+002
-1.138462835742235E+002	-1.4163556E+000	-1.4160069E+000	1.2440948E+001	1.266233968012239E+002
-1.148785547701946E+002	-1.4183880E+000	-1.4180069E+000	1.2346848E+001	1.268233967961714E+002
-1.157677279221507E+002	-1.4203700E+000	-1.4200068E+000	1.2269135E+001	1.270233967911190E+002
-1.169143068049771E+002	-1.4223776E+000	-1.4220067E+000	1.2165984E+001	1.272233967860666E+002
-1.179899614219489E+002	-1.4243733E+000	-1.4240066E+000	1.2071987E+001	1.274233967810142E+002
-1.188134361124360E+002	-1.4263835E+000	-1.4260064E+000	1.2005238E+001	1.276233967759617E+002
-1.197410300388897E+002	-1.4283834E+000	-1.4280064E+000	1.1928938E+001	1.278233967709093E+002
-1.207258259055293E+002	-1.4303697E+000	-1.4300061E+000	1.1848084E+001	1.280233967658569E+002
-1.220508029693376E+002	-1.4323922E+000	-1.4320062E+000	1.1736032E+001	1.282233967608045E+002
-1.231284610095206E+002	-1.4343791E+000	-1.4340060E+000	1.1649452E+001	1.284233967557520E+002
-1.242665754878331E+002	-1.4363605E+000	-1.4360059E+000	1.1558703E+001	1.286233967506996E+002
-1.253043316021526E+002	-1.4384104E+000	-1.4380057E+000	1.1479335E+001	1.288233967456472E+002
-1.261421226903697E+002	-1.4403881E+000	-1.4400057E+000	1.1418772E+001	1.290233967405948E+002
-1.274351073213952E+002	-1.4423876E+000	-1.4420046E+000	1.1318604E+001	1.292232967355449E+002
-1.284268035910187E+002	-1.4443766E+000	-1.4440053E+000	1.1246691E+001	1.294231967304950E+002
-1.293697511841653E+002	-1.4463699E+000	-1.4460053E+000	1.1180124E+001	1.296231967254425E+002
-1.305157466378075E+002	-1.4484142E+000	-1.4480052E+000	1.1097620E+001	1.298231967203901E+002
-1.316301106736234E+002	-1.4503961E+000	-1.4500052E+000	1.1018725E+001	1.300231967153377E+002
-1.326325073490874E+002	-1.4523873E+000	-1.4520050E+000	1.0950462E+001	1.302231967102853E+002
-1.334037358085047E+002	-1.4543879E+000	-1.4540049E+000	1.0902153E+001	1.304231967052328E+002
-1.344295484062767E+002	-1.4563696E+000	-1.4560049E+000	1.0833702E+001	1.306231967001804E+002
-1.355952488484022E+002	-1.4583970E+000	-1.4580047E+000	1.0755517E+001	1.308231966951280E+002
-1.366023370630348E+002	-1.4603901E+000	-1.4600047E+000	1.0690813E+001	1.310231966900756E+002
-1.373793510731114E+002	-1.4623857E+000	-1.4620045E+000	1.0644873E+001	1.312231966850231E+002
-1.385320413464049E+002	-1.4644127E+000	-1.4640044E+000	1.0570931E+001	1.314231966799707E+002
-1.398051742837000E+002	-1.4663787E+000	-1.4660044E+000	1.0488729E+001	1.316231966749183E+002
-1.407612424653671E+002	-1.4683696E+000	-1.4680041E+000	1.0431633E+001	1.318231966698659E+002
-1.416794474616881E+002	-1.4703666E+000	-1.4700042E+000	1.0378122E+001	1.320231966648134E+002
-1.425413947743352E+002	-1.4723729E+000	-1.4720041E+000	1.0329441E+001	1.322231966597610E+002
-1.433718604727942E+002	-1.4743946E+000	-1.4740039E+000	1.0283710E+001	1.324231966547086E+002
-1.442334242277943E+002	-1.4763842E+000	-1.4760036E+000	1.0236075E+001	1.326231966496562E+002
-1.452791287763857E+002	-1.4783897E+000	-1.4780037E+000	1.0176202E+001	1.328231966446037E+002
-1.463695670242141E+002	-1.4804198E+000	-1.4800042E+000	1.0114260E+001	1.330231966395513E+002
-1.474523897552631E+002	-1.4824162E+000	-1.4820032E+000	1.0053524E+001	1.332229966345039E+002
-1.487878827497252E+002	-1.4844189E+000	-1.4840033E+000	9.9767456E+000	1.334229966294515E+002
-1.498226750940416E+002	-1.4863853E+000	-1.4860032E+000	9.9209642E+000	1.336229966243991E+002
-1.507456694200737E+002	-1.4883715E+000	-1.4880031E+000	9.8733950E+000	1.338229966193467E+002
-1.515182455380746E+002	-1.4904261E+000	-1.4900030E+000	9.8366108E+000	1.340229966142942E+002
-1.524772348133616E+002	-1.4923911E+000	-1.4920028E+000	9.7876320E+000	1.342229966092418E+002
-1.542188708052341E+002	-1.4944023E+000	-1.4940028E+000	9.6901388E+000	1.344229966041894E+002
-1.551055281416361E+002	-1.4963704E+000	-1.4960027E+000	9.6474342E+000	1.346229965991370E+002
-1.559228316823910E+002	-1.4983910E+000	-1.4980026E+000	9.6098242E+000	1.348229965940845E+002
-1.566941668992682E+002	-1.5004011E+000	-1.5000025E+000	9.5753479E+000	1.350229965890321E+002
-1.578738356663798E+002	-1.5023658E+000	-1.5020024E+000	9.5162430E+000	1.352229965839797E+002
-1.589715086208171E+002	-1.5043727E+000	-1.5040023E+000	9.4631596E+000	1.354229965789273E+002
-1.598880421969361E+002	-1.5063870E+000	-1.5060021E+000	9.4215117E+000	1.356229965738748E+002
-1.611705599912441E+002	-1.5083576E+000	-1.5080022E+000	9.3587666E+000	1.358229965688224E+002
-1.625075276638645E+002	-1.5103798E+000	-1.5100020E+000	9.2942142E+000	1.360229965637700E+002
-1.638466191886501E+002	-1.5123644E+000	-1.5120019E+000	9.2303667E+000	1.362229965587176E+002
-1.645465957356141E+002	-1.5143909E+000	-1.5140016E+000	9.2034168E+000	1.364229965536651E+002
-1.655546882266090E+002	-1.5164020E+000	-1.5160017E+000	9.1595230E+000	1.366229965486127E+002
-1.666733206476670E+002	-1.5183836E+000	-1.5180013E+000	9.1099377E+000	1.368228965435628E+002
-1.675449852381164E+002	-1.5203946E+000	-1.5200015E+000	9.0745449E+000	1.370227965385129E+002
-1.684366760675595E+002	-1.5224056E+000	-1.5220013E+000	9.0384445E+000	1.372227965334605E+002
-1.696560537809687E+002	-1.5243913E+000	-1.5240011E+000	8.9851866E+000	1.374227965284081E+002
-1.707070610809753E+002	-1.5264405E+000	-1.5260011E+000	8.9418707E+000	1.376227965233556E+002
-1.721164849555952E+002	-1.5283926E+000	-1.5280010E+000	8.8799896E+000	1.378227965183032E+002
-1.733390050529082E+002	-1.5303711E+000	-1.5300009E+000	8.8287754E+000	1.380227965132508E+002
-1.742900715371650E+002	-1.5324003E+000	-1.5320008E+000	8.7922411E+000	1.382227965081984E+002
-1.751231400712547E+002	-1.5343800E+000	-1.5340006E+000	8.7617207E+000	1.384227965031459E+002
-1.762075367817260E+002	-1.5363910E+000	-1.5360006E+000	8.7192125E+000	1.386227964980935E+002
-1.774269823130562E+002	-1.5384126E+000	-1.5380005E+000	8.6706800E+000	1.388227964930411E+002
-1.783913718578231E+002	-1.5404166E+000	-1.5400003E+000	8.6350403E+000	1.390227964879887E+002
-1.794609267857613E+002	-1.5424266E+000	-1.5420003E+000	8.5947771E+000	1.392227964829362E+002
-1.806085987934448E+002	-1.5444233E+000	-1.5440000E+000	8.5512171E+000	1.394227964778838E+002
-1.816339273950134E+002	-1.5463948E+000	-1.5460001E+000	8.5137997E+000	1.396227964728314E+002
-1.828506477014281E+002	-1.5483735E+000	-1.5480000E+000	8.4679680E+000	1.398227964677790E+002
-1.845525163014727E+002	-1.5504009E+000	-1.5499998E+000	8.4008656E+000	1.400227964627265E+002
-1.856328285124299E+002	-1.5524107E+000	-1.5519996E+000	8.3628025E+000	1.402227964576741E+002
-1.863697024494613E+002	-1.5544312E+000	-1.5539997E+000	8.3405790E+000	1.404227964526217E+002
-1.871139756771186E+002	-1.5564139E+000	-1.5559995E+000	8.3179989E+000	1.406226964475718E+002
-1.880378057929665E+002	-1.5584053E+000	-1.5579995E+000	8.2877235E+000	1.408225964425219E+002
-1.890071851325956E+002	-1.5604191E+000	-1.5599992E+000	8.2558718E+000	1.410225964374695E+002
-1.904287632198293E+002	-1.5624225E+000	-1.5619991E+000	8.2047615E+000	1.412225964324170E+002
-1.909904839370806E+002	-1.5644209E+000	-1.5639992E+000	8.1910934E+000	1.414225964273646E+002
-1.916896292444258E+002	-1.5664426E+000	-1.5659989E+000	8.1717653E+000	1.416225964223122E+002
-1.927479455735938E+002	-1.5684614E+000	-1.5679989E+000	8.1373701E+000	1.418225964172598E+002
-1.937465280167371E+002	-1.5704442E+000	-1.5699987E+000	8.1056643E+000	1.420225964122073E+002
-1.954156630098685E+002	-1.5724082E+000	-1.5719986E+000	8.0464802E+000	1.422225964071549E+002
-1.958205639997041E+002	-1.5744274E+000	-1.5739987E+000	8.0401535E+000	1.424225964021025E+002
-1.964370787614062E+002	-1.5764443E+000	-1.5759985E+000	8.0251865E+000	1.426225963970501E+002
-1.973838879051123E+002	-1.5784005E+000	-1.5779985E+000	7.9966025E+000	1.428225963919976E+002
-1.987334814125716E+002	-1.5804391E+000	-1.5799983E+000	7.9525557E+000	1.430225963869452E+002
-2.001500224742754E+002	-1.5824275E+000	-1.5819983E+000	7.9062071E+000	1.432225963818928E+002
-2.018312720495553E+002	-1.5844202E+000	-1.5839981E+000	7.8502216E+000	1.434225963768404E+002
-2.035433373353919E+002	-1.5864508E+000	-1.5859979E+000	7.7941670E+000	1.436225963717879E+002
-2.059811921973892E+002	-1.5884320E+000	-1.5879978E+000	7.7115388E+000	1.438225963667355E+002
-2.063691812415791E+002	-1.5904373E+000	-1.5899978E+000	7.7067575E+000	1.440225963616831E+002
-2.075904878564431E+002	-1.5924314E+000	-1.5919976E+000	7.6710229E+000	1.442225963566307E+002
-2.087969121498090E+002	-1.5944288E+000	-1.5939977E+000	7.6362662E+000	1.444224963515808E+002
-2.098933191688693E+002	-1.5964233E+000	-1.5959975E+000	7.6058793E+000	1.446223963465309E+002
-2.110204941993934E+002	-1.5984179E+000	-1.5979973E+000	7.5747046E+000	1.448223963414785E+002
-2.114459384044544E+002	-1.6004468E+000	-1.5999973E+000	7.5690594E+000	1.450223963364260E+002
-2.124326026380196E+002	-1.6024020E+000	-1.6019971E+000	7.5431075E+000	1.452223963313736E+002
-2.143633691156267E+002	-1.6044055E+000	-1.6039971E+000	7.4845133E+000	1.454223963263212E+002
-2.151556594615076E+002	-1.6064398E+000	-1.6059968E+000	7.4664073E+000	1.456223963212688E+002
-2.159385713157731E+002	-1.6084247E+000	-1.6079968E+000	7.4485288E+000	1.458223963162163E+002
-2.170128377494898E+002	-1.6104004E+000	-1.6099966E+000	7.4207611E+000	1.460223963111639E+002
-2.182298410636220E+002	-1.6124318E+000	-1.6119967E+000	7.3886862E+000	1.462223963061115E+002
-2.189619637184405E+002	-1.6144027E+000	-1.6139965E+000	7.3729820E+000	1.464223963010591E+002
-2.201976794309898E+002	-1.6164443E+000	-1.6159965E+000	7.3408780E+000	1.466223962960066E+002
-2.213386269091484E+002	-1.6184483E+000	-1.6179962E+000	7.3120914E+000	1.468223962909542E+002
-2.224791982352313E+002	-1.6204478E+000	-1.6199963E+000	7.2835922E+000	1.470223962859018E+002
-2.235810357243020E+002	-1.6224306E+000	-1.6219960E+000	7.2565660E+000	1.472223962808494E+002
-2.245890559371646E+002	-1.6244303E+000	-1.6239959E+000	7.2329006E+000	1.474223962757969E+002
-2.259706698220868E+002	-1.6264359E+000	-1.6259958E+000	7.1975532E+000	1.476223962707445E+002
-2.265972904196684E+002	-1.6284252E+000	-1.6279957E+000	7.1864285E+000	1.478223962656921E+002
-2.275504153827323E+002	-1.6304572E+000	-1.6299959E+000	7.1652570E+000	1.480223962606397E+002
-2.289795631832349E+002	-1.6324302E+000	-1.6319959E+000	7.1291523E+000	1.482222962555898E+002
-2.301010752221621E+002	-1.6344565E+000	-1.6339954E+000	7.1032109E+000	1.484221962505399E+002
-2.311627043618091E+002	-1.6364642E+000	-1.6359953E+000	7.0792747E+000	1.486221962454874E+002
-2.321648338235686E+002	-1.6384326E+000	-1.6379952E+000	7.0571957E+000	1.488221962404350E+002
-2.329972448132748E+002	-1.6404567E+000	-1.6399951E+000	7.0406699E+000	1.490221962353826E+002
-2.341914001711370E+002	-1.6424568E+000	-1.6419951E+000	7.0133095E+000	1.492221962303302E+002
-2.355448064566190E+002	-1.6444515E+000	-1.6439949E+000	6.9814806E+000	1.494221962252777E+002
-2.365577137767600E+002	-1.6464535E+000	-1.6459948E+000	6.9600501E+000	1.496221962202253E+002
-2.380038117000031E+002	-1.6484569E+000	-1.6479945E+000	6.9261789E+000	1.498221962151729E+002
-2.384315392197932E+002	-1.6504730E+000	-1.6499946E+000	6.9222093E+000	1.500221962101205E+002
-2.398851680539356E+002	-1.6524329E+000	-1.6519945E+000	6.8884330E+000	1.502221962050680E+002
-2.411409603473547E+002	-1.6544508E+000	-1.6539944E+000	6.8609281E+000	1.504221962000156E+002
-2.439245088278849E+002	-1.6564386E+000	-1.6559943E+000	6.7907839E+000	1.506221961949632E+002
-2.445996851845396E+002	-1.6584716E+000	-1.6579943E+000	6.7803502E+000	1.508221961899108E+002
-2.449788752380668E+002	-1.6604478E+000	-1.6599940E+000	6.7779226E+000	1.510221961848583E+002
-2.455540382164672E+002	-1.6624424E+000	-1.6619940E+000	6.7701693E+000	1.512221961798059E+002
-2.468656184246211E+002	-1.6644453E+000	-1.6639937E+000	6.7423129E+000	1.514221961747535E+002
-2.474947382782045E+002	-1.6664665E+000	-1.6659937E+000	6.7333412E+000	1.516221961697011E+002
-2.491357502018254E+002	-1.6684809E+000	-1.6679938E+000	6.6970754E+000	1.518221961646486E+002
-2.511499541329035E+002	-1.6704987E+000	-1.6699927E+000	6.6513996E+000	1.520220961595987E+002
-2.525532021853760E+002	-1.6724651E+000	-1.6719930E+000	6.6222286E+000	1.522219961545488E+002
-2.535385792444613E+002	-1.6744601E+000	-1.6739935E+000	6.6043601E+000	1.524219961494964E+002
-2.541144053617027E+002	-1.6764607E+000	-1.6759932E+000	6.5972676E+000	1.526219961444440E+002
-2.550780097675970E+002	-1.6784736E+000	-1.6779931E+000	6.5802364E+000	1.528219961393916E+002
-2.562301606656188E+002	-1.6804640E+000	-1.6799930E+000	6.5584164E+000	1.530219961343391E+002
-2.578880342972257E+002	-1.6824983E+000	-1.6819929E+000	6.5241427E+000	1.532219961292867E+002
-2.592992492230296E+002	-1.6844640E+000	-1.6839927E+000	6.4962163E+000	1.534219961242343E+002
-2.604152237098504E+002	-1.6864616E+000	-1.6859928E+000	6.4760485E+000	1.536219961191819E+002
-2.615040840767410E+002	-1.6884919E+000	-1.6879926E+000	6.4568472E+000	1.538219961141294E+002
-2.623408195361534E+002	-1.6904662E+000	-1.6899925E+000	6.4437785E+000	1.540219961090770E+002
-2.632113408955865E+002	-1.6924390E+000	-1.6919924E+000	6.4299622E+000	1.542219961040246E+002
-2.647940041289035E+002	-1.6944664E+000	-1.6939923E+000	6.3991871E+000	1.544219960989722E+002
-2.659912667133913E+002	-1.6964394E+000	-1.6959922E+000	6.3778009E+000	1.546219960939197E+002
-2.662868979166417E+002	-1.6984369E+000	-1.6979921E+000	6.3782215E+000	1.548219960888673E+002
-2.672214762067033E+002	-1.7004435E+000	-1.6999918E+000	6.3634238E+000	1.550219960838149E+002
-2.683583885677281E+002	-1.7024469E+000	-1.7019917E+000	6.3439302E+000	1.552219960787625E+002
-2.697739854172522E+002	-1.7044570E+000	-1.7039918E+000	6.3180928E+000	1.554219960737100E+002
-2.718268784395423E+002	-1.7064466E+000	-1.7059917E+000	6.2776966E+000	1.556219960686576E+002
-2.728545451746077E+002	-1.7084355E+000	-1.7079921E+000	6.2613416E+000	1.558219960636052E+002
-2.736886220679125E+002	-1.7104239E+000	-1.7099912E+000	6.2495251E+000	1.560217960585578E+002
-2.740374165770693E+002	-1.7124672E+000	-1.7119914E+000	6.2490268E+000	1.562217960535054E+002
-2.750006447833148E+002	-1.7144471E+000	-1.7139912E+000	6.2343388E+000	1.564217960484530E+002
-2.758241192694413E+002	-1.7164605E+000	-1.7159910E+000	6.2230253E+000	1.566217960434005E+002
-2.781718238346166E+002	-1.7184540E+000	-1.7179910E+000	6.1776710E+000	1.568217960383481E+002
-2.787832128758337E+002	-1.7204652E+000	-1.7199908E+000	6.1713371E+000	1.570217960332957E+002
-2.801359946408793E+002	-1.7224659E+000	-1.7219907E+000	6.1486773E+000	1.572217960282433E+002
-2.832280368523816E+002	-1.7244450E+000	-1.7239908E+000	6.0885391E+000	1.574217960231908E+002
-2.835522712936731E+002	-1.7264957E+000	-1.7259905E+000	6.0888095E+000	1.576217960181384E+002
-2.848727675414139E+002	-1.7284399E+000	-1.7279905E+000	6.0674100E+000	1.578217960130860E+002
-2.866050675191036E+002	-1.7304753E+000	-1.7299904E+000	6.0378394E+000	1.580217960080336E+002
-2.870284085587316E+002	-1.7324522E+000	-1.7319902E+000	6.0358214E+000	1.582217960029811E+002
-2.882672791470200E+002	-1.7344824E+000	-1.7339902E+000	6.0169244E+000	1.584217959979287E+002
-2.891808248442048E+002	-1.7364595E+000	-1.7359900E+000	6.0047531E+000	1.586217959928763E+002
-2.901030502751833E+002	-1.7384688E+000	-1.7379898E+000	5.9925904E+000	1.588217959878239E+002
-2.912043406319995E+002	-1.7404590E+000	-1.7399896E+000	5.9767618E+000	1.590217959827714E+002
-2.918826027370633E+002	-1.7424524E+000	-1.7419897E+000	5.9697027E+000	1.592217959777190E+002
-2.925761154114261E+002	-1.7444935E+000	-1.7439897E+000	5.9625287E+000	1.594217959726666E+002
-2.942753619304721E+002	-1.7464693E+000	-1.7459891E+000	5.9348130E+000	1.596216959676167E+002
-2.962782346959011E+002	-1.7484514E+000	-1.7479894E+000	5.9013829E+000	1.598215959625668E+002
-2.975005108277528E+002	-1.7505045E+000	-1.7499894E+000	5.8840384E+000	1.600215959575144E+002
-2.976972257761190E+002	-1.7524604E+000	-1.7519891E+000	5.8867207E+000	1.602215959524619E+002
-2.984889242146287E+002	-1.7544512E+000	-1.7539890E+000	5.8777766E+000	1.604215959474095E+002
-2.996126362936825E+002	-1.7564986E+000	-1.7559890E+000	5.8625650E+000	1.606215959423571E+002
-3.006744946590079E+002	-1.7584850E+000	-1.7579888E+000	5.8484674E+000	1.608215959373047E+002
-3.018138408314883E+002	-1.7604706E+000	-1.7599887E+000	5.8329687E+000	1.610215959322522E+002
-3.026109063263102E+002	-1.7624903E+000	-1.7619888E+000	5.8242788E+000	1.612215959271998E+002
-3.048296464651889E+002	-1.7644773E+000	-1.7639885E+000	5.7884045E+000	1.614215959221474E+002
-3.064508679794330E+002	-1.7664723E+000	-1.7659886E+000	5.7642922E+000	1.616215959170950E+002
-3.066509719165284E+002	-1.7684910E+000	-1.7679883E+000	5.7671137E+000	1.618215959120425E+002
-3.083765887673482E+002	-1.7704901E+000	-1.7699882E+000	5.7413244E+000	1.620215959069901E+002
-3.093373461526535E+002	-1.7724509E+000	-1.7719882E+000	5.7298317E+000	1.622215959019377E+002
-3.104204096177809E+002	-1.7744786E+000	-1.7739880E+000	5.7163720E+000	1.624215958968853E+002
-3.121671542991589E+002	-1.7764755E+000	-1.7759877E+000	5.6907830E+000	1.626215958918328E+002
-3.127902429887754E+002	-1.7784771E+000	-1.7779878E+000	5.6858459E+000	1.628215958867804E+002
-3.136966627860566E+002	-1.7805015E+000	-1.7799877E+000	5.6758699E+000	1.630215958817280E+002
-3.161033251950535E+002	-1.7824662E+000	-1.7819877E+000	5.6388721E+000	1.632215958766756E+002
-3.164487063589850E+002	-1.7845192E+000	-1.7839874E+000	5.6392050E+000	1.634214958716257E+002
-3.172226342181775E+002	-1.7864676E+000	-1.7859874E+000	5.6315889E+000	1.636213958665758E+002
-3.190576394269228E+002	-1.7884784E+000	-1.7879874E+000	5.6055026E+000	1.638213958615233E+002
-3.200319217673221E+002	-1.7904553E+000	-1.7899872E+000	5.5946150E+000	1.640213958564709E+002
-3.207730362345028E+002	-1.7924680E+000	-1.7919872E+000	5.5879631E+000	1.642213958514185E+002
-3.240704875543806E+002	-1.7944660E+000	-1.7939869E+000	5.5372705E+000	1.644213958463661E+002
-3.249413232868237E+002	-1.7964674E+000	-1.7959868E+000	5.5285902E+000	1.646213958413136E+002
-3.250593830506546E+002	-1.7984579E+000	-1.7979866E+000	5.5327058E+000	1.648213958362612E+002
-3.268071661795630E+002	-1.8004661E+000	-1.7999867E+000	5.5092611E+000	1.650213958312088E+002
-3.274764390608079E+002	-1.8024532E+000	-1.8019867E+000	5.5040698E+000	1.652213958261564E+002
-3.277019724683705E+002	-1.8044792E+000	-1.8039865E+000	5.5064645E+000	1.654213958211039E+002
-3.296339185070283E+002	-1.8064789E+000	-1.8059864E+000	5.4802580E+000	1.656213958160515E+002
-3.301550804968601E+002	-1.8084842E+000	-1.8079864E+000	5.4776812E+000	1.658213958109991E+002
-3.305225753567938E+002	-1.8104290E+000	-1.8099861E+000	5.4774747E+000	1.660213958059467E+002
-3.319080833577793E+002	-1.8124920E+000	-1.8119860E+000	5.4608250E+000	1.662213958008942E+002
-3.346433994505128E+002	-1.8144658E+000	-1.8139857E+000	5.4220872E+000	1.664213957958418E+002
-3.358414934638407E+002	-1.8164810E+000	-1.8159858E+000	5.4087448E+000	1.666213957907894E+002
-3.376883809528640E+002	-1.8184917E+000	-1.8179857E+000	5.3851175E+000	1.668213957857370E+002
-3.386736118874571E+002	-1.8204869E+000	-1.8199856E+000	5.3753433E+000	1.670213957806845E+002
-3.390454405913742E+002	-1.8224845E+000	-1.8219856E+000	5.3753400E+000	1.672212957756346E+002
-3.400162313530504E+002	-1.8244845E+000	-1.8239856E+000	5.3658748E+000	1.674211957705847E+002
-3.402260176319119E+002	-1.8265086E+000	-1.8259853E+000	5.3685155E+000	1.676211957655323E+002
-3.428725036871951E+002	-1.8284692E+000	-1.8279852E+000	5.3327961E+000	1.678211957604799E+002
-3.436534206234674E+002	-1.8304777E+000	-1.8299851E+000	5.3265228E+000	1.680211957554275E+002
-3.445780645335888E+002	-1.8324749E+000	-1.8319849E+000	5.3180256E+000	1.682211957503750E+002
-3.456037652908817E+002	-1.8344569E+000	-1.8339847E+000	5.3079772E+000	1.684211957453226E+002
-3.474984968297886E+002	-1.8364954E+000	-1.8359846E+000	5.2849016E+000	1.686211957402702E+002
-3.478293674624711E+002	-1.8384602E+000	-1.8379847E+000	5.2855234E+000	1.688211957352178E+002
-3.495693271057389E+002	-1.8405037E+000	-1.8399847E+000	5.2650604E+000	1.690211957301653E+002
-3.499834287474757E+002	-1.8424696E+000	-1.8419845E+000	5.2644482E+000	1.692211957251129E+002
-3.508819053005482E+002	-1.8444482E+000	-1.8439844E+000	5.2566066E+000	1.694211957200605E+002
-3.535145228530812E+002	-1.8464992E+000	-1.8459843E+000	5.2232628E+000	1.696211957150081E+002
-3.540447036306336E+002	-1.8484606E+000	-1.8479841E+000	5.2209806E+000	1.698211957099556E+002
-3.542544250834281E+002	-1.8505161E+000	-1.8499839E+000	5.2236924E+000	1.700211957049032E+002
-3.553781503084847E+002	-1.8525274E+000	-1.8519839E+000	5.2128344E+000	1.702211956998508E+002
-3.565869028433117E+002	-1.8545525E+000	-1.8539838E+000	5.2008429E+000	1.704211956947984E+002
-3.591394986673815E+002	-1.8565102E+000	-1.8559836E+000	5.1693287E+000	1.706211956897459E+002
-3.596728810656354E+002	-1.8585330E+000	-1.8579838E+000	5.1672869E+000	1.708211956846935E+002
-3.605705296202023E+002	-1.8605134E+000	-1.8599838E+000	5.1599154E+000	1.710210956796436E+002
-3.618785450063865E+002	-1.8625180E+000	-1.8619835E+000	5.1468039E+000	1.712209956745937E+002
-3.619521621673848E+002	-1.8645142E+000	-1.8639834E+000	5.1512723E+000	1.714209956695413E+002
-3.639306317608364E+002	-1.8665000E+000	-1.8659831E+000	5.1287246E+000	1.716209956644889E+002
-3.651803303067645E+002	-1.8685030E+000	-1.8679831E+000	5.1166582E+000	1.718209956594364E+002
-3.658348543962948E+002	-1.8705139E+000	-1.8699830E+000	5.1130009E+000	1.720209956543840E+002
-3.659929863590237E+002	-1.8725169E+000	-1.8719827E+000	5.1162643E+000	1.722209956493316E+002
-3.690836198638084E+002	-1.8745023E+000	-1.8739825E+000	5.0788012E+000	1.724209956442792E+002
-3.704380733788416E+002	-1.8765348E+000	-1.8759826E+000	5.0657182E+000	1.726209956392267E+002
-3.719828575225101E+002	-1.8785350E+000	-1.8779826E+000	5.0500579E+000	1.728209956341743E+002
-3.724556380918521E+002	-1.8805134E+000	-1.8799825E+000	5.0489593E+000	1.730209956291219E+002
-3.725267588946285E+002	-1.8825378E+000	-1.8819823E+000	5.0534301E+000	1.732209956240695E+002
-3.753357537025226E+002	-1.8845210E+000	-1.8839823E+000	5.0208941E+000	1.734209956190170E+002
-3.760392695749142E+002	-1.8865198E+000	-1.8859820E+000	5.0168161E+000	1.736209956139646E+002
-3.775519121693391E+002	-1.8885175E+000	-1.8879819E+000	5.0020075E+000	1.738209956089122E+002
-3.782748943661891E+002	-1.8905183E+000	-1.8899819E+000	4.9977365E+000	1.740209956038598E+002
-3.788491620087570E+002	-1.8925164E+000	-1.8919817E+000	4.9954352E+000	1.742209955988073E+002
-3.810761064607273E+002	-1.8945630E+000	-1.8939818E+000	4.9716129E+000	1.744209955937549E+002
-3.820957221292510E+002	-1.8965583E+000	-1.8959807E+000	4.9635687E+000	1.746208955887050E+002
-3.832161391201862E+002	-1.8985212E+000	-1.8979821E+000	4.9541788E+000	1.748208955836526E+002
-3.834333423194962E+002	-1.9005185E+000	-1.8999815E+000	4.9565811E+000	1.750207955786027E+002
-3.841687986066822E+002	-1.9025204E+000	-1.9019814E+000	4.9523034E+000	1.752207955735503E+002
-3.853008799044733E+002	-1.9045308E+000	-1.9039811E+000	4.9429703E+000	1.754207955684979E+002
-3.873177982036232E+002	-1.9065167E+000	-1.9059811E+000	4.9223576E+000	1.756207955634454E+002
-3.888997044422740E+002	-1.9085147E+000	-1.9079809E+000	4.9074726E+000	1.758207955583930E+002
-3.911189114252738E+002	-1.9105289E+000	-1.9099807E+000	4.8847775E+000	1.760207955533406E+002
-3.913976468607400E+002	-1.9125074E+000	-1.9119807E+000	4.8863540E+000	1.762207955482882E+002
-3.917942944567767E+002	-1.9145553E+000	-1.9139806E+000	4.8866339E+000	1.764207955432357E+002
-3.921202824759112E+002	-1.9165359E+000	-1.9159807E+000	4.8876224E+000	1.766207955381833E+002
-3.934877131196108E+002	-1.9185046E+000	-1.9179804E+000	4.8756404E+000	1.768207955331309E+002
-3.941114343266909E+002	-1.9205184E+000	-1.9199805E+000	4.8730340E+000	1.770207955280785E+002
-3.949263556171172E+002	-1.9225606E+000	-1.9219803E+000	4.8681498E+000	1.772207955230260E+002
-3.978887258776190E+002	-1.9245088E+000	-1.9239801E+000	4.8368015E+000	1.774207955179736E+002
-3.979889835305760E+002	-1.9265145E+000	-1.9259799E+000	4.8406229E+000	1.776207955129212E+002
-3.985496532414232E+002	-1.9284896E+000	-1.9279798E+000	4.8387685E+000	1.778207955078688E+002
-4.009444226418468E+002	-1.9305143E+000	-1.9299797E+000	4.8149176E+000	1.780207955028163E+002
-4.023445470208765E+002	-1.9325171E+000	-1.9319798E+000	4.8031397E+000	1.782207954977639E+002
-4.029744919800705E+002	-1.9345313E+000	-1.9339796E+000	4.8006296E+000	1.784207954927115E+002
-4.035066880654385E+002	-1.9365176E+000	-1.9359794E+000	4.7992206E+000	1.786205954876641E+002
-4.061530227877374E+002	-1.9385406E+000	-1.9379795E+000	4.7729316E+000	1.788205954826117E+002
-4.073498386893425E+002	-1.9405259E+000	-1.9399793E+000	4.7637820E+000	1.790205954775593E+002
-4.077095863489330E+002	-1.9425546E+000	-1.9419793E+000	4.7645545E+000	1.792205954725068E+002
-4.090929119646416E+002	-1.9445329E+000	-1.9439790E+000	4.7532792E+000	1.794205954674544E+002
-4.101567229316342E+002	-1.9465356E+000	-1.9459789E+000	4.7458339E+000	1.796205954624020E+002
-4.123155651006018E+002	-1.9485260E+000	-1.9479786E+000	4.7258124E+000	1.798205954573496E+002
-4.137090796991815E+002	-1.9505547E+000	-1.9499788E+000	4.7147980E+000	1.800205954522971E+002
-4.144899444104303E+002	-1.9525402E+000	-1.9519786E+000	4.7107058E+000	1.802205954472447E+002
-4.141480917552199E+002	-1.9545337E+000	-1.9539787E+000	4.7194076E+000	1.804205954421923E+002
-4.159356486867619E+002	-1.9564995E+000	-1.9559784E+000	4.7038512E+000	1.806205954371399E+002
-4.176732055421890E+002	-1.9585258E+000	-1.9579785E+000	4.6891341E+000	1.808205954320874E+002
-4.195945897653801E+002	-1.9605359E+000	-1.9599782E+000	4.6724529E+000	1.810205954270350E+002
-4.208601999131461E+002	-1.9625312E+000	-1.9619781E+000	4.6631427E+000	1.812205954219826E+002
-4.229036839240796E+002	-1.9645518E+000	-1.9639778E+000	4.6453881E+000	1.814205954169302E+002
-4.241102023697761E+002	-1.9665128E+000	-1.9659778E+000	4.6367970E+000	1.816205954118777E+002
-4.251544669274554E+002	-1.9685515E+000	-1.9679778E+000	4.6302032E+000	1.818205954068253E+002
-4.250374071073647E+002	-1.9705080E+000	-1.9699777E+000	4.6360812E+000	1.820205954017729E+002
-4.265496741890420E+002	-1.9725381E+000	-1.9719781E+000	4.6244044E+000	1.822205953967205E+002
-4.289322394300052E+002	-1.9745626E+000	-1.9739773E+000	4.6034374E+000	1.824203953916731E+002
-4.301574896901102E+002	-1.9765403E+000	-1.9759774E+000	4.5949225E+000	1.826203953866207E+002
-4.298804654491191E+002	-1.9785327E+000	-1.9779773E+000	4.6025181E+000	1.828203953815682E+002
-4.308159955688607E+002	-1.9805654E+000	-1.9799773E+000	4.5972419E+000	1.830203953765158E+002
-4.328863100064855E+002	-1.9825480E+000	-1.9819770E+000	4.5798354E+000	1.832203953714634E+002
-4.345567156473817E+002	-1.9845766E+000	-1.9839768E+000	4.5668988E+000	1.834203953664110E+002
-4.343899434623809E+002	-1.9865608E+000	-1.9859767E+000	4.5732203E+000	1.836203953613585E+002
-4.351654048236317E+002	-1.9885523E+000	-1.9879768E+000	4.5696473E+000	1.838203953563061E+002
-4.369978656422808E+002	-1.9905503E+000	-1.9899765E+000	4.5550570E+000	1.840203953512537E+002
-4.376439335751702E+002	-1.9925795E+000	-1.9919766E+000	4.5529695E+000	1.842203953462013E+002
-4.384011708084436E+002	-1.9945170E+000	-1.9939764E+000	4.5495248E+000	1.844203953411488E+002
-4.394632840621489E+002	-1.9965639E+000	-1.9959764E+000	4.5431871E+000	1.846203953360964E+002
-4.403505649177387E+002	-1.9985400E+000	-1.9979762E+000	4.5385203E+000	1.848203953310440E+002
-4.439273671952511E+002	-2.0005333E+000	-1.9999760E+000	4.5064430E+000	1.850203953259916E+002
-4.467675111342437E+002	-2.0025494E+000	-2.0019760E+000	4.4823074E+000	1.852203953209391E+002
-4.473884624775310E+002	-2.0045273E+000	-2.0039759E+000	4.4805074E+000	1.854203953158867E+002
-4.476948417049425E+002	-2.0065372E+000	-2.0059757E+000	4.4819307E+000	1.856203953108343E+002
-4.495585469226444E+002	-2.0085199E+000	-2.0079758E+000	4.4677606E+000	1.858203953057819E+002
-4.493025039527874E+002	-2.0105467E+000	-2.0099752E+000	4.4748173E+000	1.860202953007320E+002
-4.499062698969192E+002	-2.0125120E+000	-2.0119755E+000	4.4731808E+000	1.862202952956795E+002
-4.517460793821729E+002	-2.0145214E+000	-2.0139754E+000	4.4594107E+000	1.864201952906296E+002
-4.538124967821591E+002	-2.0165443E+000	-2.0159752E+000	4.4435630E+000	1.866201952855772E+002
-4.560052262304052E+002	-2.0185366E+000	-2.0179753E+000	4.4265647E+000	1.868201952805248E+002
-4.561044449319652E+002	-2.0205476E+000	-2.0199749E+000	4.4300108E+000	1.870201952754724E+002
-4.564204530694306E+002	-2.0225487E+000	-2.0219748E+000	4.4313278E+000	1.872201952704199E+002
-4.568678897503015E+002	-2.0245163E+000	-2.0239747E+000	4.4312949E+000	1.874201952653675E+002
-4.566528760516439E+002	-2.0265529E+000	-2.0259748E+000	4.4378409E+000	1.876201952603151E+002
-4.574124011085150E+002	-2.0285573E+000	-2.0279746E+000	4.4348540E+000	1.878201952552627E+002
-4.586769059326102E+002	-2.0305510E+000	-2.0299747E+000	4.4269743E+000	1.880201952502102E+002
-4.588554282242476E+002	-2.0325317E+000	-2.0319746E+000	4.4295688E+000	1.882201952451578E+002
-4.599725044925185E+002	-2.0345373E+000	-2.0339744E+000	4.4231715E+000	1.884201952401054E+002
-4.607266054823822E+002	-2.0365283E+000	-2.0359743E+000	4.4202533E+000	1.886201952350530E+002
-4.610361467651228E+002	-2.0385416E+000	-2.0379741E+000	4.4216523E+000	1.888201952300005E+002
-4.626822706555558E+002	-2.0405390E+000	-2.0399740E+000	4.4102383E+000	1.890201952249481E+002
-4.667951866547828E+002	-2.0425367E+000	-2.0419738E+000	4.3756595E+000	1.892201952198957E+002
-4.700995753973793E+002	-2.0445604E+000	-2.0439737E+000	4.3492069E+000	1.894201952148433E+002
-4.722258809321074E+002	-2.0465791E+000	-2.0459738E+000	4.3338985E+000	1.896201952097908E+002
-4.731832102871613E+002	-2.0485659E+000	-2.0479732E+000	4.3293290E+000	1.898200952047409E+002
-4.737079102126709E+002	-2.0505829E+000	-2.0499728E+000	4.3287916E+000	1.900199951996910E+002
-4.741084932080744E+002	-2.0525873E+000	-2.0519733E+000	4.3293619E+000	1.902199951946386E+002
-4.743829477963272E+002	-2.0545914E+000	-2.0539732E+000	4.3310819E+000	1.904199951895862E+002
-4.753278859845650E+002	-2.0565848E+000	-2.0559733E+000	4.3266659E+000	1.906199951845338E+002
-4.757966457202601E+002	-2.0585854E+000	-2.0579729E+000	4.3266077E+000	1.908199951794813E+002
-4.770841455481213E+002	-2.0605912E+000	-2.0599728E+000	4.3191357E+000	1.910199951744289E+002
-4.776572366139226E+002	-2.0625818E+000	-2.0619731E+000	4.3181210E+000	1.912199951693765E+002
-4.771951176563352E+002	-2.0645883E+000	-2.0639727E+000	4.3265076E+000	1.914199951643241E+002
-4.808958074132870E+002	-2.0665874E+000	-2.0659726E+000	4.2973704E+000	1.916199951592716E+002
-4.817900203263653E+002	-2.0685933E+000	-2.0679727E+000	4.2935576E+000	1.918199951542192E+002
-4.831176896084453E+002	-2.0706213E+000	-2.0699728E+000	4.2859564E+000	1.920199951491668E+002
-4.834942486345635E+002	-2.0726001E+000	-2.0719724E+000	4.2867112E+000	1.922199951441144E+002
-4.848610227026901E+002	-2.0746052E+000	-2.0739722E+000	4.2787628E+000	1.924199951390619E+002
-4.863693271602367E+002	-2.0765929E+000	-2.0759721E+000	4.2695804E+000	1.926199951340095E+002
-4.872422243537781E+002	-2.0786016E+000	-2.0779719E+000	4.2660537E+000	1.928199951289571E+002
-4.872337158834580E+002	-2.0805862E+000	-2.0799718E+000	4.2702017E+000	1.930199951239047E+002
-4.888705683338399E+002	-2.0825663E+000	-2.0819716E+000	4.2599545E+000	1.932199951188522E+002
-4.886227279801496E+002	-2.0846095E+000	-2.0839717E+000	4.2662969E+000	1.934199951137998E+002
-4.934764185452586E+002	-2.0865607E+000	-2.0859711E+000	4.2282887E+000	1.936198951087499E+002
-4.956777845533597E+002	-2.0885775E+000	-2.0879722E+000	4.2135792E+000	1.938198951036975E+002
-4.961111659426988E+002	-2.0906031E+000	-2.0899713E+000	4.2139812E+000	1.940197950986476E+002
-4.980951741320223E+002	-2.0926087E+000	-2.0919714E+000	4.2012224E+000	1.942197950935952E+002
-4.998132722988667E+002	-2.0946047E+000	-2.0939713E+000	4.1907744E+000	1.944197950885427E+002
-5.035173438627953E+002	-2.0966082E+000	-2.0959711E+000	4.1639242E+000	1.946197950834903E+002
-5.038068653072078E+002	-2.0985975E+000	-2.0979707E+000	4.1654801E+000	1.948197950784379E+002
-5.051012585698344E+002	-2.1006207E+000	-2.0999708E+000	4.1588111E+000	1.950197950733855E+002
-5.062038831948689E+002	-2.1026008E+000	-2.1019707E+000	4.1536641E+000	1.952197950683330E+002
-5.065406654124363E+002	-2.1045792E+000	-2.1039708E+000	4.1548080E+000	1.954197950632806E+002
-5.080277531163229E+002	-2.1066165E+000	-2.1059706E+000	4.1466565E+000	1.956197950582282E+002
-5.084062059406797E+002	-2.1085923E+000	-2.1079707E+000	4.1474557E+000	1.958197950531758E+002
-5.091114693855734E+002	-2.1105793E+000	-2.1099703E+000	4.1456132E+000	1.960197950481233E+002
-5.112308301817525E+002	-2.1126099E+000	-2.1119702E+000	4.1323991E+000	1.962197950430709E+002
-5.110499876934928E+002	-2.1145973E+000	-2.1139703E+000	4.1377506E+000	1.964197950380185E+002
-5.127150858189236E+002	-2.1165657E+000	-2.1159701E+000	4.1281519E+000	1.966197950329661E+002
-5.119731317117930E+002	-2.1185820E+000	-2.1179698E+000	4.1380725E+000	1.968197950279136E+002
-5.122565468336197E+002	-2.1205738E+000	-2.1199696E+000	4.1396713E+000	1.970197950228612E+002
-5.122236256156102E+002	-2.1225941E+000	-2.1219697E+000	4.1438818E+000	1.972197950178088E+002
-5.121734419326913E+002	-2.1245756E+000	-2.1239703E+000	4.1481566E+000	1.974197950127564E+002
-5.153394942365139E+002	-2.1265714E+000	-2.1259692E+000	4.1265445E+000	1.976195950077090E+002
-5.142215447285253E+002	-2.1286004E+000	-2.1279693E+000	4.1394615E+000	1.978195950026566E+002
-5.176480625005524E+002	-2.1306167E+000	-2.1299694E+000	4.1159558E+000	1.980195949976041E+002
-5.207720305384426E+002	-2.1325829E+000	-2.1319692E+000	4.0950413E+000	1.982195949925517E+002
-5.205147601579611E+002	-2.1345792E+000	-2.1339691E+000	4.1009002E+000	1.984195949874993E+002
-5.227996779720788E+002	-2.1365762E+000	-2.1359687E+000	4.0867972E+000	1.986195949824469E+002
-5.252117708686255E+002	-2.1386092E+000	-2.1379688E+000	4.0718989E+000	1.988195949773944E+002
-5.280518765006209E+002	-2.1405914E+000	-2.1399686E+000	4.0537519E+000	1.990195949723420E+002
-5.285441346460457E+002	-2.1425831E+000	-2.1419687E+000	4.0537448E+000	1.992195949672896E+002
-5.280618369649619E+002	-2.1445973E+000	-2.1439686E+000	4.0612617E+000	1.994195949622372E+002
-5.295164313759678E+002	-2.1466215E+000	-2.1459687E+000	4.0539279E+000	1.996195949571847E+002
-5.331934836208127E+002	-2.1486318E+000	-2.1479685E+000	4.0297413E+000	1.998195949521323E+002
-5.331214122599222E+002	-2.1505930E+000	-2.1499681E+000	4.0339646E+000	2.000195949470799E+002
-5.340092040513919E+002	-2.1526153E+000	-2.1519682E+000	4.0310454E+000	2.002195949420275E+002
-5.334864015168323E+002	-2.1545961E+000	-2.1539681E+000	4.0387087E+000	2.004195949369750E+002
-5.333363437998560E+002	-2.1566103E+000	-2.1559677E+000	4.0436215E+000	2.006195949319226E+002
-5.356143706704488E+002	-2.1586142E+000	-2.1579676E+000	4.0301647E+000	2.008195949268702E+002
-5.380306403176199E+002	-2.1606038E+000	-2.1599669E+000	4.0157633E+000	2.010194949218203E+002
-5.396110679174144E+002	-2.1626060E+000	-2.1619682E+000	4.0077124E+000	2.012195949167653E+002
-5.395296505306342E+002	-2.1646154E+000	-2.1639671E+000	4.0120416E+000	2.014193949117180E+002
-5.384353206357737E+002	-2.1666255E+000	-2.1659672E+000	4.0239291E+000	2.016193949066655E+002
-5.378395265548934E+002	-2.1686056E+000	-2.1679673E+000	4.0320683E+000	2.018193949016131E+002
-5.379269423019877E+002	-2.1705806E+000	-2.1699672E+000	4.0350842E+000	2.020193948965607E+002
-5.408093980715676E+002	-2.1725886E+000	-2.1719670E+000	4.0172906E+000	2.022193948915083E+002
-5.405686224247602E+002	-2.1746142E+000	-2.1739666E+000	4.0228271E+000	2.024193948864558E+002
-5.440688954653915E+002	-2.1766257E+000	-2.1759667E+000	4.0006437E+000	2.026193948814034E+002
-5.449334273305885E+002	-2.1786342E+000	-2.1779668E+000	3.9979823E+000	2.028193948763510E+002
-5.479902272083882E+002	-2.1806254E+000	-2.1799667E+000	3.9793146E+000	2.030193948712986E+002
-5.496485036257436E+002	-2.1825945E+000	-2.1819665E+000	3.9708915E+000	2.032193948662461E+002
-5.537256602981452E+002	-2.1846154E+000	-2.1839666E+000	3.9453027E+000	2.034193948611937E+002
-5.532449264310108E+002	-2.1866481E+000	-2.1859665E+000	3.9524052E+000	2.036193948561413E+002
-5.530202107721452E+002	-2.1886213E+000	-2.1879661E+000	3.9575791E+000	2.038193948510889E+002
-5.549113878955104E+002	-2.1906228E+000	-2.1899662E+000	3.9476984E+000	2.040193948460364E+002
-5.544210618369452E+002	-2.1925433E+000	-2.1918659E+000	3.9546537E+000	2.042093948412366E+002
-5.536596310264194E+002	-2.1935880E+000	-2.1928654E+000	3.9619794E+000	2.042969948390237E+002