EC-Lab ASCII FILE
Nb header lines : 61                          

Linear Sweep Voltammetry

Run on channel : 1 (SN 1340)
User : 
Electrode connection : standard
Potential control : Ewe
Ewe ctrl range : min = -5.00 V, max = 5.00 V
Ewe,I filtering : 50 kHz
Channel : Grounded
Acquisition started on : 11/23/2025 16:11:08.725
Technique started on : 11/23/2025 16:11:11.564
Loaded Setting File :  NONE
Saved on :
	File : Ni_Test3_IR_02_LSV_C01.mpr
	Directory : C:\Users\volt\Documents\Platalytix\
	Host : 127.0.0.1
Device : SP-200 (SN 0262)
Address : USB
EC-LAB for windows v11.60 (software)
Internet server v11.60 (firmware)
Command interpretor v11.60 (firmware)
Electrode material : Ni
Initial state : 
Electrolyte : KOH (1 M)
Comments : 
Cable : standard
Reference electrode : Hg/HgO (0.140 V)
Electrode surface area : 10.000 cm˛
Characteristic mass : 0.001 g
Equivalent Weight : 0.000 g/eq.
Density : 0.000 g/cm3
Volume (V) : 0.001 cmł
Cycle Definition : Charge/Discharge alternance
tR (h:m:s)          0:00:5.0000         
dER/dt (mV/h)       0.0                 
dER (mV)            0                   
dtR (s)             0.0000              
dE/dt               10.000              
dE/dt unit          mV/s                
Ei (V)              -0.200              
vs.                 Ref                 
EL (V)              -2.500              
vs.                 Ref                 
record              <I>                 
dI                  0.000               
unit dI             µA                  
tI (s)              0.0000              
step percent        50                  
N                   10                  
E range min (V)     -5.000              
E range max (V)     5.000               
I Range             Auto                
I Range min         Unset               
I Range max         Unset               
I Range init        Unset               
Bandwidth           8                   

<I>/mA	Ewe/V	control/V	Rwe/Ohm	time/s	
0.000000000000000E+000	-2.0234683E-001	0.0000000E+000	0.0000000E+000	2.839400134835159E+000
0.000000000000000E+000	-3.6018008E-001	-1.9989306E-001	0.0000000E+000	7.839200008529588E+000
4.674644370873766E-001	-2.0048493E-001	-2.0079285E-001	4.2887741E+002	7.939200006003375E+000
1.258971843522152E-001	-2.0163906E-001	-2.0189290E-001	1.6016169E+003	8.049200003224541E+000
5.542934877991201E-002	-2.0363900E-001	-2.0389290E-001	3.6738479E+003	8.249199998172116E+000
3.851113875732626E-002	-2.0584455E-001	-2.0609288E-001	5.3450654E+003	8.469199992614449E+000
3.027605285467867E-002	-2.0805080E-001	-2.0829290E-001	6.8717939E+003	8.689199987056782E+000
2.556901360025660E-002	-2.1006572E-001	-2.1029288E-001	8.2156367E+003	8.889199982004357E+000
2.216948759005577E-002	-2.1205962E-001	-2.1229289E-001	9.5653818E+003	9.089199976951932E+000
1.960972711233246E-002	-2.1406008E-001	-2.1429290E-001	1.0916016E+004	9.289199971899507E+000
1.756014499302254E-002	-2.1606100E-001	-2.1629287E-001	1.2304056E+004	9.489199966847082E+000
1.589031681899390E-002	-2.1806170E-001	-2.1829288E-001	1.3722930E+004	9.689199961794657E+000
1.448882133987695E-002	-2.2006431E-001	-2.2029291E-001	1.5188559E+004	9.889199956742232E+000
1.329183221273043E-002	-2.2205800E-001	-2.2229289E-001	1.6706350E+004	1.008919995168981E+001
1.227419132175650E-002	-2.2405361E-001	-2.2429287E-001	1.8254043E+004	1.028919994663738E+001
1.135643701288946E-002	-2.2605535E-001	-2.2629291E-001	1.9905482E+004	1.048919994158496E+001
1.051455157561609E-002	-2.2806793E-001	-2.2829287E-001	2.1690695E+004	1.068919993653253E+001
9.813328330152207E-003	-2.3007223E-001	-2.3029289E-001	2.3444873E+004	1.088919993148011E+001
9.147691392525067E-003	-2.3206805E-001	-2.3229289E-001	2.5369029E+004	1.108919992642768E+001
8.566834315654442E-003	-2.3408149E-001	-2.3429288E-001	2.7324152E+004	1.128919992137526E+001
8.042159306886940E-003	-2.3607856E-001	-2.3629288E-001	2.9355121E+004	1.148919991632283E+001
7.519254224602451E-003	-2.3806567E-001	-2.3829289E-001	3.1660809E+004	1.168919991127041E+001
7.112504651280577E-003	-2.4005406E-001	-2.4029289E-001	3.3750988E+004	1.188919990621798E+001
6.666742071264914E-003	-2.4207090E-001	-2.4229288E-001	3.6310223E+004	1.208919990116556E+001
6.270855387037644E-003	-2.4407837E-001	-2.4429290E-001	3.8922660E+004	1.228919989611313E+001
5.903601969964214E-003	-2.4608988E-001	-2.4629289E-001	4.1684699E+004	1.248919989106071E+001
5.580892974205651E-003	-2.4807170E-001	-2.4829288E-001	4.4450180E+004	1.268919988600828E+001
5.254047533518082E-003	-2.5006369E-001	-2.5029290E-001	4.7594484E+004	1.288919988095586E+001
4.966653738696980E-003	-2.5207117E-001	-2.5229287E-001	5.0752719E+004	1.308919987590343E+001
4.694574464430855E-003	-2.5406340E-001	-2.5429291E-001	5.4118516E+004	1.328919987085101E+001
4.428017931778352E-003	-2.5606576E-001	-2.5629288E-001	5.7828527E+004	1.348919986579858E+001
4.181416189664174E-003	-2.5807008E-001	-2.5829288E-001	6.1718344E+004	1.368919986074616E+001
3.955037473310760E-003	-2.6006630E-001	-2.6029289E-001	6.5755711E+004	1.388919985569373E+001
3.719279441361877E-003	-2.6205945E-001	-2.6229286E-001	7.0459734E+004	1.408919985064131E+001
3.487731184115578E-003	-2.6404765E-001	-2.6429287E-001	7.5707570E+004	1.428919984558888E+001
3.312965460978777E-003	-2.6605895E-001	-2.6629287E-001	8.0308398E+004	1.448919984053646E+001
3.102559436064051E-003	-2.6805988E-001	-2.6829290E-001	8.6399594E+004	1.468919983548403E+001
2.914285427880026E-003	-2.7006629E-001	-2.7029291E-001	9.2669813E+004	1.488919983043161E+001
2.761661774042495E-003	-2.7205977E-001	-2.7229291E-001	9.8513063E+004	1.508919982537918E+001
2.609622268359708E-003	-2.7405092E-001	-2.7429289E-001	1.0501555E+005	1.528919982032676E+001
2.440066033008833E-003	-2.7605182E-001	-2.7629289E-001	1.1313293E+005	1.548919981527433E+001
2.280552469285269E-003	-2.7805167E-001	-2.7829289E-001	1.2192295E+005	1.568919981022191E+001
2.152039644366688E-003	-2.8005600E-001	-2.8029290E-001	1.3013515E+005	1.588919980516948E+001
2.002495370442923E-003	-2.8203946E-001	-2.8229287E-001	1.4084400E+005	1.608919980011706E+001
1.855370220106789E-003	-2.8406247E-001	-2.8429288E-001	1.5310286E+005	1.628919979506463E+001
1.735926719119983E-003	-2.8608352E-001	-2.8629288E-001	1.6480161E+005	1.648919979001221E+001
1.612891149155374E-003	-2.8806850E-001	-2.8829288E-001	1.7860381E+005	1.668919978495978E+001
1.476572866572486E-003	-2.9005754E-001	-2.9029289E-001	1.9643970E+005	1.688919977990736E+001
1.383918380978091E-003	-2.9205820E-001	-2.9229289E-001	2.1103716E+005	1.708919977485493E+001
1.243449365624129E-003	-2.9405871E-001	-2.9429287E-001	2.3648628E+005	1.728919976980251E+001
1.140138503215588E-003	-2.9606602E-001	-2.9629290E-001	2.5967548E+005	1.748919976475008E+001
1.035403477868397E-003	-2.9808581E-001	-2.9829288E-001	2.8789338E+005	1.768919975969766E+001
9.254134098205212E-004	-3.0007884E-001	-3.0029288E-001	3.2426463E+005	1.788919975464523E+001
8.411632757931197E-004	-3.0205005E-001	-3.0229288E-001	3.5908613E+005	1.808919974959281E+001
7.250186377682454E-004	-3.0404776E-001	-3.0429289E-001	4.1936544E+005	1.828919974454038E+001
6.470625003847652E-004	-3.0605799E-001	-3.0629289E-001	4.7299603E+005	1.848919973948796E+001
5.378776019234121E-004	-3.0805320E-001	-3.0829290E-001	5.7271988E+005	1.868919973443553E+001
4.632296644019030E-004	-3.1007618E-001	-3.1029290E-001	6.6937894E+005	1.888919972938311E+001
3.550725073494469E-004	-3.1205139E-001	-3.1229290E-001	8.7883850E+005	1.908919972433068E+001
2.594889943946153E-004	-3.1406355E-001	-3.1429291E-001	1.2103155E+006	1.928919971927826E+001
1.705565713452919E-004	-3.1606704E-001	-3.1629291E-001	1.8531508E+006	1.948919971422583E+001
1.091138980081831E-004	-3.1807044E-001	-3.1829289E-001	2.9150315E+006	1.968919970917341E+001
-1.421779100406451E-005	-3.2006881E-001	-3.2029289E-001	2.2511852E+007	1.988919970412098E+001
-3.870231640479922E-005	-3.2204279E-001	-3.2229289E-001	8.3210210E+006	2.008919969906856E+001
-1.727059330063271E-004	-3.2405975E-001	-3.2429290E-001	1.8763673E+006	2.028919969401613E+001
-2.249187181129078E-004	-3.2607004E-001	-3.2629290E-001	1.4497239E+006	2.048919968896371E+001
-3.250841142777322E-004	-3.2807052E-001	-3.2829291E-001	1.0091866E+006	2.068919968391128E+001
-3.895809029024178E-004	-3.3006358E-001	-3.3029291E-001	8.4722731E+005	2.088919967885886E+001
-4.643323217264417E-004	-3.3207873E-001	-3.3229291E-001	7.1517469E+005	2.108919967380643E+001
-5.533115399513787E-004	-3.3406243E-001	-3.3429289E-001	6.0375106E+005	2.128919966875401E+001
-6.122091885063050E-004	-3.3607987E-001	-3.3629286E-001	5.4896244E+005	2.148919966370158E+001
-6.986709971006436E-004	-3.3807424E-001	-3.3829290E-001	4.8388188E+005	2.168919965864916E+001
-7.579509307635490E-004	-3.4007469E-001	-3.4029287E-001	4.4867641E+005	2.188919965359673E+001
-8.347729268913476E-004	-3.4206352E-001	-3.4229288E-001	4.0976834E+005	2.208919964854431E+001
-9.365344058936912E-004	-3.4408203E-001	-3.4429288E-001	3.6739925E+005	2.228919964349188E+001
-1.005330367371613E-003	-3.4607741E-001	-3.4629288E-001	3.4424247E+005	2.248919963843946E+001
-1.067727666836597E-003	-3.4807369E-001	-3.4829292E-001	3.2599481E+005	2.268919963338703E+001
-1.137536695867230E-003	-3.5007691E-001	-3.5029289E-001	3.0775000E+005	2.288919962833461E+001
-1.213956871578829E-003	-3.5207123E-001	-3.5229293E-001	2.9001956E+005	2.308919962328218E+001
-1.317087600351756E-003	-3.5407829E-001	-3.5429290E-001	2.6883428E+005	2.328919961822976E+001
-1.390698773834811E-003	-3.5607922E-001	-3.5629293E-001	2.5604339E+005	2.348919961317733E+001
-1.445250953040987E-003	-3.5806715E-001	-3.5829291E-001	2.4775431E+005	2.368919960812491E+001
-1.533257776213092E-003	-3.6007953E-001	-3.6029288E-001	2.3484605E+005	2.388919960307248E+001
-1.584750679200650E-003	-3.6206961E-001	-3.6229292E-001	2.2847102E+005	2.408919959802006E+001
-1.666554521211373E-003	-3.6408690E-001	-3.6429289E-001	2.1846684E+005	2.428919959296763E+001
-1.724488948903175E-003	-3.6606568E-001	-3.6629289E-001	2.1227488E+005	2.448919958791521E+001
-1.801598368525004E-003	-3.6807191E-001	-3.6829290E-001	2.0430298E+005	2.468919958286278E+001
-1.900996647020727E-003	-3.7006140E-001	-3.7029290E-001	1.9466705E+005	2.488919957781036E+001
-1.933074715601169E-003	-3.7206528E-001	-3.7229288E-001	1.9247330E+005	2.508919957275793E+001
-2.016104309613211E-003	-3.7406763E-001	-3.7429291E-001	1.8553983E+005	2.528919956770551E+001
-2.117218485452252E-003	-3.7605411E-001	-3.7629288E-001	1.7761705E+005	2.548919956265308E+001
-2.179411425227984E-003	-3.7805438E-001	-3.7829286E-001	1.7346628E+005	2.568919955760066E+001
-2.251344999481951E-003	-3.8004681E-001	-3.8029289E-001	1.6880878E+005	2.588919955254823E+001
-2.317218062963932E-003	-3.8205534E-001	-3.8229293E-001	1.6487673E+005	2.608919954749581E+001
-2.424638469514134E-003	-3.8406411E-001	-3.8429290E-001	1.5840056E+005	2.628919954244338E+001
-2.478187884242786E-003	-3.8606268E-001	-3.8629290E-001	1.5578427E+005	2.648919953739096E+001
-2.557966777519086E-003	-3.8804850E-001	-3.8829288E-001	1.5170194E+005	2.668919953233853E+001
-2.618894665130296E-003	-3.9003688E-001	-3.9029291E-001	1.4893188E+005	2.688919952728611E+001
-2.697058686693250E-003	-3.9205310E-001	-3.9229292E-001	1.4536320E+005	2.708919952223368E+001
-2.793415155172133E-003	-3.9404342E-001	-3.9429295E-001	1.4106153E+005	2.728919951718126E+001
-2.888532494603135E-003	-3.9605895E-001	-3.9629290E-001	1.3711425E+005	2.748919951212883E+001
-2.959266732164199E-003	-3.9805540E-001	-3.9829293E-001	1.3451150E+005	2.768919950707641E+001
-3.016414970941982E-003	-4.0005589E-001	-4.0029290E-001	1.3262628E+005	2.788919950202398E+001
-3.114905609760174E-003	-4.0205806E-001	-4.0229294E-001	1.2907552E+005	2.808919949697156E+001
-3.188283329635153E-003	-4.0405217E-001	-4.0429291E-001	1.2673032E+005	2.828919949191913E+001
-3.277293574120412E-003	-4.0606520E-001	-4.0629295E-001	1.2390260E+005	2.848919948686671E+001
-3.365053803131489E-003	-4.0806457E-001	-4.0829292E-001	1.2126539E+005	2.868919948181428E+001
-3.429574566734123E-003	-4.1006210E-001	-4.1029292E-001	1.1956646E+005	2.888919947676186E+001
-3.533293342656271E-003	-4.1207400E-001	-4.1229293E-001	1.1662604E+005	2.908919947170943E+001
-3.610738761684240E-003	-4.1407222E-001	-4.1429293E-001	1.1467798E+005	2.928919946665701E+001
-3.753216853502571E-003	-4.1609281E-001	-4.1629291E-001	1.1086298E+005	2.948919946160458E+001
-3.802376969354745E-003	-4.1809246E-001	-4.1829288E-001	1.0995555E+005	2.968919945655216E+001
-3.903798148298138E-003	-4.2009237E-001	-4.2029291E-001	1.0761120E+005	2.988919945149974E+001
-3.965981263134622E-003	-4.2208835E-001	-4.2229295E-001	1.0642722E+005	3.008919944644731E+001
-4.055854250697266E-003	-4.2409140E-001	-4.2429292E-001	1.0456278E+005	3.028919944139489E+001
-4.158176910559818E-003	-4.2608741E-001	-4.2629290E-001	1.0246977E+005	3.048919943634246E+001
-4.231422199505228E-003	-4.2809805E-001	-4.2829293E-001	1.0117120E+005	3.068919943129004E+001
-4.313516923012061E-003	-4.3008202E-001	-4.3029287E-001	9.9705656E+004	3.088919942623761E+001
-4.419925286529083E-003	-4.3209243E-001	-4.3229291E-001	9.7760117E+004	3.108919942118519E+001
-4.532791274041943E-003	-4.3408254E-001	-4.3429294E-001	9.5764953E+004	3.128919941613276E+001
-4.611966705728207E-003	-4.3608174E-001	-4.3629295E-001	9.4554398E+004	3.148919941108034E+001
-4.713006282308141E-003	-4.3808159E-001	-4.3829289E-001	9.2951625E+004	3.168919940602791E+001
-4.831437454355634E-003	-4.4008169E-001	-4.4029292E-001	9.1087109E+004	3.188919940097549E+001
-4.910322466474222E-003	-4.4208702E-001	-4.4229296E-001	9.0032180E+004	3.208919939592306E+001
-5.010390229461942E-003	-4.4409451E-001	-4.4429290E-001	8.8634711E+004	3.228919939087064E+001
-5.126430493162540E-003	-4.4609243E-001	-4.4629291E-001	8.7018133E+004	3.248919938581821E+001
-5.232899445245031E-003	-4.4808593E-001	-4.4829294E-001	8.5628617E+004	3.268919938076579E+001
-5.322873489358393E-003	-4.5008001E-001	-4.5029292E-001	8.4555836E+004	3.288919937571336E+001
-5.428473108012262E-003	-4.5209667E-001	-4.5229292E-001	8.3282477E+004	3.308919937066094E+001
-5.559415730948397E-003	-4.5408162E-001	-4.5429295E-001	8.1677938E+004	3.328919936560851E+001
-5.645847604843629E-003	-4.5607600E-001	-4.5629293E-001	8.0780781E+004	3.348919936055609E+001
-5.744096006050581E-003	-4.5808196E-001	-4.5829290E-001	7.9748313E+004	3.368919935550366E+001
-5.847292652918806E-003	-4.6007973E-001	-4.6029294E-001	7.8682523E+004	3.388919935045124E+001
-5.951177905457017E-003	-4.6209052E-001	-4.6229297E-001	7.7646898E+004	3.408919934539881E+001
-6.083672471310697E-003	-4.6405861E-001	-4.6429291E-001	7.6279352E+004	3.428919934034639E+001
-6.204587363721384E-003	-4.6607217E-001	-4.6629292E-001	7.5117352E+004	3.448919933529396E+001
-6.296132091837228E-003	-4.6806785E-001	-4.6829292E-001	7.4342125E+004	3.468919933024154E+001
-6.434307844682179E-003	-4.7006732E-001	-4.7029293E-001	7.3056391E+004	3.488919932518911E+001
-6.550170701694558E-003	-4.7205803E-001	-4.7229293E-001	7.2068047E+004	3.508919932013669E+001
-6.677796288742960E-003	-4.7406015E-001	-4.7429293E-001	7.0990508E+004	3.528919931508426E+001
-6.793701111235022E-003	-4.7606146E-001	-4.7629294E-001	7.0073945E+004	3.548919931003184E+001
-6.891088321981376E-003	-4.7805202E-001	-4.7829291E-001	6.9372500E+004	3.568919930497941E+001
-7.059819914919031E-003	-4.8007053E-001	-4.8029289E-001	6.8000391E+004	3.588919929992699E+001
-7.166765255987105E-003	-4.8208100E-001	-4.8229292E-001	6.7266188E+004	3.608919929487456E+001
-7.279275372123355E-003	-4.8405728E-001	-4.8429289E-001	6.6498000E+004	3.628919928982214E+001
-7.416076623056475E-003	-4.8606092E-001	-4.8629290E-001	6.5541516E+004	3.648919928476971E+001
-7.542832932013160E-003	-4.8807180E-001	-4.8829293E-001	6.4706695E+004	3.668919927971729E+001
-7.687956263953216E-003	-4.9006617E-001	-4.9029294E-001	6.3744660E+004	3.688919927466486E+001
-7.774697874539160E-003	-4.9207935E-001	-4.9229288E-001	6.3292406E+004	3.708919926961244E+001
-7.924114376657101E-003	-4.9406224E-001	-4.9429291E-001	6.2349207E+004	3.728919926456001E+001
-8.069899932073743E-003	-4.9607140E-001	-4.9629295E-001	6.1471816E+004	3.748919925950759E+001
-8.185488879804678E-003	-4.9806491E-001	-4.9829292E-001	6.0847301E+004	3.768919925445516E+001
-8.317254373224017E-003	-5.0005925E-001	-5.0029290E-001	6.0123117E+004	3.788919924940274E+001
-8.490789657914827E-003	-5.0207454E-001	-5.0229293E-001	5.9131668E+004	3.808919924435031E+001
-8.606322992383425E-003	-5.0407869E-001	-5.0429291E-001	5.8570738E+004	3.828919923929789E+001
-8.762544827602262E-003	-5.0607997E-001	-5.0629294E-001	5.7754906E+004	3.848919923424546E+001
-8.918404303897148E-003	-5.0806314E-001	-5.0829291E-001	5.6967941E+004	3.868919922919304E+001
-9.070950427687616E-003	-5.1005805E-001	-5.1029295E-001	5.6229836E+004	3.888919922414061E+001
-9.218810836622446E-003	-5.1206279E-001	-5.1229292E-001	5.5545426E+004	3.908919921908819E+001
-9.372040308056856E-003	-5.1408130E-001	-5.1429290E-001	5.4852656E+004	3.928919921403576E+001
-9.499010608899523E-003	-5.1606119E-001	-5.1629299E-001	5.4327887E+004	3.948919920898334E+001
-9.635205441532076E-003	-5.1806062E-001	-5.1829290E-001	5.3767469E+004	3.968919920393091E+001
-9.811585881116927E-003	-5.2004772E-001	-5.2029288E-001	5.3003434E+004	3.988919919887849E+001
-9.972125538052046E-003	-5.2207816E-001	-5.2229291E-001	5.2353750E+004	4.008919919382606E+001
-1.011236456511624E-002	-5.2407354E-001	-5.2429295E-001	5.1825023E+004	4.028919918877364E+001
-1.029047472302147E-002	-5.2607489E-001	-5.2629298E-001	5.1122508E+004	4.048919918372121E+001
-1.043726114728837E-002	-5.2807301E-001	-5.2829289E-001	5.0594980E+004	4.068919917866879E+001
-1.059192962521607E-002	-5.3006542E-001	-5.3029293E-001	5.0044273E+004	4.088919917361636E+001
-1.077370898895252E-002	-5.3206736E-001	-5.3229296E-001	4.9385719E+004	4.108919916856394E+001
-1.093520450886487E-002	-5.3406537E-001	-5.3429288E-001	4.8839082E+004	4.128919916351151E+001
-1.107704501571100E-002	-5.3606898E-001	-5.3629291E-001	4.8394582E+004	4.148919915845909E+001
-1.127224098124158E-002	-5.3806376E-001	-5.3829294E-001	4.7733523E+004	4.168919915340666E+001
-1.144817883742483E-002	-5.4008526E-001	-5.4029292E-001	4.7176523E+004	4.188919914835424E+001
-1.159581475247851E-002	-5.4208511E-001	-5.4229295E-001	4.6748340E+004	4.208919914330181E+001
-1.177106012914664E-002	-5.4408836E-001	-5.4429293E-001	4.6222547E+004	4.228919913824939E+001
-1.193268450590534E-002	-5.4609215E-001	-5.4629296E-001	4.5764402E+004	4.248919913319696E+001
-1.211042355987840E-002	-5.4808933E-001	-5.4829293E-001	4.5257652E+004	4.268919912814454E+001
-1.231437352897234E-002	-5.5008513E-001	-5.5029291E-001	4.4670168E+004	4.288919912309211E+001
-1.247570800617165E-002	-5.5208004E-001	-5.5229294E-001	4.4252402E+004	4.308919911803969E+001
-1.264862593909086E-002	-5.5408275E-001	-5.5429286E-001	4.3805766E+004	4.328919911298726E+001
-1.281058382865385E-002	-5.5608058E-001	-5.5629295E-001	4.3407902E+004	4.348919910793484E+001
-1.299937943032520E-002	-5.5807364E-001	-5.5829298E-001	4.2930789E+004	4.368919910288241E+001
-1.318903088193734E-002	-5.6009072E-001	-5.6029296E-001	4.2466406E+004	4.388919909782999E+001
-1.338162956613614E-002	-5.6208032E-001	-5.6229293E-001	4.2003879E+004	4.408919909277756E+001
-1.357765929628793E-002	-5.6408644E-001	-5.6429291E-001	4.1545191E+004	4.428919908772514E+001
-1.374090314909288E-002	-5.6608224E-001	-5.6629300E-001	4.1196871E+004	4.448919908267271E+001
-1.395526384080015E-002	-5.6806636E-001	-5.6829286E-001	4.0706242E+004	4.468919907762029E+001
-1.413986954509119E-002	-5.7007110E-001	-5.7029289E-001	4.0316574E+004	4.488919907256786E+001
-1.430668555835762E-002	-5.7207030E-001	-5.7229298E-001	3.9986223E+004	4.508919906751544E+001
-1.446939636427853E-002	-5.7406801E-001	-5.7429290E-001	3.9674633E+004	4.528919906246301E+001
-1.468078389102834E-002	-5.7605803E-001	-5.7629293E-001	3.9238914E+004	4.548919905741059E+001
-1.490260332085236E-002	-5.7807553E-001	-5.7829291E-001	3.8790238E+004	4.568919905235816E+001
-1.510227412722431E-002	-5.8007813E-001	-5.8029300E-001	3.8409984E+004	4.588919904730574E+001
-1.529042102893297E-002	-5.8207715E-001	-5.8229291E-001	3.8068090E+004	4.608919904225331E+001
-1.550616270861471E-002	-5.8407378E-001	-5.8429295E-001	3.7667203E+004	4.628919903720089E+001
-1.569005317973868E-002	-5.8607239E-001	-5.8629298E-001	3.7353117E+004	4.648919903214846E+001
-1.587928303101899E-002	-5.8807355E-001	-5.8829290E-001	3.7034012E+004	4.668919902709604E+001
-1.609718832417012E-002	-5.9008414E-001	-5.9029293E-001	3.6657590E+004	4.688919902204361E+001
-1.629935701965313E-002	-5.9206891E-001	-5.9229296E-001	3.6324680E+004	4.708919901699119E+001
-1.652694690382307E-002	-5.9407753E-001	-5.9429294E-001	3.5945992E+004	4.728919901193876E+001
-1.672532770963802E-002	-5.9607750E-001	-5.9629291E-001	3.5639211E+004	4.748919900688634E+001
-1.694250248159787E-002	-5.9807462E-001	-5.9829289E-001	3.5300254E+004	4.768919900183391E+001
-1.715920547545047E-002	-6.0006875E-001	-6.0029298E-001	3.4970660E+004	4.788919899678149E+001
-1.735789934846377E-002	-6.0207814E-001	-6.0229290E-001	3.4686117E+004	4.808919899172906E+001
-1.756682982702597E-002	-6.0408539E-001	-6.0429287E-001	3.4387844E+004	4.828919898667664E+001
-1.775767514072976E-002	-6.0608637E-001	-6.0629296E-001	3.4130953E+004	4.848919898162421E+001
-1.799292677629082E-002	-6.0807574E-001	-6.0829288E-001	3.3795266E+004	4.868919897657179E+001
-1.820353434242675E-002	-6.1009556E-001	-6.1029291E-001	3.3515227E+004	4.888919897151936E+001
-1.842603035209922E-002	-6.1210096E-001	-6.1229289E-001	3.3219359E+004	4.908919896646694E+001
-1.860010286789415E-002	-6.1409181E-001	-6.1429292E-001	3.3015508E+004	4.928919896141451E+001
-1.886933422943077E-002	-6.1609674E-001	-6.1629289E-001	3.2650688E+004	4.948919895636209E+001
-1.903429767618464E-002	-6.1811006E-001	-6.1829293E-001	3.2473488E+004	4.968919895130966E+001
-1.927765226796743E-002	-6.2009948E-001	-6.2029296E-001	3.2166754E+004	4.988919894625724E+001
-1.950670271750771E-002	-6.2211394E-001	-6.2229294E-001	3.1892316E+004	5.008919894120481E+001
-1.971295806951501E-002	-6.2410575E-001	-6.2429291E-001	3.1659670E+004	5.028919893615239E+001
-1.990627835540615E-002	-6.2608886E-001	-6.2629294E-001	3.1451828E+004	5.048919893109996E+001
-2.016752947712115E-002	-6.2810928E-001	-6.2829298E-001	3.1144582E+004	5.068919892604754E+001
-2.037737482106483E-002	-6.3009971E-001	-6.3029295E-001	3.0921535E+004	5.088919892099511E+001
-2.057117724285912E-002	-6.3211405E-001	-6.3229293E-001	3.0728143E+004	5.108919891594269E+001
-2.081516942393686E-002	-6.3410646E-001	-6.3429296E-001	3.0463670E+004	5.128919891089026E+001
-2.103260132104537E-002	-6.3610631E-001	-6.3629293E-001	3.0243824E+004	5.148919890583784E+001
-2.127960500837454E-002	-6.3810992E-001	-6.3829291E-001	2.9986926E+004	5.168919890078541E+001
-2.147497670976301E-002	-6.4010638E-001	-6.4029294E-001	2.9807082E+004	5.188919889573299E+001
-2.172647874914285E-002	-6.4211327E-001	-6.4229298E-001	2.9554410E+004	5.208919889068056E+001
-2.193575974658368E-002	-6.4411521E-001	-6.4429289E-001	2.9363707E+004	5.228919888562814E+001
-2.215494873406598E-002	-6.4611268E-001	-6.4629292E-001	2.9163357E+004	5.248919888057571E+001
-2.238618846929397E-002	-6.4811891E-001	-6.4829296E-001	2.8951730E+004	5.268919887552329E+001
-2.260769424707110E-002	-6.5010291E-001	-6.5029293E-001	2.8755826E+004	5.288919887047086E+001
-2.285239445953688E-002	-6.5210271E-001	-6.5229291E-001	2.8535422E+004	5.308919886541844E+001
-2.306819576155000E-002	-6.5410662E-001	-6.5429294E-001	2.8355344E+004	5.328919886036601E+001
-2.328708344413699E-002	-6.5610027E-001	-6.5629297E-001	2.8174430E+004	5.348919885531359E+001
-2.350602464635840E-002	-6.5811372E-001	-6.5829289E-001	2.7997662E+004	5.368919885026116E+001
-2.374217547650515E-002	-6.6010165E-001	-6.6029292E-001	2.7802914E+004	5.388919884520874E+001
-2.400584793739363E-002	-6.6211319E-001	-6.6229296E-001	2.7581328E+004	5.408919884015631E+001
-2.421676806771333E-002	-6.6411561E-001	-6.6429287E-001	2.7423791E+004	5.428919883510389E+001
-2.445821668395706E-002	-6.6610253E-001	-6.6629297E-001	2.7234305E+004	5.448919883005146E+001
-2.468923027727477E-002	-6.6809362E-001	-6.6829294E-001	2.7060123E+004	5.468919882499904E+001
-2.492438974080693E-002	-6.7009026E-001	-6.7029297E-001	2.6884922E+004	5.488919881994661E+001
-2.514793211119071E-002	-6.7210388E-001	-6.7229289E-001	2.6726010E+004	5.508919881489419E+001
-2.538735677050985E-002	-6.7408615E-001	-6.7429292E-001	2.6552041E+004	5.528919880984176E+001
-2.562642744040144E-002	-6.7607772E-001	-6.7629302E-001	2.6382051E+004	5.548919880478934E+001
-2.585904339308343E-002	-6.7810011E-001	-6.7829287E-001	2.6222939E+004	5.568919879973691E+001
-2.611149847929849E-002	-6.8011701E-001	-6.8029290E-001	2.6046648E+004	5.588919879468449E+001
-2.633963225096814E-002	-6.8210632E-001	-6.8229300E-001	2.5896576E+004	5.608919878963206E+001
-2.656367594928453E-002	-6.8410450E-001	-6.8429291E-001	2.5753383E+004	5.628919878457964E+001
-2.683205074654971E-002	-6.8608320E-001	-6.8629289E-001	2.5569541E+004	5.648919877952721E+001
-2.706439696044333E-002	-6.8809950E-001	-6.8829292E-001	2.5424527E+004	5.668919877447479E+001
-2.730631917982218E-002	-6.9009674E-001	-6.9029301E-001	2.5272418E+004	5.688919876942236E+001
-2.755805351977314E-002	-6.9208097E-001	-6.9229293E-001	2.5113564E+004	5.708919876436994E+001
-2.781998224228052E-002	-6.9409651E-001	-6.9429290E-001	2.4949566E+004	5.728919875931751E+001
-2.806736361430733E-002	-6.9609571E-001	-6.9629300E-001	2.4800895E+004	5.748919875426509E+001
-2.832061004145980E-002	-6.9811493E-001	-6.9829291E-001	2.4650420E+004	5.768919874921266E+001
-2.858145305619716E-002	-7.0007741E-001	-7.0029294E-001	2.4494115E+004	5.788919874416024E+001
-2.884460324310661E-002	-7.0208681E-001	-7.0229298E-001	2.4340318E+004	5.808919873910781E+001
-2.908755476716406E-002	-7.0408028E-001	-7.0429295E-001	2.4205551E+004	5.828919873405539E+001
-2.936738727602656E-002	-7.0610476E-001	-7.0629293E-001	2.4043840E+004	5.848919872900296E+001
-2.964521300542838E-002	-7.0811856E-001	-7.0829290E-001	2.3886439E+004	5.868919872395054E+001
-2.990132187389662E-002	-7.1011591E-001	-7.1029305E-001	2.3748646E+004	5.888919871889811E+001
-3.016230587234037E-002	-7.1208435E-001	-7.1229297E-001	2.3608418E+004	5.908919871384569E+001
-3.041971394371934E-002	-7.1408480E-001	-7.1429294E-001	2.3474408E+004	5.928919870879326E+001
-3.072575539405420E-002	-7.1610415E-001	-7.1629298E-001	2.3306316E+004	5.948919870374084E+001
-3.099478201918478E-002	-7.1809703E-001	-7.1829289E-001	2.3168320E+004	5.968919869868841E+001
-3.129451031413349E-002	-7.2009873E-001	-7.2029299E-001	2.3010385E+004	5.988919869363599E+001
-3.157831064574290E-002	-7.2210985E-001	-7.2229296E-001	2.2867273E+004	6.008919868858356E+001
-3.186592188808446E-002	-7.2408319E-001	-7.2429305E-001	2.2722807E+004	6.028919868353114E+001
-3.214059283644333E-002	-7.2610718E-001	-7.2629291E-001	2.2591592E+004	6.048919867847872E+001
-3.244483950568999E-002	-7.2808951E-001	-7.2829288E-001	2.2440842E+004	6.068919867342629E+001
-3.274470905914820E-002	-7.3008907E-001	-7.3029298E-001	2.2296398E+004	6.088919866837387E+001
-3.303590357063912E-002	-7.3208892E-001	-7.3229295E-001	2.2160402E+004	6.108919866332144E+001
-3.337074188270561E-002	-7.3409259E-001	-7.3429292E-001	2.1998090E+004	6.128919865826902E+001
-3.365898988755578E-002	-7.3609990E-001	-7.3629296E-001	2.1869340E+004	6.148919865321659E+001
-3.398441998768487E-002	-7.3809397E-001	-7.3829299E-001	2.1718598E+004	6.168919864816417E+001
-3.432467084112967E-002	-7.4011099E-001	-7.4029291E-001	2.1562070E+004	6.188919864311174E+001
-3.464681543795234E-002	-7.4209875E-001	-7.4229294E-001	2.1418959E+004	6.208919863805932E+001
-3.499507050815531E-002	-7.4408144E-001	-7.4429303E-001	2.1262465E+004	6.228919863300689E+001
-3.533740691199709E-002	-7.4610591E-001	-7.4629295E-001	2.1113771E+004	6.248919862795447E+001
-3.567673521229364E-002	-7.4809092E-001	-7.4829292E-001	2.0968592E+004	6.268919862290204E+001
-3.602569591192745E-002	-7.5009876E-001	-7.5029296E-001	2.0821215E+004	6.288919861784962E+001
-3.640620136008421E-002	-7.5207973E-001	-7.5229299E-001	2.0658012E+004	6.308919861279719E+001
-3.680646451017991E-002	-7.5407410E-001	-7.5429296E-001	2.0487545E+004	6.328919860774477E+001
-3.720844081468883E-002	-7.5608498E-001	-7.5629294E-001	2.0320254E+004	6.348919860269234E+001
-3.753398083173642E-002	-7.5808507E-001	-7.5829303E-001	2.0197301E+004	6.368919859763992E+001
-3.793247822379647E-002	-7.6009482E-001	-7.6029301E-001	2.0038102E+004	6.388919859258749E+001
-3.833073002308420E-002	-7.6207912E-001	-7.6229286E-001	1.9881676E+004	6.408919858753507E+001
-3.873704033222705E-002	-7.6408982E-001	-7.6429296E-001	1.9725043E+004	6.428919858248264E+001
-3.917288405149157E-002	-7.6608729E-001	-7.6629293E-001	1.9556570E+004	6.448919857743022E+001
-3.959279113143994E-002	-7.6809973E-001	-7.6829290E-001	1.9399990E+004	6.468919857237779E+001
-4.001734886094588E-002	-7.7008009E-001	-7.7029300E-001	1.9243656E+004	6.488919856732537E+001
-4.047987179708179E-002	-7.7207756E-001	-7.7229297E-001	1.9073123E+004	6.508919856227294E+001
-4.093914475585503E-002	-7.7407449E-001	-7.7429289E-001	1.8907930E+004	6.528919855722052E+001
-4.141320763689071E-002	-7.7608126E-001	-7.7629292E-001	1.8739945E+004	6.548919855216809E+001
-4.190484901849001E-002	-7.7808595E-001	-7.7829301E-001	1.8567922E+004	6.568919854711567E+001
-4.241570862867522E-002	-7.8009266E-001	-7.8029299E-001	1.8391598E+004	6.588919854206324E+001
-4.292976910162877E-002	-7.8208339E-001	-7.8229296E-001	1.8217740E+004	6.608919853701082E+001
-4.347009359396403E-002	-7.8409874E-001	-7.8429300E-001	1.8037660E+004	6.628919853195839E+001
-4.400037837905346E-002	-7.8607017E-001	-7.8629303E-001	1.7865078E+004	6.648919852690597E+001
-4.455205773044585E-002	-7.8807569E-001	-7.8829294E-001	1.7688873E+004	6.668919852185354E+001
-4.514201202027546E-002	-7.9007667E-001	-7.9029292E-001	1.7502025E+004	6.688919851680112E+001
-4.574756664720234E-002	-7.9205501E-001	-7.9229307E-001	1.7313600E+004	6.708919851174869E+001
-4.637160561234391E-002	-7.9407698E-001	-7.9429305E-001	1.7124207E+004	6.728919850669627E+001
-4.702095868849443E-002	-7.9609334E-001	-7.9629296E-001	1.6930605E+004	6.748919850164384E+001
-4.765545942766741E-002	-7.9808265E-001	-7.9829299E-001	1.6746930E+004	6.768919849659142E+001
-4.835897777071169E-002	-8.0007195E-001	-8.0029303E-001	1.6544436E+004	6.788919849153899E+001
-4.907121713053608E-002	-8.0206531E-001	-8.0229288E-001	1.6344924E+004	6.808919848648657E+001
-4.981054062427126E-002	-8.0407500E-001	-8.0429298E-001	1.6142668E+004	6.828919848143414E+001
-5.054473946274346E-002	-8.0605841E-001	-8.0629307E-001	1.5947424E+004	6.848919847638172E+001
-5.132325998319498E-002	-8.0806869E-001	-8.0829293E-001	1.5744688E+004	6.868919847132929E+001
-5.213864156110480E-002	-8.1009841E-001	-8.1029302E-001	1.5537390E+004	6.888919846627687E+001
-5.298746284678196E-002	-8.1208497E-001	-8.1229299E-001	1.5325983E+004	6.908919846122444E+001
-5.385093503819627E-002	-8.1408560E-001	-8.1429297E-001	1.5117391E+004	6.928919845617202E+001
-5.475055955322972E-002	-8.1607825E-001	-8.1629294E-001	1.4905387E+004	6.948919845111959E+001
-5.568493384278694E-002	-8.1806803E-001	-8.1829298E-001	1.4691012E+004	6.968919844606717E+001
-5.668457037539065E-002	-8.2009435E-001	-8.2029307E-001	1.4467683E+004	6.988919844101474E+001
-5.765162482319186E-002	-8.2208711E-001	-8.2229298E-001	1.4259565E+004	7.008919843596232E+001
-5.869733021159540E-002	-8.2409656E-001	-8.2429290E-001	1.4039763E+004	7.028919843090989E+001
-5.976166780837433E-002	-8.2607979E-001	-8.2629305E-001	1.3822904E+004	7.048919842585747E+001
-6.085875880315295E-002	-8.2809049E-001	-8.2829303E-001	1.3606760E+004	7.068919842080504E+001
-6.201578643333491E-002	-8.3007789E-001	-8.3029294E-001	1.3384945E+004	7.088919841575262E+001
-6.326679748803954E-002	-8.3208108E-001	-8.3229297E-001	1.3151939E+004	7.108919841070019E+001
-6.447405358216786E-002	-8.3410209E-001	-8.3429301E-001	1.2937020E+004	7.128919840564777E+001
-6.577991754769075E-002	-8.3609945E-001	-8.3629298E-001	1.2710558E+004	7.148919840059534E+001
-6.710017289092030E-002	-8.3808172E-001	-8.3829296E-001	1.2490009E+004	7.168919839554292E+001
-6.852317540146086E-002	-8.4009594E-001	-8.4029305E-001	1.2260026E+004	7.188919839049049E+001
-6.995674170439664E-002	-8.4210145E-001	-8.4229290E-001	1.2037460E+004	7.208919838543807E+001
-7.144569006881563E-002	-8.4409690E-001	-8.4429300E-001	1.1814525E+004	7.228919838038564E+001
-7.300976684946331E-002	-8.4611326E-001	-8.4629297E-001	1.1589042E+004	7.248919837533322E+001
-7.461466635535155E-002	-8.4810168E-001	-8.4829295E-001	1.1366421E+004	7.268919837028079E+001
-7.629401114285672E-002	-8.5010785E-001	-8.5029304E-001	1.1142524E+004	7.288919836522837E+001
-7.802603880625592E-002	-8.5209990E-001	-8.5229295E-001	1.0920712E+004	7.308919836017594E+001
-7.982845755363654E-002	-8.5411119E-001	-8.5429311E-001	1.0699332E+004	7.328919835512352E+001
-8.170552444834334E-002	-8.5611308E-001	-8.5629296E-001	1.0478031E+004	7.348919835007109E+001
-8.363990593055382E-002	-8.5811871E-001	-8.5829288E-001	1.0259681E+004	7.368919834501867E+001
-8.563633224253212E-002	-8.6010534E-001	-8.6029303E-001	1.0043696E+004	7.388919833996624E+001
-8.774679724249546E-002	-8.6209905E-001	-8.6229300E-001	9.8248496E+003	7.408919833491382E+001
-8.991869799887842E-002	-8.6410874E-001	-8.6429298E-001	9.6098896E+003	7.428919832986139E+001
-9.214799215092151E-002	-8.6608452E-001	-8.6629301E-001	9.3988428E+003	7.448919832480897E+001
-9.450206570190067E-002	-8.6811268E-001	-8.6829299E-001	9.1861768E+003	7.468919831975654E+001
-9.704624463550005E-002	-8.7020016E-001	-8.7039310E-001	8.9668604E+003	7.489919831445150E+001
-9.983751446097422E-002	-8.7228340E-001	-8.7249297E-001	8.7370303E+003	7.510919830914645E+001
-1.024022779676664E-001	-8.7426949E-001	-8.7449312E-001	8.5375977E+003	7.530919830409402E+001
-1.051233570923493E-001	-8.7625498E-001	-8.7649298E-001	8.3354932E+003	7.550919829904160E+001
-1.079746390293752E-001	-8.7825274E-001	-8.7849289E-001	8.1338799E+003	7.570919829398918E+001
-1.109014974913379E-001	-8.8027555E-001	-8.8049304E-001	7.9374541E+003	7.590919828893675E+001
-1.139648539043723E-001	-8.8226944E-001	-8.8249302E-001	7.7415923E+003	7.610919828388433E+001
-1.171392246620422E-001	-8.8425660E-001	-8.8449299E-001	7.5487661E+003	7.630919827883190E+001
-1.204312938632954E-001	-8.8627362E-001	-8.8649303E-001	7.3591641E+003	7.650919827377948E+001
-1.238578902177361E-001	-8.8826340E-001	-8.8849300E-001	7.1716338E+003	7.670919826872705E+001
-1.273330779695496E-001	-8.9027035E-001	-8.9049298E-001	6.9916660E+003	7.690919826367463E+001
-1.310244470617210E-001	-8.9226234E-001	-8.9249295E-001	6.8098921E+003	7.710919825862220E+001
-1.348167169530812E-001	-8.9426917E-001	-8.9449304E-001	6.6332217E+003	7.730919825356978E+001
-1.387341783092674E-001	-8.9626044E-001	-8.9649302E-001	6.4602715E+003	7.750919824851735E+001
-1.428586073587232E-001	-8.9828908E-001	-8.9849299E-001	6.2879590E+003	7.770919824346493E+001
-1.470976867533524E-001	-9.0029120E-001	-9.0049303E-001	6.1203628E+003	7.790919823841250E+001
-1.514009783211292E-001	-9.0226364E-001	-9.0249294E-001	5.9594307E+003	7.810919823336008E+001
-1.559391363044518E-001	-9.0426993E-001	-9.0449303E-001	5.7988647E+003	7.830919822830765E+001
-1.605972195056821E-001	-9.0629888E-001	-9.0649301E-001	5.6433037E+003	7.850919822325523E+001
-1.653577988711766E-001	-9.0826988E-001	-9.0849310E-001	5.4927549E+003	7.870919821820280E+001
-1.702723044082690E-001	-9.1027832E-001	-9.1049308E-001	5.3460151E+003	7.890919821315038E+001
-1.754047961445222E-001	-9.1228634E-001	-9.1249299E-001	5.2010342E+003	7.910919820809795E+001
-1.813104912773822E-001	-9.1427606E-001	-9.1449302E-001	5.0425986E+003	7.930919820304553E+001
-1.866360512021457E-001	-9.1628373E-001	-9.1649300E-001	4.9094683E+003	7.950919819799310E+001
-1.921103973809601E-001	-9.1828233E-001	-9.1849297E-001	4.7799722E+003	7.970919819294068E+001
-1.976952345623659E-001	-9.2028248E-001	-9.2049301E-001	4.6550566E+003	7.990919818788825E+001
-2.034119919001585E-001	-9.2228353E-001	-9.2249304E-001	4.5340669E+003	8.010919818283583E+001
-2.091575043504044E-001	-9.2428994E-001	-9.2449301E-001	4.4191099E+003	8.030919817778340E+001
-2.151154615597433E-001	-9.2629725E-001	-9.2649293E-001	4.3060469E+003	8.050919817273098E+001
-2.210345180164559E-001	-9.2828172E-001	-9.2849302E-001	4.1997139E+003	8.070919816767855E+001
-2.270954790316067E-001	-9.3030095E-001	-9.3049300E-001	4.0965190E+003	8.090919816262613E+001
-2.332507093815039E-001	-9.3227369E-001	-9.3249297E-001	3.9968740E+003	8.110919815757370E+001
-2.394112002172095E-001	-9.3427241E-001	-9.3449306E-001	3.9023755E+003	8.130919815252128E+001
-2.457183970058185E-001	-9.3629706E-001	-9.3649304E-001	3.8104475E+003	8.150919814746885E+001
-2.520027480630918E-001	-9.3827444E-001	-9.3849301E-001	3.7232708E+003	8.170919814241643E+001
-2.584276469656663E-001	-9.4028473E-001	-9.4049299E-001	3.6384834E+003	8.190919813736400E+001
-2.649160103276884E-001	-9.4229269E-001	-9.4249308E-001	3.5569487E+003	8.210919813231158E+001
-2.714565923234740E-001	-9.4426847E-001	-9.4449306E-001	3.4785247E+003	8.230919812725915E+001
-2.781947233509310E-001	-9.4628382E-001	-9.4649297E-001	3.4015161E+003	8.250919812220673E+001
-2.849397436185583E-001	-9.4826728E-001	-9.4849300E-001	3.3279573E+003	8.270919811715430E+001
-2.918869541818596E-001	-9.5028394E-001	-9.5049310E-001	3.2556575E+003	8.290919811210188E+001
-2.989223590310741E-001	-9.5229179E-001	-9.5249295E-001	3.1857495E+003	8.310919810704945E+001
-3.060982730366337E-001	-9.5428312E-001	-9.5449299E-001	3.1175710E+003	8.330919810199703E+001
-3.135343173396290E-001	-9.5628583E-001	-9.5649302E-001	3.0500198E+003	8.350919809694460E+001
-3.211032805411063E-001	-9.5829815E-001	-9.5849299E-001	2.9843923E+003	8.370919809189218E+001
-3.289695377429948E-001	-9.6028900E-001	-9.6049297E-001	2.9190818E+003	8.390919808683975E+001
-3.370064822956926E-001	-9.6228653E-001	-9.6249300E-001	2.8553948E+003	8.410919808178733E+001
-3.452689960269499E-001	-9.6429116E-001	-9.6449298E-001	2.7928691E+003	8.430919807673490E+001
-3.537522236290735E-001	-9.6629089E-001	-9.6649295E-001	2.7315471E+003	8.450919807168248E+001
-3.625264314157466E-001	-9.6829093E-001	-9.6849304E-001	2.6709526E+003	8.470919806663005E+001
-3.713766258345101E-001	-9.7027981E-001	-9.7049302E-001	2.6126572E+003	8.490919806157763E+001
-3.820210832283060E-001	-9.7226948E-001	-9.7249299E-001	2.5450676E+003	8.510919805652520E+001
-3.914125507756601E-001	-9.7430217E-001	-9.7449297E-001	2.4891951E+003	8.530919805147278E+001
-4.007028439451759E-001	-9.7628218E-001	-9.7649306E-001	2.4364243E+003	8.550919804642035E+001
-4.103013576766508E-001	-9.7825271E-001	-9.7849309E-001	2.3842297E+003	8.570919804136793E+001
-4.201149358002307E-001	-9.8026997E-001	-9.8049301E-001	2.3333376E+003	8.590919803631550E+001
-4.299840806706738E-001	-9.8226559E-001	-9.8249298E-001	2.2844231E+003	8.610919803126308E+001
-4.399705428689273E-001	-9.8428285E-001	-9.8449308E-001	2.2371563E+003	8.630919802621065E+001
-4.500581966480772E-001	-9.8627830E-001	-9.8649293E-001	2.1914460E+003	8.650919802115823E+001
-4.601619100227703E-001	-9.8827380E-001	-9.8849297E-001	2.1476653E+003	8.670919801610580E+001
-4.703994249658914E-001	-9.9027413E-001	-9.9049300E-001	2.1051772E+003	8.690919801105338E+001
-4.805924466255709E-001	-9.9228668E-001	-9.9249297E-001	2.0647156E+003	8.710919800600095E+001
-4.908868735719505E-001	-9.9427956E-001	-9.9449301E-001	2.0254760E+003	8.730919800094853E+001
-5.010418257298039E-001	-9.9626207E-001	-9.9649298E-001	1.9883811E+003	8.750919799589610E+001
-5.112353723639842E-001	-9.9827456E-001	-9.9849296E-001	1.9526711E+003	8.770919799084368E+001
-5.213722595797179E-001	-1.0003065E+000	-1.0004930E+000	1.9186031E+003	8.790919798579125E+001
-5.314301346088666E-001	-1.0022795E+000	-1.0024929E+000	1.8860043E+003	8.810919798073883E+001
-5.415866877841449E-001	-1.0042847E+000	-1.0044929E+000	1.8543379E+003	8.830919797568640E+001
-5.517322580644759E-001	-1.0062977E+000	-1.0064930E+000	1.8238877E+003	8.850919797063398E+001
-5.617487261160488E-001	-1.0082766E+000	-1.0084929E+000	1.7948889E+003	8.870919796558155E+001
-5.722762404385611E-001	-1.0102943E+000	-1.0104930E+000	1.7653962E+003	8.890919796052913E+001
-5.836610672636429E-001	-1.0122859E+000	-1.0124930E+000	1.7343729E+003	8.910919795547670E+001
-5.936525286916563E-001	-1.0142906E+000	-1.0144930E+000	1.7085593E+003	8.930919795042428E+001
-6.033951481825355E-001	-1.0162703E+000	-1.0164930E+000	1.6842533E+003	8.950919794537185E+001
-6.131694417049856E-001	-1.0182732E+000	-1.0184931E+000	1.6606719E+003	8.970919794031943E+001
-6.230014632888929E-001	-1.0202855E+000	-1.0204929E+000	1.6376936E+003	8.990919793526700E+001
-6.329202806522183E-001	-1.0222652E+000	-1.0224930E+000	1.6151564E+003	9.010919793021458E+001
-6.426206692597081E-001	-1.0242801E+000	-1.0244930E+000	1.5939109E+003	9.030919792516215E+001
-6.525328935603358E-001	-1.0262802E+000	-1.0264930E+000	1.5727639E+003	9.050919792010973E+001
-6.622018150757163E-001	-1.0283047E+000	-1.0284930E+000	1.5528569E+003	9.070919791505730E+001
-6.718914335268327E-001	-1.0302750E+000	-1.0304930E+000	1.5333950E+003	9.090919791000488E+001
-6.816980343886447E-001	-1.0322944E+000	-1.0324930E+000	1.5142986E+003	9.110919790495245E+001
-6.914724181627947E-001	-1.0342903E+000	-1.0344930E+000	1.4957795E+003	9.130919789990003E+001
-7.012571564657994E-001	-1.0362803E+000	-1.0364929E+000	1.4777465E+003	9.150919789484760E+001
-7.113116630089067E-001	-1.0382897E+000	-1.0384930E+000	1.4596832E+003	9.170919788979518E+001
-7.213006096716779E-001	-1.0402849E+000	-1.0404930E+000	1.4422349E+003	9.190919788474275E+001
-7.313026474860624E-001	-1.0422884E+000	-1.0424930E+000	1.4252490E+003	9.210919787969033E+001
-7.416601882880061E-001	-1.0442894E+000	-1.0444930E+000	1.4080428E+003	9.230919787463790E+001
-7.518139058964817E-001	-1.0462825E+000	-1.0464931E+000	1.3916775E+003	9.250919786958548E+001
-7.621726055382485E-001	-1.0482848E+000	-1.0484930E+000	1.3753903E+003	9.270919786453305E+001
-7.738128565125102E-001	-1.0502818E+000	-1.0504931E+000	1.3572814E+003	9.290919785948063E+001
-7.864250211370347E-001	-1.0523043E+000	-1.0524931E+000	1.3380859E+003	9.310919785442820E+001
-7.974552788820279E-001	-1.0542711E+000	-1.0544930E+000	1.3220442E+003	9.330919784937578E+001
-8.085116901669416E-001	-1.0562872E+000	-1.0564930E+000	1.3064587E+003	9.350919784432335E+001
-8.197663644341375E-001	-1.0582788E+000	-1.0584930E+000	1.2909517E+003	9.370919783927093E+001
-8.311730094101959E-001	-1.0602798E+000	-1.0604931E+000	1.2756428E+003	9.390919783421850E+001
-8.427159401446609E-001	-1.0622780E+000	-1.0624931E+000	1.2605410E+003	9.410919782916608E+001
-8.547654334717549E-001	-1.0642852E+000	-1.0644929E+000	1.2451195E+003	9.430919782411365E+001
-8.668360706089286E-001	-1.0662801E+000	-1.0664930E+000	1.2300828E+003	9.450919781906123E+001
-8.790080253533219E-001	-1.0682688E+000	-1.0684931E+000	1.2153118E+003	9.470919781400880E+001
-8.918203968732108E-001	-1.0702780E+000	-1.0704930E+000	1.2001050E+003	9.490919780895638E+001
-9.048647676043373E-001	-1.0722851E+000	-1.0724930E+000	1.1850225E+003	9.510919780390395E+001
-9.183963012972405E-001	-1.0742855E+000	-1.0744931E+000	1.1697407E+003	9.530919779885153E+001
-9.323057840217093E-001	-1.0762900E+000	-1.0764929E+000	1.1544388E+003	9.550919779379910E+001
-9.462444554346998E-001	-1.0782622E+000	-1.0784930E+000	1.1395176E+003	9.570919778874668E+001
-9.606977937375589E-001	-1.0802902E+000	-1.0804931E+000	1.1244850E+003	9.590919778369425E+001
-9.772665176515307E-001	-1.0823060E+000	-1.0824929E+000	1.1074830E+003	9.610919777864183E+001
-9.943246812371687E-001	-1.0842696E+000	-1.0844929E+000	1.0904584E+003	9.630919777358940E+001
-1.010436179416244E+000	-1.0862687E+000	-1.0864930E+000	1.0750493E+003	9.650919776853698E+001
-1.027305610385002E+000	-1.0882689E+000	-1.0884931E+000	1.0593429E+003	9.670919776348455E+001
-1.044689906486508E+000	-1.0902716E+000	-1.0904931E+000	1.0436318E+003	9.690919775843213E+001
-1.064209829104230E+000	-1.0923717E+000	-1.0925930E+000	1.0264626E+003	9.711919775312708E+001
-1.085755455774377E+000	-1.0944453E+000	-1.0946929E+000	1.0080035E+003	9.732919774782204E+001
-1.105412875114180E+000	-1.0964457E+000	-1.0966929E+000	9.9188794E+002	9.752919774276961E+001
-1.125593867820271E+000	-1.0984273E+000	-1.0986930E+000	9.7586469E+002	9.772919773771719E+001
-1.146566061822529E+000	-1.1004134E+000	-1.1006931E+000	9.5974707E+002	9.792919773266476E+001
-1.169112291102572E+000	-1.1024171E+000	-1.1026930E+000	9.4295227E+002	9.812919772761234E+001
-1.195565936922217E+000	-1.1044474E+000	-1.1046929E+000	9.2378625E+002	9.832919772255991E+001
-1.218930205486529E+000	-1.1064417E+000	-1.1066930E+000	9.0771539E+002	9.852919771750749E+001
-1.243323542946387E+000	-1.1084298E+000	-1.1086931E+000	8.9150549E+002	9.872919771245506E+001
-1.268690498930120E+000	-1.1104385E+000	-1.1106930E+000	8.7526349E+002	9.892919770740264E+001
-1.295524936802940E+000	-1.1124314E+000	-1.1126930E+000	8.5867230E+002	9.912919770235021E+001
-1.322715402519547E+000	-1.1144491E+000	-1.1146929E+000	8.4254645E+002	9.932919769729779E+001
-1.351496968654889E+000	-1.1164497E+000	-1.1166930E+000	8.2608380E+002	9.952919769224536E+001
-1.385379825953120E+000	-1.1184316E+000	-1.1186930E+000	8.0731042E+002	9.972919768719294E+001
-1.417260941261610E+000	-1.1204437E+000	-1.1206930E+000	7.9056982E+002	9.992919768214051E+001
-1.449579540107933E+000	-1.1224303E+000	-1.1226931E+000	7.7431439E+002	1.001291976770881E+002
-1.483018907247416E+000	-1.1244336E+000	-1.1246929E+000	7.5820587E+002	1.003291976720357E+002
-1.518227393369358E+000	-1.1264476E+000	-1.1266930E+000	7.4194916E+002	1.005291976669832E+002
-1.554964299180677E+000	-1.1284565E+000	-1.1286931E+000	7.2571216E+002	1.007291976619308E+002
-1.598532467506089E+000	-1.1304454E+000	-1.1306931E+000	7.0717700E+002	1.009291976568784E+002
-1.639360271934883E+000	-1.1324242E+000	-1.1326931E+000	6.9077203E+002	1.011291976518260E+002
-1.681973300891130E+000	-1.1344538E+000	-1.1346930E+000	6.7447784E+002	1.013291976467735E+002
-1.725606059930081E+000	-1.1364486E+000	-1.1366930E+000	6.5857941E+002	1.015291976417211E+002
-1.771852744020977E+000	-1.1384457E+000	-1.1386931E+000	6.4251715E+002	1.017291976366687E+002
-1.825433058026430E+000	-1.1404389E+000	-1.1406931E+000	6.2474982E+002	1.019291976316163E+002
-1.875031390850371E+000	-1.1424346E+000	-1.1426930E+000	6.0928827E+002	1.021291976265638E+002
-1.928678970741714E+000	-1.1444411E+000	-1.1446930E+000	5.9338086E+002	1.023291976215114E+002
-1.990845430296022E+000	-1.1464363E+000	-1.1466930E+000	5.7585400E+002	1.025291976164590E+002
-2.052576859977918E+000	-1.1484513E+000	-1.1486931E+000	5.5951685E+002	1.027291976114066E+002
-2.112461103333368E+000	-1.1504354E+000	-1.1506931E+000	5.4459485E+002	1.029291976063541E+002
-2.179025455734905E+000	-1.1524560E+000	-1.1526930E+000	5.2888599E+002	1.031291976013017E+002
-2.251301099569485E+000	-1.1544636E+000	-1.1546930E+000	5.1279840E+002	1.033291975962493E+002
-2.320353992249547E+000	-1.1564710E+000	-1.1566931E+000	4.9840283E+002	1.035291975911969E+002
-2.399536580844130E+000	-1.1584688E+000	-1.1586931E+000	4.8278857E+002	1.037291975861444E+002
-2.481819869827927E+000	-1.1604481E+000	-1.1606930E+000	4.6757950E+002	1.039291975810920E+002
-2.564506271917390E+000	-1.1624615E+000	-1.1626930E+000	4.5328864E+002	1.041291975760396E+002
-2.659524238569123E+000	-1.1644638E+000	-1.1646929E+000	4.3784665E+002	1.043291975709872E+002
-2.765443852733050E+000	-1.1664404E+000	-1.1666930E+000	4.2179138E+002	1.045291975659347E+002
-2.871268959813106E+000	-1.1684755E+000	-1.1686931E+000	4.0695438E+002	1.047291975608823E+002
-2.974745663638970E+000	-1.1704577E+000	-1.1706929E+000	3.9346481E+002	1.049291975558299E+002
-3.088717858047303E+000	-1.1724702E+000	-1.1726930E+000	3.7959772E+002	1.051291975507775E+002
-3.207514425726963E+000	-1.1744583E+000	-1.1746930E+000	3.6615839E+002	1.053291975457250E+002
-3.331583148328903E+000	-1.1764619E+000	-1.1766931E+000	3.5312399E+002	1.055291975406726E+002
-3.467273091648153E+000	-1.1784456E+000	-1.1786931E+000	3.3987677E+002	1.057291975356202E+002
-3.604254474445280E+000	-1.1804521E+000	-1.1806929E+000	3.2751630E+002	1.059291975305678E+002
-3.748932172415476E+000	-1.1824374E+000	-1.1826930E+000	3.1540646E+002	1.061291975255153E+002
-3.905482002903550E+000	-1.1844290E+000	-1.1846930E+000	3.0327347E+002	1.063291975204629E+002
-4.068221677829612E+000	-1.1864575E+000	-1.1866930E+000	2.9164032E+002	1.065291975154105E+002
-4.237093309324848E+000	-1.1884581E+000	-1.1886930E+000	2.8048901E+002	1.067291975103581E+002
-4.422289313102258E+000	-1.1904383E+000	-1.1906930E+000	2.6919049E+002	1.069291975053056E+002
-4.613573553644618E+000	-1.1924396E+000	-1.1926930E+000	2.5846332E+002	1.071291975002532E+002
-4.815725916975474E+000	-1.1944358E+000	-1.1946930E+000	2.4802820E+002	1.073291974952008E+002
-5.025611866324674E+000	-1.1964484E+000	-1.1966931E+000	2.3807021E+002	1.075291974901484E+002
-5.265728020681555E+000	-1.1984361E+000	-1.1986930E+000	2.2759174E+002	1.077291974850959E+002
-5.499421700091851E+000	-1.2004336E+000	-1.2006930E+000	2.1828362E+002	1.079291974800435E+002
-5.750868552734005E+000	-1.2024524E+000	-1.2026930E+000	2.0909058E+002	1.081291974749911E+002
-6.021207021646489E+000	-1.2044554E+000	-1.2046930E+000	2.0003554E+002	1.083291974699387E+002
-6.314659284997958E+000	-1.2064608E+000	-1.2066931E+000	1.9105716E+002	1.085291974648862E+002
-6.612092231879714E+000	-1.2084478E+000	-1.2086930E+000	1.8276331E+002	1.087291974598338E+002
-6.935055452477087E+000	-1.2104645E+000	-1.2106931E+000	1.7454286E+002	1.089291974547814E+002
-7.258562873415428E+000	-1.2124811E+000	-1.2126930E+000	1.6704149E+002	1.091291974497290E+002
-7.610688759964333E+000	-1.2144665E+000	-1.2146930E+000	1.5957379E+002	1.093291974446765E+002
-8.017864338732622E+000	-1.2164696E+000	-1.2166930E+000	1.5171991E+002	1.095291974396241E+002
-8.397388398647294E+000	-1.2184702E+000	-1.2186930E+000	1.4510109E+002	1.097291974345717E+002
-8.799703623499733E+000	-1.2204674E+000	-1.2206930E+000	1.3869415E+002	1.099291974295193E+002
-9.229962532887953E+000	-1.2224959E+000	-1.2226931E+000	1.3244864E+002	1.101291974244668E+002
-9.664164292501482E+000	-1.2245017E+000	-1.2246931E+000	1.2670539E+002	1.103291974194144E+002
-1.012264540622562E+001	-1.2265044E+000	-1.2266930E+000	1.2116442E+002	1.105291974143620E+002
-1.063236988746390E+001	-1.2284918E+000	-1.2286930E+000	1.1554261E+002	1.107291974093096E+002
-1.122100268827413E+001	-1.2305598E+000	-1.2307931E+000	1.0966576E+002	1.109391974040045E+002
-1.180143784402179E+001	-1.2326620E+000	-1.2328930E+000	1.0445015E+002	1.111491973986995E+002
-1.235539229650075E+001	-1.2346662E+000	-1.2348930E+000	9.9929344E+001	1.113491973936470E+002
-1.293796634998453E+001	-1.2366526E+000	-1.2368931E+000	9.5583229E+001	1.115491973885946E+002
-1.355597942459337E+001	-1.2386855E+000	-1.2388930E+000	9.1375580E+001	1.117491973835422E+002
-1.418588843542975E+001	-1.2406670E+000	-1.2408930E+000	8.7457825E+001	1.119491973784898E+002
-1.485958091350368E+001	-1.2426753E+000	-1.2428930E+000	8.3627884E+001	1.121491973734373E+002
-1.554097947187707E+001	-1.2446644E+000	-1.2448930E+000	8.0089188E+001	1.123491973683849E+002
-1.630325326587069E+001	-1.2466714E+000	-1.2468930E+000	7.6467651E+001	1.125491973633325E+002
-1.704747331466808E+001	-1.2486758E+000	-1.2488930E+000	7.3246971E+001	1.127491973582801E+002
-1.783505618261364E+001	-1.2506882E+000	-1.2508930E+000	7.0125275E+001	1.129491973532276E+002
-1.867408218135100E+001	-1.2526901E+000	-1.2528930E+000	6.7081749E+001	1.131491973481752E+002
-1.952467126235393E+001	-1.2547067E+000	-1.2548929E+000	6.4262634E+001	1.133491973431228E+002
-2.038006236953248E+001	-1.2566808E+000	-1.2568932E+000	6.1662266E+001	1.135491973380704E+002
-2.127799981927107E+001	-1.2586963E+000	-1.2588931E+000	5.9154823E+001	1.137491973330179E+002
-2.223795668162455E+001	-1.2606865E+000	-1.2608930E+000	5.6690754E+001	1.139491973279655E+002
-2.319565018720905E+001	-1.2626863E+000	-1.2628931E+000	5.4436337E+001	1.141491973229131E+002
-2.422099568203203E+001	-1.2646793E+000	-1.2648931E+000	5.2214176E+001	1.143491973178607E+002
-2.529134112704639E+001	-1.2666785E+000	-1.2668931E+000	5.0083485E+001	1.145491973128082E+002
-2.637986497273528E+001	-1.2686735E+000	-1.2688930E+000	4.8092495E+001	1.147491973077558E+002
-2.752986589986449E+001	-1.2706876E+000	-1.2708930E+000	4.6156693E+001	1.149491973027034E+002
-2.868243697197806E+001	-1.2726700E+000	-1.2728930E+000	4.4371056E+001	1.151491972976510E+002
-2.988462632772861E+001	-1.2747099E+000	-1.2748929E+000	4.2654369E+001	1.153491972925985E+002
-3.113848217896054E+001	-1.2767004E+000	-1.2768930E+000	4.1000725E+001	1.155491972875461E+002
-3.241189997104294E+001	-1.2787006E+000	-1.2788930E+000	3.9451576E+001	1.157491972824937E+002
-3.373662435116410E+001	-1.2806884E+000	-1.2808930E+000	3.7961369E+001	1.159491972774413E+002
-3.504251543302382E+001	-1.2826917E+000	-1.2828929E+000	3.6603870E+001	1.161491972723888E+002
-3.636579512306347E+001	-1.2847046E+000	-1.2848930E+000	3.5327278E+001	1.163491972673364E+002
-3.782731916899047E+001	-1.2867031E+000	-1.2868930E+000	3.4015182E+001	1.165491972622840E+002
-3.929598648072368E+001	-1.2887112E+000	-1.2888930E+000	3.2794983E+001	1.167491972572316E+002
-4.079519007076215E+001	-1.2907139E+000	-1.2908931E+000	3.1638874E+001	1.169491972521791E+002
-4.245575803748056E+001	-1.2927262E+000	-1.2928931E+000	3.0448782E+001	1.171491972471267E+002
-4.408053589732175E+001	-1.2947179E+000	-1.2948930E+000	2.9371647E+001	1.173491972420743E+002
-4.565426393214830E+001	-1.2967201E+000	-1.2968930E+000	2.8403046E+001	1.175491972370219E+002
-4.721910479901308E+001	-1.2987303E+000	-1.2988930E+000	2.7504339E+001	1.177491972319694E+002
-4.884130388079313E+001	-1.3007036E+000	-1.3008931E+000	2.6631224E+001	1.179491972269170E+002
-5.045257997404687E+001	-1.3026909E+000	-1.3028930E+000	2.5820105E+001	1.181491972218646E+002
-5.215802912160666E+001	-1.3047212E+000	-1.3048930E+000	2.5014772E+001	1.183491972168122E+002
-5.395656454536072E+001	-1.3067044E+000	-1.3068931E+000	2.4217709E+001	1.185491972117597E+002
-5.575852057506688E+001	-1.3087281E+000	-1.3088931E+000	2.3471355E+001	1.187491972067073E+002
-5.747085396665034E+001	-1.3107378E+000	-1.3108931E+000	2.2807001E+001	1.189491972016549E+002
-5.915283832312161E+001	-1.3127183E+000	-1.3128930E+000	2.2191975E+001	1.191491971966025E+002
-6.103791985868588E+001	-1.3147162E+000	-1.3148930E+000	2.1539335E+001	1.193491971915500E+002
-6.309254211038706E+001	-1.3167186E+000	-1.3168931E+000	2.0869638E+001	1.195491971864976E+002
-6.488853621645023E+001	-1.3187275E+000	-1.3188931E+000	2.0322966E+001	1.197491971814452E+002
-6.683641280446773E+001	-1.3207206E+000	-1.3208929E+000	1.9760494E+001	1.199491971763928E+002
-6.856073228355990E+001	-1.3227141E+000	-1.3228930E+000	1.9292589E+001	1.201491971713403E+002
-7.083038372463645E+001	-1.3247056E+000	-1.3248930E+000	1.8702505E+001	1.203491971662879E+002
-7.298088860782065E+001	-1.3267138E+000	-1.3268931E+000	1.8178921E+001	1.205491971612355E+002
-7.501028479686380E+001	-1.3287066E+000	-1.3288932E+000	1.7713659E+001	1.207491971561831E+002
-7.710584926821474E+001	-1.3307121E+000	-1.3308930E+000	1.7258251E+001	1.209491971511306E+002
-7.919607767334355E+001	-1.3327274E+000	-1.3328930E+000	1.6828199E+001	1.211491971460782E+002
-8.124164696831826E+001	-1.3347151E+000	-1.3348930E+000	1.6428951E+001	1.213491971410258E+002
-8.350260728340845E+001	-1.3367263E+000	-1.3368931E+000	1.6008198E+001	1.215491971359734E+002
-8.642430813945066E+001	-1.3387111E+000	-1.3388931E+000	1.5489984E+001	1.217491971309209E+002
-8.871732429041583E+001	-1.3406924E+000	-1.3408930E+000	1.5111958E+001	1.219491971258685E+002
-9.110055093105666E+001	-1.3427037E+000	-1.3428929E+000	1.4738700E+001	1.221491971208161E+002
-9.308049051885976E+001	-1.3447181E+000	-1.3448930E+000	1.4446831E+001	1.223491971157637E+002
-9.565020811638863E+001	-1.3467171E+000	-1.3468931E+000	1.4079605E+001	1.225491971107112E+002
-9.798086125185705E+001	-1.3486989E+000	-1.3488929E+000	1.3764921E+001	1.227491971056588E+002
-1.003336135849122E+002	-1.3506925E+000	-1.3508930E+000	1.3462014E+001	1.229491971006064E+002
-1.028504745641262E+002	-1.3527117E+000	-1.3528930E+000	1.3152216E+001	1.231491970955540E+002
-1.054918031022121E+002	-1.3547084E+000	-1.3548930E+000	1.2841836E+001	1.233491970905015E+002
-1.081693692866907E+002	-1.3567266E+000	-1.3568931E+000	1.2542614E+001	1.235491970854491E+002
-1.106014066696171E+002	-1.3587900E+000	-1.3589933E+000	1.2285468E+001	1.237591970801441E+002
-1.136879067723714E+002	-1.3608766E+000	-1.3610930E+000	1.1970284E+001	1.239691970748390E+002
-1.157577363887889E+002	-1.3628877E+000	-1.3630929E+000	1.1773622E+001	1.241691970697866E+002
-1.184189387816693E+002	-1.3648946E+000	-1.3650930E+000	1.1525983E+001	1.243691970647342E+002
-1.218515227516764E+002	-1.3669103E+000	-1.3670931E+000	1.1217835E+001	1.245691970596818E+002
-1.246862064251281E+002	-1.3688821E+000	-1.3690929E+000	1.0978617E+001	1.247691970546293E+002
-1.263650390599050E+002	-1.3708751E+000	-1.3710930E+000	1.0848532E+001	1.249691970495769E+002
-1.288665801251552E+002	-1.3728788E+000	-1.3730930E+000	1.0653490E+001	1.251691970445245E+002
-1.322401567911077E+002	-1.3748769E+000	-1.3750930E+000	1.0396818E+001	1.253691970394721E+002
-1.341401534058880E+002	-1.3768903E+000	-1.3770931E+000	1.0264565E+001	1.255691970344196E+002
-1.365686238747344E+002	-1.3788935E+000	-1.3790931E+000	1.0096708E+001	1.257691970293672E+002
-1.391343948522122E+002	-1.3808929E+000	-1.3810930E+000	9.9248848E+000	1.259691970243148E+002
-1.412846478442757E+002	-1.3828955E+000	-1.3830930E+000	9.7880096E+000	1.261691970192624E+002
-1.441506984671769E+002	-1.3849183E+000	-1.3850930E+000	9.6074343E+000	1.263691970142099E+002
-1.481182523260313E+002	-1.3869253E+000	-1.3870931E+000	9.3636360E+000	1.265691970091575E+002
-1.515924953787232E+002	-1.3889377E+000	-1.3890932E+000	9.1623116E+000	1.267691970041051E+002
-1.542795251588972E+002	-1.3909199E+000	-1.3910930E+000	9.0155830E+000	1.269691969990527E+002
-1.571079397720540E+002	-1.3929045E+000	-1.3930930E+000	8.8659077E+000	1.271691969940002E+002
-1.613249678860448E+002	-1.3949190E+000	-1.3950931E+000	8.6466408E+000	1.273691969889478E+002
-1.630867045785299E+002	-1.3969166E+000	-1.3970931E+000	8.5654840E+000	1.275691969838954E+002
-1.653737587917954E+002	-1.3989135E+000	-1.3990930E+000	8.4591017E+000	1.277691969788430E+002
-1.706354372960906E+002	-1.4009175E+000	-1.4010931E+000	8.2100039E+000	1.279691969737905E+002
-1.745217103309365E+002	-1.4029448E+000	-1.4030930E+000	8.0387983E+000	1.281691969687381E+002
-1.774765605602129E+002	-1.4049495E+000	-1.4050931E+000	7.9162540E+000	1.283691969636857E+002
-1.786494398582017E+002	-1.4069397E+000	-1.4070930E+000	7.8754220E+000	1.285691969586333E+002
-1.804487699791962E+002	-1.4089373E+000	-1.4090930E+000	7.8079629E+000	1.287691969535808E+002
-1.823830885692519E+002	-1.4109135E+000	-1.4110931E+000	7.7359886E+000	1.289691969485284E+002
-1.886265045261166E+002	-1.4129120E+000	-1.4130931E+000	7.4905276E+000	1.291691969434760E+002
-1.913420660155180E+002	-1.4149325E+000	-1.4150931E+000	7.3947802E+000	1.293691969384236E+002
-1.942518631390161E+002	-1.4169229E+000	-1.4170932E+000	7.2942567E+000	1.295691969333711E+002
-1.951982767749541E+002	-1.4189304E+000	-1.4190930E+000	7.2691751E+000	1.297691969283187E+002
-1.990311502534523E+002	-1.4209183E+000	-1.4210931E+000	7.1391759E+000	1.299691969232663E+002
-2.013919584702471E+002	-1.4229234E+000	-1.4230930E+000	7.0654430E+000	1.301691969182139E+002
-2.052773725872948E+002	-1.4249330E+000	-1.4250931E+000	6.9415002E+000	1.303691969131614E+002
-2.091704512334463E+002	-1.4269414E+000	-1.4270931E+000	6.8219070E+000	1.305691969081090E+002
-2.141921343403333E+002	-1.4289559E+000	-1.4290930E+000	6.6713743E+000	1.307691969030566E+002
-2.154735034717719E+002	-1.4309582E+000	-1.4310931E+000	6.6409936E+000	1.309691968980042E+002
-2.177312893231076E+002	-1.4329537E+000	-1.4330938E+000	6.5812945E+000	1.311692968929492E+002
-2.188315958859002E+002	-1.4349531E+000	-1.4350948E+000	6.5573397E+000	1.313693968878943E+002
-2.226118447392250E+002	-1.4369476E+000	-1.4370959E+000	6.4549465E+000	1.315694968828393E+002
-2.254017673381784E+002	-1.4389520E+000	-1.4390992E+000	6.3839426E+000	1.317698968777768E+002
-2.303467137918904E+002	-1.4409811E+000	-1.4411058E+000	6.2557054E+000	1.319704968727092E+002
-2.334141838886082E+002	-1.4429802E+000	-1.4431078E+000	6.1820588E+000	1.321706968676517E+002
-2.363177675389888E+002	-1.4449716E+000	-1.4451097E+000	6.1145277E+000	1.323708968625942E+002
-2.394199466917671E+002	-1.4469707E+000	-1.4471133E+000	6.0436516E+000	1.325712968575317E+002
-2.430031524430974E+002	-1.4489729E+000	-1.4491185E+000	5.9627743E+000	1.327717968524667E+002
-2.453581528129893E+002	-1.4509736E+000	-1.4511235E+000	5.9136963E+000	1.329722968474016E+002
-2.487451867754498E+002	-1.4529804E+000	-1.4531271E+000	5.8412404E+000	1.331725968423416E+002
-2.528389160346092E+002	-1.4549775E+000	-1.4551280E+000	5.7545633E+000	1.333726968372866E+002
-2.570320819734834E+002	-1.4569775E+000	-1.4571297E+000	5.6684656E+000	1.335728968322292E+002
-2.566243604542248E+002	-1.4589889E+000	-1.4591308E+000	5.6853094E+000	1.337729968271742E+002
-2.582693272296110E+002	-1.4609985E+000	-1.4611329E+000	5.6568799E+000	1.339731968221167E+002
-2.643468593957127E+002	-1.4630094E+000	-1.4631357E+000	5.5344305E+000	1.341734968170567E+002
-2.679939216194234E+002	-1.4650013E+000	-1.4651371E+000	5.4665470E+000	1.343735968120018E+002
-2.735794984763614E+002	-1.4670069E+000	-1.4671404E+000	5.3622694E+000	1.345739968069392E+002
-2.740967047490217E+002	-1.4690233E+000	-1.4691430E+000	5.3595076E+000	1.347741968018818E+002
-2.775820222165121E+002	-1.4710370E+000	-1.4711438E+000	5.2994680E+000	1.349742967968268E+002
-2.807012633508294E+002	-1.4730451E+000	-1.4731466E+000	5.2477322E+000	1.351745967917668E+002
-2.861538441037778E+002	-1.4750510E+000	-1.4751498E+000	5.1547484E+000	1.353748967867068E+002
-2.884073475562873E+002	-1.4770476E+000	-1.4771519E+000	5.1213937E+000	1.355750967816493E+002
-2.899200230805354E+002	-1.4790522E+000	-1.4791539E+000	5.1015868E+000	1.357752967765919E+002
-2.944374028260213E+002	-1.4810460E+000	-1.4811566E+000	5.0300879E+000	1.359755967715319E+002
-2.973810973764430E+002	-1.4830695E+000	-1.4831605E+000	4.9871011E+000	1.361759967664693E+002
-2.987805801010996E+002	-1.4850657E+000	-1.4851630E+000	4.9704223E+000	1.363761967614118E+002
-3.006779791969474E+002	-1.4870732E+000	-1.4871638E+000	4.9457335E+000	1.365762967563569E+002
-3.024921599461754E+002	-1.4890803E+000	-1.4891692E+000	4.9227071E+000	1.367768967512893E+002
-3.088103926968097E+002	-1.4910713E+000	-1.4911739E+000	4.8284364E+000	1.369772967462268E+002
-3.158087261778719E+002	-1.4930878E+000	-1.4931759E+000	4.7278233E+000	1.371774967411693E+002
-3.180822716798023E+002	-1.4950774E+000	-1.4951786E+000	4.7002850E+000	1.373777967361093E+002
-3.230866472812522E+002	-1.4970719E+000	-1.4971818E+000	4.6336546E+000	1.375780967310493E+002
-3.224316377667715E+002	-1.4990957E+000	-1.4991846E+000	4.6493444E+000	1.377783967259893E+002
-3.297180797902882E+002	-1.5011083E+000	-1.5011904E+000	4.5527024E+000	1.379789967209217E+002
-3.360489598451550E+002	-1.5031135E+000	-1.5031947E+000	4.4729004E+000	1.381793967158592E+002
-3.368117764747612E+002	-1.5051225E+000	-1.5051970E+000	4.4687347E+000	1.383795967108017E+002
-3.398275999617649E+002	-1.5071186E+000	-1.5071979E+000	4.4349504E+000	1.385796967057468E+002
-3.419202180147049E+002	-1.5091330E+000	-1.5091996E+000	4.4136992E+000	1.387798967006893E+002
-3.413889750652704E+002	-1.5111459E+000	-1.5112025E+000	4.4264636E+000	1.389801966956293E+002
-3.444977443439884E+002	-1.5131414E+000	-1.5132051E+000	4.3923116E+000	1.391803966905718E+002
-3.522951342951282E+002	-1.5151489E+000	-1.5152056E+000	4.3007941E+000	1.393804966855168E+002
-3.526846253574563E+002	-1.5171496E+000	-1.5172070E+000	4.3017173E+000	1.395805966804619E+002
-3.602829772866307E+002	-1.5191548E+000	-1.5192080E+000	4.2165599E+000	1.397806966754069E+002
-3.600084562648374E+002	-1.5211517E+000	-1.5212100E+000	4.2253222E+000	1.399808966703495E+002
-3.576757900791335E+002	-1.5231508E+000	-1.5232130E+000	4.2584677E+000	1.401812966652869E+002
-3.558091813342662E+002	-1.5251657E+000	-1.5252177E+000	4.2864709E+000	1.403816966602244E+002
-3.620803653835101E+002	-1.5271821E+000	-1.5272206E+000	4.2177987E+000	1.405819966551644E+002
-3.667361027868601E+002	-1.5291712E+000	-1.5292228E+000	4.1696773E+000	1.407821966501069E+002
-3.696124543300293E+002	-1.5311719E+000	-1.5312231E+000	4.1426415E+000	1.409821966450545E+002
-3.715949196807878E+002	-1.5331625E+000	-1.5332246E+000	4.1258974E+000	1.411823966399970E+002
-3.794060163324939E+002	-1.5351688E+000	-1.5352271E+000	4.0462427E+000	1.413825966349395E+002
-3.809719367262887E+002	-1.5371667E+000	-1.5372286E+000	4.0348554E+000	1.415827966298821E+002
-3.827045088706982E+002	-1.5391753E+000	-1.5392344E+000	4.0218372E+000	1.417833966248145E+002
-3.843875540173258E+002	-1.5411820E+000	-1.5412390E+000	4.0094485E+000	1.419837966197520E+002
-3.857947156456335E+002	-1.5431859E+000	-1.5432391E+000	4.0000186E+000	1.421837966146995E+002
-3.862404106063846E+002	-1.5451795E+000	-1.5452398E+000	4.0005641E+000	1.423838966096446E+002
-3.919384913433714E+002	-1.5472000E+000	-1.5472410E+000	3.9475582E+000	1.425839966045896E+002
-3.952853560338708E+002	-1.5492007E+000	-1.5492418E+000	3.9191957E+000	1.427840965995347E+002
-4.018315340698218E+002	-1.5512024E+000	-1.5512428E+000	3.8603303E+000	1.429841965944797E+002
-4.002221743504765E+002	-1.5532043E+000	-1.5532427E+000	3.8808551E+000	1.431841965894273E+002
-4.021072482889731E+002	-1.5552037E+000	-1.5552431E+000	3.8676341E+000	1.433841965843749E+002
-4.154394407856253E+002	-1.5572015E+000	-1.5572430E+000	3.7483237E+000	1.435841965793225E+002
-4.231592541538475E+002	-1.5592011E+000	-1.5592439E+000	3.6846673E+000	1.437842965742675E+002
-4.235619645021388E+002	-1.5611906E+000	-1.5612450E+000	3.6858611E+000	1.439843965692125E+002
-4.233466904911802E+002	-1.5632056E+000	-1.5632459E+000	3.6924951E+000	1.441844965641576E+002
-4.311480515149178E+002	-1.5652070E+000	-1.5652471E+000	3.6303236E+000	1.443845965591026E+002
-4.336083203702819E+002	-1.5672169E+000	-1.5672472E+000	3.6143608E+000	1.445845965540502E+002
-4.327902896140085E+002	-1.5692040E+000	-1.5692469E+000	3.6257837E+000	1.447845965489978E+002
-4.349712022448330E+002	-1.5711963E+000	-1.5712470E+000	3.6121848E+000	1.449845965439454E+002
-4.351236008667893E+002	-1.5731856E+000	-1.5732468E+000	3.6154912E+000	1.451845965388929E+002
-4.544825265542731E+002	-1.5751928E+000	-1.5752468E+000	3.4659040E+000	1.453845965338405E+002
-4.560250398372018E+002	-1.5771964E+000	-1.5772468E+000	3.4585741E+000	1.455845965287881E+002
-4.573141865027474E+002	-1.5791959E+000	-1.5792469E+000	3.4531968E+000	1.457845965237357E+002
-4.570535328577448E+002	-1.5811909E+000	-1.5812467E+000	3.4595311E+000	1.459845965186832E+002
-4.606375965888269E+002	-1.5832043E+000	-1.5832468E+000	3.4369845E+000	1.461845965136308E+002
-4.653534277139636E+002	-1.5852014E+000	-1.5852468E+000	3.4064462E+000	1.463845965085784E+002
-4.696193091507130E+002	-1.5872296E+000	-1.5872468E+000	3.3798218E+000	1.465845965035260E+002
-4.694754700995909E+002	-1.5892208E+000	-1.5892469E+000	3.3850987E+000	1.467845964984735E+002
-4.671753847982872E+002	-1.5912338E+000	-1.5912470E+000	3.4060738E+000	1.469845964934211E+002
-4.649816698044051E+002	-1.5932462E+000	-1.5932468E+000	3.4264710E+000	1.471845964883687E+002
-4.700162210140088E+002	-1.5952412E+000	-1.5952468E+000	3.3940132E+000	1.473845964833163E+002
-4.840268041303625E+002	-1.5972536E+000	-1.5972469E+000	3.2999279E+000	1.475845964782638E+002
-4.877341230007523E+002	-1.5992612E+000	-1.5992469E+000	3.2789609E+000	1.477845964732114E+002
-4.852750938657719E+002	-1.6012460E+000	-1.6012470E+000	3.2996666E+000	1.479845964681590E+002
-4.844390398358564E+002	-1.6032603E+000	-1.6032468E+000	3.3095191E+000	1.481845964631066E+002
-4.900959903907333E+002	-1.6052490E+000	-1.6052468E+000	3.2753768E+000	1.483845964580541E+002
-4.896536933094485E+002	-1.6072458E+000	-1.6072469E+000	3.2824132E+000	1.485845964530017E+002
-4.944886640950917E+002	-1.6092420E+000	-1.6092469E+000	3.2543557E+000	1.487845964479493E+002
-4.982808943162436E+002	-1.6112370E+000	-1.6112469E+000	3.2335918E+000	1.489845964428969E+002
-5.107755825276290E+002	-1.6132534E+000	-1.6132469E+000	3.1584387E+000	1.491845964378444E+002
-5.276986131040953E+002	-1.6152415E+000	-1.6152468E+000	3.0609167E+000	1.493845964327920E+002
-5.277426643631088E+002	-1.6172526E+000	-1.6172469E+000	3.0644720E+000	1.495845964277396E+002
-5.297208784713202E+002	-1.6192377E+000	-1.6192470E+000	3.0567753E+000	1.497845964226872E+002
-5.321694933530160E+002	-1.6212515E+000	-1.6212468E+000	3.0464945E+000	1.499845964176347E+002
-5.422054005404480E+002	-1.6232371E+000	-1.6232469E+000	2.9937680E+000	1.501845964125823E+002
-5.419174364051069E+002	-1.6252344E+000	-1.6252468E+000	2.9990442E+000	1.503845964075299E+002
-5.404136905064647E+002	-1.6272337E+000	-1.6272469E+000	3.0110891E+000	1.505845964024775E+002
-5.442486689604339E+002	-1.6292355E+000	-1.6292470E+000	2.9935498E+000	1.507845963974250E+002
-5.412399981708486E+002	-1.6312544E+000	-1.6312468E+000	3.0139208E+000	1.509845963923726E+002
-5.365762183001252E+002	-1.6332515E+000	-1.6332469E+000	3.0438390E+000	1.511845963873202E+002
-5.331499815181814E+002	-1.6352364E+000	-1.6352470E+000	3.0671227E+000	1.513845963822678E+002
-5.312728167293835E+002	-1.6372461E+000	-1.6372468E+000	3.0817428E+000	1.515845963772153E+002
-5.365641007326103E+002	-1.6392432E+000	-1.6392469E+000	3.0550745E+000	1.517845963721629E+002
-5.549055147711615E+002	-1.6412443E+000	-1.6412468E+000	2.9577005E+000	1.519845963671105E+002
-5.501027066496717E+002	-1.6432505E+000	-1.6432468E+000	2.9871702E+000	1.521845963620581E+002
-5.518814732558067E+002	-1.6452887E+000	-1.6452467E+000	2.9812355E+000	1.523845963570056E+002
-5.734480727621767E+002	-1.6478807E+000	-1.6472468E+000	2.8736353E+000	1.525845963519532E+002
-5.815197605729891E+002	-1.6498785E+000	-1.6492469E+000	2.8371840E+000	1.527845963469008E+002
-5.763788466377875E+002	-1.6518641E+000	-1.6512470E+000	2.8659346E+000	1.529845963418484E+002
-5.735037699156601E+002	-1.6538732E+000	-1.6532468E+000	2.8838053E+000	1.531845963367959E+002
-5.725995690481977E+002	-1.6553563E+000	-1.6547467E+000	2.8909492E+000	1.533345963330066E+002
-5.730245971679688E+002	-1.6559433E+000	-1.6553463E+000	2.8898294E+000	1.533757963319658E+002