EC-Lab ASCII FILE
Nb header lines : 63                          

Linear Sweep Voltammetry

Run on channel : 1 (SN 1340)
User : 
Electrode connection : standard
Potential control : Ewe
Ewe ctrl range : min = -5.00 V, max = 5.00 V
Ewe,I filtering : <None>
Safety Limits :
	Do not start on E overload
Channel : Floating
Acquisition started on : 11/03/2025 09:47:16.439
Technique started on : 11/03/2025 09:47:16.439
Loaded Setting File :  C:\Users\volt\Documents\Platalytix\PtPdCoNi_Test1.mps
Saved on :
	File : PtPdCoNi_Test1_C01.mpr
	Directory : C:\Users\volt\Documents\Platalytix\
	Host : 127.0.0.1
Device : SP-200 (SN 0262)
Address : USB
EC-LAB for windows v11.60 (software)
Internet server v11.60 (firmware)
Command interpretor v11.60 (firmware)
Electrode material : PtPdCoNi
Initial state : 
Electrolyte : KOH (1M)
Comments : 
Cable : standard
Reference electrode : Hg/HgO (0.140 V)
Electrode surface area : 1.000 cm˛
Characteristic mass : 0.001 g
Equivalent Weight : 0.000 g/eq.
Density : 0.000 g/cm3
Volume (V) : 0.001 cmł
Cycle Definition : Charge/Discharge alternance
tR (h:m:s)          0:00:5.0000         
dER/dt (mV/h)       0.0                 
dER (mV)            0                   
dtR (s)             0.0000              
dE/dt               10.000              
dE/dt unit          mV/s                
Ei (V)              -0.200              
vs.                 Ref                 
EL (V)              -2.500              
vs.                 Ref                 
record              <I>                 
dI                  0.000               
unit dI             µA                  
tI (s)              0.0000              
step percent        50                  
N                   10                  
E range min (V)     -5.000              
E range max (V)     5.000               
I Range             Auto                
I Range min         Unset               
I Range max         Unset               
I Range init        Unset               
Bandwidth           8                   

<I>/mA	Ewe/V	control/V	Rwe/Ohm	time/s	
0.000000000000000E+000	2.4293497E-002	0.0000000E+000	0.0000000E+000	0.000000000000000E+000
0.000000000000000E+000	2.4056682E-002	-1.9988628E-001	0.0000000E+000	4.999799873694428E+000
-3.904031723737722E-001	-2.0202568E-001	-2.0178597E-001	5.1747961E+002	5.199799868642003E+000
-3.344044094553256E-001	-2.0321460E-001	-2.0298596E-001	6.0769116E+002	5.319799865610548E+000
-2.555788754044166E-001	-2.0531227E-001	-2.0508584E-001	8.0332251E+002	5.529799860305502E+000
-2.186039146606107E-001	-2.0732372E-001	-2.0708574E-001	9.4839893E+002	5.729799855253077E+000
-1.952417231378170E-001	-2.0934854E-001	-2.0908564E-001	1.0722531E+003	5.929799850200652E+000
-1.788367945679769E-001	-2.1137761E-001	-2.1108554E-001	1.1819581E+003	6.129799845148227E+000
-1.664238617535845E-001	-2.1336932E-001	-2.1308544E-001	1.2820837E+003	6.329799840095802E+000
-1.567072387332784E-001	-2.1533196E-001	-2.1508533E-001	1.3741034E+003	6.529799835043377E+000
-1.487467439429168E-001	-2.1733639E-001	-2.1708523E-001	1.4611169E+003	6.729799829990952E+000
-1.421088429575454E-001	-2.1934679E-001	-2.1908511E-001	1.5435126E+003	6.929799824938527E+000
-1.364829117472361E-001	-2.2137457E-001	-2.2108503E-001	1.6219948E+003	7.129799819886102E+000
-1.316724152868092E-001	-2.2336905E-001	-2.2308493E-001	1.6963997E+003	7.329799814833677E+000
-1.274158040593778E-001	-2.2533168E-001	-2.2508483E-001	1.7684751E+003	7.529799809781252E+000
-1.237110657598444E-001	-2.2733293E-001	-2.2708473E-001	1.8376119E+003	7.729799804728827E+000
-1.203465619696784E-001	-2.2934735E-001	-2.2908464E-001	1.9057241E+003	7.929799799676402E+000
-1.173680828104975E-001	-2.3134436E-001	-2.3108451E-001	1.9711011E+003	8.129799794623978E+000
-1.147472963735985E-001	-2.3333246E-001	-2.3308441E-001	2.0334462E+003	8.329799789571553E+000
-1.122144545008329E-001	-2.3534749E-001	-2.3508430E-001	2.0973010E+003	8.529699784521654E+000
-1.100576106699651E-001	-2.3736194E-001	-2.3708420E-001	2.1567063E+003	8.729599779471755E+000
-1.080043182429561E-001	-2.3933223E-001	-2.3908409E-001	2.2159504E+003	8.929599774419330E+000
-1.061179590065140E-001	-2.4135534E-001	-2.4108399E-001	2.2744063E+003	9.129599769366905E+000
-1.043815900742702E-001	-2.4335788E-001	-2.4308391E-001	2.3314253E+003	9.329599764314480E+000
-1.028298579342239E-001	-2.4535003E-001	-2.4508381E-001	2.3859805E+003	9.529599759262055E+000
-1.013561824902622E-001	-2.4736674E-001	-2.4708368E-001	2.4405688E+003	9.729599754209630E+000
-9.995159144722399E-002	-2.4934828E-001	-2.4908359E-001	2.4946904E+003	9.929599749157205E+000
-9.866976711789227E-002	-2.5134596E-001	-2.5108349E-001	2.5473452E+003	1.012959974410478E+001
-9.745841655909793E-002	-2.5335804E-001	-2.5308338E-001	2.5996526E+003	1.032959973905236E+001
-9.635275194174331E-002	-2.5534254E-001	-2.5508329E-001	2.6500803E+003	1.052959973399993E+001
-9.532557383006479E-002	-2.5733784E-001	-2.5708318E-001	2.6995676E+003	1.072959972894751E+001
-9.434058609030005E-002	-2.5934100E-001	-2.5908309E-001	2.7489866E+003	1.092959972389508E+001
-9.341952890525157E-002	-2.6132870E-001	-2.6108298E-001	2.7973669E+003	1.112959971884266E+001
-9.253758501922471E-002	-2.6335478E-001	-2.6308289E-001	2.8459224E+003	1.132959971379023E+001
-9.172629124364606E-002	-2.6534119E-001	-2.6508278E-001	2.8927495E+003	1.152959970873781E+001
-9.094321472589328E-002	-2.6731488E-001	-2.6708269E-001	2.9393604E+003	1.172959970368538E+001
-9.023388563137913E-002	-2.6931530E-001	-2.6908258E-001	2.9846360E+003	1.192959969863296E+001
-8.949300027325713E-002	-2.7134243E-001	-2.7108246E-001	3.0319961E+003	1.212959969358053E+001
-8.888595277636124E-002	-2.7332056E-001	-2.7308172E-001	3.0749578E+003	1.232949968853063E+001
-8.818536206167560E-002	-2.7531120E-001	-2.7508226E-001	3.1219604E+003	1.252939968348073E+001
-8.766231372637767E-002	-2.7729595E-001	-2.7708218E-001	3.1632288E+003	1.272939967842831E+001
-8.707097433708011E-002	-2.7937058E-001	-2.7908209E-001	3.2085386E+003	1.292939967337588E+001
-8.654086855863130E-002	-2.8129485E-001	-2.8108194E-001	3.2504280E+003	1.312939966832346E+001
-8.604413427701796E-002	-2.8334853E-001	-2.8308186E-001	3.2930603E+003	1.332939966327103E+001
-8.557871161313868E-002	-2.8532729E-001	-2.8508174E-001	3.3340918E+003	1.352939965821861E+001
-8.513090840240917E-002	-2.8731200E-001	-2.8708166E-001	3.3749434E+003	1.372939965316618E+001
-8.467563833880842E-002	-2.8932723E-001	-2.8908154E-001	3.4168887E+003	1.392939964811376E+001
-8.430009439287733E-002	-2.9130837E-001	-2.9108143E-001	3.4556116E+003	1.412939964306133E+001
-8.383324550720284E-002	-2.9334870E-001	-2.9308134E-001	3.4991929E+003	1.432939963800891E+001
-8.346646100751498E-002	-2.9536775E-001	-2.9508123E-001	3.5387598E+003	1.452939963295648E+001
-8.305505808556901E-002	-2.9732934E-001	-2.9708111E-001	3.5799065E+003	1.472939962790406E+001
-8.270763750388688E-002	-2.9934925E-001	-2.9908103E-001	3.6193665E+003	1.492939962285163E+001
-8.235879158210441E-002	-3.0136284E-001	-3.0108094E-001	3.6591460E+003	1.512939961779921E+001
-8.203912322206675E-002	-3.0333608E-001	-3.0308083E-001	3.6974565E+003	1.532939961274678E+001
-8.174073838633056E-002	-3.0536154E-001	-3.0508071E-001	3.7357327E+003	1.552939960769436E+001
-8.144977135697795E-002	-3.0735156E-001	-3.0708063E-001	3.7735105E+003	1.572939960264193E+001
-8.117368723457996E-002	-3.0939633E-001	-3.0908051E-001	3.8115347E+003	1.592939959758951E+001
-8.093676611130662E-002	-3.1135404E-001	-3.1108043E-001	3.8468801E+003	1.612939959253708E+001
-8.062330677245980E-002	-3.1330186E-001	-3.1308031E-001	3.8859961E+003	1.632929958748718E+001
-8.036580743097066E-002	-3.1533238E-001	-3.1508023E-001	3.9237131E+003	1.652919958243729E+001
-8.015395465513908E-002	-3.1734002E-001	-3.1708011E-001	3.9591311E+003	1.672919957738486E+001
-7.990584394349654E-002	-3.1932515E-001	-3.1908002E-001	3.9962678E+003	1.692919957233244E+001
-7.964424966082650E-002	-3.2136905E-001	-3.2107991E-001	4.0350566E+003	1.712919956728001E+001
-7.938559961087088E-002	-3.2332534E-001	-3.2307979E-001	4.0728462E+003	1.732919956222759E+001
-7.927893773998929E-002	-3.2539320E-001	-3.2507971E-001	4.1044092E+003	1.752919955717516E+001
-7.901161099475768E-002	-3.2731536E-001	-3.2707959E-001	4.1426235E+003	1.772919955212274E+001
-7.884780283385873E-002	-3.2934457E-001	-3.2907951E-001	4.1769658E+003	1.792919954707031E+001
-7.861505686875669E-002	-3.3135456E-001	-3.3107939E-001	4.2148994E+003	1.812919954201789E+001
-7.841886829768541E-002	-3.3335009E-001	-3.3307928E-001	4.2508916E+003	1.832919953696546E+001
-7.831308433401718E-002	-3.3537066E-001	-3.3507916E-001	4.2824346E+003	1.852919953191304E+001
-7.809407340495711E-002	-3.3729321E-001	-3.3707908E-001	4.3190630E+003	1.872919952686061E+001
-7.789824333394568E-002	-3.3935452E-001	-3.3907896E-001	4.3563823E+003	1.892919952180819E+001
-7.778422761911252E-002	-3.4131232E-001	-3.4107888E-001	4.3879375E+003	1.912919951675576E+001
-7.757379087121100E-002	-3.4334788E-001	-3.4307879E-001	4.4260811E+003	1.932919951170334E+001
-7.745030026221889E-002	-3.4537888E-001	-3.4507868E-001	4.4593613E+003	1.952919950665091E+001
-7.729427515721303E-002	-3.4734365E-001	-3.4707859E-001	4.4937822E+003	1.972919950159849E+001
-7.712668262985994E-002	-3.4933048E-001	-3.4907848E-001	4.5293076E+003	1.992919949654606E+001
-7.699748825455000E-002	-3.5133833E-001	-3.5107839E-001	4.5629844E+003	2.012919949149364E+001
-7.689113750014054E-002	-3.5335359E-001	-3.5307828E-001	4.5955049E+003	2.032899948644626E+001
-7.672601235320844E-002	-3.5532621E-001	-3.5507816E-001	4.6311050E+003	2.052899948139384E+001
-7.655971004287676E-002	-3.5735118E-001	-3.5707808E-001	4.6676143E+003	2.072899947634141E+001
-7.643280306338929E-002	-3.5934716E-001	-3.5907796E-001	4.7014785E+003	2.092899947128899E+001
-7.627561746709993E-002	-3.6135989E-001	-3.6107790E-001	4.7375547E+003	2.112899946623656E+001
-7.617133077236121E-002	-3.6332697E-001	-3.6307779E-001	4.7698652E+003	2.132899946118414E+001
-7.605371756855051E-002	-3.6532614E-001	-3.6507770E-001	4.8035278E+003	2.152899945613171E+001
-7.592184016799935E-002	-3.6735475E-001	-3.6707756E-001	4.8385913E+003	2.172899945107929E+001
-7.578098777335243E-002	-3.6933181E-001	-3.6907744E-001	4.8736738E+003	2.192899944602686E+001
-7.572314728478013E-002	-3.7135962E-001	-3.7107736E-001	4.9041758E+003	2.212899944097444E+001
-7.563814577063666E-002	-3.7333861E-001	-3.7307727E-001	4.9358511E+003	2.232899943592201E+001
-7.546114120759123E-002	-3.7534431E-001	-3.7507716E-001	4.9740078E+003	2.252899943086959E+001
-7.530479192366302E-002	-3.7732646E-001	-3.7707707E-001	5.0106567E+003	2.272899942581716E+001
-7.522496520362115E-002	-3.7934643E-001	-3.7907696E-001	5.0428262E+003	2.292899942076474E+001
-7.510212854568837E-002	-3.8134682E-001	-3.8107681E-001	5.0777100E+003	2.312899941571231E+001
-7.502059077330847E-002	-3.8333580E-001	-3.8307673E-001	5.1097412E+003	2.332899941065989E+001
-7.486839472029017E-002	-3.8535547E-001	-3.8507664E-001	5.1471050E+003	2.352899940560746E+001
-7.481109234715577E-002	-3.8735017E-001	-3.8707653E-001	5.1777104E+003	2.372899940055504E+001
-7.466536705422300E-002	-3.8932404E-001	-3.8907644E-001	5.2142520E+003	2.392899939550261E+001
-7.451933682668288E-002	-3.9134994E-001	-3.9107653E-001	5.2516563E+003	2.412889939045272E+001
-7.446947175261820E-002	-3.9333764E-001	-3.9307627E-001	5.2818643E+003	2.432879938540282E+001
-7.436634472871184E-002	-3.9533484E-001	-3.9507613E-001	5.3160449E+003	2.452879938035039E+001
-7.422246985969538E-002	-3.9734247E-001	-3.9707604E-001	5.3533989E+003	2.472879937529797E+001
-7.413510342240515E-002	-3.9933690E-001	-3.9907593E-001	5.3866104E+003	2.492879937024554E+001
-7.402098937912509E-002	-4.0134799E-001	-4.0107581E-001	5.4220835E+003	2.512879936519312E+001
-7.391642875517468E-002	-4.0336454E-001	-4.0307575E-001	5.4570352E+003	2.532879936014069E+001
-7.384632338026309E-002	-4.0534920E-001	-4.0507561E-001	5.4890913E+003	2.552879935508827E+001
-7.366088644206470E-002	-4.0734562E-001	-4.0707555E-001	5.5300127E+003	2.572879935003584E+001
-7.355725653617384E-002	-4.0935177E-001	-4.0907541E-001	5.5650767E+003	2.592879934498342E+001
-7.349041092490388E-002	-4.1135114E-001	-4.1107529E-001	5.5973442E+003	2.612879933993099E+001
-7.335408760209380E-002	-4.1341111E-001	-4.1307524E-001	5.6358291E+003	2.632879933487857E+001
-7.329102018119460E-002	-4.1534936E-001	-4.1507509E-001	5.6671250E+003	2.652879932982614E+001
-7.313735680306155E-002	-4.1739029E-001	-4.1707501E-001	5.7069370E+003	2.672879932477372E+001
-7.306390989396544E-002	-4.1939265E-001	-4.1907492E-001	5.7400796E+003	2.692879931972129E+001
-7.295247878142261E-002	-4.2138243E-001	-4.2107481E-001	5.7761221E+003	2.712879931466887E+001
-7.277698262622123E-002	-4.2341644E-001	-4.2307472E-001	5.8179995E+003	2.732879930961644E+001
-7.266208767899407E-002	-4.2539260E-001	-4.2507458E-001	5.8543955E+003	2.752879930456402E+001
-7.246311801768690E-002	-4.2737246E-001	-4.2707452E-001	5.8977930E+003	2.772879929951159E+001
-7.239880523952746E-002	-4.2940402E-001	-4.2907438E-001	5.9310928E+003	2.792879929445917E+001
-7.218335067424975E-002	-4.3138468E-001	-4.3107477E-001	5.9762354E+003	2.812869928940927E+001
-7.200630859930124E-002	-4.3339530E-001	-4.3307418E-001	6.0188516E+003	2.832859928435937E+001
-7.191181072464725E-002	-4.3539488E-001	-4.3507412E-001	6.0545669E+003	2.852859927930695E+001
-7.172007188982321E-002	-4.3736854E-001	-4.3707398E-001	6.0982725E+003	2.872859927425452E+001
-7.156769858193812E-002	-4.3937194E-001	-4.3907389E-001	6.1392495E+003	2.892859926920210E+001
-7.141734117456200E-002	-4.4142455E-001	-4.4107378E-001	6.1809155E+003	2.912859926414967E+001
-7.126562928257185E-002	-4.4340709E-001	-4.4307369E-001	6.2218926E+003	2.932859925909725E+001
-7.105553989106483E-002	-4.4536126E-001	-4.4507357E-001	6.2677905E+003	2.952859925404482E+001
-7.087832431059704E-002	-4.4739524E-001	-4.4707346E-001	6.3121587E+003	2.972859924899240E+001
-7.069472018037981E-002	-4.4938421E-001	-4.4907340E-001	6.3566870E+003	2.992859924393997E+001
-7.047123212183570E-002	-4.5137143E-001	-4.5107326E-001	6.4050454E+003	3.012859923888755E+001
-7.026573820747073E-002	-4.5339859E-001	-4.5307320E-001	6.4526270E+003	3.032859923383512E+001
-7.010276072084176E-002	-4.5538607E-001	-4.5507306E-001	6.4959790E+003	3.052859922878270E+001
-6.991945211606648E-002	-4.5738903E-001	-4.5707294E-001	6.5416563E+003	3.072859922373027E+001
-6.965626270326508E-002	-4.5937181E-001	-4.5907286E-001	6.5948384E+003	3.092859921867785E+001
-6.941975020463498E-002	-4.6139199E-001	-4.6107271E-001	6.6464082E+003	3.112859921362542E+001
-6.921800172860293E-002	-4.6340975E-001	-4.6307266E-001	6.6949312E+003	3.132859920857300E+001
-6.896870500881142E-002	-4.6535903E-001	-4.6507251E-001	6.7473940E+003	3.152859920352057E+001
-6.867074203263555E-002	-4.6736395E-001	-4.6707252E-001	6.8058672E+003	3.172859919846815E+001
-6.844311141585407E-002	-4.6936288E-001	-4.6907189E-001	6.8577080E+003	3.192849919341825E+001
-6.815213958158384E-002	-4.7138357E-001	-4.7107226E-001	6.9166362E+003	3.212839918836835E+001
-6.789584329738219E-002	-4.7338912E-001	-4.7307214E-001	6.9722842E+003	3.232839918331592E+001
-6.758666130325552E-002	-4.7533521E-001	-4.7507203E-001	7.0329736E+003	3.252839917826350E+001
-6.737031040516812E-002	-4.7733945E-001	-4.7707197E-001	7.0853086E+003	3.272839917321107E+001
-6.702786122391724E-002	-4.7940478E-001	-4.7907183E-001	7.1523208E+003	3.292839916815865E+001
-6.678993034687619E-002	-4.8131397E-001	-4.8107177E-001	7.2063853E+003	3.312839916310622E+001
-6.648415269999586E-002	-4.8335981E-001	-4.8307163E-001	7.2703013E+003	3.332839915805380E+001
-6.615224470122565E-002	-4.8536932E-001	-4.8507154E-001	7.3371558E+003	3.352839915300137E+001
-6.589309952397093E-002	-4.8737481E-001	-4.8707142E-001	7.3964468E+003	3.372839914794895E+001
-6.560034410502191E-002	-4.8937309E-001	-4.8907131E-001	7.4599165E+003	3.392839914289652E+001
-6.522680620415766E-002	-4.9139595E-001	-4.9107125E-001	7.5336504E+003	3.412839913784410E+001
-6.490827498000828E-002	-4.9338821E-001	-4.9307111E-001	7.6013145E+003	3.432839913279167E+001
-6.459427373420423E-002	-4.9539727E-001	-4.9507105E-001	7.6693682E+003	3.452839912773925E+001
-6.428725177595329E-002	-4.9734932E-001	-4.9707091E-001	7.7363599E+003	3.472839912268682E+001
-6.398896729972714E-002	-4.9937391E-001	-4.9907085E-001	7.8040625E+003	3.492839911763440E+001
-6.365310525903889E-002	-5.0139326E-001	-5.0107074E-001	7.8769648E+003	3.512839911258197E+001
-6.325757695423229E-002	-5.0338811E-001	-5.0307065E-001	7.9577520E+003	3.532839910752955E+001
-6.302697022071690E-002	-5.0537920E-001	-5.0507051E-001	8.0184595E+003	3.552839910247712E+001
-6.266054011197131E-002	-5.0738788E-001	-5.0707036E-001	8.0974067E+003	3.572839909742470E+001
-6.235013303462367E-002	-5.0937492E-001	-5.0907040E-001	8.1695884E+003	3.592819909237733E+001
-6.205204669586772E-002	-5.1137447E-001	-5.1107019E-001	8.2410576E+003	3.612819908732490E+001
-6.168826885496093E-002	-5.1337487E-001	-5.1307011E-001	8.3220830E+003	3.632819908227248E+001
-6.136560313141759E-002	-5.1538801E-001	-5.1506996E-001	8.3986465E+003	3.652819907722005E+001
-6.101224706360409E-002	-5.1738483E-001	-5.1706994E-001	8.4800156E+003	3.672819907216763E+001
-6.067081437712252E-002	-5.1937968E-001	-5.1906985E-001	8.5606182E+003	3.692819906711520E+001
-6.040746497060023E-002	-5.2141517E-001	-5.2106971E-001	8.6316348E+003	3.712819906206278E+001
-6.000307926331613E-002	-5.2338147E-001	-5.2306962E-001	8.7225771E+003	3.732819905701035E+001
-5.973769888036840E-002	-5.2538866E-001	-5.2506948E-001	8.7949268E+003	3.752819905195793E+001
-5.940900353953470E-002	-5.2732027E-001	-5.2706939E-001	8.8761006E+003	3.772819904690550E+001
-5.905209014470991E-002	-5.2937144E-001	-5.2906930E-001	8.9644824E+003	3.792819904185308E+001
-5.878694879805568E-002	-5.3140491E-001	-5.3106922E-001	9.0395049E+003	3.812819903680065E+001
-5.842006079590711E-002	-5.3335124E-001	-5.3306913E-001	9.1295908E+003	3.832819903174823E+001
-5.815482721875198E-002	-5.3536427E-001	-5.3506899E-001	9.2058438E+003	3.852819902669580E+001
-5.783375368248687E-002	-5.3740358E-001	-5.3706890E-001	9.2922139E+003	3.872819902164338E+001
-5.754004588430894E-002	-5.3938979E-001	-5.3906876E-001	9.3741631E+003	3.892819901659095E+001
-5.728735983141520E-002	-5.4138976E-001	-5.4106873E-001	9.4504229E+003	3.912819901153853E+001
-5.691427608493649E-002	-5.4340392E-001	-5.4306859E-001	9.5477617E+003	3.932819900648610E+001
-5.667336109197829E-002	-5.4541332E-001	-5.4506844E-001	9.6238037E+003	3.952819900143368E+001
-5.644321362647081E-002	-5.4739809E-001	-5.4706818E-001	9.6982090E+003	3.972809899638378E+001
-5.611898894622391E-002	-5.4935580E-001	-5.4906821E-001	9.7891250E+003	3.992799899133388E+001
-5.577816974948191E-002	-5.5136383E-001	-5.5106819E-001	9.8849395E+003	4.012799898628145E+001
-5.557048662044012E-002	-5.5339903E-001	-5.5306804E-001	9.9585059E+003	4.032799898122903E+001
-5.527189242402253E-002	-5.5537760E-001	-5.5506796E-001	1.0048102E+004	4.052799897617660E+001
-5.492017216781964E-002	-5.5739290E-001	-5.5706781E-001	1.0149146E+004	4.072799897112418E+001
-5.474335080025350E-002	-5.5937737E-001	-5.5906779E-001	1.0218180E+004	4.092799896607175E+001
-5.446012375206855E-002	-5.6137824E-001	-5.6106764E-001	1.0308061E+004	4.112799896101933E+001
-5.418458093768685E-002	-5.6338310E-001	-5.6306762E-001	1.0397480E+004	4.132799895596690E+001
-5.394067360740773E-002	-5.6536609E-001	-5.6506747E-001	1.0481258E+004	4.152799895091448E+001
-5.367607126105356E-002	-5.6738472E-001	-5.6706733E-001	1.0570534E+004	4.172799894586205E+001
-5.344554292177484E-002	-5.6938350E-001	-5.6906730E-001	1.0653526E+004	4.192799894080963E+001
-5.330066811219453E-002	-5.7137752E-001	-5.7106709E-001	1.0719895E+004	4.212799893575720E+001
-5.300260863326034E-002	-5.7332718E-001	-5.7306707E-001	1.0816962E+004	4.232799893070478E+001
-5.278509667897147E-002	-5.7532507E-001	-5.7506692E-001	1.0899385E+004	4.252799892565236E+001
-5.246665535596051E-002	-5.7737148E-001	-5.7706684E-001	1.1004541E+004	4.272799892059993E+001
-5.222782877837717E-002	-5.7935190E-001	-5.7906669E-001	1.1092781E+004	4.292799891554751E+001
-5.212135431504583E-002	-5.8135408E-001	-5.8106661E-001	1.1153856E+004	4.312799891049508E+001
-5.186225340253925E-002	-5.8338720E-001	-5.8306658E-001	1.1248782E+004	4.332799890544266E+001
-5.165784370371496E-002	-5.8538991E-001	-5.8506668E-001	1.1332063E+004	4.352799890039023E+001
-5.139543702458360E-002	-5.8733743E-001	-5.8706707E-001	1.1427813E+004	4.372789889534033E+001
-5.116792268789228E-002	-5.8937585E-001	-5.8906621E-001	1.1518464E+004	4.392779889029043E+001
-5.098795695832259E-002	-5.9135151E-001	-5.9106612E-001	1.1597866E+004	4.412779888523801E+001
-5.081012788811562E-002	-5.9340012E-001	-5.9306604E-001	1.1678776E+004	4.432779888018558E+001
-5.060083678788396E-002	-5.9536815E-001	-5.9506589E-001	1.1765975E+004	4.452779887513316E+001
-5.041971992513328E-002	-5.9734380E-001	-5.9706581E-001	1.1847424E+004	4.472779887008073E+001
-5.021736835173912E-002	-5.9939563E-001	-5.9906566E-001	1.1936022E+004	4.492779886502831E+001
-5.008376369415402E-002	-6.0136801E-001	-6.0106564E-001	1.2007245E+004	4.512779885997588E+001
-4.989529286813243E-002	-6.0335261E-001	-6.0306549E-001	1.2092375E+004	4.532779885492346E+001
-4.976241803958215E-002	-6.0538292E-001	-6.0506541E-001	1.2165464E+004	4.552779884987103E+001
-4.958248326962500E-002	-6.0736156E-001	-6.0706532E-001	1.2249519E+004	4.572779884481861E+001
-4.935270746538412E-002	-6.0931146E-001	-6.0906518E-001	1.2346060E+004	4.592779883976618E+001
-4.923572404365006E-002	-6.1137593E-001	-6.1106509E-001	1.2417324E+004	4.612779883471376E+001
-4.903953835788410E-002	-6.1336619E-001	-6.1306500E-001	1.2507585E+004	4.632779882966133E+001
-4.896192850604175E-002	-6.1535877E-001	-6.1506492E-001	1.2568107E+004	4.652779882460891E+001
-4.885889870793553E-002	-6.1738592E-001	-6.1706477E-001	1.2636100E+004	4.672779881955648E+001
-4.867013229417261E-002	-6.1939204E-001	-6.1906469E-001	1.2726327E+004	4.692779881450406E+001
-4.858534666999992E-002	-6.2137675E-001	-6.2106454E-001	1.2789386E+004	4.712779880945163E+001
-4.842337363641347E-002	-6.2335402E-001	-6.2306446E-001	1.2872998E+004	4.732779880439921E+001
-4.832890096090847E-002	-6.2538475E-001	-6.2506419E-001	1.2940182E+004	4.752769879934931E+001
-4.811828052640899E-002	-6.2741065E-001	-6.2706429E-001	1.3038925E+004	4.772759879429941E+001
-4.805195105395121E-002	-6.2937695E-001	-6.2906420E-001	1.3097844E+004	4.792759878924699E+001
-4.799658980678823E-002	-6.3135326E-001	-6.3106406E-001	1.3154128E+004	4.812759878419456E+001
-4.782320152046338E-002	-6.3340539E-001	-6.3306403E-001	1.3244729E+004	4.832759877914214E+001
-4.768760743246858E-002	-6.3540274E-001	-6.3506383E-001	1.3324273E+004	4.852759877408971E+001
-4.758005934506604E-002	-6.3739485E-001	-6.3706380E-001	1.3396260E+004	4.872759876903729E+001
-4.746712116042029E-002	-6.3940161E-001	-6.3906366E-001	1.3470411E+004	4.892759876398486E+001
-4.735613055263244E-002	-6.4133143E-001	-6.4106357E-001	1.3542733E+004	4.912759875893244E+001
-4.732308086232723E-002	-6.4336723E-001	-6.4306349E-001	1.3595210E+004	4.932759875388001E+001
-4.722116802435772E-002	-6.4539033E-001	-6.4506334E-001	1.3667395E+004	4.952759874882759E+001
-4.711148025185041E-002	-6.4733833E-001	-6.4706326E-001	1.3740564E+004	4.972759874377516E+001
-4.705960532996700E-002	-6.4941007E-001	-6.4906311E-001	1.3799734E+004	4.992759873872274E+001
-4.697458959229994E-002	-6.5142065E-001	-6.5106308E-001	1.3867512E+004	5.012759873367031E+001
-4.691718817665280E-002	-6.5337485E-001	-6.5306294E-001	1.3926130E+004	5.032759872861789E+001
-4.685070578039530E-002	-6.5536737E-001	-6.5506285E-001	1.3988421E+004	5.052759872356546E+001
-4.682204691437641E-002	-6.5739727E-001	-6.5706277E-001	1.4040336E+004	5.072759871851304E+001
-4.672320608721225E-002	-6.5941828E-001	-6.5906262E-001	1.4113293E+004	5.092759871346061E+001
-4.665431800950942E-002	-6.6138685E-001	-6.6106254E-001	1.4176326E+004	5.112759870840819E+001
-4.654726548060384E-002	-6.6338658E-001	-6.6306156E-001	1.4251892E+004	5.132749870335829E+001
-4.651972383574099E-002	-6.6540343E-001	-6.6506332E-001	1.4303684E+004	5.152749869830586E+001
-4.646606155425115E-002	-6.6741741E-001	-6.6706222E-001	1.4363546E+004	5.172739869325596E+001
-4.646695549483670E-002	-6.6937959E-001	-6.6906214E-001	1.4405497E+004	5.192739868820354E+001
-4.640618957977272E-002	-6.7139506E-001	-6.7106199E-001	1.4467791E+004	5.212739868315111E+001
-4.636027109719465E-002	-6.7335367E-001	-6.7306191E-001	1.4524369E+004	5.232739867809869E+001
-4.638464067447012E-002	-6.7534584E-001	-6.7506182E-001	1.4559687E+004	5.252739867304626E+001
-4.626927890813794E-002	-6.7740881E-001	-6.7706174E-001	1.4640574E+004	5.272739866799384E+001
-4.628648739725205E-002	-6.7937291E-001	-6.7906165E-001	1.4677564E+004	5.292739866294141E+001
-4.624586323193813E-002	-6.8138337E-001	-6.8106151E-001	1.4733932E+004	5.312739865788899E+001
-4.623027394664048E-002	-6.8335408E-001	-6.8306142E-001	1.4781527E+004	5.332739865283656E+001
-4.621464195830205E-002	-6.8538374E-001	-6.8506128E-001	1.4830445E+004	5.352739864778414E+001
-4.612961798128097E-002	-6.8737543E-001	-6.8706125E-001	1.4900956E+004	5.372739864273171E+001
-4.610089983293772E-002	-6.8939829E-001	-6.8906111E-001	1.4954118E+004	5.392739863767929E+001
-4.607959230490621E-002	-6.9140446E-001	-6.9106102E-001	1.5004570E+004	5.412739863262686E+001
-4.621215795759159E-002	-6.9337821E-001	-6.9306093E-001	1.5004238E+004	5.432739862757444E+001
-4.612408413566538E-002	-6.9538927E-001	-6.9506073E-001	1.5076489E+004	5.452739862252201E+001
-4.612101556742737E-002	-6.9741654E-001	-6.9706076E-001	1.5121448E+004	5.472739861746959E+001
-4.610785245821458E-002	-6.9937623E-001	-6.9906062E-001	1.5168268E+004	5.492739861241716E+001
-4.611576116346094E-002	-7.0133698E-001	-7.0106053E-001	1.5208184E+004	5.512739860736474E+001
-4.613776268532799E-002	-7.0334351E-001	-7.0306021E-001	1.5244422E+004	5.532729860231484E+001
-4.610898843971700E-002	-7.0536202E-001	-7.0506024E-001	1.5297712E+004	5.552719859726494E+001
-4.616064792145214E-002	-7.0736772E-001	-7.0706022E-001	1.5324042E+004	5.572719859221252E+001
-4.620327589116835E-002	-7.0937574E-001	-7.0906007E-001	1.5353364E+004	5.592719858716009E+001
-4.608492310055423E-002	-7.1133983E-001	-7.1106005E-001	1.5435413E+004	5.612719858210767E+001
-4.618758592641614E-002	-7.1339375E-001	-7.1305984E-001	1.5445573E+004	5.632719857705524E+001
-4.626269861522547E-002	-7.1538180E-001	-7.1505976E-001	1.5463469E+004	5.652719857200282E+001
-4.627031575077445E-002	-7.1738446E-001	-7.1705967E-001	1.5504205E+004	5.672719856695039E+001
-4.629055619352807E-002	-7.1938145E-001	-7.1905959E-001	1.5540566E+004	5.692719856189797E+001
-4.628734881651764E-002	-7.2138631E-001	-7.2105950E-001	1.5584956E+004	5.712719855684554E+001
-4.641809058270063E-002	-7.2338009E-001	-7.2305936E-001	1.5584012E+004	5.732719855179312E+001
-4.641142793927905E-002	-7.2535157E-001	-7.2505927E-001	1.5628728E+004	5.752719854674069E+001
-4.637475607730862E-002	-7.2737473E-001	-7.2705919E-001	1.5684713E+004	5.772719854168827E+001
-4.649333908410569E-002	-7.2936332E-001	-7.2905910E-001	1.5687479E+004	5.792719853663584E+001
-4.656416566988625E-002	-7.3136264E-001	-7.3105896E-001	1.5706556E+004	5.812719853158342E+001
-4.661070375783516E-002	-7.3339260E-001	-7.3305881E-001	1.5734425E+004	5.832719852653099E+001
-4.666426417189756E-002	-7.3539722E-001	-7.3505878E-001	1.5759323E+004	5.852719852147857E+001
-4.671834548644904E-002	-7.3734927E-001	-7.3705858E-001	1.5782863E+004	5.872719851642614E+001
-4.680934060621544E-002	-7.3938113E-001	-7.3905861E-001	1.5795590E+004	5.892719851137372E+001
-4.689331881436920E-002	-7.4136704E-001	-7.4105841E-001	1.5809651E+004	5.912719850632129E+001
-4.691128513014264E-002	-7.4338251E-001	-7.4305815E-001	1.5846561E+004	5.932699850127392E+001
-4.699447120317046E-002	-7.4539506E-001	-7.4505818E-001	1.5861335E+004	5.952699849622149E+001
-4.714072215483811E-002	-7.4741268E-001	-7.4705809E-001	1.5854927E+004	5.972699849116907E+001
-4.723983492080297E-002	-7.4937630E-001	-7.4905801E-001	1.5863229E+004	5.992699848611664E+001
-4.725538869969159E-002	-7.5139582E-001	-7.5105792E-001	1.5900743E+004	6.012699848106422E+001
-4.741064658601801E-002	-7.5337398E-001	-7.5305790E-001	1.5890396E+004	6.032699847601180E+001
-4.751204101547246E-002	-7.5538903E-001	-7.5505769E-001	1.5898896E+004	6.052699847095937E+001
-4.766442471124688E-002	-7.5741196E-001	-7.5705761E-001	1.5890509E+004	6.072699846590695E+001
-4.772635403114578E-002	-7.5939053E-001	-7.5905752E-001	1.5911346E+004	6.092699846085452E+001
-4.785359245508500E-002	-7.6137239E-001	-7.6105744E-001	1.5910454E+004	6.112699845580210E+001
-4.800912470539920E-002	-7.6338774E-001	-7.6305729E-001	1.5900889E+004	6.132699845074967E+001
-4.813752953351735E-002	-7.6539242E-001	-7.6505721E-001	1.5900118E+004	6.152699844569725E+001
-4.824270947800424E-002	-7.6739007E-001	-7.6705712E-001	1.5906861E+004	6.172699844064482E+001
-4.841236811597943E-002	-7.6941442E-001	-7.6905704E-001	1.5892931E+004	6.192699843559240E+001
-4.852966380742729E-002	-7.7139467E-001	-7.7105695E-001	1.5895323E+004	6.212699843053997E+001
-4.870359824791903E-002	-7.7336854E-001	-7.7305681E-001	1.5879084E+004	6.232699842548755E+001
-4.888216130405909E-002	-7.7539903E-001	-7.7505672E-001	1.5862617E+004	6.252699842043512E+001
-4.903829089722803E-002	-7.7737910E-001	-7.7705663E-001	1.5852491E+004	6.272699841538270E+001
-4.913992973101533E-002	-7.7939039E-001	-7.7905655E-001	1.5860633E+004	6.292699841033027E+001
-4.930594338573835E-002	-7.8138441E-001	-7.8105623E-001	1.5847672E+004	6.312689840528037E+001
-4.958264655676481E-002	-7.8337365E-001	-7.8305632E-001	1.5799352E+004	6.332679840023047E+001
-4.977297219986321E-002	-7.8538185E-001	-7.8505623E-001	1.5779284E+004	6.352679839517805E+001
-4.995891193926882E-002	-7.8737915E-001	-7.8705615E-001	1.5760534E+004	6.372679839012562E+001
-5.018285447108639E-002	-7.8938079E-001	-7.8905612E-001	1.5730090E+004	6.392679838507320E+001
-5.046892813100656E-002	-7.9132557E-001	-7.9105586E-001	1.5679461E+004	6.412679838002077E+001
-5.064971598716295E-002	-7.9339343E-001	-7.9305583E-001	1.5664321E+004	6.432679837496835E+001
-5.089634751991834E-002	-7.9539096E-001	-7.9505575E-001	1.5627663E+004	6.452679836991592E+001
-5.127130801020734E-002	-7.9738796E-001	-7.9705566E-001	1.5552323E+004	6.472679836486350E+001
-5.147923671275101E-002	-7.9937893E-001	-7.9905558E-001	1.5528182E+004	6.492679835981107E+001
-5.171778633115620E-002	-8.0137962E-001	-8.0105537E-001	1.5495242E+004	6.512679835475865E+001
-5.198771698884008E-002	-8.0335099E-001	-8.0305535E-001	1.5452707E+004	6.532679834970622E+001
-5.222578867298466E-002	-8.0537921E-001	-8.0505526E-001	1.5421102E+004	6.552679834465380E+001
-5.249064409357759E-002	-8.0738515E-001	-8.0705518E-001	1.5381506E+004	6.572679833960137E+001
-5.299021906267976E-002	-8.0936527E-001	-8.0905497E-001	1.5273861E+004	6.592679833454895E+001
-5.330843611698510E-002	-8.1137991E-001	-8.1105489E-001	1.5220479E+004	6.612679832949652E+001
-5.357900554527556E-002	-8.1336594E-001	-8.1305480E-001	1.5180684E+004	6.632679832444410E+001
-5.387161066122104E-002	-8.1539673E-001	-8.1505466E-001	1.5135926E+004	6.652679831939167E+001
-5.413241866636020E-002	-8.1738168E-001	-8.1705457E-001	1.5099670E+004	6.672679831433925E+001
-5.458080169085888E-002	-8.1937402E-001	-8.1905448E-001	1.5012129E+004	6.692679830928682E+001
-5.501483184021305E-002	-8.2139844E-001	-8.2105416E-001	1.4930491E+004	6.712659830423945E+001
-5.555803672507681E-002	-8.2333475E-001	-8.2305437E-001	1.4819363E+004	6.732659829918703E+001
-5.597286411749036E-002	-8.2535046E-001	-8.2505417E-001	1.4745546E+004	6.752659829413460E+001
-5.624777645183121E-002	-8.2740366E-001	-8.2705408E-001	1.4709979E+004	6.772659828908218E+001
-5.691646625205460E-002	-8.2942235E-001	-8.2905388E-001	1.4572626E+004	6.792659828402975E+001
-5.738470619259273E-002	-8.3135313E-001	-8.3105391E-001	1.4487364E+004	6.812659827897733E+001
-5.789810675829909E-002	-8.3338773E-001	-8.3305377E-001	1.4394041E+004	6.832659827392490E+001
-5.848143792335292E-002	-8.3538121E-001	-8.3505368E-001	1.4284553E+004	6.852659826887248E+001
-5.920489386036643E-002	-8.3738881E-001	-8.3705360E-001	1.4143912E+004	6.872659826382005E+001
-5.988850227985831E-002	-8.3936286E-001	-8.3905339E-001	1.4015426E+004	6.892659825876763E+001
-6.061357809410184E-002	-8.4143162E-001	-8.4105343E-001	1.3881899E+004	6.912659825371520E+001
-6.165767903756464E-002	-8.4342104E-001	-8.4305322E-001	1.3679092E+004	6.932659824866278E+001
-6.261013955661343E-002	-8.4540701E-001	-8.4505320E-001	1.3502717E+004	6.952659824361035E+001
-6.396803769489945E-002	-8.4732717E-001	-8.4705299E-001	1.3246103E+004	6.972659823855793E+001
-6.525733182312321E-002	-8.4940255E-001	-8.4905303E-001	1.3016201E+004	6.992659823350550E+001
-6.687076370360640E-002	-8.5136575E-001	-8.5105288E-001	1.2731509E+004	7.012659822845308E+001
-6.844157054112204E-002	-8.5338700E-001	-8.5305279E-001	1.2468840E+004	7.032659822340065E+001
-7.027071172291288E-002	-8.5539329E-001	-8.5505265E-001	1.2172828E+004	7.052659821834823E+001
-7.227704773420496E-002	-8.5737348E-001	-8.5705251E-001	1.1862320E+004	7.072659821329580E+001
-7.416949638475989E-002	-8.5941094E-001	-8.5905254E-001	1.1587121E+004	7.092659820824338E+001
-7.632762248810332E-002	-8.6142570E-001	-8.6105216E-001	1.1285897E+004	7.112639820319600E+001
-7.800939191838130E-002	-8.6340678E-001	-8.6305231E-001	1.1067985E+004	7.132639819814358E+001
-7.958170548746590E-002	-8.6534232E-001	-8.6505210E-001	1.0873634E+004	7.152639819309115E+001
-8.062418424651074E-002	-8.6742258E-001	-8.6705202E-001	1.0758839E+004	7.172639818803873E+001
-8.136902594740358E-002	-8.6938417E-001	-8.6905193E-001	1.0684461E+004	7.192639818298630E+001
-8.193189084536190E-002	-8.7137431E-001	-8.7105185E-001	1.0635350E+004	7.212639817793388E+001
-8.226060209365038E-002	-8.7342262E-001	-8.7305176E-001	1.0617751E+004	7.232639817288145E+001
-8.287043935384852E-002	-8.7538868E-001	-8.7505162E-001	1.0563341E+004	7.252639816782903E+001
-8.344622911112465E-002	-8.7737089E-001	-8.7705153E-001	1.0514207E+004	7.272639816277660E+001
-8.432371761383739E-002	-8.7935734E-001	-8.7905145E-001	1.0428352E+004	7.292639815772418E+001
-8.570143503460009E-002	-8.8134074E-001	-8.8105136E-001	1.0283851E+004	7.312639815267175E+001
-8.763868875364444E-002	-8.8339275E-001	-8.8305116E-001	1.0079940E+004	7.332639814761933E+001
-9.007172655977302E-002	-8.8537127E-001	-8.8505107E-001	9.8296250E+003	7.352639814256690E+001
-9.310698227021375E-002	-8.8736284E-001	-8.8705105E-001	9.5305723E+003	7.372639813751448E+001
-9.664181011777517E-002	-8.8936216E-001	-8.8905096E-001	9.2026641E+003	7.392639813246205E+001
-1.011091267400746E-001	-8.9137495E-001	-8.9105088E-001	8.8159688E+003	7.412639812740963E+001
-1.060464115519830E-001	-8.9339894E-001	-8.9305067E-001	8.4246035E+003	7.432639812235720E+001
-1.123369525835056E-001	-8.9536804E-001	-8.9505064E-001	7.9703784E+003	7.452639811730478E+001
-1.194276452294701E-001	-8.9732993E-001	-8.9705050E-001	7.5135864E+003	7.472639811225235E+001
-1.275912652356719E-001	-8.9939266E-001	-8.9905030E-001	7.0490142E+003	7.492629810720246E+001
-1.368602642930976E-001	-9.0142995E-001	-9.0105033E-001	6.5864985E+003	7.512619810215256E+001
-1.475885663099182E-001	-9.0334207E-001	-9.0305024E-001	6.1206777E+003	7.532619809710013E+001
-1.599656808836276E-001	-9.0535820E-001	-9.0505010E-001	5.6597026E+003	7.552619809204771E+001
-1.737699454128654E-001	-9.0741503E-001	-9.0704995E-001	5.2219331E+003	7.572619808699528E+001
-1.897668892701421E-001	-9.0937424E-001	-9.0904987E-001	4.7920596E+003	7.592619808194286E+001
-2.079297024904498E-001	-9.1138184E-001	-9.1104978E-001	4.3831250E+003	7.612619807689043E+001
-2.283970195052469E-001	-9.1339225E-001	-9.1304970E-001	3.9991426E+003	7.632619807183801E+001
-2.514724660424048E-001	-9.1538131E-001	-9.1504961E-001	3.6400857E+003	7.652619806678558E+001
-2.778068435190404E-001	-9.1737747E-001	-9.1704947E-001	3.3022134E+003	7.672619806173316E+001
-3.068851538323495E-001	-9.1934139E-001	-9.1904938E-001	2.9957180E+003	7.692619805668073E+001
-3.397625968907700E-001	-9.2137283E-001	-9.2104930E-001	2.7118137E+003	7.712619805162831E+001
-3.763200900477273E-001	-9.2337686E-001	-9.2304921E-001	2.4537007E+003	7.732619804657588E+001
-4.165757772451473E-001	-9.2534918E-001	-9.2504907E-001	2.2213225E+003	7.752619804152346E+001
-4.614831293065134E-001	-9.2739016E-001	-9.2704898E-001	2.0095863E+003	7.772619803647103E+001
-5.103248855787559E-001	-9.2932028E-001	-9.2904890E-001	1.8210366E+003	7.792619803141861E+001
-5.640697563426089E-001	-9.3141258E-001	-9.3104881E-001	1.6512366E+003	7.812619802636618E+001
-6.228871206898665E-001	-9.3342042E-001	-9.3304873E-001	1.4985387E+003	7.832619802131376E+001
-6.868087164212913E-001	-9.3538088E-001	-9.3504852E-001	1.3619235E+003	7.852619801626133E+001
-7.552009043611090E-001	-9.3737441E-001	-9.3704849E-001	1.2412252E+003	7.872619801120891E+001
-8.283579314034204E-001	-9.3944681E-001	-9.3904907E-001	1.1341073E+003	7.892609800615901E+001
-9.057924369869621E-001	-9.4141340E-001	-9.4104832E-001	1.0393258E+003	7.912599800110911E+001
-9.889549980459567E-001	-9.4337147E-001	-9.4304812E-001	9.5390741E+002	7.932599799605669E+001
-1.079038708286809E+000	-9.4547600E-001	-9.4514805E-001	8.7622064E+002	7.953599799075164E+001
-1.176067578414132E+000	-9.4754827E-001	-9.4724792E-001	8.0569202E+002	7.974599798544659E+001
-1.274376051031608E+000	-9.4957840E-001	-9.4924784E-001	7.4513202E+002	7.994599798039417E+001
-1.375818331385886E+000	-9.5157206E-001	-9.5124775E-001	6.9164081E+002	8.014599797534174E+001
-1.481227568479564E+000	-9.5354915E-001	-9.5324767E-001	6.4375598E+002	8.034599797028932E+001
-1.590621413101271E+000	-9.5558214E-001	-9.5524752E-001	6.0076025E+002	8.054599796523689E+001
-1.704886114820336E+000	-9.5756137E-001	-9.5724744E-001	5.6165710E+002	8.074599796018447E+001
-1.822618239979491E+000	-9.5957989E-001	-9.5924735E-001	5.2648431E+002	8.094599795513204E+001
-1.943872595607152E+000	-9.6158642E-001	-9.6124727E-001	4.9467563E+002	8.114599795007962E+001
-2.069515996424659E+000	-9.6359313E-001	-9.6324712E-001	4.6561279E+002	8.134599794502719E+001
-2.198078832624986E+000	-9.6558380E-001	-9.6524704E-001	4.3928534E+002	8.154599793997477E+001
-2.328928398251392E+000	-9.6757549E-001	-9.6724689E-001	4.1545953E+002	8.174599793492234E+001
-2.463777984046882E+000	-9.6955132E-001	-9.6924686E-001	3.9352219E+002	8.194599792986992E+001
-2.601833901927726E+000	-9.7157872E-001	-9.7124678E-001	3.7342075E+002	8.214599792481749E+001
-2.743478572980209E+000	-9.7357506E-001	-9.7324657E-001	3.5486884E+002	8.234599791976507E+001
-2.887819106261887E+000	-9.7556108E-001	-9.7524649E-001	3.3781931E+002	8.254599791471264E+001
-3.032837327053386E+000	-9.7756362E-001	-9.7724640E-001	3.2232642E+002	8.274589790966274E+001
-3.180248806992225E+000	-9.7956824E-001	-9.7924626E-001	3.0801624E+002	8.294579790461285E+001
-3.330982789025541E+000	-9.8154509E-001	-9.8124617E-001	2.9467133E+002	8.314579789956042E+001
-3.484935254703291E+000	-9.8354840E-001	-9.8324609E-001	2.8222861E+002	8.334579789450800E+001
-3.642695086815991E+000	-9.8556650E-001	-9.8524600E-001	2.7055969E+002	8.354579788945557E+001
-3.803419244634043E+000	-9.8755985E-001	-9.8724586E-001	2.5965054E+002	8.374579788440315E+001
-3.965778181409618E+000	-9.8955137E-001	-9.8924589E-001	2.4952261E+002	8.394579787935072E+001
-4.130200899715067E+000	-9.9160016E-001	-9.9124569E-001	2.4008521E+002	8.414579787429830E+001
-4.299148241036903E+000	-9.9355435E-001	-9.9324560E-001	2.3110493E+002	8.434579786924587E+001
-4.470871771915967E+000	-9.9555218E-001	-9.9524552E-001	2.2267519E+002	8.454579786419345E+001
-4.643979870948655E+000	-9.9755460E-001	-9.9724537E-001	2.1480597E+002	8.474579785914102E+001
-4.818552152200880E+000	-9.9955350E-001	-9.9924529E-001	2.0743855E+002	8.494579785408860E+001
-4.999102687754608E+000	-1.0015743E+000	-1.0012451E+000	2.0035081E+002	8.514579784903617E+001
-5.179603040590024E+000	-1.0035642E+000	-1.0032450E+000	1.9375311E+002	8.534579784398375E+001
-5.362594944110256E+000	-1.0055493E+000	-1.0052450E+000	1.8751170E+002	8.554579783893132E+001
-5.548704251444249E+000	-1.0076207E+000	-1.0072448E+000	1.8159567E+002	8.574579783387890E+001
-5.737711862337825E+000	-1.0095459E+000	-1.0092448E+000	1.7594922E+002	8.594579782882647E+001
-5.929378226264248E+000	-1.0115855E+000	-1.0112447E+000	1.7060565E+002	8.614579782377405E+001
-6.126816062767773E+000	-1.0135702E+000	-1.0132445E+000	1.6543179E+002	8.634579781872162E+001
-6.327088233987681E+000	-1.0156244E+000	-1.0152451E+000	1.6052003E+002	8.654579781366920E+001
-6.527371076893701E+000	-1.0175780E+000	-1.0172443E+000	1.5589400E+002	8.674559780862182E+001
-6.728602595069788E+000	-1.0195618E+000	-1.0192442E+000	1.5152652E+002	8.694559780356940E+001
-6.930018894729136E+000	-1.0215989E+000	-1.0212443E+000	1.4741647E+002	8.714559779851697E+001
-7.136152469381983E+000	-1.0235823E+000	-1.0232440E+000	1.4343616E+002	8.734559779346455E+001
-7.345014107740895E+000	-1.0255800E+000	-1.0252440E+000	1.3962943E+002	8.754559778841212E+001
-7.559508717181721E+000	-1.0275759E+000	-1.0272439E+000	1.3593156E+002	8.774559778335970E+001
-7.778975121896572E+000	-1.0296282E+000	-1.0292437E+000	1.3236038E+002	8.794559777830727E+001
-7.998530865729254E+000	-1.0315962E+000	-1.0312436E+000	1.2897321E+002	8.814559777325485E+001
-8.223508117758570E+000	-1.0335965E+000	-1.0332435E+000	1.2568803E+002	8.834559776820242E+001
-8.453008568949151E+000	-1.0356208E+000	-1.0352434E+000	1.2251505E+002	8.854559776315000E+001
-8.683755001581162E+000	-1.0376046E+000	-1.0372432E+000	1.1948801E+002	8.874559775809757E+001
-8.926088547355221E+000	-1.0396050E+000	-1.0392432E+000	1.1646815E+002	8.894559775304515E+001
-9.176873238584037E+000	-1.0415939E+000	-1.0412431E+000	1.1350204E+002	8.914559774799272E+001
-9.437175620372599E+000	-1.0436199E+000	-1.0432431E+000	1.1058604E+002	8.934559774294030E+001
-9.699483014626274E+000	-1.0456196E+000	-1.0452429E+000	1.0780158E+002	8.954559773788787E+001
-9.967890606310334E+000	-1.0475917E+000	-1.0472428E+000	1.0509663E+002	8.974559773283545E+001
-1.024207895859030E+001	-1.0495598E+000	-1.0492427E+000	1.0247527E+002	8.994559772778302E+001
-1.052389134240259E+001	-1.0516180E+000	-1.0512426E+000	9.9926720E+001	9.014559772273060E+001
-1.081930417487197E+001	-1.0536350E+000	-1.0532417E+000	9.7384727E+001	9.034549771768070E+001
-1.115933447052646E+001	-1.0557598E+000	-1.0554427E+000	9.4607773E+001	9.056549771212303E+001
-1.145643747427295E+001	-1.0577898E+000	-1.0574424E+000	9.2331474E+001	9.076539770707313E+001
-1.176708823212692E+001	-1.0597818E+000	-1.0594422E+000	9.0063217E+001	9.096539770202071E+001
-1.207485925482240E+001	-1.0617683E+000	-1.0614421E+000	8.7932144E+001	9.116539769696828E+001
-1.238713594548022E+001	-1.0638199E+000	-1.0634419E+000	8.5881020E+001	9.136539769191586E+001
-1.271031166988163E+001	-1.0657699E+000	-1.0654420E+000	8.3850807E+001	9.156539768686343E+001
-1.304225120455226E+001	-1.0678060E+000	-1.0674418E+000	8.1872826E+001	9.176539768181101E+001
-1.337773475706442E+001	-1.0697817E+000	-1.0694417E+000	7.9967323E+001	9.196539767675858E+001
-1.372367246742959E+001	-1.0718193E+000	-1.0714415E+000	7.8100037E+001	9.216539767170616E+001
-1.406395893788930E+001	-1.0737674E+000	-1.0734414E+000	7.6348877E+001	9.236539766665373E+001
-1.440320760146827E+001	-1.0757958E+000	-1.0754414E+000	7.4691399E+001	9.256539766160131E+001
-1.474241440528648E+001	-1.0777950E+000	-1.0774413E+000	7.3108444E+001	9.276539765654888E+001
-1.508403255866506E+001	-1.0797676E+000	-1.0794412E+000	7.1583481E+001	9.296539765149646E+001
-1.542718819331148E+001	-1.0817722E+000	-1.0814412E+000	7.0121155E+001	9.316539764644403E+001
-1.576985713711127E+001	-1.0838354E+000	-1.0834409E+000	6.8728294E+001	9.336539764139161E+001
-1.612062673084858E+001	-1.0857522E+000	-1.0854409E+000	6.7351738E+001	9.356539763633918E+001
-1.647698769142292E+001	-1.0878143E+000	-1.0874407E+000	6.6020218E+001	9.376539763128676E+001
-1.683362975398965E+001	-1.0897652E+000	-1.0894407E+000	6.4737389E+001	9.396539762623433E+001
-1.719797845600408E+001	-1.0918061E+000	-1.0914406E+000	6.3484558E+001	9.416539762118191E+001
-1.756947307383724E+001	-1.0938028E+000	-1.0934403E+000	6.2255867E+001	9.436529761613201E+001
-1.794327402804180E+001	-1.0957739E+000	-1.0954404E+000	6.1068783E+001	9.456519761108211E+001
-1.832197886286417E+001	-1.0978072E+000	-1.0974402E+000	5.9917500E+001	9.476519760602969E+001
-1.870764954601012E+001	-1.0997806E+000	-1.0994401E+000	5.8787746E+001	9.496519760097726E+001
-1.909916708880272E+001	-1.1017555E+000	-1.1014400E+000	5.7686050E+001	9.516519759592484E+001
-1.948748581952792E+001	-1.1037529E+000	-1.1034399E+000	5.6639057E+001	9.536519759087241E+001
-1.988747420521824E+001	-1.1057719E+000	-1.1054399E+000	5.5601425E+001	9.556519758581999E+001
-2.027896860897405E+001	-1.1078268E+000	-1.1074396E+000	5.4629349E+001	9.576519758076756E+001
-2.067678847064234E+001	-1.1097844E+000	-1.1094396E+000	5.3672955E+001	9.596519757571514E+001
-2.107132130482844E+001	-1.1118159E+000	-1.1114396E+000	5.2764416E+001	9.616519757066271E+001
-2.146798526564960E+001	-1.1138082E+000	-1.1134394E+000	5.1882286E+001	9.636519756561029E+001
-2.188097130441332E+001	-1.1158055E+000	-1.1154393E+000	5.0994331E+001	9.656519756055786E+001
-2.228201155138129E+001	-1.1177983E+000	-1.1174392E+000	5.0165951E+001	9.676519755550544E+001
-2.269531729040227E+001	-1.1197919E+000	-1.1194391E+000	4.9340218E+001	9.696519755045301E+001
-2.311373038573061E+001	-1.1217966E+000	-1.1214390E+000	4.8533775E+001	9.716519754540059E+001
-2.353246365747759E+001	-1.1237499E+000	-1.1234390E+000	4.7753174E+001	9.736519754034816E+001
-2.396570832753667E+001	-1.1257955E+000	-1.1254388E+000	4.6975266E+001	9.756519753529574E+001
-2.439632641566308E+001	-1.1277907E+000	-1.1274388E+000	4.6227890E+001	9.776519753024331E+001
-2.481300088432101E+001	-1.1297952E+000	-1.1294386E+000	4.5532387E+001	9.796519752519089E+001
-2.523701821373427E+001	-1.1317949E+000	-1.1314389E+000	4.4846619E+001	9.816519752013846E+001
-2.565609909234847E+001	-1.1337733E+000	-1.1334392E+000	4.4191181E+001	9.836509751508856E+001
-2.609358828867911E+001	-1.1358017E+000	-1.1354383E+000	4.3528000E+001	9.856499751003867E+001
-2.655481252729760E+001	-1.1377927E+000	-1.1374382E+000	4.2846951E+001	9.876499750498624E+001
-2.700707558547560E+001	-1.1397895E+000	-1.1394382E+000	4.2203365E+001	9.896499749993382E+001
-2.747151651485171E+001	-1.1417850E+000	-1.1414380E+000	4.1562504E+001	9.916499749488139E+001
-2.794409646631101E+001	-1.1438437E+000	-1.1434379E+000	4.0933285E+001	9.936499748982897E+001
-2.841733777468980E+001	-1.1457858E+000	-1.1454377E+000	4.0319958E+001	9.956499748477654E+001
-2.889704754698573E+001	-1.1478136E+000	-1.1474378E+000	3.9720791E+001	9.976499747972412E+001
-2.936499486515578E+001	-1.1498009E+000	-1.1494375E+000	3.9155495E+001	9.996499747467169E+001
-2.982996348918418E+001	-1.1517944E+000	-1.1514375E+000	3.8611996E+001	1.001649974696193E+002
-3.030704756388582E+001	-1.1537933E+000	-1.1534374E+000	3.8070133E+001	1.003649974645668E+002
-3.080119623348560E+001	-1.1558278E+000	-1.1554374E+000	3.7525417E+001	1.005649974595144E+002
-3.131179134132094E+001	-1.1578280E+000	-1.1574372E+000	3.6977379E+001	1.007649974544620E+002
-3.182530222782462E+001	-1.1597812E+000	-1.1594371E+000	3.6442112E+001	1.009649974494096E+002
-3.233567819573701E+001	-1.1618179E+000	-1.1614369E+000	3.5929909E+001	1.011649974443571E+002
-3.285856353831150E+001	-1.1637688E+000	-1.1634369E+000	3.5417519E+001	1.013649974393047E+002
-3.337120096618628E+001	-1.1658094E+000	-1.1654367E+000	3.4934593E+001	1.015649974342523E+002
-3.388777475211060E+001	-1.1678118E+000	-1.1674367E+000	3.4461151E+001	1.017649974291999E+002
-3.441815996980995E+001	-1.1698140E+000	-1.1694366E+000	3.3988277E+001	1.019649974241474E+002
-3.492588866819330E+001	-1.1717931E+000	-1.1714361E+000	3.3550846E+001	1.021648974190975E+002
-3.545686293567380E+001	-1.1738026E+000	-1.1734363E+000	3.3105091E+001	1.023647974140476E+002
-3.599829000058901E+001	-1.1757874E+000	-1.1754364E+000	3.2662315E+001	1.025647974089952E+002
-3.655569132196126E+001	-1.1778059E+000	-1.1774361E+000	3.2219494E+001	1.027647974039428E+002
-3.712814380846874E+001	-1.1798133E+000	-1.1794361E+000	3.1776791E+001	1.029647973988904E+002
-3.770689028163616E+001	-1.1817869E+000	-1.1814358E+000	3.1341404E+001	1.031647973938379E+002
-3.828418343732142E+001	-1.1837974E+000	-1.1834358E+000	3.0921316E+001	1.033647973887855E+002
-3.884953276965081E+001	-1.1858222E+000	-1.1854358E+000	3.0523462E+001	1.035647973837331E+002
-3.943079690165524E+001	-1.1878102E+000	-1.1874356E+000	3.0123920E+001	1.037647973786807E+002
-4.001558625562939E+001	-1.1897911E+000	-1.1894355E+000	2.9733191E+001	1.039647973736282E+002
-4.062025435657463E+001	-1.1918187E+000	-1.1914355E+000	2.9340504E+001	1.041647973685758E+002
-4.120419998287883E+001	-1.1938020E+000	-1.1934353E+000	2.8972824E+001	1.043647973635234E+002
-4.180132169031492E+001	-1.1957831E+000	-1.1954353E+000	2.8606348E+001	1.045647973584710E+002
-4.240035972627649E+001	-1.1978143E+000	-1.1974351E+000	2.8250099E+001	1.047647973534185E+002
-4.300613485496331E+001	-1.1998285E+000	-1.1994350E+000	2.7899008E+001	1.049647973483661E+002
-4.361153463144143E+001	-1.2018034E+000	-1.2014350E+000	2.7557009E+001	1.051647973433137E+002
-4.423513046576046E+001	-1.2037971E+000	-1.2034348E+000	2.7213598E+001	1.053647973382613E+002
-4.490359630741500E+001	-1.2058223E+000	-1.2054348E+000	2.6853580E+001	1.055647973332088E+002
-4.551908709943450E+001	-1.2078294E+000	-1.2074345E+000	2.6534569E+001	1.057647973281564E+002
-4.614649439209461E+001	-1.2098268E+000	-1.2094345E+000	2.6217091E+001	1.059647973231040E+002
-4.681475739776505E+001	-1.2118096E+000	-1.2114340E+000	2.5885206E+001	1.061645973180566E+002
-4.744665285735471E+001	-1.2137960E+000	-1.2134343E+000	2.5582333E+001	1.063645973130042E+002
-4.806435387367031E+001	-1.2158494E+000	-1.2154342E+000	2.5296282E+001	1.065645973079518E+002
-4.875331923885932E+001	-1.2178156E+000	-1.2174340E+000	2.4979134E+001	1.067645973028993E+002
-4.942167600996095E+001	-1.2197969E+000	-1.2194340E+000	2.4681416E+001	1.069645972978469E+002
-5.010119885084589E+001	-1.2217817E+000	-1.2214339E+000	2.4386278E+001	1.071645972927945E+002
-5.077942471331210E+001	-1.2238500E+000	-1.2234339E+000	2.4101297E+001	1.073645972877421E+002
-5.146912865465731E+001	-1.2258260E+000	-1.2254337E+000	2.3816725E+001	1.075645972826896E+002
-5.210454302093638E+001	-1.2278240E+000	-1.2274336E+000	2.3564625E+001	1.077645972776372E+002
-5.278542195426087E+001	-1.2297971E+000	-1.2294335E+000	2.3298044E+001	1.079645972725848E+002
-5.346766992599254E+001	-1.2318407E+000	-1.2314334E+000	2.3038982E+001	1.081645972675324E+002
-5.419529473862690E+001	-1.2338278E+000	-1.2334332E+000	2.2766327E+001	1.083645972624799E+002
-5.486232179903402E+001	-1.2358907E+000	-1.2354332E+000	2.2527132E+001	1.085645972574275E+002
-5.554228183147302E+001	-1.2378786E+000	-1.2374331E+000	2.2287140E+001	1.087645972523751E+002
-5.624494577265108E+001	-1.2398385E+000	-1.2394329E+000	2.2043554E+001	1.089645972473227E+002
-5.698633184508676E+001	-1.2418381E+000	-1.2414329E+000	2.1791859E+001	1.091645972422702E+002
-5.766708123278477E+001	-1.2438395E+000	-1.2434328E+000	2.1569317E+001	1.093645972372178E+002
-5.842558850290561E+001	-1.2458645E+000	-1.2454327E+000	2.1323954E+001	1.095645972321654E+002
-5.912299600263827E+001	-1.2478682E+000	-1.2474326E+000	2.1106308E+001	1.097645972271130E+002
-5.990211749777200E+001	-1.2498499E+000	-1.2494326E+000	2.0864870E+001	1.099644972220631E+002
-6.058761408757823E+001	-1.2518506E+000	-1.2514333E+000	2.0661823E+001	1.101644972170106E+002
-6.129982856666152E+001	-1.2538675E+000	-1.2534323E+000	2.0454666E+001	1.103643972119608E+002
-6.212617735960066E+001	-1.2558447E+000	-1.2554321E+000	2.0214420E+001	1.105643972069083E+002
-6.281655282011934E+001	-1.2578962E+000	-1.2574320E+000	2.0024916E+001	1.107643972018559E+002
-6.350921828838705E+001	-1.2598705E+000	-1.2594320E+000	1.9837601E+001	1.109643971968035E+002
-6.434253169403587E+001	-1.2618743E+000	-1.2614319E+000	1.9611822E+001	1.111643971917511E+002
-6.501556179258569E+001	-1.2638373E+000	-1.2634318E+000	1.9438997E+001	1.113643971866986E+002
-6.575413654288491E+001	-1.2658613E+000	-1.2654316E+000	1.9251432E+001	1.115643971816462E+002
-6.664211431220019E+001	-1.2678708E+000	-1.2674315E+000	1.9025068E+001	1.117643971765938E+002
-6.733489842209406E+001	-1.2698725E+000	-1.2694315E+000	1.8859055E+001	1.119643971715414E+002
-6.805346711692894E+001	-1.2718647E+000	-1.2714314E+000	1.8689198E+001	1.121643971664889E+002
-6.878127440681783E+001	-1.2738693E+000	-1.2734313E+000	1.8520582E+001	1.123643971614365E+002
-6.954470029277289E+001	-1.2758601E+000	-1.2754312E+000	1.8345900E+001	1.125643971563841E+002
-7.037761137815278E+001	-1.2778331E+000	-1.2774310E+000	1.8156813E+001	1.127643971513317E+002
-7.126029333830400E+001	-1.2798916E+000	-1.2794310E+000	1.7960796E+001	1.129643971462792E+002
-7.194654655294312E+001	-1.2818202E+000	-1.2814308E+000	1.7816284E+001	1.131643971412268E+002
-7.272623325475479E+001	-1.2838272E+000	-1.2834307E+000	1.7652876E+001	1.133643971361744E+002
-7.364520283188682E+001	-1.2858356E+000	-1.2854306E+000	1.7459869E+001	1.135643971311220E+002
-7.439529374041166E+001	-1.2878369E+000	-1.2874308E+000	1.7310730E+001	1.137643971260695E+002
-7.523770814184581E+001	-1.2898610E+000	-1.2894298E+000	1.7143810E+001	1.139641971210222E+002
-7.601675445801001E+001	-1.2918340E+000	-1.2914302E+000	1.6994070E+001	1.141641971159697E+002
-7.692275200841650E+001	-1.2938532E+000	-1.2934302E+000	1.6820162E+001	1.143641971109173E+002
-7.773600271013061E+001	-1.2958496E+000	-1.2954301E+000	1.6669876E+001	1.145641971058649E+002
-7.852388079690826E+001	-1.2978281E+000	-1.2974300E+000	1.6527813E+001	1.147641971008125E+002
-7.917208246146765E+001	-1.2998524E+000	-1.2994300E+000	1.6418064E+001	1.149641970957600E+002
-8.008056719827562E+001	-1.3018456E+000	-1.3014297E+000	1.6256697E+001	1.151641970907076E+002
-8.117279222006130E+001	-1.3038546E+000	-1.3034297E+000	1.6062704E+001	1.153641970856552E+002
-8.207704806057518E+001	-1.3058451E+000	-1.3054296E+000	1.5909991E+001	1.155641970806028E+002
-8.280803540450358E+001	-1.3078525E+000	-1.3074296E+000	1.5793787E+001	1.157641970755503E+002
-8.350507129617290E+001	-1.3098483E+000	-1.3094294E+000	1.5685853E+001	1.159641970704979E+002
-8.418270662366126E+001	-1.3118590E+000	-1.3114293E+000	1.5583474E+001	1.161641970654455E+002
-8.502821462278757E+001	-1.3138269E+000	-1.3134291E+000	1.5451658E+001	1.163641970603931E+002
-8.611417336150384E+001	-1.3158288E+000	-1.3154291E+000	1.5280049E+001	1.165641970553406E+002
-8.710314881720507E+001	-1.3178298E+000	-1.3174289E+000	1.5129532E+001	1.167641970502882E+002
-8.787087371830467E+001	-1.3198206E+000	-1.3194289E+000	1.5020001E+001	1.169641970452358E+002
-8.868975710706627E+001	-1.3218826E+000	-1.3214288E+000	1.4904569E+001	1.171641970401834E+002
-8.947073858070803E+001	-1.3238109E+000	-1.3234288E+000	1.4796021E+001	1.173641970351309E+002
-9.048753878967591E+001	-1.3258606E+000	-1.3254285E+000	1.4652411E+001	1.175641970300785E+002
-9.135191786428823E+001	-1.3278277E+000	-1.3274280E+000	1.4535302E+001	1.177640970250286E+002
-9.224170343351489E+001	-1.3298688E+000	-1.3294283E+000	1.4417218E+001	1.179639970199787E+002
-9.287120367880561E+001	-1.3318664E+000	-1.3314283E+000	1.4341005E+001	1.181639970149263E+002
-9.379590334535487E+001	-1.3338408E+000	-1.3334281E+000	1.4220673E+001	1.183639970098739E+002
-9.476722909047203E+001	-1.3358529E+000	-1.3354281E+000	1.4096148E+001	1.185639970048214E+002
-9.593893024386216E+001	-1.3378582E+000	-1.3374280E+000	1.3944894E+001	1.187639969997690E+002
-9.691029047641587E+001	-1.3398658E+000	-1.3394279E+000	1.3825836E+001	1.189639969947166E+002
-9.780361268471688E+001	-1.3418614E+000	-1.3414277E+000	1.3719957E+001	1.191639969896642E+002
-9.865146956692524E+001	-1.3438317E+000	-1.3434278E+000	1.3622014E+001	1.193639969846117E+002
-9.944153337035323E+001	-1.3458533E+000	-1.3454275E+000	1.3534117E+001	1.195639969795593E+002
-1.002073066299459E+002	-1.3478605E+000	-1.3474275E+000	1.3450721E+001	1.197639969745069E+002
-1.009688792066510E+002	-1.3498728E+000	-1.3494272E+000	1.3369197E+001	1.199639969694545E+002
-1.019707228807638E+002	-1.3518854E+000	-1.3514272E+000	1.3257585E+001	1.201639969644020E+002
-1.028861725443885E+002	-1.3538496E+000	-1.3534271E+000	1.3158713E+001	1.203639969593496E+002
-1.035691220549500E+002	-1.3558426E+000	-1.3554271E+000	1.3091186E+001	1.205639969542972E+002
-1.043651789689006E+002	-1.3578575E+000	-1.3574270E+000	1.3010637E+001	1.207639969492448E+002
-1.059506336091054E+002	-1.3598850E+000	-1.3594267E+000	1.2835081E+001	1.209639969441923E+002
-1.071898986249830E+002	-1.3618399E+000	-1.3614267E+000	1.2704927E+001	1.211639969391399E+002
-1.080549953713703E+002	-1.3638722E+000	-1.3634267E+000	1.2622019E+001	1.213639969340875E+002
-1.087727436586841E+002	-1.3658886E+000	-1.3654264E+000	1.2557269E+001	1.215639969290351E+002
-1.098077104635288E+002	-1.3679496E+000	-1.3675261E+000	1.2457683E+001	1.217737969237351E+002
-1.108935661078035E+002	-1.3700318E+000	-1.3696264E+000	1.2354475E+001	1.219837969184300E+002
-1.119168283058134E+002	-1.3720517E+000	-1.3716261E+000	1.2259565E+001	1.221837969133776E+002
-1.132091896236622E+002	-1.3740213E+000	-1.3736261E+000	1.2137012E+001	1.223837969083252E+002
-1.139261779255336E+002	-1.3760637E+000	-1.3756260E+000	1.2078556E+001	1.225837969032727E+002
-1.147065690250358E+002	-1.3780379E+000	-1.3776259E+000	1.2013592E+001	1.227837968982203E+002
-1.156972954062376E+002	-1.3800727E+000	-1.3796258E+000	1.1928306E+001	1.229837968931679E+002
-1.165676137811743E+002	-1.3820450E+000	-1.3816257E+000	1.1856167E+001	1.231837968881155E+002
-1.174115480144010E+002	-1.3840373E+000	-1.3836255E+000	1.1787914E+001	1.233837968830630E+002
-1.184299496717736E+002	-1.3860352E+000	-1.3856255E+000	1.1703418E+001	1.235837968780106E+002
-1.194610703861902E+002	-1.3880512E+000	-1.3876253E+000	1.1619276E+001	1.237837968729582E+002
-1.206046198955198E+002	-1.3900259E+000	-1.3896253E+000	1.1525477E+001	1.239837968679058E+002
-1.215382939920403E+002	-1.3920704E+000	-1.3916252E+000	1.1453760E+001	1.241837968628533E+002
-1.226140329410698E+002	-1.3940405E+000	-1.3936251E+000	1.1369339E+001	1.243837968578009E+002
-1.240211529937192E+002	-1.3960400E+000	-1.3956250E+000	1.1256467E+001	1.245837968527485E+002
-1.245904959561872E+002	-1.3980246E+000	-1.3976249E+000	1.1220957E+001	1.247837968476961E+002
-1.253058547551940E+002	-1.4000590E+000	-1.3996248E+000	1.1173133E+001	1.249837968426436E+002
-1.262264586511383E+002	-1.4020116E+000	-1.4016247E+000	1.1107114E+001	1.251837968375912E+002
-1.272257276911319E+002	-1.4040585E+000	-1.4036247E+000	1.1035963E+001	1.253837968325388E+002
-1.284195688600030E+002	-1.4060476E+000	-1.4056244E+000	1.0948857E+001	1.255836968274889E+002
-1.292162923391170E+002	-1.4080027E+000	-1.4076244E+000	1.0896480E+001	1.257835968224390E+002
-1.301255618222988E+002	-1.4100672E+000	-1.4096243E+000	1.0836205E+001	1.259835968173866E+002
-1.309495550931985E+002	-1.4120489E+000	-1.4116241E+000	1.0783152E+001	1.261835968123341E+002
-1.317656739639324E+002	-1.4140627E+000	-1.4136242E+000	1.0731647E+001	1.263835968072817E+002
-1.328471836178749E+002	-1.4160349E+000	-1.4156240E+000	1.0659126E+001	1.265835968022293E+002
-1.339551259200859E+002	-1.4180486E+000	-1.4176239E+000	1.0585998E+001	1.267835967971769E+002
-1.348094221058891E+002	-1.4200585E+000	-1.4196236E+000	1.0533822E+001	1.269835967921244E+002
-1.355998182707635E+002	-1.4220316E+000	-1.4216237E+000	1.0486973E+001	1.271835967870720E+002
-1.366864747082018E+002	-1.4240774E+000	-1.4236237E+000	1.0418569E+001	1.273835967820196E+002
-1.374917424498233E+002	-1.4260114E+000	-1.4256235E+000	1.0371615E+001	1.275835967769672E+002
-1.386061396274434E+002	-1.4280607E+000	-1.4276234E+000	1.0303012E+001	1.277835967719147E+002
-1.401169004818748E+002	-1.4300492E+000	-1.4296234E+000	1.0206115E+001	1.279835967668623E+002
-1.412843141231410E+002	-1.4320865E+000	-1.4316231E+000	1.0136203E+001	1.281835967618099E+002
-1.428212278986740E+002	-1.4340687E+000	-1.4336231E+000	1.0041005E+001	1.283835967567575E+002
-1.435644123008196E+002	-1.4360663E+000	-1.4356228E+000	1.0002940E+001	1.285835967517050E+002
-1.443934164760875E+002	-1.4380655E+000	-1.4376229E+000	9.9593563E+000	1.287835967466526E+002
-1.451027227756392E+002	-1.4400849E+000	-1.4396229E+000	9.9245892E+000	1.289835967416002E+002
-1.465545970544796E+002	-1.4420663E+000	-1.4416227E+000	9.8397894E+000	1.291835967365478E+002
-1.473285707874932E+002	-1.4440851E+000	-1.4436228E+000	9.8017998E+000	1.293835967314953E+002
-1.484796020030435E+002	-1.4460924E+000	-1.4456232E+000	9.7393332E+000	1.295834967264454E+002
-1.491216136906423E+002	-1.4480504E+000	-1.4476223E+000	9.7105331E+000	1.297833967213955E+002
-1.501922429110721E+002	-1.4500206E+000	-1.4496224E+000	9.6544304E+000	1.299833967163431E+002
-1.510426054054913E+002	-1.4520764E+000	-1.4516221E+000	9.6136875E+000	1.301833967112907E+002
-1.523462984005067E+002	-1.4540664E+000	-1.4536221E+000	9.5444813E+000	1.303833967062383E+002
-1.533225870035135E+002	-1.4560866E+000	-1.4556218E+000	9.4968824E+000	1.305833967011858E+002
-1.540253267407145E+002	-1.4580714E+000	-1.4576218E+000	9.4664392E+000	1.307833966961334E+002
-1.546706126595845E+002	-1.4600720E+000	-1.4596217E+000	9.4398804E+000	1.309833966910810E+002
-1.556931614378419E+002	-1.4620849E+000	-1.4616218E+000	9.3908100E+000	1.311833966860286E+002
-1.571159077458376E+002	-1.4640733E+000	-1.4636215E+000	9.3184280E+000	1.313833966809761E+002
-1.591077555269339E+002	-1.4660648E+000	-1.4656214E+000	9.2142887E+000	1.315833966759237E+002
-1.597714677570630E+002	-1.4681011E+000	-1.4676213E+000	9.1887569E+000	1.317833966708713E+002
-1.605303358858682E+002	-1.4700936E+000	-1.4696212E+000	9.1577311E+000	1.319833966658189E+002
-1.612650502317356E+002	-1.4720625E+000	-1.4716210E+000	9.1282177E+000	1.321833966607664E+002
-1.634308159140501E+002	-1.4740714E+000	-1.4736210E+000	9.0195436E+000	1.323833966557140E+002
-1.643311122280129E+002	-1.4760836E+000	-1.4756209E+000	8.9823751E+000	1.325833966506616E+002
-1.653447431880059E+002	-1.4780867E+000	-1.4776208E+000	8.9394236E+000	1.327833966456092E+002
-1.659890548096223E+002	-1.4800916E+000	-1.4796207E+000	8.9168024E+000	1.329833966405567E+002
-1.668059196288350E+002	-1.4820880E+000	-1.4816206E+000	8.8851042E+000	1.331833966355043E+002
-1.674850901557033E+002	-1.4840907E+000	-1.4836195E+000	8.8610315E+000	1.333831966304570E+002
-1.684858552582408E+002	-1.4860888E+000	-1.4856204E+000	8.8202581E+000	1.335831966254045E+002
-1.693580510610902E+002	-1.4880786E+000	-1.4876204E+000	8.7865829E+000	1.337831966203521E+002
-1.706507878725217E+002	-1.4901477E+000	-1.4896202E+000	8.7321463E+000	1.339831966152997E+002
-1.715759990069332E+002	-1.4920799E+000	-1.4916201E+000	8.6963205E+000	1.341831966102473E+002
-1.727912953218906E+002	-1.4939985E+000	-1.4936200E+000	8.6462603E+000	1.343831966051948E+002
-1.745767534065677E+002	-1.4960741E+000	-1.4956199E+000	8.5697212E+000	1.345831966001424E+002
-1.755029096743956E+002	-1.4980476E+000	-1.4976199E+000	8.5357418E+000	1.347831965950900E+002
-1.764979540766502E+002	-1.5000570E+000	-1.4996197E+000	8.4990053E+000	1.349831965900376E+002
-1.781214233007022E+002	-1.5020701E+000	-1.5016196E+000	8.4328432E+000	1.351831965849851E+002
-1.796176484069047E+002	-1.5041010E+000	-1.5036196E+000	8.3739042E+000	1.353831965799327E+002
-1.811614442033833E+002	-1.5060345E+000	-1.5056194E+000	8.3132172E+000	1.355831965748803E+002
-1.818996652626929E+002	-1.5080703E+000	-1.5076193E+000	8.2906713E+000	1.357831965698279E+002
-1.828474579181805E+002	-1.5100502E+000	-1.5096192E+000	8.2585239E+000	1.359831965647754E+002
-1.837027016778115E+002	-1.5121009E+000	-1.5116191E+000	8.2312393E+000	1.361831965597230E+002
-1.844908078457493E+002	-1.5141441E+000	-1.5136191E+000	8.2071514E+000	1.363831965546706E+002
-1.853257344131298E+002	-1.5160396E+000	-1.5156189E+000	8.1804056E+000	1.365831965496182E+002
-1.862810524856151E+002	-1.5180382E+000	-1.5176188E+000	8.1491814E+000	1.367831965445657E+002
-1.878352680184677E+002	-1.5201019E+000	-1.5196185E+000	8.0927391E+000	1.369831965395133E+002
-1.889267155606958E+002	-1.5220599E+000	-1.5216188E+000	8.0563507E+000	1.371831965344609E+002
-1.899927001202550E+002	-1.5240856E+000	-1.5236191E+000	8.0218115E+000	1.373830965294110E+002
-1.909758531803982E+002	-1.5260960E+000	-1.5256184E+000	7.9910417E+000	1.375829965243611E+002
-1.919869618426642E+002	-1.5280955E+000	-1.5276183E+000	7.9593711E+000	1.377829965193087E+002
-1.934468633755541E+002	-1.5300972E+000	-1.5296180E+000	7.9096513E+000	1.379829965142562E+002
-1.940024953666994E+002	-1.5320916E+000	-1.5316181E+000	7.8972778E+000	1.381829965092038E+002
-1.950328850702904E+002	-1.5340749E+000	-1.5336179E+000	7.8657241E+000	1.383829965041514E+002
-1.960771415455265E+002	-1.5361059E+000	-1.5356179E+000	7.8341913E+000	1.385829964990990E+002
-1.966733802235312E+002	-1.5381033E+000	-1.5376177E+000	7.8205976E+000	1.387829964940465E+002
-1.977209982688191E+002	-1.5401095E+000	-1.5396175E+000	7.7893066E+000	1.389829964889941E+002
-1.992065643312708E+002	-1.5421331E+000	-1.5416175E+000	7.7413769E+000	1.391829964839417E+002
-2.007065945525828E+002	-1.5440892E+000	-1.5436174E+000	7.6932659E+000	1.393829964788893E+002
-2.018956668922960E+002	-1.5460887E+000	-1.5456173E+000	7.6578598E+000	1.395829964738368E+002
-2.037802559794206E+002	-1.5481031E+000	-1.5476172E+000	7.5969238E+000	1.397829964687844E+002
-2.047342882610506E+002	-1.5500823E+000	-1.5496171E+000	7.5711908E+000	1.399829964637320E+002
-2.053885860183614E+002	-1.5521390E+000	-1.5516170E+000	7.5570850E+000	1.401829964586796E+002
-2.064873276059593E+002	-1.5541174E+000	-1.5536169E+000	7.5264544E+000	1.403829964536271E+002
-2.072405344904682E+002	-1.5560787E+000	-1.5556167E+000	7.5085635E+000	1.405829964485747E+002
-2.080047707698241E+002	-1.5581033E+000	-1.5576167E+000	7.4907098E+000	1.407829964435223E+002
-2.091346710447290E+002	-1.5601245E+000	-1.5596166E+000	7.4599037E+000	1.409829964384699E+002
-2.105446619905800E+002	-1.5621606E+000	-1.5616163E+000	7.4196162E+000	1.411828964334200E+002
-2.113131482628201E+002	-1.5641253E+000	-1.5636164E+000	7.4019308E+000	1.413827964283701E+002
-2.124890955797400E+002	-1.5661360E+000	-1.5656163E+000	7.3704300E+000	1.415827964233176E+002
-2.130238116971486E+002	-1.5681268E+000	-1.5676162E+000	7.3612747E+000	1.417827964182652E+002
-2.137092794863820E+002	-1.5701349E+000	-1.5696161E+000	7.3470597E+000	1.419827964132128E+002
-2.151119844626955E+002	-1.5721083E+000	-1.5716162E+000	7.3083248E+000	1.421827964081604E+002
-2.164286889770397E+002	-1.5741119E+000	-1.5736159E+000	7.2731204E+000	1.423827964031079E+002
-2.180896124785720E+002	-1.5761056E+000	-1.5756158E+000	7.2268715E+000	1.425827963980555E+002
-2.196599078145964E+002	-1.5781094E+000	-1.5776157E+000	7.1843305E+000	1.427827963930031E+002
-2.214448471004462E+002	-1.5801290E+000	-1.5796156E+000	7.1355419E+000	1.429827963879507E+002
-2.220571092121181E+002	-1.5820998E+000	-1.5816156E+000	7.1247430E+000	1.431827963828982E+002
-2.232621368723931E+002	-1.5841030E+000	-1.5836154E+000	7.0952601E+000	1.433827963778458E+002
-2.241691527723451E+002	-1.5861486E+000	-1.5856153E+000	7.0756774E+000	1.435827963727934E+002
-2.250677586055945E+002	-1.5881563E+000	-1.5876154E+000	7.0563478E+000	1.437827963677410E+002
-2.257879558442123E+002	-1.5901481E+000	-1.5896151E+000	7.0426612E+000	1.439827963626885E+002
-2.267564098526840E+002	-1.5921260E+000	-1.5916150E+000	7.0213056E+000	1.441827963576361E+002
-2.293912733493216E+002	-1.5941502E+000	-1.5936149E+000	6.9494805E+000	1.443827963525837E+002
-2.311047251911109E+002	-1.5961125E+000	-1.5956148E+000	6.9064469E+000	1.445827963475313E+002
-2.321813273246057E+002	-1.5981237E+000	-1.5976148E+000	6.8830843E+000	1.447827963424788E+002
-2.326698731554347E+002	-1.6000659E+000	-1.5996146E+000	6.8769794E+000	1.449827963374264E+002
-2.334743705522915E+002	-1.6021854E+000	-1.6016142E+000	6.8623610E+000	1.451825963323790E+002
-2.342822125839265E+002	-1.6041282E+000	-1.6036142E+000	6.8469911E+000	1.453825963273266E+002
-2.349749355099902E+002	-1.6061124E+000	-1.6056143E+000	6.8352499E+000	1.455825963222742E+002
-2.361367467741841E+002	-1.6081582E+000	-1.6076143E+000	6.8102837E+000	1.457825963172218E+002
-2.370333642656851E+002	-1.6101421E+000	-1.6096141E+000	6.7928925E+000	1.459825963121693E+002
-2.375553720500182E+002	-1.6121469E+000	-1.6116140E+000	6.7864046E+000	1.461825963071169E+002
-2.384043488491684E+002	-1.6141491E+000	-1.6136140E+000	6.7706361E+000	1.463825963020645E+002
-2.408306203894072E+002	-1.6161382E+000	-1.6156138E+000	6.7106843E+000	1.465825962970121E+002
-2.425386597466845E+002	-1.6181496E+000	-1.6176136E+000	6.6717186E+000	1.467825962919596E+002
-2.433699628674249E+002	-1.6201428E+000	-1.6196135E+000	6.6571193E+000	1.469825962869072E+002
-2.441860248193716E+002	-1.6221353E+000	-1.6216134E+000	6.6430306E+000	1.471825962818548E+002
-2.467819013098215E+002	-1.6241635E+000	-1.6236132E+000	6.5813723E+000	1.473825962768024E+002
-2.474800235073574E+002	-1.6261013E+000	-1.6256133E+000	6.5706363E+000	1.475825962717499E+002
-2.482241427298304E+002	-1.6281575E+000	-1.6276132E+000	6.5592232E+000	1.477825962666975E+002
-2.490263838822063E+002	-1.6301285E+000	-1.6296132E+000	6.5460072E+000	1.479825962616451E+002
-2.509692038516614E+002	-1.6320902E+000	-1.6316129E+000	6.5031495E+000	1.481825962565927E+002
-2.527278538463879E+002	-1.6341646E+000	-1.6336130E+000	6.4661040E+000	1.483825962515402E+002
-2.533675947946217E+002	-1.6361625E+000	-1.6356127E+000	6.4576631E+000	1.485825962464878E+002
-2.539365296071892E+002	-1.6381494E+000	-1.6376126E+000	6.4510188E+000	1.487825962414354E+002
-2.547036309435548E+002	-1.6401700E+000	-1.6396122E+000	6.4395232E+000	1.489824962363855E+002
-2.569663487317057E+002	-1.6421995E+000	-1.6416125E+000	6.3907180E+000	1.491824962313331E+002
-2.576888126018640E+002	-1.6441400E+000	-1.6436125E+000	6.3803315E+000	1.493823962262832E+002
-2.578530986141477E+002	-1.6462102E+000	-1.6456124E+000	6.3842950E+000	1.495823962212307E+002
-2.585395775576562E+002	-1.6481559E+000	-1.6476121E+000	6.3748689E+000	1.497823962161783E+002
-2.597074021514586E+002	-1.6501522E+000	-1.6496122E+000	6.3538899E+000	1.499823962111259E+002
-2.616611114532225E+002	-1.6521351E+000	-1.6516119E+000	6.3140264E+000	1.501823962060735E+002
-2.616680334376645E+002	-1.6541133E+000	-1.6536118E+000	6.3214192E+000	1.503823962010210E+002
-2.631774667493337E+002	-1.6561850E+000	-1.6556118E+000	6.2930350E+000	1.505823961959686E+002
-2.660119254832371E+002	-1.6581613E+000	-1.6576116E+000	6.2334094E+000	1.507823961909162E+002
-2.664290445159079E+002	-1.6601903E+000	-1.6596115E+000	6.2312665E+000	1.509823961858638E+002
-2.667911931900753E+002	-1.6621511E+000	-1.6616116E+000	6.2301574E+000	1.511823961808113E+002
-2.673547564569244E+002	-1.6641514E+000	-1.6636113E+000	6.2245064E+000	1.513823961757589E+002
-2.696232022157869E+002	-1.6661760E+000	-1.6656111E+000	6.1796460E+000	1.515823961707065E+002
-2.701201138074703E+002	-1.6681684E+000	-1.6676111E+000	6.1756544E+000	1.517823961656541E+002
-2.705730055443560E+002	-1.6701547E+000	-1.6696110E+000	6.1726584E+000	1.519823961606016E+002
-2.727023673241356E+002	-1.6722436E+000	-1.6716110E+000	6.1321197E+000	1.521823961555492E+002
-2.750448919110282E+002	-1.6741127E+000	-1.6736108E+000	6.0866890E+000	1.523823961504968E+002
-2.771522741058243E+002	-1.6762278E+000	-1.6756107E+000	6.0480390E+000	1.525823961454444E+002
-2.774903783041318E+002	-1.6781679E+000	-1.6776106E+000	6.0476618E+000	1.527823961403919E+002
-2.791087919945137E+002	-1.6801528E+000	-1.6796108E+000	6.0197058E+000	1.529823961353395E+002
-2.809576678725980E+002	-1.6821618E+000	-1.6816113E+000	5.9872427E+000	1.531822961302896E+002
-2.816534468116674E+002	-1.6841761E+000	-1.6836103E+000	5.9796042E+000	1.533821961252397E+002
-2.819786665866711E+002	-1.6861588E+000	-1.6856102E+000	5.9797387E+000	1.535821961201873E+002
-2.830525920374857E+002	-1.6881992E+000	-1.6876101E+000	5.9642596E+000	1.537821961151349E+002
-2.833257435562930E+002	-1.6901505E+000	-1.6896100E+000	5.9653969E+000	1.539821961100824E+002
-2.842413357455712E+002	-1.6922165E+000	-1.6916100E+000	5.9534497E+000	1.541821961050300E+002
-2.848678884549479E+002	-1.6941854E+000	-1.6936097E+000	5.9472671E+000	1.543821960999776E+002
-2.848845303853350E+002	-1.6961743E+000	-1.6956097E+000	5.9539008E+000	1.545821960949252E+002
-2.866536008268272E+002	-1.6981918E+000	-1.6976094E+000	5.9241948E+000	1.547821960898727E+002
-2.890289323594837E+002	-1.7001702E+000	-1.6996095E+000	5.8823528E+000	1.549821960848203E+002
-2.912157056661413E+002	-1.7021903E+000	-1.7016095E+000	5.8451185E+000	1.551821960797679E+002
-2.920282927748840E+002	-1.7042131E+000	-1.7036093E+000	5.8357811E+000	1.553821960747155E+002
-2.920479339569338E+002	-1.7061914E+000	-1.7056092E+000	5.8421621E+000	1.555821960696630E+002
-2.934894445012756E+002	-1.7081773E+000	-1.7076092E+000	5.8202343E+000	1.557821960646106E+002
-2.954986501832132E+002	-1.7101693E+000	-1.7096089E+000	5.7874017E+000	1.559821960595582E+002
-2.970725936132758E+002	-1.7121741E+000	-1.7116088E+000	5.7634869E+000	1.561821960545058E+002
-2.972325338333367E+002	-1.7141852E+000	-1.7136086E+000	5.7671523E+000	1.563821960494533E+002
-2.985123991566179E+002	-1.7161727E+000	-1.7156086E+000	5.7490835E+000	1.565821960444009E+002
-3.001624137744347E+002	-1.7182115E+000	-1.7176087E+000	5.7242727E+000	1.567821960393485E+002
-3.015371424591790E+002	-1.7202053E+000	-1.7196084E+000	5.7047873E+000	1.569820960342986E+002
-3.020100695357032E+002	-1.7222234E+000	-1.7216083E+000	5.7025366E+000	1.571819960292487E+002
-3.026853318138731E+002	-1.7241960E+000	-1.7236084E+000	5.6963315E+000	1.573819960241963E+002
-3.028988593592394E+002	-1.7261711E+000	-1.7256081E+000	5.6988368E+000	1.575819960191438E+002
-3.042836841012340E+002	-1.7281907E+000	-1.7276080E+000	5.6795378E+000	1.577819960140914E+002
-3.053169196662984E+002	-1.7301803E+000	-1.7296079E+000	5.6668339E+000	1.579819960090390E+002
-3.068470257653125E+002	-1.7321793E+000	-1.7316078E+000	5.6450906E+000	1.581819960039866E+002
-3.087613773973085E+002	-1.7341588E+000	-1.7336076E+000	5.6165013E+000	1.583819959989341E+002
-3.096512151380783E+002	-1.7361896E+000	-1.7356077E+000	5.6069202E+000	1.585819959938817E+002
-3.097595723232180E+002	-1.7382009E+000	-1.7376075E+000	5.6114516E+000	1.587819959888293E+002
-3.107730721735367E+002	-1.7401904E+000	-1.7396076E+000	5.5995531E+000	1.589819959837769E+002
-3.134176899548834E+002	-1.7421796E+000	-1.7416073E+000	5.5586514E+000	1.591819959787244E+002
-3.142758560980810E+002	-1.7441789E+000	-1.7436072E+000	5.5498343E+000	1.593819959736720E+002
-3.161822489394638E+002	-1.7462194E+000	-1.7456071E+000	5.5228257E+000	1.595819959686196E+002
-3.174985754700747E+002	-1.7482170E+000	-1.7476070E+000	5.5062199E+000	1.597819959635672E+002
-3.181256399846665E+002	-1.7501924E+000	-1.7496067E+000	5.5015759E+000	1.599819959585147E+002
-3.196120047450340E+002	-1.7521915E+000	-1.7516068E+000	5.4822459E+000	1.601819959534623E+002
-3.213906764421863E+002	-1.7541966E+000	-1.7536067E+000	5.4581442E+000	1.603819959484099E+002
-3.220260312670739E+002	-1.7561964E+000	-1.7556068E+000	5.4535851E+000	1.605819959433575E+002
-3.238785322496406E+002	-1.7581604E+000	-1.7576065E+000	5.4284558E+000	1.607819959383050E+002
-3.241681543223856E+002	-1.7601922E+000	-1.7596061E+000	5.4298739E+000	1.609817959332577E+002
-3.248590048402871E+002	-1.7621815E+000	-1.7616063E+000	5.4244504E+000	1.611817959282052E+002
-3.253780859819624E+002	-1.7642026E+000	-1.7636062E+000	5.4220080E+000	1.613817959231528E+002
-3.272636324218611E+002	-1.7662244E+000	-1.7656062E+000	5.3969469E+000	1.615817959181004E+002
-3.285358863687829E+002	-1.7682371E+000	-1.7676060E+000	5.3821735E+000	1.617817959130480E+002
-3.296707403740897E+002	-1.7702336E+000	-1.7696059E+000	5.3697019E+000	1.619817959079955E+002
-3.303165030857876E+002	-1.7721931E+000	-1.7716056E+000	5.3651361E+000	1.621817959029431E+002
-3.311696533799982E+002	-1.7741306E+000	-1.7736057E+000	5.3571653E+000	1.623817958978907E+002
-3.340112694136951E+002	-1.7762526E+000	-1.7756057E+000	5.3179421E+000	1.625817958928383E+002
-3.347853904711146E+002	-1.7781919E+000	-1.7776055E+000	5.3114381E+000	1.627817958877858E+002
-3.364520965109059E+002	-1.7801907E+000	-1.7796054E+000	5.2910671E+000	1.629817958827334E+002
-3.371030971263290E+002	-1.7821974E+000	-1.7816054E+000	5.2868023E+000	1.631817958776810E+002
-3.373959679830659E+002	-1.7842033E+000	-1.7836051E+000	5.2881584E+000	1.633817958726286E+002
-3.379913429813878E+002	-1.7861887E+000	-1.7856050E+000	5.2847176E+000	1.635817958675761E+002
-3.389867604962806E+002	-1.7881807E+000	-1.7876048E+000	5.2750754E+000	1.637817958625237E+002
-3.417473383576971E+002	-1.7902055E+000	-1.7896049E+000	5.2383890E+000	1.639817958574713E+002
-3.434653636063038E+002	-1.7922397E+000	-1.7916049E+000	5.2181087E+000	1.641817958524189E+002
-3.444184357411750E+002	-1.7942441E+000	-1.7936049E+000	5.2094889E+000	1.643817958473664E+002
-3.453916406696353E+002	-1.7963120E+000	-1.7956046E+000	5.2007976E+000	1.645817958423140E+002
-3.456797573686636E+002	-1.7981981E+000	-1.7976047E+000	5.2019191E+000	1.647816958372641E+002
-3.471370457198418E+002	-1.8001860E+000	-1.7996053E+000	5.1858077E+000	1.649816958322117E+002
-3.490656132276359E+002	-1.8022282E+000	-1.8016044E+000	5.1630073E+000	1.651815958271618E+002
-3.503915369137628E+002	-1.8042204E+000	-1.8036041E+000	5.1491551E+000	1.653815958221094E+002
-3.505189195684840E+002	-1.8062093E+000	-1.8056040E+000	5.1529584E+000	1.655815958170570E+002
-3.526654647515742E+002	-1.8082274E+000	-1.8076038E+000	5.1273165E+000	1.657815958120045E+002
-3.534169374690841E+002	-1.8102000E+000	-1.8096039E+000	5.1219954E+000	1.659815958069521E+002
-3.542501304479410E+002	-1.8122103E+000	-1.8116037E+000	5.1156235E+000	1.661815958018997E+002
-3.547012417765163E+002	-1.8141977E+000	-1.8136038E+000	5.1147203E+000	1.663815957968473E+002
-3.552552513113912E+002	-1.8162197E+000	-1.8156036E+000	5.1124358E+000	1.665815957917948E+002
-3.561505372075530E+002	-1.8182089E+000	-1.8176036E+000	5.1051698E+000	1.667815957867424E+002
-3.578326210575588E+002	-1.8202211E+000	-1.8196033E+000	5.0867949E+000	1.669815957816900E+002
-3.579997640185893E+002	-1.8222257E+000	-1.8216032E+000	5.0900192E+000	1.671815957766376E+002
-3.595254696156171E+002	-1.8242738E+000	-1.8236032E+000	5.0741158E+000	1.673815957715851E+002
-3.613712659130824E+002	-1.8262151E+000	-1.8256030E+000	5.0535703E+000	1.675815957665327E+002
-3.641240096103047E+002	-1.8282371E+000	-1.8276029E+000	5.0209188E+000	1.677815957614803E+002
-3.653139775356194E+002	-1.8302572E+000	-1.8296028E+000	5.0100937E+000	1.679815957564279E+002
-3.684989180921693E+002	-1.8322184E+000	-1.8316028E+000	4.9721136E+000	1.681815957513754E+002
-3.684162848314731E+002	-1.8342401E+000	-1.8336028E+000	4.9787159E+000	1.683815957463230E+002
-3.684853698863599E+002	-1.8362433E+000	-1.8356026E+000	4.9832191E+000	1.685815957412706E+002
-3.689954439405119E+002	-1.8382393E+000	-1.8376020E+000	4.9817400E+000	1.687813957362232E+002
-3.702424280919190E+002	-1.8402483E+000	-1.8396024E+000	4.9703875E+000	1.689813957311708E+002
-3.711752963293175E+002	-1.8422645E+000	-1.8416022E+000	4.9633274E+000	1.691813957261184E+002
-3.723498233094508E+002	-1.8443184E+000	-1.8436019E+000	4.9531875E+000	1.693813957210659E+002
-3.731638223924879E+002	-1.8462570E+000	-1.8456022E+000	4.9475775E+000	1.695813957160135E+002
-3.732408241976964E+002	-1.8482127E+000	-1.8476019E+000	4.9517970E+000	1.697813957109611E+002
-3.748748911600269E+002	-1.8502526E+000	-1.8496020E+000	4.9356537E+000	1.699813957059087E+002
-3.752266401801244E+002	-1.8522739E+000	-1.8516017E+000	4.9364138E+000	1.701813957008562E+002
-3.762272522660314E+002	-1.8542615E+000	-1.8536018E+000	4.9285679E+000	1.703813956958038E+002
-3.763082317949147E+002	-1.8562599E+000	-1.8556015E+000	4.9328179E+000	1.705813956907514E+002
-3.770741421078883E+002	-1.8582374E+000	-1.8576014E+000	4.9280424E+000	1.707813956856990E+002
-3.807913865805208E+002	-1.8602532E+000	-1.8596011E+000	4.8852291E+000	1.709813956806465E+002
-3.816666907680283E+002	-1.8622538E+000	-1.8616011E+000	4.8792672E+000	1.711813956755941E+002
-3.824817532952411E+002	-1.8642719E+000	-1.8636011E+000	4.8741460E+000	1.713813956705417E+002
-3.832665860550205E+002	-1.8662696E+000	-1.8656011E+000	4.8693771E+000	1.715813956654893E+002
-3.855980338725931E+002	-1.8682286E+000	-1.8676009E+000	4.8450160E+000	1.717813956604368E+002
-3.878827088825292E+002	-1.8702832E+000	-1.8696008E+000	4.8217754E+000	1.719813956553844E+002
-3.888844193201212E+002	-1.8722619E+000	-1.8716007E+000	4.8144431E+000	1.721813956503320E+002
-3.900693663361390E+002	-1.8742424E+000	-1.8736006E+000	4.8048954E+000	1.723813956452796E+002
-3.915876831510882E+002	-1.8762645E+000	-1.8756002E+000	4.7914286E+000	1.725812956402297E+002
-3.929818365698220E+002	-1.8782612E+000	-1.8776003E+000	4.7795115E+000	1.727811956351798E+002
-3.926858293918240E+002	-1.8802472E+000	-1.8796002E+000	4.7881718E+000	1.729811956301273E+002
-3.929869429248793E+002	-1.8822495E+000	-1.8816000E+000	4.7895980E+000	1.731811956250749E+002
-3.945910807369519E+002	-1.8842573E+000	-1.8836001E+000	4.7752151E+000	1.733811956200225E+002
-3.975075968312024E+002	-1.8862686E+000	-1.8856001E+000	4.7452393E+000	1.735811956149701E+002
-4.009861865486973E+002	-1.8882695E+000	-1.8875999E+000	4.7090640E+000	1.737811956099176E+002
-4.026079327806065E+002	-1.8902919E+000	-1.8895998E+000	4.6951184E+000	1.739811956048652E+002
-4.031242229349218E+002	-1.8922637E+000	-1.8915998E+000	4.6939964E+000	1.741811955998128E+002
-4.036480841431185E+002	-1.8942760E+000	-1.8935995E+000	4.6928897E+000	1.743811955947604E+002
-4.034045008618268E+002	-1.8962151E+000	-1.8955994E+000	4.7005305E+000	1.745811955897079E+002
-4.036925861116470E+002	-1.8982110E+000	-1.8975993E+000	4.7021198E+000	1.747811955846555E+002
-4.055116122974541E+002	-1.9002144E+000	-1.8995992E+000	4.6859679E+000	1.749811955796031E+002
-4.068897138366351E+002	-1.9022628E+000	-1.9015993E+000	4.6751313E+000	1.751811955745507E+002
-4.107365363460540E+002	-1.9042468E+000	-1.9035990E+000	4.6361756E+000	1.753811955694982E+002
-4.133230969781521E+002	-1.9062485E+000	-1.9055990E+000	4.6120057E+000	1.755811955644458E+002
-4.128584537246606E+002	-1.9082420E+000	-1.9075990E+000	4.6220245E+000	1.757811955593934E+002
-4.132121135815487E+002	-1.9102530E+000	-1.9095988E+000	4.6229358E+000	1.759811955543410E+002
-4.134047420397919E+002	-1.9122472E+000	-1.9115986E+000	4.6256051E+000	1.761811955492885E+002
-4.139489264542299E+002	-1.9142365E+000	-1.9135985E+000	4.6243300E+000	1.763811955442361E+002
-4.162400406609559E+002	-1.9162599E+000	-1.9155980E+000	4.6037374E+000	1.765809955391887E+002
-4.163688150436155E+002	-1.9182404E+000	-1.9175981E+000	4.6070704E+000	1.767809955341363E+002
-4.170728583433192E+002	-1.9202756E+000	-1.9195983E+000	4.6041727E+000	1.769809955290839E+002
-4.173013891795313E+002	-1.9222672E+000	-1.9215981E+000	4.6064243E+000	1.771809955240315E+002
-4.202579430906699E+002	-1.9242738E+000	-1.9235982E+000	4.5787926E+000	1.773809955189790E+002
-4.210024523486345E+002	-1.9262350E+000	-1.9255979E+000	4.5753531E+000	1.775809955139266E+002
-4.217695401855626E+002	-1.9282614E+000	-1.9275980E+000	4.5718365E+000	1.777809955088742E+002
-4.234229596282876E+002	-1.9302683E+000	-1.9295977E+000	4.5587239E+000	1.779809955038218E+002
-4.251096722436323E+002	-1.9322778E+000	-1.9315976E+000	4.5453629E+000	1.781809954987693E+002
-4.267378712219443E+002	-1.9342371E+000	-1.9335973E+000	4.5326118E+000	1.783809954937169E+002
-4.284086088539525E+002	-1.9362373E+000	-1.9355974E+000	4.5196042E+000	1.785809954886645E+002
-4.288201891105450E+002	-1.9382485E+000	-1.9375973E+000	4.5199561E+000	1.787809954836121E+002
-4.292793748081422E+002	-1.9402891E+000	-1.9395972E+000	4.5198750E+000	1.789809954785596E+002
-4.305261201404394E+002	-1.9422531E+000	-1.9415972E+000	4.5113478E+000	1.791809954735072E+002
-4.315042316194595E+002	-1.9442852E+000	-1.9435972E+000	4.5058312E+000	1.793809954684548E+002
-4.348560078463033E+002	-1.9462334E+000	-1.9455969E+000	4.4755812E+000	1.795809954634024E+002
-4.355305297012510E+002	-1.9483085E+000	-1.9475968E+000	4.4734144E+000	1.797809954583499E+002
-4.374105315046254E+002	-1.9502649E+000	-1.9495968E+000	4.4586601E+000	1.799809954532975E+002
-4.374220997470838E+002	-1.9523064E+000	-1.9515965E+000	4.4632092E+000	1.801809954482451E+002
-4.381207016892768E+002	-1.9542950E+000	-1.9535973E+000	4.4606314E+000	1.803809954431927E+002
-4.380359617097765E+002	-1.9562966E+000	-1.9555962E+000	4.4660640E+000	1.805807954381453E+002
-4.386224945397048E+002	-1.9582659E+000	-1.9575963E+000	4.4645815E+000	1.807807954330929E+002
-4.410430789739885E+002	-1.9602716E+000	-1.9595963E+000	4.4446263E+000	1.809807954280404E+002
-4.409456868809621E+002	-1.9622627E+000	-1.9615961E+000	4.4501233E+000	1.811807954229880E+002
-4.413505570418164E+002	-1.9642903E+000	-1.9635960E+000	4.4506350E+000	1.813807954179356E+002
-4.431170822584718E+002	-1.9662549E+000	-1.9655960E+000	4.4373260E+000	1.815807954128832E+002
-4.436769600390298E+002	-1.9682581E+000	-1.9675957E+000	4.4362416E+000	1.817807954078307E+002
-4.460123490443857E+002	-1.9702842E+000	-1.9695956E+000	4.4175553E+000	1.819807954027783E+002
-4.496741213160558E+002	-1.9723076E+000	-1.9715955E+000	4.3860822E+000	1.821807953977259E+002
-4.503940513853049E+002	-1.9743156E+000	-1.9735954E+000	4.3835297E+000	1.823807953926735E+002
-4.518554137050437E+002	-1.9762334E+000	-1.9755955E+000	4.3735967E+000	1.825807953876210E+002
-4.560457537774328E+002	-1.9782803E+000	-1.9775952E+000	4.3378987E+000	1.827807953825686E+002
-4.566321345997480E+002	-1.9802674E+000	-1.9795953E+000	4.3366799E+000	1.829807953775162E+002
-4.563946340002967E+002	-1.9822628E+000	-1.9815952E+000	4.3433089E+000	1.831807953724638E+002
-4.570613032057722E+002	-1.9842476E+000	-1.9835950E+000	4.3413162E+000	1.833807953674113E+002
-4.571135719498261E+002	-1.9862759E+000	-1.9855950E+000	4.3452568E+000	1.835807953623589E+002
-4.583323996018389E+002	-1.9882777E+000	-1.9875947E+000	4.3380694E+000	1.837807953573065E+002
-4.584677772089449E+002	-1.9902810E+000	-1.9895946E+000	4.3411579E+000	1.839807953522541E+002
-4.594262744026505E+002	-1.9923065E+000	-1.9915937E+000	4.3365097E+000	1.841806953472042E+002
-4.602632234606108E+002	-1.9942840E+000	-1.9935949E+000	4.3329206E+000	1.843806953421517E+002
-4.612138314063313E+002	-1.9963048E+000	-1.9955943E+000	4.3283715E+000	1.845805953371018E+002
-4.618527072768065E+002	-1.9983040E+000	-1.9975944E+000	4.3267126E+000	1.847805953320494E+002
-4.619942959463217E+002	-2.0002809E+000	-1.9995942E+000	4.3296657E+000	1.849805953269970E+002
-4.628291465690090E+002	-2.0022452E+000	-2.0015943E+000	4.3260999E+000	1.851805953219446E+002
-4.648493189822530E+002	-2.0042348E+000	-2.0035939E+000	4.3115797E+000	1.853805953168921E+002
-4.670111431069927E+002	-2.0062997E+000	-2.0055938E+000	4.2960424E+000	1.855805953118397E+002
-4.672858291591378E+002	-2.0082455E+000	-2.0075936E+000	4.2976809E+000	1.857805953067873E+002
-4.723510868349313E+002	-2.0102808E+000	-2.0095937E+000	4.2559037E+000	1.859805953017349E+002
-4.755099642098357E+002	-2.0123026E+000	-2.0115938E+000	4.2318830E+000	1.861805952966824E+002
-4.752987656366228E+002	-2.0142953E+000	-2.0135934E+000	4.2379560E+000	1.863805952916300E+002
-4.762213319056173E+002	-2.0162642E+000	-2.0155933E+000	4.2338805E+000	1.865805952865776E+002
-4.774939893216507E+002	-2.0182879E+000	-2.0175934E+000	4.2268343E+000	1.867805952815252E+002
-4.812137116542472E+002	-2.0202737E+000	-2.0195932E+000	4.1982880E+000	1.869805952764727E+002
-4.808549673335619E+002	-2.0223031E+000	-2.0215931E+000	4.2056403E+000	1.871805952714203E+002
-4.816736641016687E+002	-2.0242872E+000	-2.0235929E+000	4.2026114E+000	1.873805952663679E+002
-4.813727537488194E+002	-2.0262961E+000	-2.0255928E+000	4.2094116E+000	1.875805952613155E+002
-4.809611005458719E+002	-2.0282319E+000	-2.0275927E+000	4.2170391E+000	1.877805952562630E+002
-4.819847339293497E+002	-2.0302997E+000	-2.0295920E+000	4.2123733E+000	1.879804952512131E+002
-4.820529004925465E+002	-2.0322950E+000	-2.0315928E+000	4.2159171E+000	1.881804952461607E+002
-4.816638871320511E+002	-2.0342426E+000	-2.0335927E+000	4.2233653E+000	1.883803952411108E+002
-4.815945642043152E+002	-2.0363004E+000	-2.0355926E+000	4.2282462E+000	1.885803952360584E+002
-4.834400760451690E+002	-2.0382986E+000	-2.0375922E+000	4.2162385E+000	1.887803952310060E+002
-4.841448093033705E+002	-2.0402930E+000	-2.0395923E+000	4.2142205E+000	1.889803952259535E+002
-4.862589527009040E+002	-2.0422938E+000	-2.0415921E+000	4.2000127E+000	1.891803952209011E+002
-4.894753411048683E+002	-2.0442755E+000	-2.0435917E+000	4.1764627E+000	1.893803952158487E+002
-4.904841147485504E+002	-2.0462830E+000	-2.0455918E+000	4.1719661E+000	1.895803952107963E+002
-4.917505379588156E+002	-2.0482652E+000	-2.0475917E+000	4.1652527E+000	1.897803952057438E+002
-4.955555251288042E+002	-2.0503271E+000	-2.0495918E+000	4.1374316E+000	1.899803952006914E+002
-4.962455203257432E+002	-2.0523276E+000	-2.0515916E+000	4.1357102E+000	1.901803951956390E+002
-4.978711408671343E+002	-2.0543699E+000	-2.0535915E+000	4.1263084E+000	1.903803951905866E+002
-4.984880273347553E+002	-2.0563521E+000	-2.0555913E+000	4.1251788E+000	1.905803951855341E+002
-5.002636867661631E+002	-2.0582566E+000	-2.0575912E+000	4.1143436E+000	1.907803951804817E+002
-5.015379895363794E+002	-2.0603728E+000	-2.0595911E+000	4.1081090E+000	1.909803951754293E+002
-5.005668876371146E+002	-2.0623012E+000	-2.0615909E+000	4.1199312E+000	1.911803951703769E+002
-5.013049458354508E+002	-2.0643387E+000	-2.0635908E+000	4.1179299E+000	1.913803951653244E+002
-5.007400376153382E+002	-2.0663462E+000	-2.0655906E+000	4.1265845E+000	1.915803951602720E+002
-5.009625960146223E+002	-2.0683193E+000	-2.0675910E+000	4.1286902E+000	1.917803951552196E+002
-5.038025395642562E+002	-2.0703433E+000	-2.0695908E+000	4.1094341E+000	1.919802951501697E+002
-5.054939368737323E+002	-2.0723569E+000	-2.0715911E+000	4.0996671E+000	1.921802951451173E+002
-5.074081603026461E+002	-2.0743499E+000	-2.0735905E+000	4.0881286E+000	1.923801951400674E+002
-5.072779991383450E+002	-2.0763645E+000	-2.0755904E+000	4.0931492E+000	1.925801951350149E+002
-5.080149056008622E+002	-2.0783417E+000	-2.0775902E+000	4.0911040E+000	1.927801951299625E+002
-5.109754449623779E+002	-2.0803931E+000	-2.0795901E+000	4.0714149E+000	1.929801951249101E+002
-5.141390584482924E+002	-2.0823224E+000	-2.0815899E+000	4.0501151E+000	1.931801951198577E+002
-5.181618006310480E+002	-2.0843787E+000	-2.0835898E+000	4.0226407E+000	1.933801951148052E+002
-5.196271169364045E+002	-2.0862968E+000	-2.0855896E+000	4.0149884E+000	1.935801951097528E+002
-5.193680000434924E+002	-2.0883629E+000	-2.0875897E+000	4.0209694E+000	1.937801951047004E+002
-5.194268135191905E+002	-2.0903575E+000	-2.0895898E+000	4.0243545E+000	1.939801950996480E+002
-5.193804484386837E+002	-2.0923293E+000	-2.0915897E+000	4.0285101E+000	1.941801950945955E+002
-5.210787225104777E+002	-2.0943608E+000	-2.0935893E+000	4.0192790E+000	1.943801950895431E+002
-5.226154249541614E+002	-2.0954912E+000	-2.0947890E+000	4.0096235E+000	1.945001950865117E+002
-5.234325701032367E+002	-2.0958197E+000	-2.0950887E+000	4.0039916E+000	1.945171950860822E+002