EC-Lab ASCII FILE
Nb header lines : 61                          

Linear Sweep Voltammetry

Run on channel : 1 (SN 1340)
User : 
Electrode connection : standard
Potential control : Ewe
Ewe ctrl range : min = -5.00 V, max = 5.00 V
Ewe,I filtering : 50 kHz
Channel : Grounded
Acquisition started on : 03/09/2026 18:15:32.315
Technique started on : 03/09/2026 18:15:34.158
Loaded Setting File :  NONE
Saved on :
	File : PtPdCoNi40_N52magA_flat_3-9_02_LSV_C01.mpr
	Directory : C:\Users\volt\Documents\Platalytix\
	Host : 127.0.0.1
Device : SP-200 (SN 0262)
Address : USB
EC-LAB for windows v11.60 (software)
Internet server v11.60 (firmware)
Command interpretor v11.60 (firmware)
Electrode material : PtPdNiCo (Co40)
Initial state : 
Electrolyte : KOH (1M)
Comments : Magnet side A, flat position
Cable : standard
Reference electrode : Hg/HgO (0.140 V)
Electrode surface area : 1.000 cm˛
Characteristic mass : 0.001 g
Equivalent Weight : 0.000 g/eq.
Density : 0.000 g/cm3
Volume (V) : 0.001 cmł
Cycle Definition : Charge/Discharge alternance
tR (h:m:s)          0:00:5.0000         
dER/dt (mV/h)       0.0                 
dER (mV)            0                   
dtR (s)             0.0000              
dE/dt               10.000              
dE/dt unit          mV/s                
Ei (V)              -0.200              
vs.                 Eoc                 
EL (V)              -2.500              
vs.                 Eoc                 
record              <I>                 
dI                  0.000               
unit dI             µA                  
tI (s)              0.0000              
step percent        50                  
N                   10                  
E range min (V)     -5.000              
E range max (V)     5.000               
I Range             Auto                
I Range min         Unset               
I Range max         Unset               
I Range init        Unset               
Bandwidth           8                   

Rwe/Ohm	time/s	Ewe/V	<I>/mA	Pwe/W	control/V	error	
0.0000000E+000	1.843400087527698E+000	-2.6692957E-001	0.000000000000000E+000	0.0000000E+000	0.0000000E+000	0
0.0000000E+000	6.843199961222126E+000	-5.4082841E-002	0.000000000000000E+000	0.0000000E+000	-2.5413546E-001	0
4.0966962E+002	7.043199956169701E+000	-2.5587508E-001	-6.245888845265117E-001	1.5981673E-004	-2.5603521E-001	0
4.3433820E+002	7.153199953390867E+000	-2.5611895E-001	-5.896763158022367E-001	1.5102729E-004	-2.5713530E-001	0
4.8438858E+002	7.353199948338442E+000	-2.6141593E-001	-5.396822767792564E-001	1.4108155E-004	-2.5913528E-001	0
5.1177802E+002	7.553199943286018E+000	-2.6283300E-001	-5.135683531444233E-001	1.3498271E-004	-2.6113531E-001	0
4.2307370E+002	7.753199938233593E+000	-2.6114118E-001	-6.172475086286457E-001	1.6118874E-004	-2.6313528E-001	0
1.4217737E+002	7.953199933181168E+000	-2.5399593E-001	-1.786472273276722E+000	4.5375669E-004	-2.6513529E-001	0
1.3097689E+003	8.153199928128743E+000	-2.7120277E-001	-2.070615462506882E-001	5.6155666E-005	-2.6713529E-001	0
9.0791656E+002	8.353199923076318E+000	-2.6551408E-001	-2.924432539032118E-001	7.7647797E-005	-2.6913527E-001	0
1.5774533E+002	8.553199918023893E+000	-2.7341145E-001	-1.733245909957386E+000	4.7388929E-004	-2.7113530E-001	0
1.1844147E+003	8.753199912971468E+000	-2.7389514E-001	-2.312493626901547E-001	6.3338077E-005	-2.7313530E-001	0
1.2510729E+003	8.953199907919043E+000	-2.7956939E-001	-2.234637122712142E-001	6.2473613E-005	-2.7513531E-001	0
5.1516245E+003	9.153199902866618E+000	-2.7847248E-001	-5.405527565949486E-002	1.5052907E-005	-2.7713528E-001	0
7.9508057E+002	9.353199897814193E+000	-2.7646682E-001	3.477217728174917E-001	-9.6133532E-005	-2.7913529E-001	0
6.8263275E+002	9.553199892761768E+000	-2.8209943E-001	-4.132520991103581E-001	1.1657818E-004	-2.8113529E-001	0
1.3561577E+003	9.753199887709343E+000	-2.8610325E-001	-2.109660632636960E-001	6.0358077E-005	-2.8313529E-001	0
1.3176412E+003	9.953199882656918E+000	-2.8536797E-001	-2.165748545817632E-001	6.1803526E-005	-2.8513527E-001	0
3.2508496E+002	1.015319987760449E+001	-2.9033667E-001	-8.931100860178951E-001	2.5930261E-004	-2.8713527E-001	0
5.0037375E+002	1.035319987255207E+001	-2.8738841E-001	-5.743474881001260E-001	1.6506082E-004	-2.8913528E-001	0
5.5800769E+002	1.055319986749964E+001	-2.9042473E-001	-5.204672387227216E-001	1.5115656E-004	-2.9113528E-001	0
3.0928207E+002	1.075319986244722E+001	-2.9076162E-001	-9.401179228654861E-001	2.7335022E-004	-2.9313529E-001	0
5.5842566E+002	1.095319985739479E+001	-2.9452118E-001	-5.274134118272542E-001	1.5533442E-004	-2.9513529E-001	0
1.0533269E+003	1.115319985234237E+001	-2.9846650E-001	-2.833560021346546E-001	8.4572275E-005	-2.9713526E-001	0
3.1864216E+003	1.135319984728994E+001	-2.9752737E-001	-9.337350970969438E-002	2.7781174E-005	-2.9913530E-001	0
6.6072107E+002	1.155319984223752E+001	-3.0185905E-001	-4.568630599663903E-001	1.3790825E-004	-3.0113530E-001	0
8.3337408E+002	1.175319983718509E+001	-3.0384493E-001	-3.645960736371441E-001	1.1078067E-004	-3.0313531E-001	0
5.1148373E+002	1.201319983061694E+001	-3.0591899E-001	-5.981011193435215E-001	1.8297049E-004	-3.0573526E-001	0
6.2392975E+002	1.233319982253306E+001	-3.0886373E-001	-4.950296505587968E-001	1.5289670E-004	-3.0893528E-001	0
6.2507263E+002	1.265319981444918E+001	-3.1202453E-001	-4.991812288145541E-001	1.5575679E-004	-3.1213528E-001	0
6.3917676E+002	1.297319980636530E+001	-3.1524804E-001	-4.932095109285332E-001	1.5548333E-004	-3.1533530E-001	0
6.4795374E+002	1.329319979828142E+001	-3.1844270E-001	-4.914590066838964E-001	1.5650154E-004	-3.1853527E-001	0
6.6722992E+002	1.361319979019754E+001	-3.2165852E-001	-4.820804822071025E-001	1.5506530E-004	-3.2173526E-001	0
6.5324963E+002	1.393319978211366E+001	-3.2485124E-001	-4.972849986297128E-001	1.6154365E-004	-3.2493529E-001	0
6.6726447E+002	1.426319977377716E+001	-3.2814261E-001	-4.917729353452476E-001	1.6137166E-004	-3.2823524E-001	0
6.7641144E+002	1.459319976544066E+001	-3.3145979E-001	-4.900268991712196E-001	1.6242421E-004	-3.3153531E-001	0
6.8835120E+002	1.491319975735678E+001	-3.3465081E-001	-4.861629140300288E-001	1.6269482E-004	-3.3473527E-001	0
6.9081146E+002	1.523319974927290E+001	-3.3785811E-001	-4.890742512580673E-001	1.6523770E-004	-3.3793527E-001	0
7.0155389E+002	1.555319974118902E+001	-3.4104604E-001	-4.861295054262680E-001	1.6579255E-004	-3.4113529E-001	0
3.7879794E+002	1.583319973411562E+001	-3.5266232E-001	9.310037946256466E-001	-3.2832997E-004	-3.4393528E-001	0
7.2136438E+002	1.614319972628437E+001	-3.4691319E-001	-4.809125432794672E-001	1.6683490E-004	-3.4703532E-001	0
7.3197284E+002	1.646319971820049E+001	-3.5014218E-001	-4.783540765173600E-001	1.6749193E-004	-3.5023531E-001	0
7.3756262E+002	1.678319971011661E+001	-3.5335949E-001	-4.790908166284833E-001	1.6929129E-004	-3.5343534E-001	0
7.4045575E+002	1.710319970203273E+001	-3.5655794E-001	-4.815384788391448E-001	1.7169636E-004	-3.5663533E-001	0
7.5856055E+002	1.744319969344360E+001	-3.5993135E-001	-4.744925772807846E-001	1.7078476E-004	-3.6003533E-001	0
9.0159662E+002	1.773319968611759E+001	-3.6002642E-001	-3.993209598701912E-001	1.4376610E-004	-3.6293530E-001	0
5.3742523E+002	1.803319967853895E+001	-3.6693180E-001	-6.827587861019850E-001	2.5052592E-004	-3.6593533E-001	0
1.3979570E+003	1.832319967121293E+001	-3.7011620E-001	-2.647550687589151E-001	9.7990138E-005	-3.6883533E-001	0
5.0358921E+003	1.858319966464478E+001	-3.6943051E-001	7.335949443733014E-002	-2.7101236E-005	-3.7143531E-001	0
1.3564181E+003	1.884319965807663E+001	-3.7171820E-001	-2.740439806866384E-001	1.0186713E-004	-3.7403530E-001	0
3.4616140E+003	1.910319965150848E+001	-3.7927333E-001	-1.095654613967800E-001	4.1555257E-005	-3.7663531E-001	0
1.6198629E+003	1.936319964494032E+001	-3.7808317E-001	-2.334044149421715E-001	8.8246285E-005	-3.7923533E-001	0
1.0027833E+003	1.962319963837217E+001	-3.9349461E-001	-3.924024260708094E-001	1.5440823E-004	-3.8183531E-001	0
1.3985187E+003	1.988319963180402E+001	-3.8914904E-001	-2.782580327320887E-001	1.0828385E-004	-3.8443533E-001	0
2.0974189E+003	2.014319962523587E+001	-3.8935617E-001	-1.856358652501161E-001	7.2278468E-005	-3.8703531E-001	0
3.0620117E+003	2.040319961866771E+001	-4.0086991E-001	-1.309171725548315E-001	5.2480755E-005	-3.8963529E-001	0
1.7638992E+003	2.066319961209956E+001	-3.9002186E-001	-2.211134730074649E-001	8.6239088E-005	-3.9223534E-001	0
2.0348748E+003	2.092319960553141E+001	-3.9119008E-001	-1.922428287741402E-001	7.5203490E-005	-3.9483532E-001	0
1.2529126E+003	2.118319959896326E+001	-3.9551508E-001	-3.156765241264834E-001	1.2485482E-004	-3.9743531E-001	0
1.5111962E+003	2.144319959239510E+001	-3.9989477E-001	-2.646213600594232E-001	1.0582070E-004	-4.0003535E-001	0
1.5520752E+003	2.170319958582695E+001	-4.0210944E-001	-2.590785879293360E-001	1.0417795E-004	-4.0263534E-001	0
1.0472968E+003	2.196319957925880E+001	-4.0324321E-001	-3.850324511883350E-001	1.5526172E-004	-4.0523532E-001	0
1.9260449E+003	2.221319957294327E+001	-4.0768754E-001	-2.116708365792763E-001	8.6295564E-005	-4.0773535E-001	0
4.1896846E+003	2.243319956738560E+001	-4.0946677E-001	-9.773212598210146E-002	4.0018058E-005	-4.0993533E-001	0
4.3277451E+003	2.263319956233318E+001	-4.1179374E-001	-9.515203307161024E-002	3.9183011E-005	-4.1193530E-001	0
4.1660874E+003	2.286319955652289E+001	-4.1416544E-001	-9.941353151233545E-002	4.1173647E-005	-4.1423529E-001	0
4.2424165E+003	2.315319954919687E+001	-4.1705489E-001	-9.830597225562576E-002	4.0998988E-005	-4.1713530E-001	0
4.2671040E+003	2.347319954111299E+001	-4.2025396E-001	-9.848693250996998E-002	4.1389525E-005	-4.2033532E-001	0
4.2869512E+003	2.379319953302911E+001	-4.2344183E-001	-9.877459033733638E-002	4.1825293E-005	-4.2353535E-001	0
4.3448677E+003	2.411319952494523E+001	-4.2668092E-001	-9.820343763623374E-002	4.1901534E-005	-4.2673531E-001	0
4.3735679E+003	2.443319951686135E+001	-4.2986611E-001	-9.828728739092374E-002	4.2250373E-005	-4.2993534E-001	0
4.3871440E+003	2.475319950877747E+001	-4.3303922E-001	-9.870640307051137E-002	4.2743744E-005	-4.3313533E-001	0
4.3973325E+003	2.507319950069359E+001	-4.3625250E-001	-9.920844162388609E-002	4.3279932E-005	-4.3633536E-001	0
4.3919634E+003	2.539319949260971E+001	-4.3945098E-001	-1.000579828737521E-001	4.3970580E-005	-4.3953532E-001	0
4.4118325E+003	2.571319948452583E+001	-4.4264930E-001	-1.003323021269360E-001	4.4412023E-005	-4.4273528E-001	0
4.4910776E+003	2.603319947644195E+001	-4.4583926E-001	-9.927222700496319E-002	4.4259457E-005	-4.4593531E-001	0
4.4828647E+003	2.635319946835807E+001	-4.4905239E-001	-1.001708508141824E-001	4.4981960E-005	-4.4913533E-001	0
4.5155283E+003	2.667319946027419E+001	-4.5225182E-001	-1.001547936875486E-001	4.5295186E-005	-4.5233536E-001	0
4.5012119E+003	2.699319945219031E+001	-4.5543849E-001	-1.011813042636529E-001	4.6081859E-005	-4.5553535E-001	0
4.4775313E+003	2.731319944410643E+001	-4.5863682E-001	-1.024307370684703E-001	4.6978508E-005	-4.5873532E-001	0
4.5227446E+003	2.763319943602255E+001	-4.6185243E-001	-1.021177312384143E-001	4.7163321E-005	-4.6193528E-001	0
4.5536934E+003	2.795319942793867E+001	-4.6504045E-001	-1.021237949938747E-001	4.7491696E-005	-4.6513528E-001	0
4.5789097E+003	2.827319941985479E+001	-4.6825531E-001	-1.022634954254606E-001	4.7885424E-005	-4.6833530E-001	0
4.5653857E+003	2.859319941177091E+001	-4.7144720E-001	-1.032655763613080E-001	4.8684265E-005	-4.7153533E-001	0
4.6021606E+003	2.891319940368703E+001	-4.7462687E-001	-1.031313090790904E-001	4.8948892E-005	-4.7473529E-001	0
4.6129312E+003	2.923319939560315E+001	-4.7783428E-001	-1.035858220921715E-001	4.9496855E-005	-4.7793531E-001	0
4.6141475E+003	2.955319938751927E+001	-4.8104882E-001	-1.042551938276057E-001	5.0151837E-005	-4.8113534E-001	0
4.6272085E+003	2.987319937943539E+001	-4.8426592E-001	-1.046561655517675E-001	5.0681414E-005	-4.8433530E-001	0
4.6557300E+003	3.019319937135151E+001	-4.8746237E-001	-1.047015952902676E-001	5.1038089E-005	-4.8753533E-001	0
4.7018247E+003	3.051319936326763E+001	-4.9065474E-001	-1.043541055892748E-001	5.1201838E-005	-4.9073532E-001	0
4.7198813E+003	3.083319935518375E+001	-4.9385086E-001	-1.046320535925331E-001	5.1672629E-005	-4.9393535E-001	0
4.7262310E+003	3.115319934709987E+001	-4.9706683E-001	-1.051719242863824E-001	5.2277475E-005	-4.9713531E-001	0
4.8006577E+003	3.147319933901599E+001	-5.0026077E-001	-1.042067120457832E-001	5.2130530E-005	-5.0033528E-001	0
4.8434258E+003	3.179319933093211E+001	-5.0346589E-001	-1.039482981905815E-001	5.2334424E-005	-5.0353533E-001	0
4.8525444E+003	3.211319932284823E+001	-5.0664252E-001	-1.044075988132205E-001	5.2897329E-005	-5.0673532E-001	0
4.8949106E+003	3.243319931476435E+001	-5.0985277E-001	-1.041597648296253E-001	5.3106145E-005	-5.0993532E-001	0
4.9207178E+003	3.275319930668047E+001	-5.1305050E-001	-1.042633456629454E-001	5.3492360E-005	-5.1313531E-001	0
4.9153193E+003	3.307319929859659E+001	-5.1625746E-001	-1.050302980786034E-001	5.4222677E-005	-5.1633531E-001	0
4.9244800E+003	3.339319929051271E+001	-5.1943451E-001	-1.054800765801788E-001	5.4789991E-005	-5.1953530E-001	0
4.9407866E+003	3.371319928242883E+001	-5.2265507E-001	-1.057837739788400E-001	5.5288427E-005	-5.2273536E-001	0
4.9534170E+003	3.403319927434495E+001	-5.2585602E-001	-1.061602564601563E-001	5.5825010E-005	-5.2593535E-001	0
4.9673140E+003	3.435319926626107E+001	-5.2904159E-001	-1.065045641658011E-001	5.6345343E-005	-5.2913535E-001	0
4.9734800E+003	3.467319925817719E+001	-5.3225458E-001	-1.070185422223080E-001	5.6961107E-005	-5.3233534E-001	0
4.9904033E+003	3.499319925009331E+001	-5.3545052E-001	-1.072960405099863E-001	5.7451722E-005	-5.3553540E-001	0
5.0290815E+003	3.531319924200943E+001	-5.3864348E-001	-1.071057329829169E-001	5.7691806E-005	-5.3873533E-001	0
5.0071294E+003	3.563319923392555E+001	-5.4185337E-001	-1.082163738309003E-001	5.8637408E-005	-5.4193538E-001	0
1.2820609E+004	3.594319922609429E+001	-5.4396331E-001	4.242881983819780E-002	-2.3079721E-005	-5.4503530E-001	0
5.0505996E+003	3.625319921826303E+001	-5.4803610E-001	-1.085091177013000E-001	5.9466915E-005	-5.4813528E-001	0
5.4238706E+003	3.656319921043178E+001	-5.5055624E-001	-1.015061570466074E-001	5.5884848E-005	-5.5123526E-001	0
5.0628896E+003	3.686319920285314E+001	-5.5413264E-001	-1.094498766081123E-001	6.0649749E-005	-5.5423528E-001	0
5.1114849E+003	3.719319919451664E+001	-5.5740863E-001	-1.090502345990418E-001	6.0785544E-005	-5.5753535E-001	0
5.1432710E+003	3.752319918618014E+001	-5.6074411E-001	-1.090248060648660E-001	6.1135019E-005	-5.6083536E-001	0
4.7660952E+003	3.781319917885412E+001	-5.6346220E-001	-1.182230228462096E-001	6.6614208E-005	-5.6373531E-001	0
5.2011084E+003	3.812319917102286E+001	-5.6672829E-001	-1.089629798330147E-001	6.1752406E-005	-5.6683534E-001	0
4.9286050E+003	3.844319916293898E+001	-5.6930786E-001	-1.155109526365361E-001	6.5761291E-005	-5.7003534E-001	0
5.2666772E+003	3.876319915485510E+001	-5.7313633E-001	-1.088231309272976E-001	6.2370491E-005	-5.7323533E-001	0
3.3602612E+003	3.908319914677122E+001	-5.7725304E-001	-1.717881451562122E-001	9.9165227E-005	-5.7643533E-001	0
5.2675405E+003	3.940319913868734E+001	-5.7950306E-001	-1.100139675573577E-001	6.3753432E-005	-5.7963526E-001	0
5.3240317E+003	3.973319913035084E+001	-5.8281446E-001	-1.094686300567354E-001	6.3799896E-005	-5.8293533E-001	0
6.7551523E+003	4.005319912226696E+001	-5.8602083E-001	-8.675168011391210E-002	5.0838291E-005	-5.8613533E-001	0
4.4188306E+003	4.033319911519357E+001	-5.8986980E-001	-1.334900284746348E-001	7.8741738E-005	-5.8893532E-001	0
5.4342646E+003	4.066319910685706E+001	-5.9210223E-001	-1.089571953373163E-001	6.4513799E-005	-5.9223539E-001	0
5.7056685E+003	4.096319909927843E+001	-5.9467429E-001	-1.042251746640969E-001	6.1980034E-005	-5.9523529E-001	0
5.1679160E+003	4.126319909169979E+001	-5.9774894E-001	-1.156653710090387E-001	6.9138856E-005	-5.9823537E-001	0
5.6510791E+003	4.157319908386853E+001	-6.0193539E-001	-1.065168885029782E-001	6.4116284E-005	-6.0133535E-001	0
7.8288037E+003	4.189319907578465E+001	-6.0321867E-001	-7.705119432352325E-002	4.6478719E-005	-6.0453534E-001	0
5.5648423E+003	4.222319906744815E+001	-6.0772216E-001	-1.092074397385852E-001	6.6367778E-005	-6.0783523E-001	0
2.4942378E+003	4.251319906012213E+001	-6.1033136E-001	-2.446965455001555E-001	1.4934597E-004	-6.1073536E-001	0
5.3984180E+003	4.282319905229087E+001	-6.1435390E-001	-1.138025836317844E-001	6.9915062E-005	-6.1383533E-001	0
6.6333262E+003	4.313319904445962E+001	-6.1663675E-001	-9.296041696167348E-002	5.7322810E-005	-6.1693537E-001	0
1.7448202E+003	4.344319903662836E+001	-6.1985075E-001	-3.552519392584883E-001	2.2020318E-004	-6.2003529E-001	0
5.8138140E+003	4.372319902955496E+001	-6.2437862E-001	-1.073957021145493E-001	6.7055582E-005	-6.2283540E-001	0
6.1344443E+003	4.406319902096584E+001	-6.2625235E-001	-1.020878723548500E-001	6.3932770E-005	-6.2623543E-001	0
5.2849448E+003	4.435319901363982E+001	-6.2969506E-001	-1.191488406459333E-001	7.5027434E-005	-6.2913531E-001	0
4.5451333E+003	4.467319900555594E+001	-6.3142538E-001	-1.389234007889493E-001	8.7719760E-005	-6.3233536E-001	0
5.0262715E+003	4.496319899822993E+001	-6.3524842E-001	-1.263856113082882E-001	8.0286263E-005	-6.3523543E-001	0
6.1291372E+003	4.526319899065129E+001	-6.3776189E-001	-1.040541090394588E-001	6.6361747E-005	-6.3823533E-001	0
5.8439033E+003	4.557319898282003E+001	-6.4122289E-001	-1.097251066204810E-001	7.0358248E-005	-6.4133543E-001	0
6.1434194E+003	4.585319897574664E+001	-6.4387137E-001	-1.048066770895478E-001	6.7482018E-005	-6.4413530E-001	0
6.7395049E+003	4.613319896867324E+001	-6.4687377E-001	-9.598239037948431E-002	6.2088489E-005	-6.4693540E-001	0
6.1674907E+003	4.643319896109460E+001	-6.4995331E-001	-1.053837548072225E-001	6.8494519E-005	-6.4993531E-001	0
8.0743257E+003	4.671319895402121E+001	-6.5265596E-001	-8.083101498556500E-002	5.2754844E-005	-6.5273535E-001	0
8.1541563E+003	4.693319894846354E+001	-6.5488172E-001	-8.031262987337673E-002	5.2595275E-005	-6.5493530E-001	0
8.1428320E+003	4.713319894341112E+001	-6.5687203E-001	-8.066874223522635E-002	5.2989042E-005	-6.5693533E-001	0
8.1209824E+003	4.733319893835869E+001	-6.5886754E-001	-8.113150489664367E-002	5.3454914E-005	-6.5893537E-001	0
8.0652749E+003	4.753319893330627E+001	-6.6087925E-001	-8.194131615134559E-002	5.4153315E-005	-6.6093534E-001	0
8.0350342E+003	4.773319892825384E+001	-6.6287231E-001	-8.249776028128342E-002	5.4685483E-005	-6.6293532E-001	0
7.9913535E+003	4.793319892320142E+001	-6.6486984E-001	-8.319865128599815E-002	5.5316275E-005	-6.6493535E-001	0
7.9354272E+003	4.813319891814899E+001	-6.6688699E-001	-8.403920551736654E-002	5.6044653E-005	-6.6693538E-001	0
7.9014233E+003	4.833319891309657E+001	-6.6887373E-001	-8.465231007045282E-002	5.6621706E-005	-6.6893530E-001	0
7.8397280E+003	4.853319890804414E+001	-6.7085594E-001	-8.557132805239365E-002	5.7406032E-005	-6.7093533E-001	0
7.7876011E+003	4.873319890299172E+001	-6.7285770E-001	-8.640115156657835E-002	5.8135680E-005	-6.7293537E-001	0
7.7534536E+003	4.893319889793929E+001	-6.7486608E-001	-8.704070400450892E-002	5.8740818E-005	-6.7493528E-001	0
7.6904365E+003	4.913319889288687E+001	-6.7687488E-001	-8.801514429490021E-002	5.9575239E-005	-6.7693532E-001	0
7.6517178E+003	4.933319888783444E+001	-6.7885941E-001	-8.871987130484449E-002	6.0228318E-005	-6.7893535E-001	0
7.6031914E+003	4.953319888278202E+001	-6.8088126E-001	-8.955203635615938E-002	6.0974304E-005	-6.8093538E-001	0
7.5620898E+003	4.973319887772959E+001	-6.8285263E-001	-9.029946040864711E-002	6.1661223E-005	-6.8293530E-001	0
7.5216489E+003	4.993319887267717E+001	-6.8484086E-001	-9.104929691024288E-002	6.2354280E-005	-6.8493533E-001	0
7.4702715E+003	5.013319886762474E+001	-6.8684006E-001	-9.194311797523791E-002	6.3150219E-005	-6.8693537E-001	0
7.4501030E+003	5.033319886257232E+001	-6.8884760E-001	-9.246148464012283E-002	6.3691870E-005	-6.8893528E-001	0
7.4006909E+003	5.053319885751989E+001	-6.9085658E-001	-9.335028143682012E-002	6.4491658E-005	-6.9093531E-001	0
7.3650938E+003	5.073319885246747E+001	-6.9284481E-001	-9.407141456241108E-002	6.5176893E-005	-6.9293541E-001	0
7.3179731E+003	5.093319884741504E+001	-6.9485170E-001	-9.495138362221141E-002	6.5977132E-005	-6.9493532E-001	0
7.2839531E+003	5.113319884236262E+001	-6.9686091E-001	-9.567070509150888E-002	6.6669178E-005	-6.9693530E-001	0
7.2539678E+003	5.133319883731019E+001	-6.9884211E-001	-9.633929017812948E-002	6.7325949E-005	-6.9893539E-001	0
7.2273530E+003	5.153319883225777E+001	-7.0084620E-001	-9.697135468963908E-002	6.7962006E-005	-7.0093536E-001	0
7.1903374E+003	5.173319882720534E+001	-7.0285547E-001	-9.774999629152847E-002	6.8704117E-005	-7.0293534E-001	0
7.1580303E+003	5.193319882215292E+001	-7.0486218E-001	-9.847152573975126E-002	6.9408852E-005	-7.0493531E-001	0
7.1284321E+003	5.213319881710049E+001	-7.0687044E-001	-9.916211600476632E-002	7.0094771E-005	-7.0693541E-001	0
7.1060337E+003	5.233319881204807E+001	-7.0884824E-001	-9.975301162413674E-002	7.0709750E-005	-7.0893532E-001	0
7.0875088E+003	5.253319880699564E+001	-7.1085614E-001	-1.002970361393660E-001	7.1296767E-005	-7.1093535E-001	0
7.0603013E+003	5.273319880194322E+001	-7.1286774E-001	-1.009684608015919E-001	7.1977156E-005	-7.1293539E-001	0
7.0425498E+003	5.293319879689079E+001	-7.1485704E-001	-1.015054316897703E-001	7.2561874E-005	-7.1493536E-001	0
7.0293408E+003	5.313319879183837E+001	-7.1685559E-001	-1.019804842776428E-001	7.3105279E-005	-7.1693534E-001	0
7.0128350E+003	5.333319878678594E+001	-7.1885061E-001	-1.025049954414148E-001	7.3685776E-005	-7.1893531E-001	0
6.9899604E+003	5.353319878173352E+001	-7.2087348E-001	-1.031298373209193E-001	7.4343567E-005	-7.2093546E-001	0
6.9808296E+003	5.373319877668109E+001	-7.2285289E-001	-1.035482760903148E-001	7.4850170E-005	-7.2293538E-001	0
6.9775415E+003	5.393319877162867E+001	-7.2486061E-001	-1.038848157304756E-001	7.5302014E-005	-7.2493535E-001	0
6.9568091E+003	5.413319876657624E+001	-7.2686052E-001	-1.044818856542227E-001	7.5943761E-005	-7.2693539E-001	0
6.9585796E+003	5.433319876152382E+001	-7.2884464E-001	-1.047404309325009E-001	7.6339500E-005	-7.2893530E-001	0
6.9459927E+003	5.453319875647139E+001	-7.3085624E-001	-1.052198367681174E-001	7.6900571E-005	-7.3093539E-001	0
6.9455054E+003	5.473319875141897E+001	-7.3285127E-001	-1.055144621692852E-001	7.7326404E-005	-7.3293537E-001	0
6.9354600E+003	5.493319874636654E+001	-7.3483360E-001	-1.059531158072842E-001	7.7857912E-005	-7.3493546E-001	0
6.9375107E+003	5.513319874131412E+001	-7.3683393E-001	-1.062101294263320E-001	7.8259225E-005	-7.3693532E-001	0
6.9373325E+003	5.533319873626169E+001	-7.3884112E-001	-1.065021928372354E-001	7.8688201E-005	-7.3893529E-001	0
6.9356333E+003	5.553319873120927E+001	-7.4085027E-001	-1.068179704060954E-001	7.9136124E-005	-7.4093539E-001	0
6.9196572E+003	5.573319872615684E+001	-7.4284548E-001	-1.073529321125917E-001	7.9746642E-005	-7.4293536E-001	0
6.9339502E+003	5.593319872110442E+001	-7.4485254E-001	-1.074211008924899E-001	8.0012884E-005	-7.4493533E-001	0
6.9371245E+003	5.613319871605199E+001	-7.4688047E-001	-1.076642767792309E-001	8.0412348E-005	-7.4693537E-001	0
6.9418745E+003	5.633319871099957E+001	-7.4885893E-001	-1.078756079922458E-001	8.0783611E-005	-7.4893540E-001	0
6.9490562E+003	5.653319870594714E+001	-7.5086033E-001	-1.080521317051049E-001	8.1132057E-005	-7.5093532E-001	0
6.9581279E+003	5.673319870089472E+001	-7.5284630E-001	-1.081966706699444E-001	8.1455466E-005	-7.5293535E-001	0
6.9609692E+003	5.693319869584229E+001	-7.5484347E-001	-1.084394193393794E-001	8.1854785E-005	-7.5493544E-001	0
6.9645029E+003	5.713319869078987E+001	-7.5684065E-001	-1.086711686594484E-001	8.2246755E-005	-7.5693536E-001	0
6.9796357E+003	5.733319868573744E+001	-7.5883746E-001	-1.087216392472015E-001	8.2502054E-005	-7.5893533E-001	0
6.9822134E+003	5.753319868068502E+001	-7.6086318E-001	-1.089716352830701E-001	8.2912506E-005	-7.6093537E-001	0
6.9900005E+003	5.773319867563259E+001	-7.6284420E-001	-1.091336425427607E-001	8.3251965E-005	-7.6293540E-001	0
6.9993579E+003	5.793319867058017E+001	-7.6485449E-001	-1.092749469894531E-001	8.3579434E-005	-7.6493537E-001	0
7.0146704E+003	5.813319866552774E+001	-7.6685822E-001	-1.093220601814999E-001	8.3834522E-005	-7.6693535E-001	0
7.0144346E+003	5.833319866047532E+001	-7.6885509E-001	-1.096104198766885E-001	8.4274528E-005	-7.6893544E-001	0
7.0356333E+003	5.853319865542289E+001	-7.7082533E-001	-1.095601887708262E-001	8.4451771E-005	-7.7093542E-001	0
6.9539448E+003	5.873319865037047E+001	-7.7282894E-001	-1.111353295327269E-001	8.5888598E-005	-7.7293533E-001	0
6.4916719E+003	5.893319864531804E+001	-7.7483642E-001	-1.193585275892013E-001	9.2483337E-005	-7.7493536E-001	0
6.3595659E+003	5.913319864026562E+001	-7.7684289E-001	-1.221534491225218E-001	9.4894036E-005	-7.7693534E-001	0
6.3474448E+003	5.933319863521319E+001	-7.7883178E-001	-1.227000503042659E-001	9.5562697E-005	-7.7893531E-001	0
6.3542178E+003	5.953319863016077E+001	-7.8083730E-001	-1.228848820005264E-001	9.5953103E-005	-7.8093535E-001	0
6.3764238E+003	5.973319862510834E+001	-7.8284615E-001	-1.227719736435442E-001	9.6111566E-005	-7.8293550E-001	0
6.3997969E+003	5.993319862005592E+001	-7.8485161E-001	-1.226369518028514E-001	9.6251810E-005	-7.8493536E-001	0
6.4274287E+003	6.013319861500349E+001	-7.8685230E-001	-1.224210069888607E-001	9.6327254E-005	-7.8693533E-001	0
6.3957285E+003	6.033319860995107E+001	-7.8883368E-001	-1.233375846363962E-001	9.7292839E-005	-7.8893542E-001	0
6.4782583E+003	6.053319860489864E+001	-7.9081970E-001	-1.220728853715332E-001	9.6537646E-005	-7.9093540E-001	0
6.5052734E+003	6.073319859984622E+001	-7.9281980E-001	-1.218733968025241E-001	9.6623640E-005	-7.9293537E-001	0
6.5334072E+003	6.093319859479379E+001	-7.9482090E-001	-1.216548878378543E-001	9.6693846E-005	-7.9493541E-001	0
6.5617822E+003	6.113319858974137E+001	-7.9684448E-001	-1.214372045624490E-001	9.6766569E-005	-7.9693544E-001	0
6.5843447E+003	6.133319858468894E+001	-7.9883420E-001	-1.213232674424762E-001	9.6917174E-005	-7.9893535E-001	0
6.6147524E+003	6.153319857963652E+001	-8.0081612E-001	-1.210651718810747E-001	9.6950942E-005	-8.0093533E-001	0
6.6370171E+003	6.173319857458409E+001	-8.0283284E-001	-1.209628982934050E-001	9.7112985E-005	-8.0293542E-001	0
6.6632275E+003	6.193319856953167E+001	-8.0483520E-001	-1.207875864476793E-001	9.7214099E-005	-8.0493546E-001	0
6.6823574E+003	6.213319856447924E+001	-8.0683136E-001	-1.207405305562581E-001	9.7417244E-005	-8.0693537E-001	0
6.7029541E+003	6.233319855942682E+001	-8.0885297E-001	-1.206711166698803E-001	9.7605189E-005	-8.0893540E-001	0
6.7236108E+003	6.253319855437439E+001	-8.1083345E-001	-1.205949389318728E-001	9.7782409E-005	-8.1093544E-001	0
6.7437095E+003	6.273319854932197E+001	-8.1284326E-001	-1.205335520239559E-001	9.7974887E-005	-8.1293529E-001	0
6.7472861E+003	6.293319854426954E+001	-8.1482995E-001	-1.207641026368387E-001	9.8402204E-005	-8.1493539E-001	0
6.7679756E+003	6.313319853921712E+001	-8.1682998E-001	-1.206904422500239E-001	9.8583572E-005	-8.1693548E-001	0
6.7747363E+003	6.333319853416469E+001	-8.1884199E-001	-1.208669923482431E-001	9.8970966E-005	-8.1893533E-001	0
6.7840181E+003	6.353319852911227E+001	-8.2083398E-001	-1.209952496467344E-001	9.9317011E-005	-8.2093543E-001	0
6.7950615E+003	6.373319852405984E+001	-8.2284367E-001	-1.210943637563595E-001	9.9641729E-005	-8.2293540E-001	0
6.7931841E+003	6.393319851900742E+001	-8.2484442E-001	-1.214223582204643E-001	1.0015455E-004	-8.2493538E-001	0
6.7846245E+003	6.413319851395499E+001	-8.2684106E-001	-1.218698368262072E-001	1.0076699E-004	-8.2693535E-001	0
6.7857915E+003	6.433319850890257E+001	-8.2882673E-001	-1.221414994218240E-001	1.0123414E-004	-8.2893538E-001	0
6.7650669E+003	6.453319850385014E+001	-8.3083194E-001	-1.228120780281739E-001	1.0203620E-004	-8.3093542E-001	0
6.7334067E+003	6.473319849879772E+001	-8.3283389E-001	-1.236868504595325E-001	1.0301060E-004	-8.3293539E-001	0
6.6923477E+003	6.493319849374529E+001	-8.3485103E-001	-1.247471104230300E-001	1.0414526E-004	-8.3493531E-001	0
6.6291489E+003	6.513319848869287E+001	-8.3683896E-001	-1.262362620427939E-001	1.0563942E-004	-8.3693546E-001	0
6.5745049E+003	6.533319848364044E+001	-8.3883584E-001	-1.275892064963671E-001	1.0702640E-004	-8.3893543E-001	0
6.5219355E+003	6.553319847858802E+001	-8.4082854E-001	-1.289231608053691E-001	1.0840227E-004	-8.4093535E-001	0
6.4573765E+003	6.573319847353559E+001	-8.4284765E-001	-1.305247846887343E-001	1.1001251E-004	-8.4293544E-001	0
6.3727505E+003	6.593319846848317E+001	-8.4483641E-001	-1.325701363585350E-001	1.1200008E-004	-8.4493542E-001	0
6.2789521E+003	6.613319846343074E+001	-8.4685916E-001	-1.348726937089064E-001	1.1421818E-004	-8.4693539E-001	0
6.1887310E+003	6.633319845837832E+001	-8.4885973E-001	-1.371621601325779E-001	1.1643143E-004	-8.4893537E-001	0
6.0821489E+003	6.653319845332589E+001	-8.5084999E-001	-1.398929833305700E-001	1.1902794E-004	-8.5093546E-001	0
5.9804917E+003	6.673319844827347E+001	-8.5286397E-001	-1.426076611721485E-001	1.2162494E-004	-8.5293531E-001	0
5.8879146E+003	6.693319844322104E+001	-8.5484630E-001	-1.451865993820276E-001	1.2411222E-004	-8.5493541E-001	0
5.7970815E+003	6.713319843816862E+001	-8.5685021E-001	-1.478071671893689E-001	1.2664861E-004	-8.5693538E-001	0
5.7183325E+003	6.733319843311619E+001	-8.5886532E-001	-1.501950672162433E-001	1.2899733E-004	-8.5893536E-001	0
5.6120107E+003	6.753319842806377E+001	-8.6086440E-001	-1.533967820397431E-001	1.3205383E-004	-8.6093545E-001	0
5.5400640E+003	6.773319842301134E+001	-8.6284858E-001	-1.557470441831785E-001	1.3438612E-004	-8.6293536E-001	0
5.4399614E+003	6.793319841795892E+001	-8.6483485E-001	-1.589781236940415E-001	1.3748983E-004	-8.6493552E-001	0
5.3404263E+003	6.813319841290649E+001	-8.6685252E-001	-1.623189752159089E-001	1.4070662E-004	-8.6693537E-001	0
5.2261587E+003	6.833319840785407E+001	-8.6885160E-001	-1.662505248343980E-001	1.4444704E-004	-8.6893529E-001	0
5.1201069E+003	6.853319840280165E+001	-8.7085897E-001	-1.700860818556578E-001	1.4812099E-004	-8.7093544E-001	0
5.0223877E+003	6.873319839774922E+001	-8.7285817E-001	-1.737934730919566E-001	1.5169705E-004	-8.7293541E-001	0
4.9316475E+003	6.893319839269680E+001	-8.7486333E-001	-1.773977821118398E-001	1.5519881E-004	-8.7493539E-001	0
4.8379785E+003	6.913319838764437E+001	-8.7682921E-001	-1.812387490655611E-001	1.5891543E-004	-8.7693542E-001	0
4.7414097E+003	6.933319838259195E+001	-8.7883800E-001	-1.853537386823907E-001	1.6289591E-004	-8.7893540E-001	0
4.6499160E+003	6.953319837753952E+001	-8.8083243E-001	-1.894297489681014E-001	1.6685587E-004	-8.8093537E-001	0
4.5579097E+003	6.973319837248710E+001	-8.8284642E-001	-1.936954625442944E-001	1.7100334E-004	-8.8293535E-001	0
4.4742168E+003	6.993319836743467E+001	-8.8484973E-001	-1.977663992454302E-001	1.7499355E-004	-8.8493544E-001	0
4.3969692E+003	7.013319836238225E+001	-8.8684773E-001	-2.016952409094319E-001	1.7887297E-004	-8.8693541E-001	0
4.3187334E+003	7.033319835732982E+001	-8.8884455E-001	-2.058113898951017E-001	1.8293434E-004	-8.8893539E-001	0
4.2336147E+003	7.053319835227740E+001	-8.9082664E-001	-2.104175016664120E-001	1.8744552E-004	-8.9093536E-001	0
4.1538203E+003	7.073319834722497E+001	-8.9285010E-001	-2.149467272029311E-001	1.9191521E-004	-8.9293534E-001	0
4.0673538E+003	7.093319834217255E+001	-8.9483130E-001	-2.200033184343653E-001	1.9686586E-004	-8.9493543E-001	0
3.9845730E+003	7.113319833712012E+001	-8.9684337E-001	-2.250789170979166E-001	2.0186053E-004	-8.9693540E-001	0
3.8895930E+003	7.133319833206770E+001	-8.9884466E-001	-2.310896474433028E-001	2.0771369E-004	-8.9893550E-001	0
3.8016877E+003	7.153319832701527E+001	-9.0084416E-001	-2.369590026501758E-001	2.1346314E-004	-9.0093547E-001	0
3.7017871E+003	7.173319832196285E+001	-9.0284091E-001	-2.438932601615886E-001	2.2019682E-004	-9.0293539E-001	0
3.5895518E+003	7.193319831691042E+001	-9.0484321E-001	-2.520769303770156E-001	2.2809010E-004	-9.0493542E-001	0
3.4778726E+003	7.213319831185800E+001	-9.0684205E-001	-2.607462052150273E-001	2.3645563E-004	-9.0693539E-001	0
3.3581191E+003	7.233319830680557E+001	-9.0882581E-001	-2.706353652043912E-001	2.4596040E-004	-9.0893537E-001	0
3.2269817E+003	7.253319830175315E+001	-9.1084349E-001	-2.822586559329408E-001	2.5709346E-004	-9.1093540E-001	0
3.0917146E+003	7.273319829670072E+001	-9.1283244E-001	-2.952511953295560E-001	2.6951486E-004	-9.1293544E-001	0
2.9525825E+003	7.293319829164830E+001	-9.1484171E-001	-3.098445892536721E-001	2.8345876E-004	-9.1493541E-001	0
2.8122659E+003	7.313319828659587E+001	-9.1685444E-001	-3.260198320260024E-001	2.9891272E-004	-9.1693538E-001	0
2.6669338E+003	7.333319828154345E+001	-9.1884506E-001	-3.445323796123452E-001	3.1657188E-004	-9.1893542E-001	0
2.5230608E+003	7.353319827649102E+001	-9.2085981E-001	-3.649772585257747E-001	3.3609290E-004	-9.2093539E-001	0
2.3805769E+003	7.373319827143860E+001	-9.2285955E-001	-3.876621408742812E-001	3.5775770E-004	-9.2293537E-001	0
2.2412786E+003	7.393319826638617E+001	-9.2486012E-001	-4.126484480659034E-001	3.8164208E-004	-9.2493546E-001	0
2.1061006E+003	7.413319826133375E+001	-9.2685711E-001	-4.400820572883770E-001	4.0789318E-004	-9.2693543E-001	0
1.9767780E+003	7.433319825628132E+001	-9.2885864E-001	-4.698851598667471E-001	4.3645690E-004	-9.2893541E-001	0
1.8538170E+003	7.453319825122890E+001	-9.3085301E-001	-5.021277803023780E-001	4.6740717E-004	-9.3093538E-001	0
1.7385110E+003	7.473319824617647E+001	-9.3284893E-001	-5.365792534603429E-001	5.0054741E-004	-9.3293548E-001	0
1.6306523E+003	7.493319824112405E+001	-9.3484718E-001	-5.732964401612746E-001	5.3594453E-004	-9.3493551E-001	0
1.5282844E+003	7.513319823607162E+001	-9.3686497E-001	-6.130174327759992E-001	5.7431456E-004	-9.3693542E-001	0
1.4352157E+003	7.533319823101920E+001	-9.3887192E-001	-6.541678266105575E-001	6.1417982E-004	-9.3893540E-001	0
1.3483544E+003	7.553319822596677E+001	-9.4084662E-001	-6.977739778311420E-001	6.5649831E-004	-9.4093549E-001	0
1.2673121E+003	7.573319822091435E+001	-9.4284272E-001	-7.439703736538732E-001	7.0144708E-004	-9.4293535E-001	0
1.1938458E+003	7.593319821586192E+001	-9.4483685E-001	-7.914228308058915E-001	7.4776547E-004	-9.4493538E-001	0
1.1250994E+003	7.613319821080950E+001	-9.4683719E-001	-8.415587066742436E-001	7.9681911E-004	-9.4693542E-001	0
1.0614131E+003	7.633319820575707E+001	-9.4883507E-001	-8.939357487877615E-001	8.4819761E-004	-9.4893539E-001	0
1.0028343E+003	7.653319820070465E+001	-9.5083845E-001	-9.481510835321707E-001	9.0153853E-004	-9.5093536E-001	0
9.4971289E+002	7.673319819565222E+001	-9.5285314E-001	-1.003306540409255E+000	9.5600379E-004	-9.5293540E-001	0
8.9767303E+002	7.694319819034718E+001	-9.5489895E-001	-1.063749178697657E+000	1.0157729E-003	-9.5503545E-001	0
8.4942194E+002	7.715319818504213E+001	-9.5699918E-001	-1.126647604295722E+000	1.0782009E-003	-9.5713538E-001	0
8.0767688E+002	7.735319817998970E+001	-9.5900452E-001	-1.187361617764784E+000	1.1386852E-003	-9.5913541E-001	0
7.6887054E+002	7.755319817493728E+001	-9.6098781E-001	-1.249869445478225E+000	1.2011093E-003	-9.6113551E-001	0
7.3257935E+002	7.775319816988485E+001	-9.6299952E-001	-1.314532676149931E+000	1.2658944E-003	-9.6313536E-001	0
6.9938867E+002	7.795319816483243E+001	-9.6499819E-001	-1.379773867044122E+000	1.3314793E-003	-9.6513540E-001	0
6.6877289E+002	7.815319815978000E+001	-9.6698236E-001	-1.445905489420475E+000	1.3981651E-003	-9.6713543E-001	0
6.3988013E+002	7.835319815472758E+001	-9.6899384E-001	-1.514336537603548E+000	1.4673828E-003	-9.6913540E-001	0
6.1300195E+002	7.855319814967515E+001	-9.7100121E-001	-1.584010023801101E+000	1.5380756E-003	-9.7113538E-001	0
5.8792981E+002	7.875319814462273E+001	-9.7299004E-001	-1.654942513998949E+000	1.6102425E-003	-9.7313541E-001	0
5.6421429E+002	7.895319813957030E+001	-9.7500175E-001	-1.728069886311788E+000	1.6848712E-003	-9.7513539E-001	0
5.4249530E+002	7.915319813451788E+001	-9.7697783E-001	-1.800896423490819E+000	1.7594359E-003	-9.7713536E-001	0
5.2200043E+002	7.935319812946545E+001	-9.7897416E-001	-1.875427876098630E+000	1.8359955E-003	-9.7913545E-001	0
5.0262170E+002	7.955319812441303E+001	-9.8099118E-001	-1.951748556881945E+000	1.9146481E-003	-9.8113543E-001	0
4.8449686E+002	7.975319811936060E+001	-9.8298281E-001	-2.028873413142303E+000	1.9943477E-003	-9.8313540E-001	0
4.6726108E+002	7.995319811430818E+001	-9.8499274E-001	-2.108013625317949E+000	2.0763781E-003	-9.8513538E-001	0
4.5106372E+002	8.015319810925575E+001	-9.8697805E-001	-2.188112243232810E+000	2.1596188E-003	-9.8713547E-001	0
4.3588641E+002	8.035319810420333E+001	-9.8898470E-001	-2.268904663385854E+000	2.2439121E-003	-9.8913550E-001	0
4.2141089E+002	8.055319809915090E+001	-9.9100512E-001	-2.351636194469840E+000	2.3304834E-003	-9.9113542E-001	0
4.0565424E+002	8.075319809409848E+001	-9.9299842E-001	-2.447893589261977E+000	2.4307545E-003	-9.9313539E-001	0
3.9297998E+002	8.095319808904605E+001	-9.9498230E-001	-2.531890637091361E+000	2.5191864E-003	-9.9513549E-001	0
3.8064807E+002	8.115319808399363E+001	-9.9699163E-001	-2.619195302243007E+000	2.6113158E-003	-9.9713534E-001	0
3.6907758E+002	8.135319807894120E+001	-9.9900234E-001	-2.706754281322837E+000	2.7040539E-003	-9.9913538E-001	0
3.5793561E+002	8.155319807388878E+001	-1.0010130E+000	-2.796628777047545E+000	2.7994618E-003	-1.0011355E+000	0
3.4724829E+002	8.175319806883635E+001	-1.0030129E+000	-2.888460217875831E+000	2.8971629E-003	-1.0031354E+000	0
3.3733817E+002	8.195319806378393E+001	-1.0049928E+000	-2.979185114642118E+000	2.9940598E-003	-1.0051353E+000	0
3.2777771E+002	8.215319805873150E+001	-1.0070188E+000	-3.072261334428579E+000	3.0938250E-003	-1.0071354E+000	0
3.1844382E+002	8.235319805367908E+001	-1.0090001E+000	-3.168533863191435E+000	3.1970509E-003	-1.0091354E+000	0
3.0973114E+002	8.255319804862665E+001	-1.0110019E+000	-3.264127653066808E+000	3.3000393E-003	-1.0111353E+000	0
3.0117456E+002	8.275319804357423E+001	-1.0130118E+000	-3.363537200893404E+000	3.4073030E-003	-1.0131353E+000	0
2.9314999E+002	8.295319803852180E+001	-1.0149854E+000	-3.462341758095226E+000	3.5142265E-003	-1.0151353E+000	0
2.8530365E+002	8.315319803346938E+001	-1.0170226E+000	-3.564702520328585E+000	3.6253831E-003	-1.0171354E+000	0
2.7768243E+002	8.335319802841695E+001	-1.0190015E+000	-3.669664783171001E+000	3.7393938E-003	-1.0191354E+000	0
2.7048300E+002	8.355319802336453E+001	-1.0210085E+000	-3.774760122911459E+000	3.8540622E-003	-1.0211354E+000	0
2.6351831E+002	8.375319801831211E+001	-1.0230097E+000	-3.882119972013825E+000	3.9714463E-003	-1.0231354E+000	0
2.5672452E+002	8.395319801325968E+001	-1.0250318E+000	-3.992730467024849E+000	4.0926756E-003	-1.0251354E+000	0
2.5023140E+002	8.415319800820726E+001	-1.0270360E+000	-4.104344813529050E+000	4.2153099E-003	-1.0271354E+000	0
2.4394922E+002	8.435319800315483E+001	-1.0290530E+000	-4.218308091028469E+000	4.3408624E-003	-1.0291355E+000	0
2.3793237E+002	8.455319799810241E+001	-1.0310571E+000	-4.333403968114965E+000	4.4679870E-003	-1.0311353E+000	0
2.3207410E+002	8.475319799304998E+001	-1.0330501E+000	-4.451380173061182E+000	4.5984983E-003	-1.0331354E+000	0
2.2641669E+002	8.495319798799756E+001	-1.0350493E+000	-4.571435591666358E+000	4.7316612E-003	-1.0351354E+000	0
2.2091402E+002	8.515319798294513E+001	-1.0370536E+000	-4.694376464333399E+000	4.8683197E-003	-1.0371354E+000	0
2.1560406E+002	8.535319797789271E+001	-1.0390620E+000	-4.819306318688277E+000	5.0075580E-003	-1.0391355E+000	0
2.1044232E+002	8.555319797284028E+001	-1.0410473E+000	-4.946948395463338E+000	5.1500075E-003	-1.0411354E+000	0
2.0554163E+002	8.575319796778786E+001	-1.0430294E+000	-5.074541178014549E+000	5.2928957E-003	-1.0431354E+000	0
2.0054497E+002	8.595319796273543E+001	-1.0450450E+000	-5.211026031853365E+000	5.4457569E-003	-1.0451354E+000	0
1.9524706E+002	8.615319795768301E+001	-1.0470531E+000	-5.362708894979335E+000	5.6150411E-003	-1.0471354E+000	0
1.9073845E+002	8.635319795263058E+001	-1.0490520E+000	-5.499950469722833E+000	5.7697343E-003	-1.0491354E+000	0
1.8626477E+002	8.655319794757816E+001	-1.0510690E+000	-5.642876039252798E+000	5.9310524E-003	-1.0511354E+000	0
1.8194608E+002	8.675319794252573E+001	-1.0530648E+000	-5.787785215577856E+000	6.0949130E-003	-1.0531354E+000	0
1.7773300E+002	8.695319793747331E+001	-1.0550618E+000	-5.936217774373059E+000	6.2630768E-003	-1.0551354E+000	0
1.7367441E+002	8.715319793242088E+001	-1.0570737E+000	-6.086525350167108E+000	6.4339060E-003	-1.0571355E+000	0
1.6972472E+002	8.735319792736846E+001	-1.0590638E+000	-6.239891379970260E+000	6.6084429E-003	-1.0591354E+000	0
1.6593880E+002	8.755319792231603E+001	-1.0610677E+000	-6.394331661549245E+000	6.7848186E-003	-1.0611354E+000	0
1.6214835E+002	8.775319791726361E+001	-1.0630503E+000	-6.556035498642864E+000	6.9693951E-003	-1.0631355E+000	0
1.5850882E+002	8.795319791221118E+001	-1.0650510E+000	-6.719190823720950E+000	7.1562808E-003	-1.0651354E+000	0
1.5494411E+002	8.815319790715876E+001	-1.0670632E+000	-6.886761895247858E+000	7.3486101E-003	-1.0671355E+000	0
1.5153397E+002	8.835319790210633E+001	-1.0690577E+000	-7.054904843065998E+000	7.5421003E-003	-1.0691354E+000	0
1.4809625E+002	8.855319789705391E+001	-1.0710737E+000	-7.232280534276086E+000	7.7463053E-003	-1.0711355E+000	0
1.4474983E+002	8.875319789200148E+001	-1.0730793E+000	-7.413337691773629E+000	7.9550995E-003	-1.0731354E+000	0
1.4153528E+002	8.895319788694906E+001	-1.0750538E+000	-7.595659889128740E+000	8.1657432E-003	-1.0751354E+000	0
1.3842744E+002	8.915319788189663E+001	-1.0770645E+000	-7.780714865309321E+000	8.3803320E-003	-1.0771354E+000	0
1.3532103E+002	8.935319787684421E+001	-1.0790576E+000	-7.974056467920761E+000	8.6044660E-003	-1.0791355E+000	0
1.3201884E+002	8.955319787179178E+001	-1.0810553E+000	-8.188643719468786E+000	8.8523766E-003	-1.0811354E+000	0
1.2900191E+002	8.975319786673936E+001	-1.0830458E+000	-8.395580075360201E+000	9.0927985E-003	-1.0831354E+000	0
1.2611531E+002	8.995319786168693E+001	-1.0850545E+000	-8.603669910812030E+000	9.3354508E-003	-1.0851353E+000	0
1.2333456E+002	9.015319785663451E+001	-1.0870394E+000	-8.813744787794093E+000	9.5808879E-003	-1.0871353E+000	0
1.2059283E+002	9.035319785158208E+001	-1.0890346E+000	-9.030673689717901E+000	9.8347161E-003	-1.0891354E+000	0
1.1791209E+002	9.055319784652966E+001	-1.0910321E+000	-9.252928994072278E+000	1.0095243E-002	-1.0911355E+000	0
1.1534242E+002	9.075319784147723E+001	-1.0930542E+000	-9.476601749523468E+000	1.0358439E-002	-1.0931354E+000	0
1.1283466E+002	9.095319783642481E+001	-1.0950435E+000	-9.704850293679044E+000	1.0627233E-002	-1.0951353E+000	0
1.1032725E+002	9.115319783137238E+001	-1.0970438E+000	-9.943543218228271E+000	1.0908502E-002	-1.0971354E+000	0
1.0791227E+002	9.135319782631996E+001	-1.0990597E+000	-1.018475183790503E+001	1.1193651E-002	-1.0991355E+000	0
1.0551428E+002	9.155319782126753E+001	-1.1010389E+000	-1.043497496971742E+001	1.1489314E-002	-1.1011354E+000	0
1.0318014E+002	9.175319781621511E+001	-1.1030440E+000	-1.069046869130632E+001	1.1792058E-002	-1.1031353E+000	0
1.0036190E+002	9.196319781091006E+001	-1.1051273E+000	-1.101142284639027E+001	1.2169024E-002	-1.1052353E+000	0
9.7919151E+001	9.217319780560501E+001	-1.1072150E+000	-1.130744127932593E+001	1.2519769E-002	-1.1073353E+000	0
9.5821320E+001	9.237319780055259E+001	-1.1092069E+000	-1.157578432789740E+001	1.2839940E-002	-1.1093354E+000	0
9.3713722E+001	9.257319779550016E+001	-1.1112239E+000	-1.185764373024580E+001	1.3176498E-002	-1.1113354E+000	0
9.1698914E+001	9.277319779044774E+001	-1.1132102E+000	-1.213984063815096E+001	1.3514195E-002	-1.1133354E+000	0
8.9648842E+001	9.297319778539531E+001	-1.1152165E+000	-1.243983130160382E+001	1.3873105E-002	-1.1153353E+000	0
8.7709564E+001	9.317319778034289E+001	-1.1172205E+000	-1.273772716305963E+001	1.4230850E-002	-1.1173354E+000	0
8.5804146E+001	9.337319777529046E+001	-1.1192088E+000	-1.304376203281271E+001	1.4598694E-002	-1.1193355E+000	0
8.3945702E+001	9.357319777023804E+001	-1.1212211E+000	-1.335650412322713E+001	1.4975593E-002	-1.1213354E+000	0
8.2074745E+001	9.377319776518561E+001	-1.1232052E+000	-1.368514930309894E+001	1.5371230E-002	-1.1233354E+000	0
8.0045219E+001	9.397319776013319E+001	-1.1252267E+000	-1.405738860030834E+001	1.5817750E-002	-1.1253353E+000	0
7.8225571E+001	9.417319775508076E+001	-1.1272120E+000	-1.440976483738075E+001	1.6242860E-002	-1.1273354E+000	0
7.6535370E+001	9.437319775002834E+001	-1.1292211E+000	-1.475423857333172E+001	1.6660796E-002	-1.1293354E+000	0
7.4875549E+001	9.457319774497591E+001	-1.1312199E+000	-1.510800010060501E+001	1.7090470E-002	-1.1313354E+000	0
7.3264542E+001	9.477319773992349E+001	-1.1332242E+000	-1.546756706040469E+001	1.7528223E-002	-1.1333355E+000	0
7.1682106E+001	9.497319773487106E+001	-1.1352135E+000	-1.583677733512161E+001	1.7978122E-002	-1.1353354E+000	0
7.0132782E+001	9.517319772981864E+001	-1.1372232E+000	-1.621528852796885E+001	1.8440403E-002	-1.1373354E+000	0
6.8539673E+001	9.537319772476621E+001	-1.1392179E+000	-1.662129185137564E+001	1.8935272E-002	-1.1393354E+000	0
6.6789734E+001	9.557319771971379E+001	-1.1412396E+000	-1.708705272385311E+001	1.9500421E-002	-1.1413355E+000	0
6.5315735E+001	9.577319771466136E+001	-1.1432005E+000	-1.750268181219117E+001	2.0009074E-002	-1.1433355E+000	0
6.3925903E+001	9.597319770960894E+001	-1.1452149E+000	-1.791472381407436E+001	2.0516209E-002	-1.1453354E+000	0
6.2576756E+001	9.617319770455651E+001	-1.1472175E+000	-1.833296551969318E+001	2.1031899E-002	-1.1473354E+000	0
6.1205746E+001	9.637319769950409E+001	-1.1492141E+000	-1.877624674340768E+001	2.1577928E-002	-1.1493355E+000	0
5.9817028E+001	9.657319769445166E+001	-1.1512246E+000	-1.924576711370833E+001	2.2156201E-002	-1.1513355E+000	0
5.8337124E+001	9.677319768939924E+001	-1.1532315E+000	-1.976839828518243E+001	2.2797540E-002	-1.1533355E+000	0
5.6996479E+001	9.697319768434681E+001	-1.1552254E+000	-2.026836448488865E+001	2.3414530E-002	-1.1553354E+000	0
5.5815269E+001	9.717319767929439E+001	-1.1572130E+000	-2.073290957426002E+001	2.3992391E-002	-1.1573354E+000	0
5.4570156E+001	9.737319767424196E+001	-1.1592448E+000	-2.124320044052577E+001	2.4626069E-002	-1.1593355E+000	0
5.3394909E+001	9.757319766918954E+001	-1.1612024E+000	-2.174743660899246E+001	2.5253177E-002	-1.1613355E+000	0
5.2251102E+001	9.777319766413711E+001	-1.1632205E+000	-2.226212396900132E+001	2.5895759E-002	-1.1633353E+000	0
5.0975750E+001	9.797319765908469E+001	-1.1652174E+000	-2.285826882888945E+001	2.6634853E-002	-1.1653354E+000	0
4.9807598E+001	9.817319765403226E+001	-1.1672288E+000	-2.343475449287968E+001	2.7353721E-002	-1.1673354E+000	0
4.8796825E+001	9.837319764897984E+001	-1.1692353E+000	-2.396130011708829E+001	2.8016400E-002	-1.1693355E+000	0
4.7779106E+001	9.857319764392741E+001	-1.1712421E+000	-2.451368812098269E+001	2.8711464E-002	-1.1713355E+000	0
4.6746082E+001	9.877319763887499E+001	-1.1732315E+000	-2.509796431572806E+001	2.9445723E-002	-1.1733354E+000	0
4.5649651E+001	9.897319763382257E+001	-1.1752206E+000	-2.574434964321631E+001	3.0255290E-002	-1.1753353E+000	0
4.4637207E+001	9.917319762877014E+001	-1.1772376E+000	-2.637346112674055E+001	3.1047830E-002	-1.1773354E+000	0
4.3688351E+001	9.937319762371772E+001	-1.1792089E+000	-2.699138072829127E+001	3.1828474E-002	-1.1793355E+000	0
4.2831417E+001	9.957319761866529E+001	-1.1812136E+000	-2.757820476696341E+001	3.2575753E-002	-1.1813353E+000	0
4.1875141E+001	9.977319761361287E+001	-1.1832118E+000	-2.825570823329917E+001	3.3432487E-002	-1.1833354E+000	0
4.0869072E+001	9.997319760856044E+001	-1.1852214E+000	-2.900044760736489E+001	3.4371953E-002	-1.1853354E+000	0
4.0053421E+001	1.001731976035080E+002	-1.1872306E+000	-2.964117936050013E+001	3.5190914E-002	-1.1873355E+000	0
3.9243443E+001	1.003731975984556E+002	-1.1892145E+000	-3.030352086572157E+001	3.6037385E-002	-1.1893355E+000	0
3.8206993E+001	1.005731975934032E+002	-1.1912349E+000	-3.117845393876098E+001	3.7140865E-002	-1.1913353E+000	0
3.7391918E+001	1.007731975883507E+002	-1.1932300E+000	-3.191144348326185E+001	3.8077693E-002	-1.1933354E+000	0
3.6609623E+001	1.009731975832983E+002	-1.1952205E+000	-3.264771201497024E+001	3.9021213E-002	-1.1953354E+000	0
3.5910477E+001	1.011731975782459E+002	-1.1972238E+000	-3.333912286304287E+001	3.9914392E-002	-1.1973354E+000	0
3.5203300E+001	1.013731975731935E+002	-1.1992453E+000	-3.406627711498288E+001	4.0853824E-002	-1.1993355E+000	0
3.4444027E+001	1.015731975681410E+002	-1.2012436E+000	-3.487523673856619E+001	4.1893657E-002	-1.2013354E+000	0
3.3740566E+001	1.017731975630886E+002	-1.2032548E+000	-3.566196480386657E+001	4.2910431E-002	-1.2033354E+000	0
3.2955864E+001	1.019731975580362E+002	-1.2052362E+000	-3.657122346819654E+001	4.4076961E-002	-1.2053354E+000	0
3.2216927E+001	1.021731975529838E+002	-1.2072412E+000	-3.747226606420907E+001	4.5238063E-002	-1.2073355E+000	0
3.1532780E+001	1.023731975479313E+002	-1.2092332E+000	-3.834844851899311E+001	4.6372216E-002	-1.2093354E+000	0
3.0988831E+001	1.025731975428789E+002	-1.2112517E+000	-3.908671901988333E+001	4.7343858E-002	-1.2113354E+000	0
3.0472778E+001	1.027731975378265E+002	-1.2132409E+000	-3.981392226062394E+001	4.8303876E-002	-1.2133354E+000	0
2.9814606E+001	1.029731975327741E+002	-1.2152374E+000	-4.075980028219507E+001	4.9532834E-002	-1.2153354E+000	0
2.9235373E+001	1.031731975277216E+002	-1.2172414E+000	-4.163591122708362E+001	5.0680954E-002	-1.2173355E+000	0
2.8634146E+001	1.033731975226692E+002	-1.2192243E+000	-4.257938441478757E+001	5.1913820E-002	-1.2193354E+000	0
2.8072294E+001	1.035731975176168E+002	-1.2212266E+000	-4.350291438491978E+001	5.3126916E-002	-1.2213354E+000	0
2.7563948E+001	1.037731975125644E+002	-1.2232519E+000	-4.437869264857826E+001	5.4286323E-002	-1.2233354E+000	0
2.7074118E+001	1.039731975075119E+002	-1.2252376E+000	-4.525494228171669E+001	5.5448059E-002	-1.2253354E+000	0
2.6107748E+001	1.041731975024595E+002	-1.2272552E+000	-4.700731956201878E+001	5.7689980E-002	-1.2273355E+000	0
2.5426352E+001	1.043731974974071E+002	-1.2292881E+000	-4.834701285908250E+001	5.9432406E-002	-1.2293355E+000	0
2.4806526E+001	1.045731974923547E+002	-1.2312695E+000	-4.963489947919140E+001	6.1113935E-002	-1.2313354E+000	0
2.4405697E+001	1.047731974873022E+002	-1.2332734E+000	-5.053219226482504E+001	6.2320009E-002	-1.2333354E+000	0
2.3897707E+001	1.049731974822498E+002	-1.2352916E+000	-5.169079878703263E+001	6.3853212E-002	-1.2353355E+000	0
2.3228773E+001	1.051731974771974E+002	-1.2372843E+000	-5.326515786123400E+001	6.5904140E-002	-1.2373354E+000	0
2.2725243E+001	1.053731974721450E+002	-1.2392789E+000	-5.453314378796790E+001	6.7581773E-002	-1.2393354E+000	0
2.2383532E+001	1.055731974670925E+002	-1.2412815E+000	-5.545512531836289E+001	6.8835422E-002	-1.2413354E+000	0
2.2094673E+001	1.057731974620401E+002	-1.2432745E+000	-5.627032734477325E+001	6.9959462E-002	-1.2433354E+000	0
2.1742044E+001	1.059731974569877E+002	-1.2452838E+000	-5.727538097688694E+001	7.1324110E-002	-1.2453353E+000	0
2.1401661E+001	1.061731974519353E+002	-1.2472887E+000	-5.827999361896730E+001	7.2691977E-002	-1.2473354E+000	0
2.0980253E+001	1.063731974468828E+002	-1.2493033E+000	-5.954663081179919E+001	7.4391805E-002	-1.2493355E+000	0
2.0705467E+001	1.065731974418304E+002	-1.2512804E+000	-6.043236782977885E+001	7.5617842E-002	-1.2513354E+000	0
2.0487316E+001	1.067731974367780E+002	-1.2533226E+000	-6.117553942544146E+001	7.6672688E-002	-1.2533355E+000	0
2.0318993E+001	1.069731974317256E+002	-1.2553103E+000	-6.178014564622322E+001	7.7553250E-002	-1.2553355E+000	0
1.9748466E+001	1.071731974266731E+002	-1.2573173E+000	-6.366657699587137E+001	8.0049090E-002	-1.2573355E+000	0
1.9222546E+001	1.073731974216207E+002	-1.2593126E+000	-6.551227004836210E+001	8.2500428E-002	-1.2593354E+000	0
1.8676062E+001	1.075731974165683E+002	-1.2613153E+000	-6.753647391001368E+001	8.5184790E-002	-1.2613354E+000	0
1.8291754E+001	1.077731974115159E+002	-1.2633066E+000	-6.906427187281668E+001	8.7249354E-002	-1.2633355E+000	0
1.7933304E+001	1.079731974064634E+002	-1.2653006E+000	-7.055591466745818E+001	8.9274444E-002	-1.2653353E+000	0
1.7529804E+001	1.081731974014110E+002	-1.2673217E+000	-7.229525569398913E+001	9.1621347E-002	-1.2673354E+000	0
1.7190022E+001	1.083731973963586E+002	-1.2693026E+000	-7.383950257355400E+001	9.3724675E-002	-1.2693355E+000	0
1.6955214E+001	1.085731973913062E+002	-1.2713242E+000	-7.498131027405520E+001	9.5325552E-002	-1.2713354E+000	0
1.6263489E+001	1.087731973862537E+002	-1.2733256E+000	-7.829350476848867E+001	9.9693120E-002	-1.2733353E+000	0
1.5895476E+001	1.089731973812013E+002	-1.2753061E+000	-8.023075824692140E+001	1.0231878E-001	-1.2753354E+000	0
1.5720724E+001	1.091731973761489E+002	-1.2773026E+000	-8.124960532264140E+001	1.0378034E-001	-1.2773354E+000	0
1.5624948E+001	1.093731973710965E+002	-1.2793133E+000	-8.187632878729551E+001	1.0474548E-001	-1.2793354E+000	0
1.5327807E+001	1.095731973660440E+002	-1.2812943E+000	-8.359279887962794E+001	1.0710698E-001	-1.2813355E+000	0
1.4670349E+001	1.097731973609916E+002	-1.2833045E+000	-8.747606776306691E+001	1.1225843E-001	-1.2833354E+000	0
1.4466095E+001	1.099731973559392E+002	-1.2852855E+000	-8.884812687800286E+001	1.1419521E-001	-1.2853354E+000	0
1.4371678E+001	1.101731973508868E+002	-1.2873003E+000	-8.957202510714819E+001	1.1530610E-001	-1.2873354E+000	0
1.4451751E+001	1.103731973458343E+002	-1.2892910E+000	-8.921348522850167E+001	1.1502215E-001	-1.2893354E+000	0
1.4498016E+001	1.105731973407819E+002	-1.2912948E+000	-8.906700034692949E+001	1.1501176E-001	-1.2913353E+000	0
1.4321045E+001	1.107731973357295E+002	-1.2932727E+000	-9.030574926821839E+001	1.1678997E-001	-1.2933354E+000	0
1.4249908E+001	1.109731973306771E+002	-1.2952843E+000	-9.089772683206309E+001	1.1773840E-001	-1.2953354E+000	0
1.4185863E+001	1.111731973256246E+002	-1.2972937E+000	-9.144975766465268E+001	1.1863719E-001	-1.2973355E+000	0
1.3910630E+001	1.113731973205722E+002	-1.2992846E+000	-9.340228015765615E+001	1.2135614E-001	-1.2993355E+000	0
1.3676933E+001	1.115731973155198E+002	-1.3012978E+000	-9.514543386489686E+001	1.2381254E-001	-1.3013355E+000	0
1.3407794E+001	1.117731973104674E+002	-1.3033123E+000	-9.720557601760038E+001	1.2668923E-001	-1.3033354E+000	0
1.3107100E+001	1.119731973054149E+002	-1.3053130E+000	-9.958823635464637E+001	1.2999381E-001	-1.3053354E+000	0
1.2951095E+001	1.121731973003625E+002	-1.3073142E+000	-1.009423641682747E+002	1.3196339E-001	-1.3073355E+000	0
1.2565386E+001	1.123731972953101E+002	-1.3093045E+000	-1.041993046812461E+002	1.3642861E-001	-1.3093355E+000	0
1.2132700E+001	1.125731972902577E+002	-1.3113067E+000	-1.080803673143017E+002	1.4172651E-001	-1.3113353E+000	0
1.1911631E+001	1.127831972849526E+002	-1.3133969E+000	-1.102617224358853E+002	1.4481741E-001	-1.3134354E+000	0
1.1710153E+001	1.129931972796476E+002	-1.3154845E+000	-1.123370928721097E+002	1.4777771E-001	-1.3155354E+000	0
1.1569582E+001	1.131931972745952E+002	-1.3174881E+000	-1.138751664183304E+002	1.5002917E-001	-1.3175355E+000	0
1.1470631E+001	1.133931972695427E+002	-1.3194815E+000	-1.150312983670738E+002	1.5178166E-001	-1.3195355E+000	0
1.1246469E+001	1.135931972644903E+002	-1.3214961E+000	-1.175032043716534E+002	1.5528002E-001	-1.3215353E+000	0
1.1398610E+001	1.137931972594379E+002	-1.3234881E+000	-1.161096076554447E+002	1.5366969E-001	-1.3235353E+000	0
1.1619691E+001	1.139931972543855E+002	-1.3255012E+000	-1.140737092597683E+002	1.5120484E-001	-1.3255354E+000	0
1.1511601E+001	1.141931972493330E+002	-1.3274783E+000	-1.153165626406944E+002	1.5308024E-001	-1.3275354E+000	0
1.1393259E+001	1.143931972442806E+002	-1.3294935E+000	-1.166912357001620E+002	1.5514024E-001	-1.3295355E+000	0
1.1303030E+001	1.145931972392282E+002	-1.3314865E+000	-1.177990770783285E+002	1.5684788E-001	-1.3315353E+000	0
1.0784418E+001	1.147931972341758E+002	-1.3334913E+000	-1.236498166893068E+002	1.6488595E-001	-1.3335354E+000	0
1.0677146E+001	1.149931972291233E+002	-1.3354832E+000	-1.250786637957133E+002	1.6704045E-001	-1.3355354E+000	0
1.0704492E+001	1.151931972240709E+002	-1.3375071E+000	-1.249482166307585E+002	1.6711913E-001	-1.3375355E+000	0
1.0673316E+001	1.153931972190185E+002	-1.3394992E+000	-1.254998198463807E+002	1.6810691E-001	-1.3395355E+000	0
1.0275090E+001	1.155931972139661E+002	-1.3414806E+000	-1.305565818140033E+002	1.7513913E-001	-1.3415354E+000	0
1.0131792E+001	1.157931972089136E+002	-1.3434867E+000	-1.326010877356230E+002	1.7814779E-001	-1.3435354E+000	0
9.9997015E+000	1.159931972038612E+002	-1.3455082E+000	-1.345548352492365E+002	1.8104464E-001	-1.3455354E+000	0
9.8869658E+000	1.161931971988088E+002	-1.3475039E+000	-1.362909430895261E+002	1.8365258E-001	-1.3475355E+000	0
9.6945610E+000	1.163931971937564E+002	-1.3495122E+000	-1.392030193670539E+002	1.8785618E-001	-1.3495355E+000	0
9.5577908E+000	1.165931971887039E+002	-1.3515313E+000	-1.414062459917564E+002	1.9111496E-001	-1.3515354E+000	0
9.1599827E+000	1.167931971836515E+002	-1.3534927E+000	-1.477615000785336E+002	1.9999412E-001	-1.3535353E+000	0
8.8517656E+000	1.169931971785991E+002	-1.3555149E+000	-1.531349763048474E+002	2.0757674E-001	-1.3555354E+000	0
8.6688900E+000	1.171931971735467E+002	-1.3575188E+000	-1.565966169201597E+002	2.1258286E-001	-1.3575355E+000	0
8.9245853E+000	1.173931971684942E+002	-1.3595296E+000	-1.523353316389239E+002	2.0710440E-001	-1.3595353E+000	0
9.3273907E+000	1.175931971634418E+002	-1.3615229E+000	-1.459703974031795E+002	1.9874205E-001	-1.3615353E+000	0
9.1962090E+000	1.177931971583894E+002	-1.3635137E+000	-1.482691165692675E+002	2.0216697E-001	-1.3635354E+000	0
9.1323624E+000	1.179931971533370E+002	-1.3655105E+000	-1.495243375533834E+002	2.0417705E-001	-1.3655354E+000	0
9.0128469E+000	1.181931971482845E+002	-1.3675026E+000	-1.517281520977581E+002	2.0748864E-001	-1.3675355E+000	0
9.0380468E+000	1.183931971432321E+002	-1.3695313E+000	-1.515295608881647E+002	2.0752448E-001	-1.3695354E+000	0
8.8174858E+000	1.185931971381797E+002	-1.3715175E+000	-1.555451942030795E+002	2.1333297E-001	-1.3715354E+000	0
8.7776756E+000	1.187931971331273E+002	-1.3735288E+000	-1.564797836042047E+002	2.1492949E-001	-1.3735354E+000	0
8.8328180E+000	1.189931971280748E+002	-1.3754883E+000	-1.557247471636383E+002	2.1419756E-001	-1.3755354E+000	0
8.8362989E+000	1.191931971230224E+002	-1.3774841E+000	-1.558892506017706E+002	2.1473496E-001	-1.3775355E+000	0
8.5551414E+000	1.193931971179700E+002	-1.3794895E+000	-1.612468416555665E+002	2.2243834E-001	-1.3795354E+000	0
8.4491711E+000	1.195931971129176E+002	-1.3814886E+000	-1.635058035666707E+002	2.2588140E-001	-1.3815354E+000	0
8.5377541E+000	1.197931971078651E+002	-1.3834925E+000	-1.620440677385484E+002	2.2418675E-001	-1.3835354E+000	0
8.3613453E+000	1.199931971028127E+002	-1.3855094E+000	-1.657041180939357E+002	2.2958460E-001	-1.3855355E+000	0
8.2101173E+000	1.201931970977603E+002	-1.3875195E+000	-1.690011785695337E+002	2.3449242E-001	-1.3875355E+000	0
8.1054363E+000	1.203931970927079E+002	-1.3895117E+000	-1.714295998171078E+002	2.3820344E-001	-1.3895354E+000	0
7.7923045E+000	1.205931970876554E+002	-1.3915114E+000	-1.785750796194779E+002	2.4848926E-001	-1.3915355E+000	0
7.9208097E+000	1.207931970826030E+002	-1.3935159E+000	-1.759309952632102E+002	2.4516265E-001	-1.3935354E+000	0
7.7795858E+000	1.209931970775506E+002	-1.3955129E+000	-1.793813895725066E+002	2.5032905E-001	-1.3955355E+000	0
7.7234111E+000	1.211931970724982E+002	-1.3975165E+000	-1.809455058039457E+002	2.5287431E-001	-1.3975354E+000	0
7.5682855E+000	1.213931970674457E+002	-1.3995149E+000	-1.849183559601543E+002	2.5879601E-001	-1.3995354E+000	0
7.5029693E+000	1.215931970623933E+002	-1.4015155E+000	-1.867947735743192E+002	2.6179576E-001	-1.4015355E+000	0
7.6744399E+000	1.217931970573409E+002	-1.4035363E+000	-1.828845293321847E+002	2.5668508E-001	-1.4035354E+000	0
7.5905714E+000	1.219931970522885E+002	-1.4055235E+000	-1.851670276713203E+002	2.6025662E-001	-1.4055355E+000	0
7.3944535E+000	1.221931970472360E+002	-1.4075292E+000	-1.903493276442532E+002	2.6792225E-001	-1.4075356E+000	0
7.6588860E+000	1.223931970421836E+002	-1.4095008E+000	-1.840347046516922E+002	2.5939706E-001	-1.4095354E+000	0
7.6087141E+000	1.225931970371312E+002	-1.4114969E+000	-1.855105737947821E+002	2.6184759E-001	-1.4115353E+000	0
7.4869156E+000	1.227931970320788E+002	-1.4135110E+000	-1.887975066048748E+002	2.6686737E-001	-1.4135356E+000	0
7.4094782E+000	1.229931970270263E+002	-1.4155171E+000	-1.910414037736900E+002	2.7042237E-001	-1.4155354E+000	0
7.3373241E+000	1.231931970219739E+002	-1.4175224E+000	-1.931933821042385E+002	2.7385595E-001	-1.4175353E+000	0
7.2828069E+000	1.233931970169215E+002	-1.4195101E+000	-1.949125082606358E+002	2.7668029E-001	-1.4195354E+000	0
7.3086958E+000	1.235931970118691E+002	-1.4215240E+000	-1.944976300522858E+002	2.7648306E-001	-1.4215355E+000	0
7.5471997E+000	1.237931970068166E+002	-1.4235334E+000	-1.886174322115316E+002	2.6850322E-001	-1.4235353E+000	0
7.5002160E+000	1.239931970017642E+002	-1.4255270E+000	-1.900647836758703E+002	2.7094248E-001	-1.4255354E+000	0
7.1422477E+000	1.241931969967118E+002	-1.4275454E+000	-1.998734156388007E+002	2.8532839E-001	-1.4275355E+000	0
7.0735803E+000	1.243931969916594E+002	-1.4295348E+000	-2.020949377808163E+002	2.8890175E-001	-1.4295354E+000	0
6.9734921E+000	1.245931969866069E+002	-1.4315497E+000	-2.052844708003697E+002	2.9387492E-001	-1.4315355E+000	0
6.8862987E+000	1.247931969815545E+002	-1.4335389E+000	-2.081726251567577E+002	2.9842356E-001	-1.4335353E+000	0
6.7984686E+000	1.249931969765021E+002	-1.4355410E+000	-2.111565312214725E+002	3.0312386E-001	-1.4355354E+000	0
6.8114672E+000	1.251931969714497E+002	-1.4375381E+000	-2.110467638071973E+002	3.0338776E-001	-1.4375355E+000	0
6.6864257E+000	1.253931969663972E+002	-1.4395489E+000	-2.152942285775607E+002	3.0992657E-001	-1.4395354E+000	0
6.8406153E+000	1.255931969613448E+002	-1.4415414E+000	-2.107327175118753E+002	3.0377993E-001	-1.4415355E+000	0
6.7866244E+000	1.257931969562924E+002	-1.4435437E+000	-2.127042198765021E+002	3.0704784E-001	-1.4435353E+000	0
6.6555867E+000	1.259931969512400E+002	-1.4455414E+000	-2.171921820067498E+002	3.1396028E-001	-1.4455354E+000	0
6.6347847E+000	1.261931969461875E+002	-1.4475622E+000	-2.181777254416011E+002	3.1582582E-001	-1.4475355E+000	0
6.5445223E+000	1.263931969411351E+002	-1.4495538E+000	-2.214911567229528E+002	3.2106337E-001	-1.4495354E+000	0
6.5255370E+000	1.265931969360827E+002	-1.4515392E+000	-2.224398013220884E+002	3.2288009E-001	-1.4515353E+000	0
6.5077124E+000	1.267931969310303E+002	-1.4535444E+000	-2.233571902056663E+002	3.2465959E-001	-1.4535354E+000	0
6.2236814E+000	1.269931969259778E+002	-1.4555463E+000	-2.338722292582202E+002	3.4041184E-001	-1.4555354E+000	0
6.0460324E+000	1.271931969209254E+002	-1.4575630E+000	-2.410776010002946E+002	3.5138580E-001	-1.4575355E+000	0
6.0617332E+000	1.273931969158730E+002	-1.4595525E+000	-2.407813765380934E+002	3.5143307E-001	-1.4595355E+000	0
6.0559349E+000	1.275931969108206E+002	-1.4615474E+000	-2.413413306277353E+002	3.5273179E-001	-1.4615353E+000	0
6.0403280E+000	1.277931969057681E+002	-1.4635534E+000	-2.422970052771025E+002	3.5461462E-001	-1.4635354E+000	0
5.7378149E+000	1.279931969007157E+002	-1.4655828E+000	-2.554252516947622E+002	3.7434688E-001	-1.4655354E+000	0
5.5644479E+000	1.281931968956633E+002	-1.4675708E+000	-2.637406007784020E+002	3.8705799E-001	-1.4675355E+000	0
5.5820274E+000	1.283931968906109E+002	-1.4695677E+000	-2.632677297592160E+002	3.8688973E-001	-1.4695356E+000	0
5.8432779E+000	1.285931968855584E+002	-1.4715469E+000	-2.518358597679739E+002	3.7058827E-001	-1.4715354E+000	0
5.9222612E+000	1.287931968805060E+002	-1.4735619E+000	-2.488174420808716E+002	3.6664790E-001	-1.4735354E+000	0
5.8014956E+000	1.289931968754536E+002	-1.4755514E+000	-2.543398195361860E+002	3.7529147E-001	-1.4755355E+000	0
5.6805868E+000	1.291931968704012E+002	-1.4775577E+000	-2.601065082852808E+002	3.8432238E-001	-1.4775355E+000	0
5.6325173E+000	1.293931968653487E+002	-1.4795390E+000	-2.626781075103468E+002	3.8864252E-001	-1.4795356E+000	0
5.5801816E+000	1.295931968602963E+002	-1.4815468E+000	-2.655015311273582E+002	3.9335293E-001	-1.4815356E+000	0
5.8542900E+000	1.297931968552439E+002	-1.4835523E+000	-2.534128457975503E+002	3.7595123E-001	-1.4835354E+000	0
5.9197493E+000	1.299931968501915E+002	-1.4855441E+000	-2.509471335465132E+002	3.7279302E-001	-1.4855355E+000	0
5.7542305E+000	1.301931968451390E+002	-1.4875391E+000	-2.585122467633555E+002	3.8454705E-001	-1.4875355E+000	0
5.8430142E+000	1.303931968400866E+002	-1.4895480E+000	-2.549279967543766E+002	3.7972748E-001	-1.4895355E+000	0
5.7571001E+000	1.305931968350342E+002	-1.4915315E+000	-2.590768751114136E+002	3.8642132E-001	-1.4915355E+000	0
5.8654923E+000	1.307931968299818E+002	-1.4935496E+000	-2.546332752050457E+002	3.8030744E-001	-1.4935354E+000	0
5.6965547E+000	1.309931968249293E+002	-1.4955360E+000	-2.625334098236358E+002	3.9262816E-001	-1.4955355E+000	0
5.6205025E+000	1.311931968198769E+002	-1.4975401E+000	-2.664423861146786E+002	3.9900815E-001	-1.4975356E+000	0
5.6387396E+000	1.313931968148245E+002	-1.4995661E+000	-2.659399341206972E+002	3.9879450E-001	-1.4995354E+000	0
5.5379205E+000	1.315931968097721E+002	-1.5015625E+000	-2.711419358523792E+002	4.0713656E-001	-1.5015355E+000	0
5.4881105E+000	1.317931968047196E+002	-1.5035605E+000	-2.739668944027953E+002	4.1192582E-001	-1.5035354E+000	0
5.5534744E+000	1.319931967996672E+002	-1.5055530E+000	-2.711010969966446E+002	4.0815708E-001	-1.5055355E+000	0
5.4334540E+000	1.321931967946148E+002	-1.5075551E+000	-2.774579710235921E+002	4.1828319E-001	-1.5075356E+000	0
5.2375164E+000	1.323931967895624E+002	-1.5095707E+000	-2.882226345793188E+002	4.3509245E-001	-1.5095354E+000	0
5.1249356E+000	1.325931967845099E+002	-1.5115755E+000	-2.949452599657379E+002	4.4583201E-001	-1.5115353E+000	0
5.4240675E+000	1.327931967794575E+002	-1.5135748E+000	-2.790479367206412E+002	4.2235994E-001	-1.5135354E+000	0
5.3876996E+000	1.329931967744051E+002	-1.5155520E+000	-2.812985517713749E+002	4.2632261E-001	-1.5155355E+000	0
5.3546581E+000	1.331931967693527E+002	-1.5175807E+000	-2.834132017018833E+002	4.3010241E-001	-1.5175353E+000	0
5.3180981E+000	1.333931967643002E+002	-1.5195715E+000	-2.857359093992618E+002	4.3419614E-001	-1.5195354E+000	0
5.2467022E+000	1.335931967592478E+002	-1.5215820E+000	-2.900073192362884E+002	4.4126990E-001	-1.5215354E+000	0
5.0035825E+000	1.337931967541954E+002	-1.5235841E+000	-3.044986477568573E+002	4.6392930E-001	-1.5235354E+000	0
5.1142654E+000	1.339931967491430E+002	-1.5255949E+000	-2.983018721777289E+002	4.5508784E-001	-1.5255355E+000	0
5.2269049E+000	1.341931967440905E+002	-1.5275923E+000	-2.922556192220759E+002	4.4644743E-001	-1.5275354E+000	0
5.0934477E+000	1.343931967390381E+002	-1.5295792E+000	-3.003032898048696E+002	4.5933765E-001	-1.5295354E+000	0
5.1385512E+000	1.345931967339857E+002	-1.5315890E+000	-2.980585344794657E+002	4.5650318E-001	-1.5315354E+000	0
5.1993909E+000	1.347931967289333E+002	-1.5335616E+000	-2.949502294133852E+002	4.5232433E-001	-1.5335355E+000	0
5.3368092E+000	1.349931967238808E+002	-1.5355821E+000	-2.877341068899282E+002	4.4183934E-001	-1.5355355E+000	0
5.2777834E+000	1.351931967188284E+002	-1.5375901E+000	-2.913325545663474E+002	4.4795007E-001	-1.5375355E+000	0
5.3185844E+000	1.353931967137760E+002	-1.5395808E+000	-2.894719253656812E+002	4.4566542E-001	-1.5395354E+000	0
5.1111617E+000	1.355931967087236E+002	-1.5415980E+000	-3.016139935430756E+002	4.6496752E-001	-1.5415354E+000	0
5.0813384E+000	1.357931967036711E+002	-1.5435878E+000	-3.037758227194786E+002	4.6890464E-001	-1.5435355E+000	0
5.0721140E+000	1.359931966986187E+002	-1.5456077E+000	-3.047265345731282E+002	4.7098768E-001	-1.5455354E+000	0
5.0728259E+000	1.361931966935663E+002	-1.5475823E+000	-3.050730004883681E+002	4.7212556E-001	-1.5475354E+000	0
5.0258942E+000	1.363931966885139E+002	-1.5496004E+000	-3.083233071519671E+002	4.7777790E-001	-1.5495355E+000	0
4.7731600E+000	1.365931966834614E+002	-1.5516053E+000	-3.250687929226970E+002	5.0437850E-001	-1.5515354E+000	0
4.8569446E+000	1.367931966784090E+002	-1.5535892E+000	-3.198696690276092E+002	4.9694607E-001	-1.5535355E+000	0
4.8428574E+000	1.369931966733566E+002	-1.5555867E+000	-3.212125799628875E+002	4.9967402E-001	-1.5555353E+000	0
4.7946768E+000	1.371931966683042E+002	-1.5576147E+000	-3.248633212524210E+002	5.0601190E-001	-1.5575355E+000	0
4.8079371E+000	1.373931966632517E+002	-1.5596106E+000	-3.243824733422716E+002	5.0591034E-001	-1.5595355E+000	0
4.7720623E+000	1.375931966581993E+002	-1.5616243E+000	-3.272430652739513E+002	5.1103073E-001	-1.5615355E+000	0
4.8193502E+000	1.377931966531469E+002	-1.5636126E+000	-3.244446924668036E+002	5.0730580E-001	-1.5635355E+000	0
4.8496895E+000	1.379931966480945E+002	-1.5656065E+000	-3.228261128661311E+002	5.0541866E-001	-1.5655355E+000	0
4.9658713E+000	1.381931966430420E+002	-1.5675932E+000	-3.156733444304691E+002	4.9484739E-001	-1.5675355E+000	0
4.7236600E+000	1.383931966379896E+002	-1.5695875E+000	-3.322820522887914E+002	5.2154577E-001	-1.5695356E+000	0
4.7948580E+000	1.385931966329372E+002	-1.5715744E+000	-3.277624503868772E+002	5.1510310E-001	-1.5715356E+000	0
4.9126797E+000	1.387931966278848E+002	-1.5735896E+000	-3.203118558892306E+002	5.0403941E-001	-1.5735354E+000	0
4.7296710E+000	1.389931966228323E+002	-1.5755837E+000	-3.331275543333995E+002	5.2487034E-001	-1.5755355E+000	0
4.4823985E+000	1.391931966177799E+002	-1.5775898E+000	-3.519521429965816E+002	5.5523610E-001	-1.5775354E+000	0
4.5538063E+000	1.393931966127275E+002	-1.5796037E+000	-3.468754503202545E+002	5.4792571E-001	-1.5795355E+000	0
4.5988636E+000	1.395931966076751E+002	-1.5815961E+000	-3.439102089918661E+002	5.4392707E-001	-1.5815357E+000	0
4.7127504E+000	1.397931966026226E+002	-1.5835830E+000	-3.360209899305496E+002	5.3211713E-001	-1.5835354E+000	0
4.6326652E+000	1.399931965975702E+002	-1.5855860E+000	-3.422621703504688E+002	5.4268610E-001	-1.5855355E+000	0
4.5310702E+000	1.401931965925178E+002	-1.5876064E+000	-3.503822283755630E+002	5.5626905E-001	-1.5875356E+000	0
4.7187653E+000	1.403931965874654E+002	-1.5895833E+000	-3.368642504231461E+002	5.3547376E-001	-1.5895355E+000	0
4.5681505E+000	1.405931965824129E+002	-1.5915977E+000	-3.484118377270329E+002	5.5453146E-001	-1.5915353E+000	0
4.5389709E+000	1.407931965773605E+002	-1.5936081E+000	-3.510945809682221E+002	5.5950719E-001	-1.5935354E+000	0
4.3963332E+000	1.409931965723081E+002	-1.5956259E+000	-3.629446894479188E+002	5.7912391E-001	-1.5955355E+000	0
4.2447309E+000	1.411931965672557E+002	-1.5976195E+000	-3.763771184588231E+002	6.0130745E-001	-1.5975356E+000	0
4.3773956E+000	1.413931965622032E+002	-1.5996232E+000	-3.654280544722169E+002	5.8454722E-001	-1.5995355E+000	0
4.4916492E+000	1.415931965571508E+002	-1.6016072E+000	-3.565744178192417E+002	5.7109213E-001	-1.6015354E+000	0
4.4456778E+000	1.417931965520984E+002	-1.6035974E+000	-3.607093094827942E+002	5.7843250E-001	-1.6035354E+000	0
4.3995218E+000	1.419931965470460E+002	-1.6056193E+000	-3.649531254498045E+002	5.8597577E-001	-1.6055355E+000	0
4.4723787E+000	1.421931965419935E+002	-1.6076319E+000	-3.594578946431493E+002	5.7787597E-001	-1.6075356E+000	0
4.5149317E+000	1.423931965369411E+002	-1.6096175E+000	-3.565098366077782E+002	5.7384443E-001	-1.6095355E+000	0
4.5382504E+000	1.425931965318887E+002	-1.6116250E+000	-3.551203041336171E+002	5.7232076E-001	-1.6115354E+000	0
4.2064128E+000	1.427931965268363E+002	-1.6136383E+000	-3.836138508746972E+002	6.1901402E-001	-1.6135354E+000	0
4.2423496E+000	1.429931965217838E+002	-1.6156411E+000	-3.808363748676766E+002	6.1529493E-001	-1.6155354E+000	0
4.3316560E+000	1.431932965167289E+002	-1.6176277E+000	-3.734432780361403E+002	6.0409218E-001	-1.6175362E+000	0
4.3345814E+000	1.433934965116714E+002	-1.6196221E+000	-3.736513339386656E+002	6.0517395E-001	-1.6195381E+000	0
4.3635478E+000	1.435935965066165E+002	-1.6216255E+000	-3.716300768676274E+002	6.0264480E-001	-1.6215385E+000	0
4.3835864E+000	1.437937965015590E+002	-1.6236328E+000	-3.703891430376889E+002	6.0137594E-001	-1.6235415E+000	0
4.2933760E+000	1.439939964965015E+002	-1.6256242E+000	-3.786354055298551E+002	6.1551887E-001	-1.6255430E+000	0
4.3421912E+000	1.441941964914440E+002	-1.6276214E+000	-3.748387328945855E+002	6.1009556E-001	-1.6275455E+000	0
4.4297199E+000	1.443941964863916E+002	-1.6296259E+000	-3.678846294247360E+002	5.9951431E-001	-1.6295455E+000	0
4.4998412E+000	1.445941964813392E+002	-1.6316100E+000	-3.625927880518584E+002	5.9161001E-001	-1.6315455E+000	0
4.4977112E+000	1.447943964762817E+002	-1.6336117E+000	-3.632095524367733E+002	5.9334338E-001	-1.6335471E+000	0
4.0446253E+000	1.449946964712217E+002	-1.6356403E+000	-4.043984562953492E+002	6.6145039E-001	-1.6355503E+000	0
4.0384145E+000	1.451947964661667E+002	-1.6376456E+000	-4.055169655657692E+002	6.6409308E-001	-1.6375513E+000	0
3.8646913E+000	1.453950964611067E+002	-1.6396815E+000	-4.242722912219642E+002	6.9567138E-001	-1.6395540E+000	0
4.0309911E+000	1.455951964560518E+002	-1.6416637E+000	-4.072605460290188E+002	6.6858482E-001	-1.6415554E+000	0
4.0086427E+000	1.457953964509943E+002	-1.6436596E+000	-4.100289714869823E+002	6.7394805E-001	-1.6435570E+000	0
4.0122695E+000	1.459955964459368E+002	-1.6456771E+000	-4.101611435555224E+002	6.7499280E-001	-1.6455592E+000	0
4.0520840E+000	1.461956964408819E+002	-1.6476698E+000	-4.066227995292932E+002	6.6998011E-001	-1.6475604E+000	0
4.0205231E+000	1.463957964358269E+002	-1.6496655E+000	-4.103111397619950E+002	6.7687613E-001	-1.6495615E+000	0
3.9990897E+000	1.465958964307720E+002	-1.6516802E+000	-4.130140480041746E+002	6.8216711E-001	-1.6515623E+000	0
4.0160341E+000	1.467961964257120E+002	-1.6536697E+000	-4.117668279096706E+002	6.8092632E-001	-1.6535649E+000	0
4.0363774E+000	1.469963964206545E+002	-1.6556827E+000	-4.101902302126782E+002	6.7914486E-001	-1.6555673E+000	0
3.9175551E+000	1.471963964156021E+002	-1.6576878E+000	-4.231434501874519E+002	7.0143974E-001	-1.6575674E+000	0
3.8955617E+000	1.473964964105471E+002	-1.6596885E+000	-4.260459949790434E+002	7.0710361E-001	-1.6595681E+000	0
3.8536844E+000	1.475968964054846E+002	-1.6616942E+000	-4.311962138899626E+002	7.1651626E-001	-1.6615721E+000	0
3.9133766E+000	1.477969964004296E+002	-1.6636986E+000	-4.251312233325832E+002	7.0729017E-001	-1.6635735E+000	0
3.9779608E+000	1.479970963953747E+002	-1.6656716E+000	-4.187249879909723E+002	6.9745833E-001	-1.6655744E+000	0
3.8696823E+000	1.481975963903096E+002	-1.6676964E+000	-4.309646560579949E+002	7.1871817E-001	-1.6675791E+000	0
4.0058131E+000	1.483979963852471E+002	-1.6696861E+000	-4.168157487565604E+002	6.9595146E-001	-1.6695830E+000	0
4.0337286E+000	1.485982963801871E+002	-1.6716820E+000	-4.144260064989994E+002	6.9278848E-001	-1.6715863E+000	0
4.0291352E+000	1.487985963751271E+002	-1.6736957E+000	-4.153982335709570E+002	6.9525021E-001	-1.6735890E+000	0
4.0276437E+000	1.489987963700696E+002	-1.6757185E+000	-4.160543359754029E+002	6.9718999E-001	-1.6755906E+000	0
3.8907802E+000	1.491989963650121E+002	-1.6777105E+000	-4.312015812321206E+002	7.2343141E-001	-1.6775929E+000	0
3.7643914E+000	1.493992963599521E+002	-1.6797365E+000	-4.462172678134502E+002	7.4952745E-001	-1.6795965E+000	0
3.8227859E+000	1.495991963549022E+002	-1.6817102E+000	-4.399174533420135E+002	7.3981369E-001	-1.6815956E+000	0
3.7037275E+000	1.497993963498448E+002	-1.6837267E+000	-4.546032715072838E+002	7.6542765E-001	-1.6835968E+000	0
3.6576381E+000	1.499995963447873E+002	-1.6857378E+000	-4.608815399005580E+002	7.7692544E-001	-1.6855994E+000	0
3.6402121E+000	1.501996963397323E+002	-1.6877385E+000	-4.636374306340422E+002	7.8249878E-001	-1.6876000E+000	0
3.6056731E+000	1.503998963346749E+002	-1.6897515E+000	-4.686369024650725E+002	7.9187989E-001	-1.6896025E+000	0
3.6965055E+000	1.505999963296199E+002	-1.6917357E+000	-4.576581202165562E+002	7.7423662E-001	-1.6916032E+000	0
3.6778555E+000	1.508001963245624E+002	-1.6937392E+000	-4.605235768542880E+002	7.8000683E-001	-1.6936051E+000	0
3.7521455E+000	1.510005963194999E+002	-1.6957340E+000	-4.519371660978902E+002	7.6636523E-001	-1.6956089E+000	0
3.7987325E+000	1.512006963144449E+002	-1.6977323E+000	-4.469207370726672E+002	7.5875181E-001	-1.6976103E+000	0
3.7769856E+000	1.514007963093900E+002	-1.6997327E+000	-4.500235871079283E+002	7.6491982E-001	-1.6996115E+000	0
3.8112671E+000	1.516008963043350E+002	-1.7017505E+000	-4.465051704326252E+002	7.5984043E-001	-1.7016124E+000	0
3.5908504E+000	1.518010962992776E+002	-1.7037516E+000	-4.744702098363600E+002	8.0837935E-001	-1.7036144E+000	0
3.5477712E+000	1.520013962942176E+002	-1.7057546E+000	-4.807961108093880E+002	8.2012022E-001	-1.7056171E+000	0
3.5871122E+000	1.522015962891601E+002	-1.7077799E+000	-4.760876609917404E+002	8.1305295E-001	-1.7076192E+000	0
3.6651564E+000	1.524017962841026E+002	-1.7097496E+000	-4.664874867059077E+002	7.9757679E-001	-1.7096210E+000	0
3.6032825E+000	1.526020962790426E+002	-1.7117912E+000	-4.750643981170947E+002	8.1321102E-001	-1.7116243E+000	0
3.5322218E+000	1.528021962739876E+002	-1.7137749E+000	-4.851832536926618E+002	8.3149487E-001	-1.7136256E+000	0
3.5087450E+000	1.530021962689352E+002	-1.7157819E+000	-4.890015938384740E+002	8.3902007E-001	-1.7156255E+000	0
3.5304163E+000	1.532022962638803E+002	-1.7177702E+000	-4.865630686298982E+002	8.3580357E-001	-1.7176266E+000	0
3.5072381E+000	1.534025962588203E+002	-1.7197870E+000	-4.903536541790581E+002	8.4330386E-001	-1.7196285E+000	0
3.4864566E+000	1.536027962537628E+002	-1.7217892E+000	-4.938507521666097E+002	8.5030693E-001	-1.7216313E+000	0
3.4570549E+000	1.538030962487028E+002	-1.7237915E+000	-4.986300758736961E+002	8.5953426E-001	-1.7236340E+000	0
3.4959099E+000	1.540033962436428E+002	-1.7257686E+000	-4.936535998925820E+002	8.5193187E-001	-1.7256368E+000	0
3.5555351E+000	1.542036962385828E+002	-1.7277893E+000	-4.859435333140646E+002	8.3960801E-001	-1.7276402E+000	0
3.4998193E+000	1.544039962335228E+002	-1.7297918E+000	-4.942517486815996E+002	8.5495257E-001	-1.7296429E+000	0
3.4634461E+000	1.546045962284552E+002	-1.7318180E+000	-5.000273960240966E+002	8.6595643E-001	-1.7316488E+000	0
3.3994923E+000	1.548050962233901E+002	-1.7338380E+000	-5.100284905652088E+002	8.8430679E-001	-1.7336544E+000	0
3.4938598E+000	1.550054962183276E+002	-1.7358328E+000	-4.968238335033839E+002	8.6240309E-001	-1.7356579E+000	0
3.4867463E+000	1.552062962132550E+002	-1.7378254E+000	-4.984088930048656E+002	8.6614764E-001	-1.7376659E+000	0
3.5046742E+000	1.554063962082000E+002	-1.7398226E+000	-4.964292048865423E+002	8.6369878E-001	-1.7396672E+000	0
3.4848728E+000	1.556065962031425E+002	-1.7418171E+000	-4.998222877841818E+002	8.7059903E-001	-1.7416691E+000	0
3.3626091E+000	1.558068961980825E+002	-1.7438384E+000	-5.185968080834800E+002	9.0434903E-001	-1.7436724E+000	0
3.4377973E+000	1.560069961930276E+002	-1.7458482E+000	-5.078391826828583E+002	8.8661009E-001	-1.7456735E+000	0
3.4857430E+000	1.562069961879752E+002	-1.7478436E+000	-5.014264121386677E+002	8.7641495E-001	-1.7476734E+000	0
3.6160886E+000	1.564070961829202E+002	-1.7498283E+000	-4.839008296368847E+002	8.4674340E-001	-1.7496744E+000	0
3.5609093E+000	1.566069961778703E+002	-1.7518504E+000	-4.919671455262178E+002	8.6185282E-001	-1.7516736E+000	0
3.5393262E+000	1.568070961728154E+002	-1.7538399E+000	-4.955292960681086E+002	8.6907905E-001	-1.7536743E+000	0
3.4370680E+000	1.570074961677528E+002	-1.7558514E+000	-5.108573354640425E+002	8.9698958E-001	-1.7556779E+000	0
3.5633371E+000	1.572077961626928E+002	-1.7578486E+000	-4.933152778608173E+002	8.6717355E-001	-1.7576815E+000	0
3.6378233E+000	1.574077961576404E+002	-1.7598290E+000	-4.837587957983610E+002	8.5133278E-001	-1.7596812E+000	0
3.6964355E+000	1.576077961525880E+002	-1.7618332E+000	-4.766303082939706E+002	8.3974308E-001	-1.7616814E+000	0
3.3270841E+000	1.578077961475356E+002	-1.7638487E+000	-5.301485046334828E+002	9.3510175E-001	-1.7636815E+000	0
3.2795589E+000	1.580077961424831E+002	-1.7658435E+000	-5.384393387835607E+002	9.5079958E-001	-1.7656815E+000	0
3.3264313E+000	1.582079961374257E+002	-1.7678474E+000	-5.314546467977398E+002	9.3953073E-001	-1.7676831E+000	0
3.3721256E+000	1.584080961323707E+002	-1.7698550E+000	-5.248484898632323E+002	9.2890573E-001	-1.7696844E+000	0
3.4275846E+000	1.586083961273107E+002	-1.7718605E+000	-5.169414233236785E+002	9.1594809E-001	-1.7716870E+000	0
3.2317264E+000	1.588087961222482E+002	-1.7738611E+000	-5.488895948138447E+002	9.7365385E-001	-1.7736909E+000	0
3.2333801E+000	1.590089961171907E+002	-1.7758538E+000	-5.492251630171390E+002	9.7534359E-001	-1.7756934E+000	0
3.2836430E+000	1.592090961121357E+002	-1.7778805E+000	-5.414354147202712E+002	9.6260750E-001	-1.7776940E+000	0
3.3399799E+000	1.594091961070808E+002	-1.7798904E+000	-5.329045447913950E+002	9.4851172E-001	-1.7796955E+000	0
3.4422872E+000	1.596091961020284E+002	-1.7818549E+000	-5.176369083609738E+002	9.2235386E-001	-1.7816954E+000	0
3.5531251E+000	1.598091960969759E+002	-1.7838533E+000	-5.020519055866066E+002	8.9558697E-001	-1.7836955E+000	0
3.1198633E+000	1.600092960919210E+002	-1.7858868E+000	-5.724246862986383E+002	1.0222857E+000	-1.7856963E+000	0
3.3383775E+000	1.602094960868635E+002	-1.7878616E+000	-5.355480762246043E+002	9.5748585E-001	-1.7876984E+000	0
3.3108904E+000	1.604097960818035E+002	-1.7898667E+000	-5.405997890833487E+002	9.6760154E-001	-1.7897007E+000	0
3.1379139E+000	1.606100960767435E+002	-1.7919023E+000	-5.710488972715475E+002	1.0232638E+000	-1.7917044E+000	0
3.1277804E+000	1.608101960716886E+002	-1.7939041E+000	-5.735389999121493E+002	1.0288739E+000	-1.7937053E+000	0
3.2173362E+000	1.610102960666336E+002	-1.7959005E+000	-5.581948351759493E+002	1.0024624E+000	-1.7957064E+000	0
3.3050337E+000	1.612106960615711E+002	-1.7978731E+000	-5.439802792730707E+002	9.7800756E-001	-1.7977097E+000	0
3.4360130E+000	1.614109960565111E+002	-1.7998574E+000	-5.238214858870415E+002	9.4280398E-001	-1.7997134E+000	0
3.4639828E+000	1.616110960514561E+002	-1.8018514E+000	-5.201675400895871E+002	9.3726462E-001	-1.8017143E+000	0
3.3372302E+000	1.618113960463961E+002	-1.8038801E+000	-5.405321220253627E+002	9.7505516E-001	-1.8037170E+000	0
3.3383586E+000	1.620115960413386E+002	-1.8058909E+000	-5.409517410780045E+002	9.7689986E-001	-1.8057195E+000	0
3.3714871E+000	1.622117960362812E+002	-1.8078752E+000	-5.362248526924491E+002	9.6942759E-001	-1.8077210E+000	0
3.3015707E+000	1.624119960312237E+002	-1.8099201E+000	-5.481997231939749E+002	9.9219769E-001	-1.8097235E+000	0
3.3626299E+000	1.626122960261637E+002	-1.8118960E+000	-5.388330019176015E+002	9.7630936E-001	-1.8117263E+000	0
3.2553976E+000	1.628124960211062E+002	-1.8139249E+000	-5.572053283626051E+002	1.0107286E+000	-1.8137283E+000	0
3.3153167E+000	1.630125960160512E+002	-1.8159373E+000	-5.477417155198782E+002	9.9466461E-001	-1.8157295E+000	0
3.2302952E+000	1.632126960109963E+002	-1.8179412E+000	-5.627786675274892E+002	1.0230985E+000	-1.8177303E+000	0
3.1811497E+000	1.634128960059388E+002	-1.8199496E+000	-5.721043519924933E+002	1.0412011E+000	-1.8197323E+000	0
3.2171669E+000	1.636130960008813E+002	-1.8219317E+000	-5.663155543990918E+002	1.0317882E+000	-1.8217343E+000	0
3.2889378E+000	1.638131959958264E+002	-1.8239306E+000	-5.545652647213083E+002	1.0114886E+000	-1.8237356E+000	0
3.3611250E+000	1.640132959907714E+002	-1.8259145E+000	-5.432450472415112E+002	9.9191898E-001	-1.8257363E+000	0
3.2986114E+000	1.642134959857140E+002	-1.8279396E+000	-5.541542811697345E+002	1.0129606E+000	-1.8277382E+000	0
3.3235724E+000	1.644135959806590E+002	-1.8299381E+000	-5.505937011917731E+002	1.0075524E+000	-1.8297396E+000	0
3.4355285E+000	1.646135959756066E+002	-1.8319063E+000	-5.332240175476436E+002	9.7681648E-001	-1.8317394E+000	0
3.3845253E+000	1.648137959705491E+002	-1.8339355E+000	-5.418589934591400E+002	9.9373442E-001	-1.8337411E+000	0
3.5286403E+000	1.650141959654866E+002	-1.8359231E+000	-5.202919486174160E+002	9.5521599E-001	-1.8357449E+000	0
3.4129155E+000	1.652145959604240E+002	-1.8379537E+000	-5.385289292180959E+002	9.8979121E-001	-1.8377489E+000	0
3.4205770E+000	1.654149959553615E+002	-1.8399477E+000	-5.379056329379096E+002	9.8971826E-001	-1.8397533E+000	0
3.4997940E+000	1.656149959503091E+002	-1.8419280E+000	-5.262961313113574E+002	9.6939957E-001	-1.8417535E+000	0
3.4107752E+000	1.658151959452516E+002	-1.8439475E+000	-5.406241943443210E+002	9.9688268E-001	-1.8437551E+000	0
3.2004130E+000	1.660153959401941E+002	-1.8459660E+000	-5.767899193450151E+002	1.0647346E+000	-1.8457576E+000	0
3.1506412E+000	1.662154959351392E+002	-1.8479760E+000	-5.865396551047397E+002	1.0839112E+000	-1.8477581E+000	0
3.1040947E+000	1.664155959300842E+002	-1.8499767E+000	-5.959794391190935E+002	1.1025480E+000	-1.8497596E+000	0
3.1670322E+000	1.666156959250293E+002	-1.8519582E+000	-5.847613667705318E+002	1.0829536E+000	-1.8517605E+000	0
3.0761187E+000	1.667857959207322E+002	-1.8536794E+000	-6.026033662873870E+002	1.1170335E+000	-1.8534614E+000	0
3.0592651E+000	1.668527959190396E+002	-1.8545089E+000	-6.061942400251119E+002	1.1241926E+000	-1.8542612E+000	1