EC-Lab ASCII FILE
Nb header lines : 61                          

Linear Sweep Voltammetry

Run on channel : 1 (SN 1340)
User : 
Electrode connection : standard
Potential control : Ewe
Ewe ctrl range : min = -5.00 V, max = 5.00 V
Ewe,I filtering : 50 kHz
Channel : Grounded
Acquisition started on : 03/09/2026 18:02:57.673
Technique started on : 03/09/2026 18:03:00.510
Loaded Setting File :  NONE
Saved on :
	File : PtPdCoNi40_N52magB_flat_3-9_02_LSV_C01.mpr
	Directory : C:\Users\volt\Documents\Platalytix\
	Host : 127.0.0.1
Device : SP-200 (SN 0262)
Address : USB
EC-LAB for windows v11.60 (software)
Internet server v11.60 (firmware)
Command interpretor v11.60 (firmware)
Electrode material : PtPdNiCo (Co40)
Initial state : 
Electrolyte : KOH (1M)
Comments : Magnet side B, flat position
Cable : standard
Reference electrode : Hg/HgO (0.140 V)
Electrode surface area : 1.000 cm˛
Characteristic mass : 0.001 g
Equivalent Weight : 0.000 g/eq.
Density : 0.000 g/cm3
Volume (V) : 0.001 cmł
Cycle Definition : Charge/Discharge alternance
tR (h:m:s)          0:00:5.0000         
dER/dt (mV/h)       0.0                 
dER (mV)            0                   
dtR (s)             0.0000              
dE/dt               10.000              
dE/dt unit          mV/s                
Ei (V)              -0.200              
vs.                 Eoc                 
EL (V)              -2.500              
vs.                 Eoc                 
record              <I>                 
dI                  0.000               
unit dI             µA                  
tI (s)              0.0000              
step percent        50                  
N                   10                  
E range min (V)     -5.000              
E range max (V)     5.000               
I Range             Auto                
I Range min         Unset               
I Range max         Unset               
I Range init        Unset               
Bandwidth           8                   

Rwe/Ohm	time/s	Ewe/V	<I>/mA	Pwe/W	control/V	error	
0.0000000E+000	2.837400134740165E+000	-1.7598049E-001	0.000000000000000E+000	0.0000000E+000	0.0000000E+000	0
0.0000000E+000	7.837200008434593E+000	-4.7442254E-002	0.000000000000000E+000	0.0000000E+000	-2.4754710E-001	0
1.9761239E+003	7.977200004897895E+000	-2.4873655E-001	-1.258709248457406E-001	3.1308700E-005	-2.4884689E-001	0
1.5959998E+003	8.097200001866440E+000	-2.4996378E-001	-1.566189367552192E-001	3.9149061E-005	-2.5004694E-001	0
1.9016064E+003	8.307199996561394E+000	-2.5206256E-001	-1.325524337283521E-001	3.3411507E-005	-2.5214693E-001	0
2.1445967E+003	8.507199991508969E+000	-2.5405839E-001	-1.184644155075478E-001	3.0096879E-005	-2.5414693E-001	0
2.3382693E+003	8.707199986456544E+000	-2.5606507E-001	-1.095105165303119E-001	2.8041819E-005	-2.5614694E-001	0
2.5043489E+003	8.907199981404119E+000	-2.5805688E-001	-1.030435021238112E-001	2.6591084E-005	-2.5814694E-001	0
2.6517224E+003	9.107199976351694E+000	-2.6006693E-001	-9.807472021367525E-002	2.5505991E-005	-2.6014695E-001	0
2.7822244E+003	9.307199971299269E+000	-2.6204053E-001	-9.418382174324802E-002	2.4679977E-005	-2.6214692E-001	0
2.8986646E+003	9.507199966246844E+000	-2.6403743E-001	-9.108934017339632E-002	2.4050994E-005	-2.6414692E-001	0
3.0105178E+003	9.707199961194419E+000	-2.6604301E-001	-8.837118093188356E-002	2.3510534E-005	-2.6614693E-001	0
3.1108623E+003	9.907199956141994E+000	-2.6803631E-001	-8.616142031998525E-002	2.3094390E-005	-2.6814693E-001	0
3.2107390E+003	1.010719995108957E+001	-2.7001750E-001	-8.409824424429657E-002	2.2707998E-005	-2.7014694E-001	0
3.3002891E+003	1.030719994603714E+001	-2.7203119E-001	-8.242647427444633E-002	2.2422571E-005	-2.7214694E-001	0
3.3925288E+003	1.050719994098472E+001	-2.7403533E-001	-8.077612640167209E-002	2.2135513E-005	-2.7414691E-001	0
3.4767837E+003	1.070719993593229E+001	-2.7601948E-001	-7.938931872614155E-002	2.1912998E-005	-2.7614695E-001	0
3.5596072E+003	1.090719993087987E+001	-2.7804101E-001	-7.811002550454460E-002	2.1717789E-005	-2.7814692E-001	0
3.6390178E+003	1.110719992582744E+001	-2.8001267E-001	-7.694732173833807E-002	2.1546224E-005	-2.8014693E-001	0
3.7154075E+003	1.130719992077502E+001	-2.8201997E-001	-7.590553186075709E-002	2.1406877E-005	-2.8214693E-001	0
3.7829536E+003	1.150719991572259E+001	-2.8403577E-001	-7.508307075457432E-002	2.1326277E-005	-2.8414693E-001	0
3.8668013E+003	1.170719991067017E+001	-2.8603247E-001	-7.397133763615560E-002	2.1158205E-005	-2.8614694E-001	0
3.9348108E+003	1.190719990561774E+001	-2.8801918E-001	-7.319772187958273E-002	2.1082347E-005	-2.8814694E-001	0
4.0038303E+003	1.210719990056532E+001	-2.9003328E-001	-7.243895594900723E-002	2.1009708E-005	-2.9014695E-001	0
4.0695305E+003	1.230719989551289E+001	-2.9203334E-001	-7.176094266687372E-002	2.0956588E-005	-2.9214692E-001	0
4.1385220E+003	1.250719989046047E+001	-2.9402664E-001	-7.104629255533489E-002	2.0889504E-005	-2.9414696E-001	0
4.1877534E+003	1.270719988540804E+001	-2.9603863E-001	-7.069151108723373E-002	2.0927419E-005	-2.9614693E-001	0
4.2539800E+003	1.290719988035562E+001	-2.9803473E-001	-7.006020948835701E-002	2.0880376E-005	-2.9814693E-001	0
4.3063701E+003	1.310719987530319E+001	-3.0005702E-001	-6.967748155185927E-002	2.0907219E-005	-3.0014694E-001	0
4.3748042E+003	1.330719987025077E+001	-3.0204019E-001	-6.904084912011327E-002	2.0853111E-005	-3.0214694E-001	0
4.4347007E+003	1.350719986519834E+001	-3.0403838E-001	-6.855893675966462E-002	2.0844547E-005	-3.0414692E-001	0
4.4939761E+003	1.370719986014592E+001	-3.0602995E-001	-6.809781515514673E-002	2.0839971E-005	-3.0614692E-001	0
4.5440933E+003	1.390719985509350E+001	-3.0804300E-001	-6.778976357068900E-002	2.0882162E-005	-3.0814692E-001	0
4.6016187E+003	1.410719985004107E+001	-3.1002823E-001	-6.737372971376365E-002	2.0887757E-005	-3.1014693E-001	0
4.6480117E+003	1.430719984498865E+001	-3.1203723E-001	-6.713348542511149E-002	2.0948146E-005	-3.1214693E-001	0
4.7129023E+003	1.450719983993622E+001	-3.1404540E-001	-6.663524586065406E-002	2.0926493E-005	-3.1414697E-001	0
4.7568545E+003	1.470719983488380E+001	-3.1604359E-001	-6.643961929946363E-002	2.0997815E-005	-3.1614694E-001	0
4.8063662E+003	1.490719982983137E+001	-3.1804195E-001	-6.617097540435446E-002	2.1045145E-005	-3.1814694E-001	0
4.8545918E+003	1.510719982477895E+001	-3.2003716E-001	-6.592462736323390E-002	2.1098331E-005	-3.2014695E-001	0
4.8947832E+003	1.530719981972652E+001	-3.2204023E-001	-6.579254418368674E-002	2.1187847E-005	-3.2214692E-001	0
4.9524292E+003	1.550719981467410E+001	-3.2404476E-001	-6.543147675122851E-002	2.1202728E-005	-3.2414693E-001	0
5.0007939E+003	1.570719980962167E+001	-3.2604933E-001	-6.519951086909492E-002	2.1258256E-005	-3.2614693E-001	0
5.0543491E+003	1.590719980456925E+001	-3.2803005E-001	-6.490055385759491E-002	2.1289332E-005	-3.2814693E-001	0
5.0861519E+003	1.610719979951682E+001	-3.3003885E-001	-6.488969779252396E-002	2.1416121E-005	-3.3014694E-001	0
5.1385679E+003	1.630719979446440E+001	-3.3202368E-001	-6.461404918222075E-002	2.1453394E-005	-3.3214694E-001	0
5.1754390E+003	1.650719978941197E+001	-3.3404222E-001	-6.454374424716147E-002	2.1560336E-005	-3.3414692E-001	0
5.2137549E+003	1.670719978435955E+001	-3.3603913E-001	-6.445242309480348E-002	2.1658536E-005	-3.3614695E-001	0
5.2570610E+003	1.690719977930712E+001	-3.3804473E-001	-6.430298670526602E-002	2.1737285E-005	-3.3814692E-001	0
5.2969546E+003	1.710719977425470E+001	-3.4004569E-001	-6.419645341919922E-002	2.1829728E-005	-3.4014693E-001	0
5.3432920E+003	1.730719976920227E+001	-3.4204322E-001	-6.401357590062484E-002	2.1895410E-005	-3.4214693E-001	0
5.3793252E+003	1.750719976414985E+001	-3.4404013E-001	-6.395600178720362E-002	2.2003431E-005	-3.4414694E-001	0
5.4215757E+003	1.770719975909742E+001	-3.4601879E-001	-6.382255116160829E-002	2.2083803E-005	-3.4614694E-001	0
5.4591016E+003	1.790719975404500E+001	-3.4802654E-001	-6.375161763449611E-002	2.2187256E-005	-3.4814695E-001	0
5.5084614E+003	1.810719974899257E+001	-3.5003638E-001	-6.354521887003117E-002	2.2243139E-005	-3.5014695E-001	0
5.5434878E+003	1.830719974394015E+001	-3.5203350E-001	-6.350397290302909E-002	2.2355525E-005	-3.5214695E-001	0
5.5882295E+003	1.850719973888772E+001	-3.5403296E-001	-6.335333535234411E-002	2.2429169E-005	-3.5414696E-001	0
5.6371035E+003	1.870719973383530E+001	-3.5602391E-001	-6.315724360186370E-002	2.2485488E-005	-3.5614693E-001	0
5.6746362E+003	1.890719972878287E+001	-3.5801128E-001	-6.308972927247530E-002	2.2586835E-005	-3.5814697E-001	0
5.6994048E+003	1.910719972373045E+001	-3.6001858E-001	-6.316775072137952E-002	2.2741564E-005	-3.6014694E-001	0
5.7337554E+003	1.930719971867802E+001	-3.6203629E-001	-6.314121870864653E-002	2.2859413E-005	-3.6214691E-001	0
5.7726860E+003	1.950719971362560E+001	-3.6403275E-001	-6.306124342470310E-002	2.2956357E-005	-3.6414695E-001	0
5.7964614E+003	1.970719970857317E+001	-3.6602479E-001	-6.314624810977823E-002	2.3113093E-005	-3.6614692E-001	0
5.8293052E+003	1.990719970352075E+001	-3.6802399E-001	-6.313342445048487E-002	2.3234616E-005	-3.6814693E-001	0
5.8559380E+003	2.010719969846832E+001	-3.7003005E-001	-6.318886062582263E-002	2.3381777E-005	-3.7014696E-001	0
5.8912065E+003	2.030719969341590E+001	-3.7202868E-001	-6.314982718190443E-002	2.3493547E-005	-3.7214693E-001	0
5.9292148E+003	2.050719968836347E+001	-3.7402472E-001	-6.308165925888611E-002	2.3594101E-005	-3.7414697E-001	0
5.9526763E+003	2.070719968331105E+001	-3.7602696E-001	-6.316939703307092E-002	2.3753397E-005	-3.7614694E-001	0
5.9798594E+003	2.090719967825862E+001	-3.7800196E-001	-6.321251391889342E-002	2.3894454E-005	-3.7814698E-001	0
6.0111201E+003	2.110719967320620E+001	-3.8002881E-001	-6.322096328804375E-002	2.4025787E-005	-3.8014695E-001	0
6.0340781E+003	2.130719966815377E+001	-3.8199961E-001	-6.330703751262190E-002	2.4183264E-005	-3.8214692E-001	0
6.0539053E+003	2.150719966310135E+001	-3.8403362E-001	-6.343568266050481E-002	2.4361434E-005	-3.8414696E-001	0
6.0837485E+003	2.170719965804892E+001	-3.8603929E-001	-6.345418060479299E-002	2.4495806E-005	-3.8614693E-001	0
6.0991221E+003	2.190719965299650E+001	-3.8805482E-001	-6.362470071984538E-002	2.4689871E-005	-3.8814694E-001	0
6.1249873E+003	2.210719964794407E+001	-3.9004514E-001	-6.368097000335110E-002	2.4838453E-005	-3.9014694E-001	0
6.1603672E+003	2.230719964289165E+001	-3.9202785E-001	-6.363709269634231E-002	2.4947512E-005	-3.9214697E-001	0
6.1816548E+003	2.250719963783922E+001	-3.9403197E-001	-6.374215252133580E-002	2.5116446E-005	-3.9414698E-001	0
6.2013379E+003	2.270719963278680E+001	-3.9604083E-001	-6.386377117828901E-002	2.5292660E-005	-3.9614698E-001	0
6.2131899E+003	2.290719962773437E+001	-3.9803454E-001	-6.406283135052826E-002	2.5499219E-005	-3.9814693E-001	0
6.2318735E+003	2.310719962268195E+001	-4.0002629E-001	-6.419037340384187E-002	2.5677837E-005	-4.0014696E-001	0
6.2494297E+003	2.330719961762952E+001	-4.0203515E-001	-6.433149342596217E-002	2.5863521E-005	-4.0214700E-001	0
6.2751362E+003	2.350719961257710E+001	-4.0402421E-001	-6.438493027505976E-002	2.6013071E-005	-4.0414697E-001	0
6.2781689E+003	2.370719960752467E+001	-4.0602130E-001	-6.467193116269199E-002	2.6258182E-005	-4.0614694E-001	0
6.2780054E+003	2.390719960247225E+001	-4.0803918E-001	-6.499503525301309E-002	2.6520522E-005	-4.0814698E-001	0
6.1374917E+003	2.410719959741982E+001	-4.1004205E-001	-6.680938557461896E-002	2.7394657E-005	-4.1014695E-001	0
6.3026616E+003	2.430719959236740E+001	-4.1203916E-001	-6.537542249130968E-002	2.6937234E-005	-4.1214696E-001	0
6.3184517E+003	2.450719958731497E+001	-4.1406730E-001	-6.553303446491884E-002	2.7135087E-005	-4.1414696E-001	0
6.3462847E+003	2.470719958226255E+001	-4.1607904E-001	-6.556261946022701E-002	2.7279231E-005	-4.1614699E-001	0
6.3563589E+003	2.490719957721012E+001	-4.1807213E-001	-6.577226643497025E-002	2.7497552E-005	-4.1814694E-001	0
6.3892852E+003	2.510719957215770E+001	-4.2008111E-001	-6.574774733818489E-002	2.7619386E-005	-4.2014697E-001	0
6.3983584E+003	2.530719956710527E+001	-4.2206302E-001	-6.596426765567520E-002	2.7841079E-005	-4.2214701E-001	0
6.4208848E+003	2.550719956205285E+001	-4.2406833E-001	-6.604515513893028E-002	2.8007658E-005	-4.2414695E-001	0
6.4284204E+003	2.570719955700042E+001	-4.2607924E-001	-6.628054980180165E-002	2.8240767E-005	-4.2614695E-001	0
6.4535342E+003	2.590719955194800E+001	-4.2807129E-001	-6.633129840148622E-002	2.8394525E-005	-4.2814699E-001	0
6.4664966E+003	2.610719954689557E+001	-4.3007350E-001	-6.650795812175830E-002	2.8603310E-005	-4.3014696E-001	0
6.4749165E+003	2.630719954184315E+001	-4.3207547E-001	-6.673066279177195E-002	2.8832683E-005	-4.3214697E-001	0
6.4924570E+003	2.650719953679072E+001	-4.3406391E-001	-6.685664618014009E-002	2.9020057E-005	-4.3414697E-001	0
6.5019121E+003	2.670719953173830E+001	-4.3606678E-001	-6.706746537111663E-002	2.9245894E-005	-4.3614697E-001	0
6.5160430E+003	2.690719952668587E+001	-4.3806964E-001	-6.722939887998514E-002	2.9451159E-005	-4.3814695E-001	0
6.5475088E+003	2.710719952163345E+001	-4.4007164E-001	-6.721207434036980E-002	2.9578128E-005	-4.4014692E-001	0
6.5535708E+003	2.730719951658102E+001	-4.4207871E-001	-6.745615698420393E-002	2.9820931E-005	-4.4214696E-001	0
6.5572207E+003	2.750719951152860E+001	-4.4406757E-001	-6.772191792118296E-002	3.0073108E-005	-4.4414699E-001	0
6.5895977E+003	2.770719950647617E+001	-4.4607568E-001	-6.769391853845946E-002	3.0196610E-005	-4.4614697E-001	0
6.6011680E+003	2.790719950142375E+001	-4.4808218E-001	-6.787922844457572E-002	3.0415473E-005	-4.4814694E-001	0
6.6249380E+003	2.810719949637132E+001	-4.5008522E-001	-6.793802845568431E-002	3.0577903E-005	-4.5014697E-001	0
6.6474072E+003	2.830719949131890E+001	-4.5208508E-001	-6.800923559470456E-002	3.0745960E-005	-4.5214692E-001	0
6.6583369E+003	2.850719948626647E+001	-4.5408607E-001	-6.819812099970979E-002	3.0967818E-005	-4.5414698E-001	0
6.6743276E+003	2.870719948121405E+001	-4.5608103E-001	-6.833363107200752E-002	3.1165673E-005	-4.5614699E-001	0
6.6835771E+003	2.890719947616162E+001	-4.5807749E-001	-6.853777363837255E-002	3.1395612E-005	-4.5814699E-001	0
6.7023613E+003	2.910719947110920E+001	-4.6008670E-001	-6.864546271159289E-002	3.1582866E-005	-4.6014693E-001	0
6.7210752E+003	2.930719946605677E+001	-4.6209449E-001	-6.875305872277515E-002	3.1770411E-005	-4.6214697E-001	0
6.7471665E+003	2.950719946100435E+001	-4.6406612E-001	-6.877940841169095E-002	3.1918193E-005	-4.6414700E-001	0
6.7706064E+003	2.970719945595192E+001	-4.6605542E-001	-6.883510920618238E-002	3.2080978E-005	-4.6614695E-001	0
6.7946978E+003	2.990719945089950E+001	-4.6806115E-001	-6.888623785094494E-002	3.2242973E-005	-4.6814695E-001	0
6.8163228E+003	3.010719944584707E+001	-4.7007489E-001	-6.896311884414386E-002	3.2417829E-005	-4.7014698E-001	0
6.8345547E+003	3.030719944079465E+001	-4.7204867E-001	-6.906794724075715E-002	3.2603431E-005	-4.7214696E-001	0
6.8551250E+003	3.050719943574222E+001	-4.7406888E-001	-6.915539376756574E-002	3.2784421E-005	-4.7414696E-001	0
6.8814941E+003	3.070719943068980E+001	-4.7606090E-001	-6.917987252551816E-002	3.2933833E-005	-4.7614700E-001	0
6.9074663E+003	3.090719942563737E+001	-4.7804725E-001	-6.920732487238035E-002	3.3084372E-005	-4.7814697E-001	0
6.9422788E+003	3.110719942058495E+001	-4.8007613E-001	-6.915252758485724E-002	3.3198477E-005	-4.8014694E-001	0
6.9603022E+003	3.130719941553252E+001	-4.8207653E-001	-6.926085896866063E-002	3.3389035E-005	-4.8214698E-001	0
6.9912446E+003	3.150719941048010E+001	-4.8404178E-001	-6.923542106566305E-002	3.3512835E-005	-4.8414701E-001	0
7.0151187E+003	3.170719940542767E+001	-4.8606420E-001	-6.928809094844623E-002	3.3678461E-005	-4.8614696E-001	0
7.0509839E+003	3.190719940037525E+001	-4.8806211E-001	-6.921900874383913E-002	3.3783177E-005	-4.8814696E-001	0
7.0850630E+003	3.210719939532282E+001	-4.9005947E-001	-6.916797399423746E-002	3.3896420E-005	-4.9014699E-001	0
7.1275029E+003	3.230719939027040E+001	-4.9204826E-001	-6.903515546899386E-002	3.3968627E-005	-4.9214697E-001	0
7.1545454E+003	3.250719938521797E+001	-4.9407512E-001	-6.905751425483575E-002	3.4119599E-005	-4.9414697E-001	0
7.1889043E+003	3.270719938016555E+001	-4.9606821E-001	-6.900470459922459E-002	3.4231041E-005	-4.9614695E-001	0
7.2128154E+003	3.290719937511312E+001	-4.9805620E-001	-6.905156425928982E-002	3.4391560E-005	-4.9814698E-001	0
7.2664780E+003	3.310719937006070E+001	-5.0006878E-001	-6.881859327260997E-002	3.4414032E-005	-5.0014693E-001	0
7.2988037E+003	3.330719936500827E+001	-5.0205320E-001	-6.878568305604404E-002	3.4534074E-005	-5.0214696E-001	0
7.3387163E+003	3.350719935995585E+001	-5.0405926E-001	-6.868493720591329E-002	3.4621280E-005	-5.0414699E-001	0
7.3699429E+003	3.370719935490342E+001	-5.0605100E-001	-6.866416861641045E-002	3.4747572E-005	-5.0614697E-001	0
7.4020000E+003	3.390719934985100E+001	-5.0805873E-001	-6.863803350653869E-002	3.4872151E-005	-5.0814694E-001	0
7.4467949E+003	3.410719934479857E+001	-5.1007015E-001	-6.849525807121265E-002	3.4937388E-005	-5.1014698E-001	0
7.5080840E+003	3.430719933974615E+001	-5.1205009E-001	-6.819983493576809E-002	3.4921733E-005	-5.1214695E-001	0
7.5438291E+003	3.450719933469372E+001	-5.1404464E-001	-6.814107883989773E-002	3.5027555E-005	-5.1414692E-001	0
7.5815757E+003	3.470719932964130E+001	-5.1606387E-001	-6.806815509861786E-002	3.5127516E-005	-5.1614696E-001	0
7.6214507E+003	3.490719932458887E+001	-5.1805180E-001	-6.797286122245387E-002	3.5213463E-005	-5.1814699E-001	0
7.6835356E+003	3.510719931953645E+001	-5.2005780E-001	-6.768470049609765E-002	3.5199955E-005	-5.2014697E-001	0
7.7331611E+003	3.530719931448402E+001	-5.2205944E-001	-6.750919054158866E-002	3.5243811E-005	-5.2214694E-001	0
7.7995679E+003	3.550719930943160E+001	-5.2406460E-001	-6.719149145838377E-002	3.5212681E-005	-5.2414697E-001	0
7.8316362E+003	3.570719930437917E+001	-5.2606857E-001	-6.717224189454063E-002	3.5337205E-005	-5.2614695E-001	0
7.8844258E+003	3.590719929932675E+001	-5.2804869E-001	-6.697363894519381E-002	3.5365341E-005	-5.2814698E-001	0
7.9426245E+003	3.610719929427432E+001	-5.3006506E-001	-6.673676379778859E-002	3.5374826E-005	-5.3014702E-001	0
8.0019150E+003	3.630719928922190E+001	-5.3205729E-001	-6.649124577996279E-002	3.5377150E-005	-5.3214699E-001	0
8.0667739E+003	3.650719928416947E+001	-5.3405976E-001	-6.620487633748351E-002	3.5357360E-005	-5.3414702E-001	0
8.1110757E+003	3.670719927911705E+001	-5.3605837E-001	-6.608967472378838E-002	3.5427922E-005	-5.3614694E-001	0
8.1840186E+003	3.690719927406462E+001	-5.3806245E-001	-6.574550943867274E-002	3.5375189E-005	-5.3814697E-001	0
8.2506494E+003	3.710719926901220E+001	-5.4007399E-001	-6.545836235451485E-002	3.5352357E-005	-5.4014701E-001	0
8.3118330E+003	3.730719926395977E+001	-5.4205841E-001	-6.521526716022323E-002	3.5350484E-005	-5.4214692E-001	0
8.3464980E+003	3.750719925890735E+001	-5.4406428E-001	-6.518473434251415E-002	3.5464687E-005	-5.4414701E-001	0
8.4321729E+003	3.770719925385492E+001	-5.4605556E-001	-6.475858433043291E-002	3.5361783E-005	-5.4614699E-001	0
8.5049648E+003	3.790719924880250E+001	-5.4803747E-001	-6.443735703988573E-002	3.5314086E-005	-5.4814702E-001	0
8.5355693E+003	3.810719924375007E+001	-5.5005473E-001	-6.444265494279344E-002	3.5446988E-005	-5.5014694E-001	0
8.6156396E+003	3.830719923869765E+001	-5.5205083E-001	-6.407543436345375E-002	3.5372897E-005	-5.5214697E-001	0
8.6909150E+003	3.850719923364522E+001	-5.5405062E-001	-6.375055005372646E-002	3.5321031E-005	-5.5414701E-001	0
8.7502852E+003	3.870719922859280E+001	-5.5606031E-001	-6.354767636368530E-002	3.5336339E-005	-5.5614692E-001	0
8.7978750E+003	3.890719922354037E+001	-5.5803937E-001	-6.342887863635048E-002	3.5395813E-005	-5.5814695E-001	0
8.8565029E+003	3.910719921848795E+001	-5.6005406E-001	-6.323648128307968E-002	3.5415847E-005	-5.6014699E-001	0
8.9214707E+003	3.930719921343552E+001	-5.6207013E-001	-6.300196178466566E-002	3.5411522E-005	-5.6214696E-001	0
8.9903496E+003	3.950719920838310E+001	-5.6405282E-001	-6.273980650421485E-002	3.5388566E-005	-5.6414700E-001	0
9.0558662E+003	3.970719920333067E+001	-5.6606114E-001	-6.250767321526479E-002	3.5383164E-005	-5.6614697E-001	0
9.1290615E+003	3.990719919827825E+001	-5.6805295E-001	-6.222468021784033E-002	3.5346911E-005	-5.6814706E-001	0
9.1888564E+003	4.010719919322582E+001	-5.7004839E-001	-6.203692300718233E-002	3.5364050E-005	-5.7014698E-001	0
9.2624600E+003	4.030719918817340E+001	-5.7203746E-001	-6.175869872504247E-002	3.5328289E-005	-5.7214695E-001	0
9.3163203E+003	4.050719918312097E+001	-5.7404649E-001	-6.161730023588821E-002	3.5371195E-005	-5.7414699E-001	0
9.4034883E+003	4.070719917806855E+001	-5.7602447E-001	-6.125646647828220E-002	3.5285222E-005	-5.7614690E-001	0
9.4517070E+003	4.090719917301612E+001	-5.7805979E-001	-6.115929948645360E-002	3.5353733E-005	-5.7814699E-001	0
9.5188604E+003	4.110719916796370E+001	-5.8004206E-001	-6.093608217985463E-002	3.5345493E-005	-5.8014703E-001	0
9.5900820E+003	4.130719916291127E+001	-5.8203584E-001	-6.069143250892950E-002	3.5324589E-005	-5.8214694E-001	0
9.6588936E+003	4.150719915785885E+001	-5.8403546E-001	-6.046608275134113E-002	3.5314337E-005	-5.8414698E-001	0
9.7282500E+003	4.170719915280642E+001	-5.8603168E-001	-6.024019711528422E-002	3.5302663E-005	-5.8614695E-001	0
9.7841738E+003	4.190719914775400E+001	-5.8805686E-001	-6.010286369500362E-002	3.5343903E-005	-5.8814704E-001	0
9.8515752E+003	4.210719914270157E+001	-5.9003228E-001	-5.989217503596100E-002	3.5338315E-005	-5.9014690E-001	0
9.9181484E+003	4.230719913764915E+001	-5.9205025E-001	-5.969362513504317E-002	3.5341625E-005	-5.9214693E-001	0
9.9589629E+003	4.250719913259672E+001	-5.9404820E-001	-5.964960476284314E-002	3.5434739E-005	-5.9414703E-001	0
1.0046457E+004	4.270719912754430E+001	-5.9603578E-001	-5.932795965955359E-002	3.5361587E-005	-5.9614694E-001	0
1.0108196E+004	4.290719912249187E+001	-5.9801573E-001	-5.916146798610566E-002	3.5379489E-005	-5.9814698E-001	0
1.0168637E+004	4.310719911743945E+001	-6.0003388E-001	-5.900829183486822E-002	3.5406974E-005	-6.0014695E-001	0
1.0219391E+004	4.330719911238702E+001	-6.0203820E-001	-5.891135896613087E-002	3.5466888E-005	-6.0214698E-001	0
1.0297487E+004	4.350719910733460E+001	-6.0402912E-001	-5.865791612230820E-002	3.5431091E-005	-6.0414696E-001	0
1.0356664E+004	4.370719910228217E+001	-6.0603011E-001	-5.851595697379630E-002	3.5462432E-005	-6.0614699E-001	0
1.0409543E+004	4.390719909722975E+001	-6.0803455E-001	-5.841126213433079E-002	3.5516066E-005	-6.0814703E-001	0
1.0467079E+004	4.410719909217732E+001	-6.1003238E-001	-5.828105334019340E-002	3.5553330E-005	-6.1014694E-001	0
1.0505953E+004	4.430719908712490E+001	-6.1203671E-001	-5.825618027536250E-002	3.5654921E-005	-6.1214697E-001	0
1.0572247E+004	4.450719908207248E+001	-6.1403024E-001	-5.807944524256081E-002	3.5662535E-005	-6.1414701E-001	0
1.0612357E+004	4.470719907702005E+001	-6.1604881E-001	-5.805013760926470E-002	3.5761717E-005	-6.1614698E-001	0
1.0675870E+004	4.490719907196763E+001	-6.1806768E-001	-5.789389272638545E-002	3.5782345E-005	-6.1814696E-001	0
1.0716448E+004	4.510719906691520E+001	-6.2006742E-001	-5.786127814507769E-002	3.5877893E-005	-6.2014699E-001	0
1.0777479E+004	4.530719906186278E+001	-6.2206751E-001	-5.771920784765139E-002	3.5905243E-005	-6.2214702E-001	0
1.0821473E+004	4.550719905681035E+001	-6.2406319E-001	-5.766897336073018E-002	3.5989084E-005	-6.2414694E-001	0
1.0877632E+004	4.570719905175793E+001	-6.2605065E-001	-5.755394944116488E-002	3.6031688E-005	-6.2614691E-001	0
1.0913593E+004	4.590719904670550E+001	-6.2804186E-001	-5.754675565956946E-002	3.6141773E-005	-6.2814701E-001	0
1.0957726E+004	4.610719904165308E+001	-6.3005829E-001	-5.749900247099173E-002	3.6227724E-005	-6.3014698E-001	0
1.1008703E+004	4.630719903660065E+001	-6.3203990E-001	-5.741274932847085E-002	3.6287147E-005	-6.3214695E-001	0
1.1019897E+004	4.650719903154823E+001	-6.3405186E-001	-5.753700273183315E-002	3.6481444E-005	-6.3414699E-001	0
1.1076626E+004	4.670719902649580E+001	-6.3606155E-001	-5.742376472044919E-002	3.6525049E-005	-6.3614702E-001	0
1.1109264E+004	4.690719902144338E+001	-6.3805252E-001	-5.743427746274554E-002	3.6646084E-005	-6.3814700E-001	0
1.1145006E+004	4.710719901639095E+001	-6.4004159E-001	-5.742855698594596E-002	3.6756664E-005	-6.4014697E-001	0
1.1154729E+004	4.730719901133853E+001	-6.4205527E-001	-5.755902527379569E-002	3.6956077E-005	-6.4214700E-001	0
1.1162173E+004	4.750719900628610E+001	-6.4407861E-001	-5.770190132416508E-002	3.7164562E-005	-6.4414698E-001	0
1.1206344E+004	4.770719900123368E+001	-6.4607358E-001	-5.765248441861738E-002	3.7247748E-005	-6.4614695E-001	0
1.1255978E+004	4.790719899618125E+001	-6.4808327E-001	-5.757681028273309E-002	3.7314567E-005	-6.4814699E-001	0
1.1282690E+004	4.810719899112883E+001	-6.5006638E-001	-5.761625602537263E-002	3.7454392E-005	-6.5014702E-001	0
1.1296081E+004	4.830719898607640E+001	-6.5204555E-001	-5.772316272797084E-002	3.7638132E-005	-6.5214694E-001	0
1.1323473E+004	4.850719898102398E+001	-6.5407169E-001	-5.776246514935834E-002	3.7780792E-005	-6.5414697E-001	0
1.1350552E+004	4.870719897597155E+001	-6.5607387E-001	-5.780105674618208E-002	3.7921764E-005	-6.5614700E-001	0
1.1378317E+004	4.890719897091913E+001	-6.5805024E-001	-5.783370300090529E-002	3.8057482E-005	-6.5814704E-001	0
1.1343120E+004	4.910719896586670E+001	-6.6004670E-001	-5.818916698326404E-002	3.8407568E-005	-6.6014695E-001	0
1.1377011E+004	4.930719896081428E+001	-6.6206783E-001	-5.819348045762041E-002	3.8528033E-005	-6.6214699E-001	0
1.1398525E+004	4.950719895576185E+001	-6.6406578E-001	-5.825892166507002E-002	3.8687755E-005	-6.6414702E-001	0
1.1398880E+004	4.970719895070943E+001	-6.6605330E-001	-5.843147032528839E-002	3.8918472E-005	-6.6614693E-001	0
1.1412065E+004	4.990719894565700E+001	-6.6805065E-001	-5.853897555891741E-002	3.9106999E-005	-6.6814697E-001	0
1.1416178E+004	5.010719894060458E+001	-6.7004120E-001	-5.869225562231239E-002	3.9326231E-005	-6.7014706E-001	0
1.1394213E+004	5.030719893555215E+001	-6.7203939E-001	-5.898076359260718E-002	3.9637398E-005	-6.7214698E-001	0
1.1403659E+004	5.050719893049973E+001	-6.7403263E-001	-5.910669678617295E-002	3.9839841E-005	-6.7414695E-001	0
1.1406426E+004	5.070719892544730E+001	-6.7603940E-001	-5.926829354009722E-002	4.0067702E-005	-6.7614698E-001	0
1.1403324E+004	5.090719892039488E+001	-6.7804974E-001	-5.946070847973717E-002	4.0317318E-005	-6.7814702E-001	0
1.1375618E+004	5.110719891534245E+001	-6.8005073E-001	-5.978142933512437E-002	4.0654406E-005	-6.8014693E-001	0
1.1365652E+004	5.130719891029003E+001	-6.8202478E-001	-6.000753315830820E-002	4.0926625E-005	-6.8214697E-001	0
1.1369604E+004	5.150719890523760E+001	-6.8403691E-001	-6.016365338070406E-002	4.1154159E-005	-6.8414700E-001	0
1.1348056E+004	5.170719890018518E+001	-6.8604022E-001	-6.045442628051179E-002	4.1474170E-005	-6.8614691E-001	0
1.1345604E+004	5.190719889513275E+001	-6.8803918E-001	-6.064368242264861E-002	4.1725230E-005	-6.8814701E-001	0
1.1324654E+004	5.210719889008033E+001	-6.9004822E-001	-6.093327182264818E-002	4.2046897E-005	-6.9014698E-001	0
1.1320647E+004	5.230719888502790E+001	-6.9205958E-001	-6.113250865263120E-002	4.2307340E-005	-6.9214702E-001	0
1.1302371E+004	5.250719887997548E+001	-6.9404840E-001	-6.140732519854430E-002	4.2619657E-005	-6.9414693E-001	0
1.1275683E+004	5.270719887492305E+001	-6.9605505E-001	-6.173063789297942E-002	4.2967924E-005	-6.9614697E-001	0
1.1256803E+004	5.290719886987063E+001	-6.9804478E-001	-6.201092752970105E-002	4.3286404E-005	-6.9814706E-001	0
1.1237518E+004	5.310719886481820E+001	-7.0005125E-001	-6.229589999148677E-002	4.3610322E-005	-7.0014691E-001	0
1.1224242E+004	5.330719885976578E+001	-7.0206767E-001	-6.254922595168642E-002	4.3913791E-005	-7.0214701E-001	0
1.1197856E+004	5.350719885471335E+001	-7.0405090E-001	-6.287372179114004E-002	4.4266300E-005	-7.0414704E-001	0
1.0918008E+004	5.370719884966093E+001	-7.0604074E-001	-6.466754303575684E-002	4.5657918E-005	-7.0614696E-001	0
1.0912515E+004	5.390719884460850E+001	-7.0803213E-001	-6.488258491456123E-002	4.5938956E-005	-7.0814693E-001	0
1.0938048E+004	5.410719883955608E+001	-7.1003193E-001	-6.491395320728577E-002	4.6090980E-005	-7.1014702E-001	0
1.0900875E+004	5.430719883450365E+001	-7.1204370E-001	-6.531986528680223E-002	4.6510599E-005	-7.1214712E-001	0
1.0745297E+004	5.450719882945123E+001	-7.1403790E-001	-6.645120171166963E-002	4.7448677E-005	-7.1414697E-001	0
1.0510671E+004	5.470719882439880E+001	-7.1602952E-001	-6.812405452193449E-002	4.8778835E-005	-7.1614695E-001	0
1.0369125E+004	5.490719881934638E+001	-7.1803355E-001	-6.924726663193248E-002	4.9721861E-005	-7.1814704E-001	0
1.0623809E+004	5.510719881429395E+001	-7.2004157E-001	-6.777621797590072E-002	4.8801696E-005	-7.2014695E-001	0
1.0693438E+004	5.530719880924153E+001	-7.2202367E-001	-6.752025391410227E-002	4.8751222E-005	-7.2214699E-001	0
1.0866865E+004	5.550719880418910E+001	-7.2402197E-001	-6.662657103805369E-002	4.8239101E-005	-7.2414702E-001	0
1.0838728E+004	5.570719879913668E+001	-7.2604203E-001	-6.698591147217903E-002	4.8634589E-005	-7.2614700E-001	0
1.0771182E+004	5.590719879408425E+001	-7.2803026E-001	-6.759056629340621E-002	4.9207978E-005	-7.2814697E-001	0
1.0734683E+004	5.610719878903183E+001	-7.3003733E-001	-6.800734908837403E-002	4.9647904E-005	-7.3014694E-001	0
1.0651895E+004	5.630719878397940E+001	-7.3203003E-001	-6.872298733316473E-002	5.0307292E-005	-7.3214710E-001	0
1.0641074E+004	5.650719877892698E+001	-7.3402387E-001	-6.898024445822037E-002	5.0633145E-005	-7.3414701E-001	0
1.0613531E+004	5.670719877387455E+001	-7.3600423E-001	-6.934584095670748E-002	5.1038831E-005	-7.3614699E-001	0
1.0600210E+004	5.690719876882213E+001	-7.3800224E-001	-6.962147359039370E-002	5.1380805E-005	-7.3814702E-001	0
1.0568579E+004	5.710719876376970E+001	-7.4004555E-001	-7.002318515590100E-002	5.1820345E-005	-7.4014693E-001	0
1.0553373E+004	5.730719875871728E+001	-7.4202722E-001	-7.031185113214578E-002	5.2173309E-005	-7.4214703E-001	0
1.0527015E+004	5.750719875366485E+001	-7.4404454E-001	-7.067953784213024E-002	5.2588723E-005	-7.4414700E-001	0
1.0502841E+004	5.770719874861243E+001	-7.4603003E-001	-7.103125921021891E-002	5.2991454E-005	-7.4614710E-001	0
1.0378982E+004	5.790719874356000E+001	-7.4803472E-001	-7.207206708100328E-002	5.3912408E-005	-7.4814707E-001	0
1.0330456E+004	5.810719873850758E+001	-7.5003165E-001	-7.260392353576406E-002	5.4455242E-005	-7.5014693E-001	0
1.0263977E+004	5.830719873345515E+001	-7.5203210E-001	-7.326907756244178E-002	5.5100700E-005	-7.5214702E-001	0
1.0212427E+004	5.850719872840273E+001	-7.5403780E-001	-7.383531869163162E-002	5.5674620E-005	-7.5414699E-001	0
1.0142187E+004	5.870719872335030E+001	-7.5603765E-001	-7.454384875678105E-002	5.6357956E-005	-7.5614697E-001	0
1.0055549E+004	5.890719871829788E+001	-7.5804049E-001	-7.538529317044618E-002	5.7145106E-005	-7.5814700E-001	0
1.0015303E+004	5.910719871324545E+001	-7.6004565E-001	-7.588843455434691E-002	5.7678673E-005	-7.6014704E-001	0
9.8944463E+003	5.930719870819303E+001	-7.6204091E-001	-7.701703178001543E-002	5.8690130E-005	-7.6214701E-001	0
9.8848633E+003	5.950719870314060E+001	-7.6405287E-001	-7.729524236580021E-002	5.9057653E-005	-7.6414698E-001	0
9.7815439E+003	5.970719869808818E+001	-7.6605511E-001	-7.831637624676524E-002	5.9994662E-005	-7.6614708E-001	0
9.6688477E+003	5.990719869303575E+001	-7.6804119E-001	-7.943461663797136E-002	6.1009057E-005	-7.6814699E-001	0
9.7448193E+003	6.010719868798333E+001	-7.7005100E-001	-7.902158074906655E-002	6.0850649E-005	-7.7014697E-001	0
9.7495420E+003	6.030719868293090E+001	-7.7203918E-001	-7.918722219680696E-002	6.1135637E-005	-7.7214706E-001	0
9.7073535E+003	6.050719867787848E+001	-7.7404100E-001	-7.973758854360520E-002	6.1720166E-005	-7.7414703E-001	0
9.6700430E+003	6.070719867282605E+001	-7.7603960E-001	-8.025192618876853E-002	6.2278676E-005	-7.7614689E-001	0
9.7173877E+003	6.090719866777363E+001	-7.7803648E-001	-8.006642188279212E-002	6.2294595E-005	-7.7814698E-001	0
1.0086688E+004	6.110719866272120E+001	-7.8005415E-001	-7.733501998397196E-002	6.0325503E-005	-7.8014708E-001	0
1.0063818E+004	6.130719865766878E+001	-7.8204328E-001	-7.770840287823111E-002	6.0771334E-005	-7.8214711E-001	0
1.0044930E+004	6.150719865261635E+001	-7.8402573E-001	-7.805188504298988E-002	6.1194689E-005	-7.8414702E-001	0
1.0016793E+004	6.170719864756393E+001	-7.8604692E-001	-7.847291431094083E-002	6.1683393E-005	-7.8614706E-001	0
9.9936309E+003	6.190719864251150E+001	-7.8800744E-001	-7.885096345705067E-002	6.2135143E-005	-7.8814709E-001	0
9.9873164E+003	6.210719863745908E+001	-7.9002219E-001	-7.910254751511603E-002	6.2492771E-005	-7.9014695E-001	0
9.9468760E+003	6.230719863240665E+001	-7.9203719E-001	-7.962673177727229E-002	6.3067331E-005	-7.9214704E-001	0
9.9184160E+003	6.250719862735423E+001	-7.9402846E-001	-8.005597402316322E-002	6.3566724E-005	-7.9414713E-001	0
9.8894121E+003	6.270719862230180E+001	-7.9604220E-001	-8.049438910320207E-002	6.4076929E-005	-7.9614699E-001	0
9.7950107E+003	6.290719861724938E+001	-7.9803765E-001	-8.147389236721470E-002	6.5019231E-005	-7.9814708E-001	0
9.8226523E+003	6.310719861219695E+001	-8.0003339E-001	-8.144779683380043E-002	6.5160959E-005	-8.0014706E-001	0
9.8157324E+003	6.330719860714453E+001	-8.0202079E-001	-8.170768537858492E-002	6.5531261E-005	-8.0214703E-001	0
9.7803701E+003	6.350719860209210E+001	-8.0403107E-001	-8.220865545359302E-002	6.6098313E-005	-8.0414701E-001	0
9.7511904E+003	6.370719859703968E+001	-8.0602336E-001	-8.265897400081634E-002	6.6625063E-005	-8.0614704E-001	0
9.7149453E+003	6.390719859198725E+001	-8.0801874E-001	-8.317275368608562E-002	6.7205146E-005	-8.0814707E-001	0
9.6888682E+003	6.410719858693483E+001	-8.1004095E-001	-8.360532427717704E-002	6.7723733E-005	-8.1014699E-001	0
9.6087363E+003	6.430719858188240E+001	-8.1203371E-001	-8.450993839672449E-002	6.8624919E-005	-8.1214696E-001	0
9.5500830E+003	6.450719857682998E+001	-8.1404024E-001	-8.523907572033146E-002	6.9388036E-005	-8.1414711E-001	0
9.5306328E+003	6.470719857177755E+001	-8.1603318E-001	-8.562214071693464E-002	6.9870512E-005	-8.1614709E-001	0
9.4761768E+003	6.490719856672513E+001	-8.1803763E-001	-8.632569972324355E-002	7.0617672E-005	-8.1814700E-001	0
9.4158418E+003	6.510719856167270E+001	-8.2003140E-001	-8.709060995788820E-002	7.1417038E-005	-8.2014704E-001	0
9.3449199E+003	6.530719855662028E+001	-8.2205307E-001	-8.796791403391735E-002	7.2314295E-005	-8.2214707E-001	0
9.2990762E+003	6.550719855156785E+001	-8.2405579E-001	-8.861695667897784E-002	7.3025316E-005	-8.2414693E-001	0
9.2348945E+003	6.570719854651543E+001	-8.2603914E-001	-8.944759920900425E-002	7.3887219E-005	-8.2614702E-001	0
9.1733945E+003	6.590719854146300E+001	-8.2803011E-001	-9.026431206501845E-002	7.4741569E-005	-8.2814711E-001	0
9.1219258E+003	6.610719853641058E+001	-8.3003330E-001	-9.099321258455029E-002	7.5527394E-005	-8.3014697E-001	0
8.9850508E+003	6.630719853135815E+001	-8.3204168E-001	-9.260289302114783E-002	7.7049466E-005	-8.3214706E-001	0
8.1600244E+003	6.650719852630573E+001	-8.3403867E-001	-1.022103166555066E-001	8.5247360E-005	-8.3414704E-001	0
7.9554854E+003	6.670719852125330E+001	-8.3603060E-001	-1.050885755087245E-001	8.7857268E-005	-8.3614701E-001	0
7.5744614E+003	6.690719851620088E+001	-8.3804023E-001	-1.106402396684818E-001	9.2720969E-005	-8.3814698E-001	0
7.7302983E+003	6.710719851114845E+001	-8.4004164E-001	-1.086687224741832E-001	9.1286252E-005	-8.4014702E-001	0
7.8831875E+003	6.730719850609603E+001	-8.4204698E-001	-1.068155442822782E-001	8.9943707E-005	-8.4214717E-001	0
7.9335562E+003	6.750719850104360E+001	-8.4404206E-001	-1.063888708579350E-001	8.9796682E-005	-8.4414703E-001	0
7.9753735E+003	6.770719849599118E+001	-8.4603238E-001	-1.060805992992035E-001	8.9747620E-005	-8.4614694E-001	0
7.8977603E+003	6.790719849093875E+001	-8.4804362E-001	-1.073777334988453E-001	9.1061003E-005	-8.4814709E-001	0
7.7667964E+003	6.810719848588633E+001	-8.5004991E-001	-1.094466557107494E-001	9.3035123E-005	-8.5014707E-001	0
7.5964092E+003	6.830719848083390E+001	-8.5203904E-001	-1.121633929905825E-001	9.5567586E-005	-8.5214704E-001	0
7.4390308E+003	6.850719847578148E+001	-8.5404056E-001	-1.148053535710083E-001	9.8048426E-005	-8.5414708E-001	0
7.2549141E+003	6.870719847072905E+001	-8.5604686E-001	-1.179954519647421E-001	1.0100964E-004	-8.5614705E-001	0
7.0424546E+003	6.890719846567663E+001	-8.5804272E-001	-1.218385910974338E-001	1.0454271E-004	-8.5814703E-001	0
6.8226206E+003	6.910719846062420E+001	-8.6005074E-001	-1.260587103272071E-001	1.0841688E-004	-8.6014700E-001	0
6.5507539E+003	6.930719845557178E+001	-8.6205262E-001	-1.315959379364167E-001	1.1344262E-004	-8.6214709E-001	0
6.2657852E+003	6.950719845051935E+001	-8.6403787E-001	-1.378977785590205E-001	1.1914891E-004	-8.6414707E-001	0
5.9799634E+003	6.970719844546693E+001	-8.6604810E-001	-1.448249789915739E-001	1.2542540E-004	-8.6614704E-001	0
5.6468188E+003	6.990719844041450E+001	-8.6805165E-001	-1.537240137358763E-001	1.3344038E-004	-8.6814702E-001	0
5.4374927E+003	7.010719843536208E+001	-8.7004727E-001	-1.600089073160032E-001	1.3921531E-004	-8.7014699E-001	0
5.2386387E+003	7.030719843030965E+001	-8.7207109E-001	-1.664690354093488E-001	1.4517283E-004	-8.7214708E-001	0
5.0228037E+003	7.050719842525723E+001	-8.7404108E-001	-1.740145812850116E-001	1.5209589E-004	-8.7414700E-001	0
4.8317490E+003	7.070719842020480E+001	-8.7604767E-001	-1.813106796759145E-001	1.5883680E-004	-8.7614715E-001	0
4.6816138E+003	7.090719841515238E+001	-8.7802845E-001	-1.875482451259392E-001	1.6467269E-004	-8.7814713E-001	0
4.5576675E+003	7.110719841009995E+001	-8.8001573E-001	-1.930846805713831E-001	1.6991756E-004	-8.8014692E-001	0
4.4659746E+003	7.130719840504753E+001	-8.8202786E-001	-1.974995284744626E-001	1.7420009E-004	-8.8214707E-001	0
4.3936289E+003	7.150719839999510E+001	-8.8403392E-001	-2.012081515833799E-001	1.7787483E-004	-8.8414705E-001	0
4.3182837E+003	7.170719839494268E+001	-8.8603055E-001	-2.051811862141406E-001	1.8179680E-004	-8.8614702E-001	0
4.2922881E+003	7.190719838989025E+001	-8.8804108E-001	-2.068922322163202E-001	1.8372880E-004	-8.8814706E-001	0
4.2401982E+003	7.210719838483783E+001	-8.9001429E-001	-2.098992171754336E-001	1.8681330E-004	-8.9014709E-001	0
4.1785391E+003	7.230719837978540E+001	-8.9204478E-001	-2.134824579205712E-001	1.9043591E-004	-8.9214706E-001	0
4.1040630E+003	7.250719837473298E+001	-8.9401370E-001	-2.178362512880785E-001	1.9474859E-004	-8.9414698E-001	0
4.0238352E+003	7.270719836968055E+001	-8.9602232E-001	-2.226786885596383E-001	1.9952508E-004	-8.9614707E-001	0
3.9540540E+003	7.290719836462813E+001	-8.9802688E-001	-2.271154794520995E-001	2.0395580E-004	-8.9814705E-001	0
3.8768713E+003	7.310719835957570E+001	-9.0003014E-001	-2.321537354192325E-001	2.0894536E-004	-9.0014702E-001	0
3.7714131E+003	7.330719835452328E+001	-9.0202707E-001	-2.391748194437033E-001	2.1574215E-004	-9.0214705E-001	0
3.6874587E+003	7.350719834947085E+001	-9.0402812E-001	-2.451629100827804E-001	2.2163417E-004	-9.0414709E-001	0
3.5790603E+003	7.370719834441843E+001	-9.0601850E-001	-2.531442382750941E-001	2.2935336E-004	-9.0614706E-001	0
3.4534812E+003	7.390719833936600E+001	-9.0805614E-001	-2.629393669998370E-001	2.3876371E-004	-9.0814704E-001	0
3.3410054E+003	7.410719833431358E+001	-9.1005349E-001	-2.723891188257515E-001	2.4788867E-004	-9.1014713E-001	0
3.2244006E+003	7.430719832926115E+001	-9.1204470E-001	-2.828571285900408E-001	2.5797833E-004	-9.1214710E-001	0
3.0843135E+003	7.450719832420873E+001	-9.1404235E-001	-2.963519634303040E-001	2.7087826E-004	-9.1414702E-001	0
2.9564402E+003	7.470719831915630E+001	-9.1604334E-001	-3.098467332194828E-001	2.8383304E-004	-9.1614705E-001	0
2.8015613E+003	7.490719831410388E+001	-9.1804850E-001	-3.276917427512176E-001	3.0083692E-004	-9.1814715E-001	0
2.6446812E+003	7.510719830905146E+001	-9.2005390E-001	-3.478883949748308E-001	3.2007607E-004	-9.2014700E-001	0
2.4896375E+003	7.530719830399903E+001	-9.2205626E-001	-3.703576418784476E-001	3.4149058E-004	-9.2214704E-001	0
2.3271987E+003	7.550719829894661E+001	-9.2405087E-001	-3.970657359056884E-001	3.6690893E-004	-9.2414707E-001	0
2.1702288E+003	7.570719829389418E+001	-9.2605358E-001	-4.267078394496839E-001	3.9515432E-004	-9.2614704E-001	0
2.0222056E+003	7.590719828884176E+001	-9.2803985E-001	-4.589245849438934E-001	4.2590030E-004	-9.2814702E-001	0
1.8797621E+003	7.610719828378933E+001	-9.3006623E-001	-4.947787071335359E-001	4.6017696E-004	-9.3014705E-001	0
1.7460171E+003	7.630719827873691E+001	-9.3206233E-001	-5.338220144674830E-001	4.9755542E-004	-9.3214703E-001	0
1.6211244E+003	7.650719827368448E+001	-9.3406051E-001	-5.761806390453066E-001	5.3818757E-004	-9.3414700E-001	0
1.5051466E+003	7.670719826863206E+001	-9.3607515E-001	-6.219162443977977E-001	5.8216037E-004	-9.3614709E-001	0
1.3969374E+003	7.690719826357963E+001	-9.3807542E-001	-6.715228958921244E-001	6.2993914E-004	-9.3814707E-001	0
1.2799604E+003	7.710719825852721E+001	-9.4003910E-001	-7.344282293806268E-001	6.9039123E-004	-9.4014704E-001	0
1.1955054E+003	7.730719825347478E+001	-9.4203764E-001	-7.879827598029614E-001	7.4230944E-004	-9.4214708E-001	0
1.1165461E+003	7.750719824842236E+001	-9.4402057E-001	-8.454828497081532E-001	7.9815323E-004	-9.4414711E-001	0
1.0450469E+003	7.770719824336993E+001	-9.4603223E-001	-9.052533915439582E-001	8.5639890E-004	-9.4614714E-001	0
9.7658875E+002	7.790719823831751E+001	-9.4802237E-001	-9.707488000832232E-001	9.2029158E-004	-9.4814706E-001	0
9.1258752E+002	7.811719823301246E+001	-9.5011270E-001	-1.041119544506074E+000	9.8918087E-004	-9.5024711E-001	0
8.5456531E+002	7.832719822770741E+001	-9.5218784E-001	-1.114236440771428E+000	1.0609623E-003	-9.5234704E-001	0
8.0396198E+002	7.852719822265499E+001	-9.5420808E-001	-1.186882054800684E+000	1.1325325E-003	-9.5434701E-001	0
7.5759906E+002	7.872719821760256E+001	-9.5620281E-001	-1.262148879493781E+000	1.2068703E-003	-9.5634711E-001	0
7.1546271E+002	7.892719821255014E+001	-9.5818961E-001	-1.339258585809443E+000	1.2832637E-003	-9.5834708E-001	0
6.7680493E+002	7.912719820749771E+001	-9.6020573E-001	-1.418733388557186E+000	1.3622759E-003	-9.6034706E-001	0
6.4048370E+002	7.932719820244529E+001	-9.6221691E-001	-1.502328553505230E+000	1.4455660E-003	-9.6234703E-001	0
6.0228577E+002	7.952719819739286E+001	-9.6421629E-001	-1.600928204146779E+000	1.5436411E-003	-9.6434712E-001	0
5.7309210E+002	7.972719819234044E+001	-9.6620286E-001	-1.685946838807761E+000	1.6289667E-003	-9.6634710E-001	0
5.4563025E+002	7.992719818728801E+001	-9.6821654E-001	-1.774492118211963E+000	1.7180926E-003	-9.6834707E-001	0
5.1964929E+002	8.012719818223559E+001	-9.7020298E-001	-1.867034198610687E+000	1.8114022E-003	-9.7034705E-001	0
4.9552606E+002	8.032719817718316E+001	-9.7222012E-001	-1.961995975095402E+000	1.9074919E-003	-9.7234714E-001	0
4.7393979E+002	8.052719817213074E+001	-9.7421402E-001	-2.055564915258731E+000	2.0025601E-003	-9.7434700E-001	0
4.5497162E+002	8.072719816707831E+001	-9.7620589E-001	-2.145641269259436E+000	2.0945875E-003	-9.7634703E-001	0
4.3620633E+002	8.092719816202589E+001	-9.7820956E-001	-2.242538675969961E+000	2.1936728E-003	-9.7834706E-001	0
4.1723370E+002	8.112719815697346E+001	-9.8021203E-001	-2.349311645761496E+000	2.3028236E-003	-9.8034704E-001	0
3.9918460E+002	8.132719815192104E+001	-9.8221374E-001	-2.460550096029598E+000	2.4167860E-003	-9.8234707E-001	0
3.8381897E+002	8.152719814686861E+001	-9.8419237E-001	-2.564209749132328E+000	2.5236756E-003	-9.8434705E-001	0
3.6941281E+002	8.172719814181619E+001	-9.8621255E-001	-2.669676137686871E+000	2.6328680E-003	-9.8634702E-001	0
3.5576709E+002	8.192719813676376E+001	-9.8821181E-001	-2.777693054455078E+000	2.7449492E-003	-9.8834699E-001	0
3.4301608E+002	8.212719813171134E+001	-9.9022949E-001	-2.886831201325734E+000	2.8586255E-003	-9.9034709E-001	0
3.3079587E+002	8.232719812665891E+001	-9.9221939E-001	-2.999491595171065E+000	2.9761537E-003	-9.9234712E-001	0
3.1920810E+002	8.252719812160649E+001	-9.9423170E-001	-3.114681976063858E+000	3.0967155E-003	-9.9434704E-001	0
3.0642987E+002	8.272719811655406E+001	-9.9622041E-001	-3.251055235731626E+000	3.2387676E-003	-9.9634701E-001	0
2.9636328E+002	8.292719811150164E+001	-9.9822575E-001	-3.368250511502197E+000	3.3622745E-003	-9.9834710E-001	0
2.8667456E+002	8.312719810644921E+001	-1.0002418E+000	-3.489119506476959E+000	3.4899630E-003	-1.0003471E+000	0
2.7757806E+002	8.332719810139679E+001	-1.0022345E+000	-3.610640073579448E+000	3.6187079E-003	-1.0023471E+000	0
2.6888989E+002	8.352719809634436E+001	-1.0042157E+000	-3.734672423190268E+000	3.7504167E-003	-1.0043471E+000	0
2.6059213E+002	8.372719809129194E+001	-1.0062450E+000	-3.861379247201015E+000	3.8854936E-003	-1.0063471E+000	0
2.5201698E+002	8.392719808623951E+001	-1.0082389E+000	-4.000678511366011E+000	4.0336396E-003	-1.0083469E+000	0
2.4368202E+002	8.412719808118709E+001	-1.0102439E+000	-4.145746559107380E+000	4.1882154E-003	-1.0103470E+000	0
2.3651688E+002	8.432719807613466E+001	-1.0122505E+000	-4.279823795501617E+000	4.3322542E-003	-1.0123471E+000	0
2.2968382E+002	8.452719807108224E+001	-1.0142446E+000	-4.415829300677686E+000	4.4787307E-003	-1.0143470E+000	0
2.2304214E+002	8.472719806602981E+001	-1.0162355E+000	-4.556248784943776E+000	4.6302215E-003	-1.0163469E+000	0
2.1675301E+002	8.492719806097739E+001	-1.0182351E+000	-4.697674610278199E+000	4.7833370E-003	-1.0183470E+000	0
2.1032126E+002	8.512719805592496E+001	-1.0202280E+000	-4.850808076442213E+000	4.9489303E-003	-1.0203471E+000	0
2.0392358E+002	8.532719805087254E+001	-1.0222464E+000	-5.012889255336631E+000	5.1244078E-003	-1.0223471E+000	0
1.9835638E+002	8.552719804582011E+001	-1.0242395E+000	-5.163632786699701E+000	5.2887970E-003	-1.0243469E+000	0
1.9288467E+002	8.572719804076769E+001	-1.0262597E+000	-5.320586701909969E+000	5.4603033E-003	-1.0263469E+000	0
1.8765935E+002	8.592719803571526E+001	-1.0282640E+000	-5.479418224690981E+000	5.6342888E-003	-1.0283470E+000	0
1.8257054E+002	8.612719803066284E+001	-1.0302714E+000	-5.643141560949175E+000	5.8139674E-003	-1.0303470E+000	0
1.7715509E+002	8.632719802561041E+001	-1.0322654E+000	-5.826902459876088E+000	6.0149101E-003	-1.0323471E+000	0
1.7256076E+002	8.652719802055799E+001	-1.0342517E+000	-5.993550584159522E+000	6.1988398E-003	-1.0343471E+000	0
1.6808578E+002	8.672719801550556E+001	-1.0362422E+000	-6.164960523987020E+000	6.3883928E-003	-1.0363470E+000	0
1.6377563E+002	8.692719801045314E+001	-1.0382626E+000	-6.339542313227604E+000	6.5821097E-003	-1.0383470E+000	0
1.5928177E+002	8.712719800540071E+001	-1.0402544E+000	-6.530906428893417E+000	6.7938040E-003	-1.0403471E+000	0
1.5493388E+002	8.732719800034829E+001	-1.0422609E+000	-6.727133398018168E+000	7.0114280E-003	-1.0423471E+000	0
1.5100626E+002	8.752719799529586E+001	-1.0442572E+000	-6.915323915057201E+000	7.2213765E-003	-1.0443470E+000	0
1.4722430E+002	8.772719799024344E+001	-1.0462538E+000	-7.106529452362821E+000	7.4352333E-003	-1.0463470E+000	0
1.4355812E+002	8.792719798519101E+001	-1.0482602E+000	-7.301991462166856E+000	7.6543870E-003	-1.0483470E+000	0
1.3948109E+002	8.812719798013859E+001	-1.0502634E+000	-7.529790711511026E+000	7.9082632E-003	-1.0503471E+000	0
1.3603433E+002	8.832719797508616E+001	-1.0522645E+000	-7.735285609487534E+000	8.1395665E-003	-1.0523471E+000	0
1.3271724E+002	8.852719797003374E+001	-1.0542691E+000	-7.943724009860944E+000	8.3748223E-003	-1.0543470E+000	0
1.2927992E+002	8.872719796498131E+001	-1.0562618E+000	-8.170346233039229E+000	8.6300243E-003	-1.0563470E+000	0
1.2587228E+002	8.892719795992889E+001	-1.0582532E+000	-8.407356546849684E+000	8.8971118E-003	-1.0583470E+000	0
1.2279987E+002	8.912719795487646E+001	-1.0602807E+000	-8.634216611009606E+000	9.1546932E-003	-1.0603471E+000	0
1.1982124E+002	8.932719794982404E+001	-1.0622754E+000	-8.865501561808202E+000	9.4176047E-003	-1.0623471E+000	0
1.1661667E+002	8.952719794477161E+001	-1.0642723E+000	-9.126244769412622E+000	9.7128097E-003	-1.0643470E+000	0
1.1373090E+002	8.972719793971919E+001	-1.0662718E+000	-9.375391750716773E+000	9.9967159E-003	-1.0663471E+000	0
1.1098109E+002	8.992719793466676E+001	-1.0682751E+000	-9.625739320470601E+000	1.0282937E-002	-1.0683471E+000	0
1.0818489E+002	9.012719792961434E+001	-1.0702617E+000	-9.892894722639532E+000	1.0587987E-002	-1.0703471E+000	0
1.0543694E+002	9.032719792456192E+001	-1.0722642E+000	-1.016972043069580E+001	1.0904627E-002	-1.0723472E+000	0
1.0295418E+002	9.052719791950949E+001	-1.0742705E+000	-1.043445236146317E+001	1.1209425E-002	-1.0743471E+000	0
1.0012421E+002	9.073719791420444E+001	-1.0763513E+000	-1.075015993051380E+001	1.1570948E-002	-1.0764471E+000	0
9.7221497E+001	9.094719790889940E+001	-1.0784221E+000	-1.109242443811326E+001	1.1962315E-002	-1.0785470E+000	0
9.4752182E+001	9.114719790384697E+001	-1.0804168E+000	-1.140255296115430E+001	1.2319510E-002	-1.0805471E+000	0
9.2105499E+001	9.134719789879455E+001	-1.0824279E+000	-1.175204403465301E+001	1.2720739E-002	-1.0825471E+000	0
9.0486557E+001	9.154719789374212E+001	-1.0844367E+000	-1.198450583516879E+001	1.2996437E-002	-1.0845470E+000	0
8.8394257E+001	9.174719788868970E+001	-1.0864379E+000	-1.229082064117711E+001	1.3353214E-002	-1.0865470E+000	0
8.6120529E+001	9.194719788363727E+001	-1.0884326E+000	-1.263847976868917E+001	1.3756133E-002	-1.0885471E+000	0
8.4177315E+001	9.214719787858485E+001	-1.0904264E+000	-1.295392261813822E+001	1.4125300E-002	-1.0905471E+000	0
8.2043861E+001	9.234719787353242E+001	-1.0924190E+000	-1.331506050295302E+001	1.4545625E-002	-1.0925472E+000	0
8.0116371E+001	9.254719786848000E+001	-1.0944279E+000	-1.366047841986287E+001	1.4950410E-002	-1.0945472E+000	0
7.8210045E+001	9.274719786342757E+001	-1.0964212E+000	-1.401893179392317E+001	1.5370655E-002	-1.0965470E+000	0
7.6224648E+001	9.294719785837515E+001	-1.0984176E+000	-1.441026844161971E+001	1.5828492E-002	-1.0985471E+000	0
7.4402290E+001	9.314719785332272E+001	-1.1004325E+000	-1.479030357331649E+001	1.6275732E-002	-1.1005471E+000	0
7.2520943E+001	9.334719784827030E+001	-1.1024247E+000	-1.520146719263244E+001	1.6758474E-002	-1.1025472E+000	0
7.0880104E+001	9.354719784321787E+001	-1.1044303E+000	-1.558166974688335E+001	1.7208869E-002	-1.1045470E+000	0
6.9126968E+001	9.374719783816545E+001	-1.1064310E+000	-1.600577977928180E+001	1.7709291E-002	-1.1065470E+000	0
6.7583641E+001	9.394719783311302E+001	-1.1084242E+000	-1.640077560234502E+001	1.8179016E-002	-1.1085471E+000	0
6.5722137E+001	9.414719782806060E+001	-1.1104352E+000	-1.689590878321744E+001	1.8761812E-002	-1.1105471E+000	0
6.4103729E+001	9.434719782300817E+001	-1.1124421E+000	-1.735378094352026E+001	1.9305076E-002	-1.1125470E+000	0
6.2506535E+001	9.454719781795575E+001	-1.1144356E+000	-1.782910524312061E+001	1.9869389E-002	-1.1145470E+000	0
6.0974258E+001	9.474719781290332E+001	-1.1164328E+000	-1.830990364843490E+001	2.0441776E-002	-1.1165470E+000	0
5.9476326E+001	9.494719780785090E+001	-1.1184300E+000	-1.880462506068812E+001	2.1031657E-002	-1.1185470E+000	0
5.7993919E+001	9.514719780279847E+001	-1.1204417E+000	-1.931998497788328E+001	2.1646917E-002	-1.1205471E+000	0
5.6456715E+001	9.534719779774605E+001	-1.1224388E+000	-1.988140449921289E+001	2.2315660E-002	-1.1225471E+000	0
5.4951859E+001	9.554719779269362E+001	-1.1244339E+000	-2.046216215744046E+001	2.3008348E-002	-1.1245470E+000	0
5.3547031E+001	9.574719778764120E+001	-1.1264522E+000	-2.103668824358587E+001	2.3696823E-002	-1.1265470E+000	0
5.2259876E+001	9.594719778258877E+001	-1.1284350E+000	-2.159276159644938E+001	2.4366029E-002	-1.1285471E+000	0
5.1039265E+001	9.614719777753635E+001	-1.1304394E+000	-2.214842670520693E+001	2.5037454E-002	-1.1305472E+000	0
4.9759567E+001	9.634719777248392E+001	-1.1324434E+000	-2.275830550245144E+001	2.5772493E-002	-1.1325470E+000	0
4.8575161E+001	9.654719776743150E+001	-1.1344538E+000	-2.335460744855629E+001	2.6494723E-002	-1.1345470E+000	0
4.7397846E+001	9.674719776237907E+001	-1.1364546E+000	-2.397692495151981E+001	2.7248686E-002	-1.1365470E+000	0
4.6211353E+001	9.694719775732665E+001	-1.1384497E+000	-2.463571353929113E+001	2.8046520E-002	-1.1385471E+000	0
4.5033951E+001	9.714719775227422E+001	-1.1404241E+000	-2.532365221555541E+001	2.8879704E-002	-1.1405470E+000	0
4.3905029E+001	9.734719774722180E+001	-1.1424450E+000	-2.602082181517494E+001	2.9727357E-002	-1.1425470E+000	0
4.2891613E+001	9.754719774216937E+001	-1.1444520E+000	-2.668241765007144E+001	3.0536745E-002	-1.1445471E+000	0
4.1837715E+001	9.774719773711695E+001	-1.1464422E+000	-2.740212212722577E+001	3.1414948E-002	-1.1465471E+000	0
4.0835964E+001	9.794719773206452E+001	-1.1484745E+000	-2.812409273675246E+001	3.2299802E-002	-1.1485471E+000	0
3.9811775E+001	9.814719772701210E+001	-1.1504666E+000	-2.889764571460201E+001	3.3245776E-002	-1.1505471E+000	0
3.8863415E+001	9.834719772195967E+001	-1.1524765E+000	-2.965453781995114E+001	3.4176160E-002	-1.1525471E+000	0
3.7910789E+001	9.854719771690725E+001	-1.1544627E+000	-3.045208777673119E+001	3.5155799E-002	-1.1545471E+000	0
3.6980877E+001	9.874719771185482E+001	-1.1564692E+000	-3.127208696498342E+001	3.6165208E-002	-1.1565471E+000	0
3.6070480E+001	9.894719770680240E+001	-1.1584598E+000	-3.211656124899991E+001	3.7205745E-002	-1.1585470E+000	0
3.5187027E+001	9.914719770174997E+001	-1.1604669E+000	-3.297996608362172E+001	3.8272161E-002	-1.1605471E+000	0
3.4316246E+001	9.934719769669755E+001	-1.1624690E+000	-3.387518008522977E+001	3.9378848E-002	-1.1625471E+000	0
3.3427612E+001	9.954719769164512E+001	-1.1644694E+000	-3.483555126541580E+001	4.0564932E-002	-1.1645471E+000	0
3.2608521E+001	9.974719768659270E+001	-1.1664630E+000	-3.577172510937490E+001	4.1726395E-002	-1.1665471E+000	0
3.1781582E+001	9.994719768154027E+001	-1.1684736E+000	-3.676574662618350E+001	4.2959806E-002	-1.1685470E+000	0
3.1010353E+001	1.001471976764878E+002	-1.1704658E+000	-3.774435720584302E+001	4.4178478E-002	-1.1705471E+000	0
3.0217060E+001	1.003471976714354E+002	-1.1724453E+000	-3.880077423530383E+001	4.5491785E-002	-1.1725471E+000	0
2.9403996E+001	1.005471976663830E+002	-1.1744316E+000	-3.994122344971788E+001	4.6908233E-002	-1.1745471E+000	0
2.8685356E+001	1.007471976613306E+002	-1.1764531E+000	-4.101232428291212E+001	4.8249077E-002	-1.1765471E+000	0
2.7938774E+001	1.009471976562781E+002	-1.1784562E+000	-4.217995352431478E+001	4.9707226E-002	-1.1785471E+000	0
2.7221104E+001	1.011471976512257E+002	-1.1804553E+000	-4.336544687920934E+001	5.1190972E-002	-1.1805471E+000	0
2.6450993E+001	1.013471976461733E+002	-1.1824654E+000	-4.470400835732517E+001	5.2860945E-002	-1.1825471E+000	0
2.5726000E+001	1.015471976411209E+002	-1.1844770E+000	-4.604201761773390E+001	5.4535709E-002	-1.1845471E+000	0
2.5062531E+001	1.017471976360684E+002	-1.1864766E+000	-4.734065495218545E+001	5.6168579E-002	-1.1865469E+000	0
2.4394238E+001	1.019471976310160E+002	-1.1884822E+000	-4.871979066979571E+001	5.7902601E-002	-1.1885470E+000	0
2.3712109E+001	1.021471976259636E+002	-1.1904684E+000	-5.020508362295391E+001	5.9767567E-002	-1.1905471E+000	0
2.3079647E+001	1.023471976209112E+002	-1.1924692E+000	-5.166756756181360E+001	6.1611984E-002	-1.1925471E+000	0
2.2432035E+001	1.025471976158588E+002	-1.1944858E+000	-5.324910267626615E+001	6.3605294E-002	-1.1945471E+000	0
2.1814587E+001	1.027471976108063E+002	-1.1964827E+000	-5.484782853040025E+001	6.5624475E-002	-1.1965470E+000	0
2.1245794E+001	1.029471976057539E+002	-1.1984682E+000	-5.640966626630097E+001	6.7605190E-002	-1.1985471E+000	0
2.0687485E+001	1.031471976007015E+002	-1.2004683E+000	-5.802872235055975E+001	6.9661640E-002	-1.2005471E+000	0
2.0098404E+001	1.033471975956491E+002	-1.2024988E+000	-5.983055981540917E+001	7.1946174E-002	-1.2025470E+000	0
1.9527626E+001	1.035471975905966E+002	-1.2044861E+000	-6.168113630536988E+001	7.4294075E-002	-1.2045470E+000	0
1.8986494E+001	1.037471975855442E+002	-1.2064848E+000	-6.354437033227225E+001	7.6665320E-002	-1.2065470E+000	0
1.8458071E+001	1.039471975804918E+002	-1.2085202E+000	-6.547380575193029E+001	7.9126418E-002	-1.2085470E+000	0
1.7909777E+001	1.041471975754394E+002	-1.2104969E+000	-6.758860599156640E+001	8.1815802E-002	-1.2105471E+000	0
1.7450146E+001	1.043471975703869E+002	-1.2125080E+000	-6.948411646559663E+001	8.4250048E-002	-1.2125471E+000	0
1.6925541E+001	1.045471975653345E+002	-1.2145220E+000	-7.175675843632393E+001	8.7150164E-002	-1.2145470E+000	0
1.6453485E+001	1.047471975602821E+002	-1.2165329E+000	-7.393770715114499E+001	8.9947656E-002	-1.2165470E+000	0
1.6011278E+001	1.049471975552297E+002	-1.2185463E+000	-7.610549966548305E+001	9.2738070E-002	-1.2185471E+000	0
1.5542240E+001	1.051471975501772E+002	-1.2205496E+000	-7.853112538439336E+001	9.5851131E-002	-1.2205471E+000	0
1.5069822E+001	1.053471975451248E+002	-1.2225327E+000	-8.112456371346309E+001	9.9177435E-002	-1.2225471E+000	0
1.4640922E+001	1.055471975400724E+002	-1.2245412E+000	-8.363826067972047E+001	1.0241850E-001	-1.2245470E+000	0
1.4204017E+001	1.057471975350200E+002	-1.2265403E+000	-8.635165310014122E+001	1.0591379E-001	-1.2265470E+000	0
1.3772560E+001	1.059471975299675E+002	-1.2285281E+000	-8.920114497965460E+001	1.0958612E-001	-1.2285471E+000	0
1.3381178E+001	1.061471975249151E+002	-1.2305385E+000	-9.196040126039293E+001	1.1316081E-001	-1.2305471E+000	0
1.3013767E+001	1.063471975198627E+002	-1.2325333E+000	-9.470995421744817E+001	1.1673318E-001	-1.2325470E+000	0
1.2668386E+001	1.065471975148103E+002	-1.2345437E+000	-9.745075036284584E+001	1.2030721E-001	-1.2345470E+000	0
1.2282552E+001	1.067471975097578E+002	-1.2365365E+000	-1.006742347168006E+002	1.2448736E-001	-1.2365470E+000	0
1.1872658E+001	1.069471975047054E+002	-1.2385576E+000	-1.043201622779138E+002	1.2920652E-001	-1.2385471E+000	0
1.1573109E+001	1.071471974996530E+002	-1.2405493E+000	-1.071924033359610E+002	1.3297747E-001	-1.2405471E+000	0
1.1201373E+001	1.073571974943479E+002	-1.2426244E+000	-1.109350069260113E+002	1.3785055E-001	-1.2426472E+000	0
1.0843583E+001	1.075671974890429E+002	-1.2447199E+000	-1.147886166594203E+002	1.4287966E-001	-1.2447470E+000	0
1.0545666E+001	1.077671974839905E+002	-1.2467138E+000	-1.182204901604425E+002	1.4738712E-001	-1.2467470E+000	0
1.0254676E+001	1.079671974789380E+002	-1.2487237E+000	-1.217711545626314E+002	1.5205853E-001	-1.2487471E+000	0
9.9063511E+000	1.081671974738856E+002	-1.2507340E+000	-1.262557674676113E+002	1.5791237E-001	-1.2507471E+000	0
9.6074524E+000	1.083671974688332E+002	-1.2527303E+000	-1.303915141910111E+002	1.6334540E-001	-1.2527471E+000	0
9.2294893E+000	1.085671974637808E+002	-1.2547235E+000	-1.359472387274920E+002	1.7057620E-001	-1.2547470E+000	0
9.0230589E+000	1.087671974587283E+002	-1.2567326E+000	-1.392801038434991E+002	1.7503785E-001	-1.2567471E+000	0
8.7151833E+000	1.089671974536759E+002	-1.2587360E+000	-1.444302382274550E+002	1.8179955E-001	-1.2587471E+000	0
8.4274855E+000	1.091671974486235E+002	-1.2607311E+000	-1.495975442538188E+002	1.8860228E-001	-1.2607472E+000	0
8.2147064E+000	1.093671974435711E+002	-1.2627302E+000	-1.537158160101526E+002	1.9410162E-001	-1.2627470E+000	0
7.9645514E+000	1.095671974385186E+002	-1.2647213E+000	-1.587937876069896E+002	2.0082988E-001	-1.2647470E+000	0
7.7741432E+000	1.097671974334662E+002	-1.2667465E+000	-1.629435533774413E+002	2.0640817E-001	-1.2667471E+000	0
7.5465670E+000	1.099671974284138E+002	-1.2687447E+000	-1.681221010106485E+002	2.1330403E-001	-1.2687471E+000	0
7.4191980E+000	1.101671974233614E+002	-1.2707509E+000	-1.712787429372738E+002	2.1765262E-001	-1.2707471E+000	0
7.1885681E+000	1.103671974183089E+002	-1.2727536E+000	-1.770524442082363E+002	2.2534414E-001	-1.2727470E+000	0
7.0024362E+000	1.105671974132565E+002	-1.2747602E+000	-1.820452567898502E+002	2.3206405E-001	-1.2747470E+000	0
6.8381252E+000	1.107671974082041E+002	-1.2767693E+000	-1.867133535700859E+002	2.3838988E-001	-1.2767470E+000	0
6.6755686E+000	1.109671974031517E+002	-1.2787719E+000	-1.915599948500287E+002	2.4496153E-001	-1.2787472E+000	0
6.5251756E+000	1.111671973980992E+002	-1.2807753E+000	-1.962821275912170E+002	2.5139329E-001	-1.2807472E+000	0
6.3913693E+000	1.113671973930468E+002	-1.2827772E+000	-2.007045911855978E+002	2.5745928E-001	-1.2827470E+000	0
6.2635927E+000	1.115671973879944E+002	-1.2847811E+000	-2.051188720824230E+002	2.6353285E-001	-1.2847471E+000	0
6.0777612E+000	1.117671973829420E+002	-1.2867873E+000	-2.117206025869673E+002	2.7243939E-001	-1.2867471E+000	0
5.9844980E+000	1.119671973778895E+002	-1.2887739E+000	-2.153520515078586E+002	2.7754009E-001	-1.2887472E+000	0
5.7878656E+000	1.121671973728371E+002	-1.2907737E+000	-2.230137708560142E+002	2.8786033E-001	-1.2907470E+000	0
5.6460395E+000	1.123671973677847E+002	-1.2927946E+000	-2.289737069590562E+002	2.9601598E-001	-1.2927470E+000	0
5.4875245E+000	1.125671973627323E+002	-1.2947841E+000	-2.359504889858017E+002	3.0550495E-001	-1.2947470E+000	0
5.3838458E+000	1.127671973576798E+002	-1.2967683E+000	-2.408628253915144E+002	3.1234327E-001	-1.2967470E+000	0
5.2227201E+000	1.129671973526274E+002	-1.2987986E+000	-2.486823971049844E+002	3.2298833E-001	-1.2987471E+000	0
5.0929222E+000	1.131671973475750E+002	-1.3008004E+000	-2.554133830232677E+002	3.3224183E-001	-1.3007470E+000	0
4.9936447E+000	1.133671973425226E+002	-1.3028126E+000	-2.608941357325001E+002	3.3989617E-001	-1.3027470E+000	0
4.7752905E+000	1.135671973374701E+002	-1.3047975E+000	-2.732394050827356E+002	3.5652211E-001	-1.3047470E+000	0
4.7984948E+000	1.137671973324177E+002	-1.3068117E+000	-2.723378307662582E+002	3.5589427E-001	-1.3067471E+000	0
4.6833839E+000	1.139671973273653E+002	-1.3088009E+000	-2.794562612585464E+002	3.6575261E-001	-1.3087471E+000	0
4.5587249E+000	1.141671973223129E+002	-1.3107949E+000	-2.875354283283079E+002	3.7689999E-001	-1.3107470E+000	0
4.3856587E+000	1.143671973172604E+002	-1.3128335E+000	-2.993469320219401E+002	3.9299271E-001	-1.3127471E+000	0
4.4114623E+000	1.145671973122080E+002	-1.3147974E+000	-2.980411739219599E+002	3.9186376E-001	-1.3147470E+000	0
4.3395166E+000	1.147671973071556E+002	-1.3167950E+000	-3.034427795410156E+002	3.9957193E-001	-1.3167471E+000	0
4.2427082E+000	1.149671973021032E+002	-1.3188101E+000	-3.108415847938346E+002	4.0994102E-001	-1.3187470E+000	0
4.1302667E+000	1.151671972970507E+002	-1.3208003E+000	-3.197857148285093E+002	4.2237306E-001	-1.3207471E+000	0
3.9110992E+000	1.153671972919983E+002	-1.3228189E+000	-3.382217750506070E+002	4.4740614E-001	-1.3227471E+000	0
3.7802074E+000	1.155671972869459E+002	-1.3248327E+000	-3.504655968240068E+002	4.6430826E-001	-1.3247471E+000	0
3.7377276E+000	1.157671972818935E+002	-1.3268523E+000	-3.549890346267593E+002	4.7101802E-001	-1.3267471E+000	0
3.7382255E+000	1.159671972768410E+002	-1.3288231E+000	-3.554689606971490E+002	4.7235537E-001	-1.3287472E+000	0
3.6497102E+000	1.161671972717886E+002	-1.3308350E+000	-3.646412758124352E+002	4.8527735E-001	-1.3307471E+000	0
3.5843999E+000	1.163671972667362E+002	-1.3328289E+000	-3.718415705016978E+002	4.9560118E-001	-1.3327471E+000	0
3.5413516E+000	1.165671972616838E+002	-1.3348531E+000	-3.769332134285751E+002	5.0315046E-001	-1.3347471E+000	0
3.4271030E+000	1.167671972566313E+002	-1.3368307E+000	-3.900760133855742E+002	5.2146560E-001	-1.3367471E+000	0
3.3336112E+000	1.169671972515789E+002	-1.3388602E+000	-4.016245677671191E+002	5.3771913E-001	-1.3387471E+000	0
3.2965963E+000	1.171671972465265E+002	-1.3408853E+000	-4.067484039081737E+002	5.4540294E-001	-1.3407471E+000	0
3.2131343E+000	1.173671972414741E+002	-1.3428963E+000	-4.179396744639416E+002	5.6124967E-001	-1.3427470E+000	0
3.1971266E+000	1.175671972364216E+002	-1.3448753E+000	-4.206512574868411E+002	5.6572348E-001	-1.3447471E+000	0
3.1721044E+000	1.177671972313692E+002	-1.3468866E+000	-4.246035049204902E+002	5.7189280E-001	-1.3467470E+000	0
3.1308374E+000	1.179671972263168E+002	-1.3488963E+000	-4.308419994042870E+002	5.8116114E-001	-1.3487471E+000	0
2.9866171E+000	1.181671972212644E+002	-1.3509027E+000	-4.523186820456231E+002	6.1103851E-001	-1.3507471E+000	0
3.0130589E+000	1.183671972162119E+002	-1.3528919E+000	-4.490094480449679E+002	6.0746127E-001	-1.3527471E+000	0
2.8887398E+000	1.185671972111595E+002	-1.3549125E+000	-4.690323884319578E+002	6.3549787E-001	-1.3547471E+000	0
2.8784435E+000	1.187671972061071E+002	-1.3569337E+000	-4.714123174576503E+002	6.3967526E-001	-1.3567470E+000	0
2.8290453E+000	1.189671972010547E+002	-1.3589448E+000	-4.803545633346312E+002	6.5277535E-001	-1.3587471E+000	0
2.7618923E+000	1.191671971960022E+002	-1.3609490E+000	-4.927596271627353E+002	6.7062074E-001	-1.3607471E+000	0
2.6970317E+000	1.193671971909498E+002	-1.3629678E+000	-5.053584650476514E+002	6.8878734E-001	-1.3627471E+000	0
2.7213528E+000	1.195671971858974E+002	-1.3649720E+000	-5.015784786077311E+002	6.8464059E-001	-1.3647469E+000	0
2.6470871E+000	1.197671971808450E+002	-1.3669463E+000	-5.163964143394060E+002	7.0588619E-001	-1.3667470E+000	0
2.6906264E+000	1.199671971757925E+002	-1.3689523E+000	-5.087856954457802E+002	6.9650334E-001	-1.3687471E+000	0
2.7148535E+000	1.201671971707401E+002	-1.3709366E+000	-5.049762606501843E+002	6.9229043E-001	-1.3707470E+000	0
2.6040354E+000	1.203671971656877E+002	-1.3729537E+000	-5.272407815851034E+002	7.2387713E-001	-1.3727471E+000	0
2.5621800E+000	1.205671971606353E+002	-1.3749608E+000	-5.366370686122355E+002	7.3785490E-001	-1.3747470E+000	0
2.5028031E+000	1.207671971555828E+002	-1.3769740E+000	-5.501727427398228E+002	7.5757354E-001	-1.3767470E+000	0
2.3537946E+000	1.209671971505304E+002	-1.3790017E+000	-5.858632204224460E+002	8.0790639E-001	-1.3787471E+000	0
2.3077724E+000	1.211671971454780E+002	-1.3810017E+000	-5.984132869443674E+002	8.2640976E-001	-1.3807471E+000	0
2.3653159E+000	1.213671971404256E+002	-1.3829930E+000	-5.846969397495141E+002	8.0863178E-001	-1.3827471E+000	0
2.3692584E+000	1.215671971353731E+002	-1.3849995E+000	-5.845708689830180E+002	8.0963039E-001	-1.3847470E+000	0
2.3854873E+000	1.217471971308260E+002	-1.3867904E+000	-5.813446795961263E+002	8.0620325E-001	-1.3865470E+000	0
2.3576353E+000	1.218225971289212E+002	-1.3876892E+000	-5.885937025282119E+002	8.1678516E-001	-1.3874468E+000	1