EC-Lab ASCII FILE
Nb header lines : 61                          

Linear Sweep Voltammetry

Run on channel : 1 (SN 1340)
User : 
Electrode connection : standard
Potential control : Ewe
Ewe ctrl range : min = -5.00 V, max = 5.00 V
Ewe,I filtering : <None>
Channel : Grounded
Acquisition started on : 02/16/2026 17:54:13.528
Technique started on : 02/16/2026 17:54:16.209
Loaded Setting File :  C:\Users\volt\Documents\Platalytix\PtPd_40_CoNi_2_12.mps
Saved on :
	File : PtPdNi25Co25Cr_polished_2_16_02_02_LSV_C01.mpr
	Directory : C:\Users\volt\Documents\Platalytix\
	Host : 127.0.0.1
Device : SP-200 (SN 0262)
Address : USB
EC-LAB for windows v11.60 (software)
Internet server v11.60 (firmware)
Command interpretor v11.60 (firmware)
Electrode material : Pt_40
Initial state : 
Electrolyte : KOH (1M)
Comments : 
Cable : standard
Reference electrode : Hg/HgO (0.140 V)
Electrode surface area : 1.000 cm˛
Characteristic mass : 0.001 g
Equivalent Weight : 0.000 g/eq.
Density : 0.000 g/cm3
Volume (V) : 0.001 cmł
Cycle Definition : Charge/Discharge alternance
tR (h:m:s)          0:00:5.0000         
dER/dt (mV/h)       0.0                 
dER (mV)            0                   
dtR (s)             0.0000              
dE/dt               10.000              
dE/dt unit          mV/s                
Ei (V)              -0.200              
vs.                 Ref                 
EL (V)              -2.500              
vs.                 Ref                 
record              <I>                 
dI                  0.000               
unit dI             µA                  
tI (s)              0.0000              
step percent        50                  
N                   10                  
E range min (V)     -5.000              
E range max (V)     5.000               
I Range             Auto                
I Range min         Unset               
I Range max         Unset               
I Range init        Unset               
Bandwidth           8                   

Rwe/Ohm	time/s	Ewe/V	<I>/mA	Pwe/W	control/V	error	
0.0000000E+000	2.681400127330562E+000	-1.4582734E-001	0.000000000000000E+000	0.0000000E+000	0.0000000E+000	0
0.0000000E+000	7.681200001024990E+000	-6.8178326E-002	0.000000000000000E+000	0.0000000E+000	-1.9988203E-001	0
1.3187889E+003	7.881199995972565E+000	-2.0141523E-001	1.527274095267057E-001	-3.0761625E-005	-2.0178181E-001	0
6.7804180E+003	8.001199992941110E+000	-2.0278779E-001	-2.990785909838001E-002	6.0649486E-006	-2.0298187E-001	0
3.3306843E+003	8.211199987636064E+000	-2.0483381E-001	-6.149901670843061E-002	1.2597077E-005	-2.0508187E-001	0
3.1980073E+003	8.411199982583639E+000	-2.0689902E-001	-6.469623017222000E-002	1.3385586E-005	-2.0708185E-001	0
3.2232722E+003	8.611199977531214E+000	-2.0885536E-001	-6.479606697549123E-002	1.3533006E-005	-2.0908187E-001	0
3.2918328E+003	8.811199972478789E+000	-2.1086922E-001	-6.405830587463202E-002	1.3507925E-005	-2.1108186E-001	0
3.3677356E+003	9.011199967426364E+000	-2.1280603E-001	-6.318965043857849E-002	1.3447138E-005	-2.1308187E-001	0
3.4514668E+003	9.211199962373939E+000	-2.1488246E-001	-6.225830112803554E-002	1.3378217E-005	-2.1508187E-001	0
3.5326204E+003	9.411199957321514E+000	-2.1685389E-001	-6.138612841712110E-002	1.3311820E-005	-2.1708184E-001	0
3.6154309E+003	9.611199952269089E+000	-2.1889046E-001	-6.054339254255969E-002	1.3252371E-005	-2.1908186E-001	0
3.6923911E+003	9.811199947216664E+000	-2.2086525E-001	-5.981632131743198E-002	1.3211346E-005	-2.2108187E-001	0
3.7749509E+003	1.001119994216424E+001	-2.2288398E-001	-5.904288403056301E-002	1.3159713E-005	-2.2308187E-001	0
3.8532429E+003	1.021119993711181E+001	-2.2488786E-001	-5.836327246742934E-002	1.3125192E-005	-2.2508185E-001	0
3.9292925E+003	1.041119993205939E+001	-2.2687605E-001	-5.773967077856340E-002	1.3099749E-005	-2.2708188E-001	0
4.0041326E+003	1.061119992700696E+001	-2.2885618E-001	-5.715499577786165E-002	1.3080274E-005	-2.2908185E-001	0
4.0770332E+003	1.081119992195454E+001	-2.3084794E-001	-5.662154968745592E-002	1.3070968E-005	-2.3108184E-001	0
4.1522925E+003	1.101119991690211E+001	-2.3288664E-001	-5.608628310111115E-002	1.3061746E-005	-2.3308188E-001	0
4.2188330E+003	1.121119991184969E+001	-2.3479882E-001	-5.565492006213024E-002	1.3067710E-005	-2.3508185E-001	0
4.2953872E+003	1.141119990679726E+001	-2.3689356E-001	-5.515068852344801E-002	1.3064843E-005	-2.3708186E-001	0
4.3638267E+003	1.161119990174484E+001	-2.3884204E-001	-5.473224767124779E-002	1.3072362E-005	-2.3908186E-001	0
4.4339297E+003	1.181119989669241E+001	-2.4089409E-001	-5.432970688969774E-002	1.3087705E-005	-2.4108185E-001	0
4.5018066E+003	1.201119989163999E+001	-2.4285105E-001	-5.394524125680067E-002	1.3100658E-005	-2.4308185E-001	0
4.5685781E+003	1.221119988658756E+001	-2.4484096E-001	-5.359237854181043E-002	1.3121609E-005	-2.4508186E-001	0
4.6370513E+003	1.241119988153514E+001	-2.4687158E-001	-5.323891190689500E-002	1.3143174E-005	-2.4708186E-001	0
4.7055210E+003	1.261119987648271E+001	-2.4886355E-001	-5.288756485234392E-002	1.3161787E-005	-2.4908185E-001	0
4.7739106E+003	1.281119987143029E+001	-2.5089586E-001	-5.255562675928838E-002	1.3185989E-005	-2.5108185E-001	0
4.8401055E+003	1.301119986637787E+001	-2.5286493E-001	-5.224368157648707E-002	1.3210595E-005	-2.5308186E-001	0
4.9077549E+003	1.321119986132544E+001	-2.5487199E-001	-5.193250251262370E-002	1.3236140E-005	-2.5508186E-001	0
4.9720483E+003	1.341119985627302E+001	-2.5687760E-001	-5.166434009122300E-002	1.3271412E-005	-2.5708187E-001	0
5.0403940E+003	1.361119985122059E+001	-2.5885579E-001	-5.135626103116564E-002	1.3293866E-005	-2.5908184E-001	0
5.1036924E+003	1.381119984616817E+001	-2.6086858E-001	-5.111369664058563E-002	1.3333957E-005	-2.6108187E-001	0
5.1715410E+003	1.401119984111574E+001	-2.6283342E-001	-5.082303782832076E-002	1.3357992E-005	-2.6308185E-001	0
5.2346387E+003	1.421119983606332E+001	-2.6483732E-001	-5.059323660647119E-002	1.3398977E-005	-2.6508188E-001	0
5.3005898E+003	1.441119983101089E+001	-2.6688486E-001	-5.035003076007594E-002	1.3437661E-005	-2.6708186E-001	0
5.3644199E+003	1.461119982595847E+001	-2.6887161E-001	-5.012128382916980E-002	1.3476190E-005	-2.6908186E-001	0
5.4292690E+003	1.481119982090604E+001	-2.7082792E-001	-4.988294383648229E-002	1.3509694E-005	-2.7108186E-001	0
5.4950654E+003	1.501119981585362E+001	-2.7289036E-001	-4.966098303872846E-002	1.3552003E-005	-2.7308184E-001	0
5.5584819E+003	1.521119981080119E+001	-2.7487791E-001	-4.945197624107922E-002	1.3593256E-005	-2.7508187E-001	0
5.6268125E+003	1.541119980574877E+001	-2.7686736E-001	-4.920500834090247E-002	1.3623261E-005	-2.7708188E-001	0
5.6846226E+003	1.561119980069634E+001	-2.7882564E-001	-4.904910545720104E-002	1.3676148E-005	-2.7908188E-001	0
5.7509839E+003	1.581119979564392E+001	-2.8084433E-001	-4.883413825262251E-002	1.3714791E-005	-2.8108186E-001	0
5.8173730E+003	1.601119979059149E+001	-2.8289491E-001	-4.862932158267663E-002	1.3756988E-005	-2.8308186E-001	0
5.8804878E+003	1.621119978553907E+001	-2.8487778E-001	-4.844458067954399E-002	1.3800784E-005	-2.8508186E-001	0
5.9446558E+003	1.641119978048664E+001	-2.8682417E-001	-4.824908055516067E-002	1.3839002E-005	-2.8708187E-001	0
6.0076934E+003	1.661119977543422E+001	-2.8885481E-001	-4.808081575545808E-002	1.3888375E-005	-2.8908184E-001	0
6.0707065E+003	1.681119977038179E+001	-2.9091066E-001	-4.792039498925441E-002	1.3940554E-005	-2.9108185E-001	0
6.1369053E+003	1.701119976532937E+001	-2.9286042E-001	-4.772119061486046E-002	1.3975648E-005	-2.9308185E-001	0
6.2013481E+003	1.721119976027694E+001	-2.9485899E-001	-4.754756269538296E-002	1.4019826E-005	-2.9508185E-001	0
6.2622104E+003	1.741119975522452E+001	-2.9688177E-001	-4.740846247751218E-002	1.4074708E-005	-2.9708186E-001	0
6.3318281E+003	1.761119975017209E+001	-2.9890153E-001	-4.720619886869637E-002	1.4110005E-005	-2.9908189E-001	0
6.3889521E+003	1.781119974511967E+001	-3.0089739E-001	-4.709651795360581E-002	1.4171219E-005	-3.0108184E-001	0
6.4617544E+003	1.801119974006724E+001	-3.0288914E-001	-4.687413527596482E-002	1.4197666E-005	-3.0308187E-001	0
6.5193003E+003	1.821119973501482E+001	-3.0483380E-001	-4.675866675467065E-002	1.4253622E-005	-3.0508187E-001	0
6.5830967E+003	1.841119972996239E+001	-3.0684215E-001	-4.661061003030231E-002	1.4302100E-005	-3.0708185E-001	0
6.6495547E+003	1.861119972490997E+001	-3.0888551E-001	-4.645206182170891E-002	1.4348369E-005	-3.0908185E-001	0
6.7096592E+003	1.881119971985754E+001	-3.1083485E-001	-4.632647581743798E-002	1.4399883E-005	-3.1108186E-001	0
6.7761299E+003	1.901119971480512E+001	-3.1289220E-001	-4.617564925710638E-002	1.4448000E-005	-3.1308186E-001	0
6.8324893E+003	1.921119970975269E+001	-3.1481016E-001	-4.607547040951657E-002	1.4505026E-005	-3.1508186E-001	0
6.9075283E+003	1.941119970470027E+001	-3.1686684E-001	-4.587268213215645E-002	1.4535533E-005	-3.1708187E-001	0
6.9636953E+003	1.961119969964784E+001	-3.1883764E-001	-4.578569650997433E-002	1.4598204E-005	-3.1908187E-001	0
7.0349160E+003	1.981119969459542E+001	-3.2088524E-001	-4.561322984969873E-002	1.4636612E-005	-3.2108188E-001	0
7.0951587E+003	2.001119968954299E+001	-3.2284242E-001	-4.550178924917558E-002	1.4689907E-005	-3.2308185E-001	0
7.1592495E+003	2.021119968449057E+001	-3.2486436E-001	-4.537687334020846E-002	1.4741328E-005	-3.2508186E-001	0
7.2304810E+003	2.041119967943814E+001	-3.2689598E-001	-4.521082183256420E-002	1.4779236E-005	-3.2708186E-001	0
7.2866748E+003	2.061119967438572E+001	-3.2887486E-001	-4.513373468340509E-002	1.4843350E-005	-3.2908186E-001	0
7.3585952E+003	2.081119966933329E+001	-3.3089444E-001	-4.496706672099390E-002	1.4879352E-005	-3.3108187E-001	0
7.4822100E+003	2.105119966327038E+001	-3.3328986E-001	-4.454430787180930E-002	1.4846166E-005	-3.3348188E-001	0
7.5444609E+003	2.125119965821796E+001	-3.3534169E-001	-4.444872723182747E-002	1.4905511E-005	-3.3548185E-001	0
7.6097534E+003	2.145119965316553E+001	-3.3730945E-001	-4.432593806052298E-002	1.4951558E-005	-3.3748186E-001	0
7.6787949E+003	2.165119964811311E+001	-3.3927047E-001	-4.418277535972981E-002	1.4989912E-005	-3.3948186E-001	0
7.7427471E+003	2.185119964306068E+001	-3.4135354E-001	-4.408687585832838E-002	1.5049211E-005	-3.4148186E-001	0
7.8030005E+003	2.205119963800826E+001	-3.4328184E-001	-4.399356800247667E-002	1.5102193E-005	-3.4348187E-001	0
7.8740088E+003	2.225119963295583E+001	-3.4528449E-001	-4.385116871323880E-002	1.5141129E-005	-3.4548187E-001	0
7.9404492E+003	2.245119962790341E+001	-3.4731892E-001	-4.374046209125715E-002	1.5191890E-005	-3.4748188E-001	0
8.0037749E+003	2.265119962285098E+001	-3.4933403E-001	-4.364615800640537E-002	1.5247088E-005	-3.4948188E-001	0
8.0697070E+003	2.285119961779856E+001	-3.5127044E-001	-4.352951605536037E-002	1.5290632E-005	-3.5148188E-001	0
8.1357368E+003	2.305119961274613E+001	-3.5329685E-001	-4.342530485186646E-002	1.5342022E-005	-3.5348186E-001	0
8.2042773E+003	2.325119960769371E+001	-3.5527608E-001	-4.330376122155294E-002	1.5384790E-005	-3.5548189E-001	0
8.2721230E+003	2.345119960264128E+001	-3.5729456E-001	-4.319260589268409E-002	1.5432483E-005	-3.5748187E-001	0
8.3340635E+003	2.365119959758886E+001	-3.5932985E-001	-4.311580631840778E-002	1.5492797E-005	-3.5948184E-001	0
8.4043584E+003	2.385119959253643E+001	-3.6129430E-001	-4.298892187624059E-002	1.5531652E-005	-3.6148188E-001	0
8.4732930E+003	2.405119958748401E+001	-3.6328161E-001	-4.287372177488917E-002	1.5575235E-005	-3.6348185E-001	0
8.5403135E+003	2.425119958243158E+001	-3.6526558E-001	-4.276957296103218E-002	1.5622252E-005	-3.6548185E-001	0
8.6068184E+003	2.445119957737916E+001	-3.6725736E-001	-4.267051544271705E-002	1.5671061E-005	-3.6748189E-001	0
8.6724326E+003	2.465119957232673E+001	-3.6928606E-001	-4.258159867064415E-002	1.5724791E-005	-3.6948186E-001	0
8.7406230E+003	2.485119956727431E+001	-3.7123477E-001	-4.247234866462313E-002	1.5767213E-005	-3.7148190E-001	0
8.8077637E+003	2.505119956222188E+001	-3.7323099E-001	-4.237522871382410E-002	1.5815749E-005	-3.7348187E-001	0
8.8696592E+003	2.525119955716946E+001	-3.7521428E-001	-4.230312284007204E-002	1.5872736E-005	-3.7548190E-001	0
8.9431543E+003	2.545119955211703E+001	-3.7727740E-001	-4.218616827244326E-002	1.5915888E-005	-3.7748188E-001	0
9.0028975E+003	2.565119954706461E+001	-3.7923691E-001	-4.212387345700641E-002	1.5974927E-005	-3.7948185E-001	0
9.0790332E+003	2.585119954201218E+001	-3.8132861E-001	-4.200101678672533E-002	1.6016189E-005	-3.8148189E-001	0
9.1430078E+003	2.605119953695976E+001	-3.8327160E-001	-4.191964195989495E-002	1.6066608E-005	-3.8348186E-001	0
9.2147559E+003	2.625119953190733E+001	-3.8526061E-001	-4.180909618851447E-002	1.6107399E-005	-3.8548186E-001	0
9.2782500E+003	2.645119952685491E+001	-3.8731480E-001	-4.174438246595513E-002	1.6168216E-005	-3.8748187E-001	0
9.3521602E+003	2.665119952180248E+001	-3.8929000E-001	-4.162567971214071E-002	1.6204462E-005	-3.8948187E-001	0
9.4204971E+003	2.685119951675006E+001	-3.9130813E-001	-4.153795099934410E-002	1.6254138E-005	-3.9148191E-001	0
9.4876104E+003	2.705119951169763E+001	-3.9319980E-001	-4.144350397020430E-002	1.6295577E-005	-3.9348191E-001	0
9.5504111E+003	2.725119950664521E+001	-3.9525011E-001	-4.138566520225584E-002	1.6357690E-005	-3.9548185E-001	0
9.6242598E+003	2.745119950159278E+001	-3.9731342E-001	-4.128249070069651E-002	1.6402088E-005	-3.9748189E-001	0
9.6922725E+003	2.765119949654036E+001	-3.9926803E-001	-4.119447150395428E-002	1.6447635E-005	-3.9948192E-001	0
9.7633271E+003	2.785119949148793E+001	-4.0129489E-001	-4.110226760272022E-002	1.6494130E-005	-4.0148190E-001	0
9.8294678E+003	2.805119948643551E+001	-4.0322256E-001	-4.102180969200248E-002	1.6540918E-005	-4.0348187E-001	0
9.8996992E+003	2.825119948138308E+001	-4.0527081E-001	-4.093768850814702E-002	1.6590850E-005	-4.0548190E-001	0
9.9692686E+003	2.845119947633066E+001	-4.0723270E-001	-4.084880387198286E-002	1.6634969E-005	-4.0748188E-001	0
1.0036849E+004	2.865119947127823E+001	-4.0925881E-001	-4.077563014344998E-002	1.6687785E-005	-4.0948188E-001	0
1.0105727E+004	2.885119946622581E+001	-4.1125146E-001	-4.069489306958229E-002	1.6735834E-005	-4.1148189E-001	0
1.0173601E+004	2.905119946117338E+001	-4.1329822E-001	-4.062457723055210E-002	1.6790065E-005	-4.1348192E-001	0
1.0250352E+004	2.925119945612096E+001	-4.1528153E-001	-4.051388028424119E-002	1.6824666E-005	-4.1548187E-001	0
1.0315868E+004	2.945119945106853E+001	-4.1730958E-001	-4.045317258370090E-002	1.6881497E-005	-4.1748190E-001	0
1.0385887E+004	2.965119944601611E+001	-4.1925469E-001	-4.036773300002156E-002	1.6924361E-005	-4.1948193E-001	0
1.0460047E+004	2.985119944096368E+001	-4.2130139E-001	-4.027720108863736E-002	1.6968841E-005	-4.2148188E-001	0
1.0526801E+004	3.005119943591126E+001	-4.2329723E-001	-4.021138238748057E-002	1.7021366E-005	-4.2348188E-001	0
1.0599971E+004	3.025119943085883E+001	-4.2530003E-001	-4.012275406644111E-002	1.7064209E-005	-4.2548192E-001	0
1.0669876E+004	3.045119942580641E+001	-4.2731857E-001	-4.004906536060920E-002	1.7113709E-005	-4.2748189E-001	0
1.0731046E+004	3.065119942075398E+001	-4.2920086E-001	-3.999618126677096E-002	1.7166396E-005	-4.2948189E-001	0
1.0804772E+004	3.085119941570156E+001	-4.3128386E-001	-3.991605378655702E-002	1.7215150E-005	-4.3148190E-001	0
1.0877283E+004	3.105119941064913E+001	-4.3337879E-001	-3.984255634687517E-002	1.7266919E-005	-4.3348190E-001	0
1.0942906E+004	3.125119940559671E+001	-4.3517137E-001	-3.976743975749275E-002	1.7305651E-005	-4.3548188E-001	0
1.1015600E+004	3.145119940054428E+001	-4.3726605E-001	-3.969516652312061E-002	1.7357348E-005	-4.3748185E-001	0
1.1085968E+004	3.165119939549186E+001	-4.3930304E-001	-3.962694393716903E-002	1.7408236E-005	-4.3948188E-001	0
1.1159046E+004	3.185119939043943E+001	-4.4127846E-001	-3.954446193172922E-002	1.7450118E-005	-4.4148192E-001	0
1.1233568E+004	3.205119938538701E+001	-4.4333029E-001	-3.946477852607566E-002	1.7495931E-005	-4.4348189E-001	0
1.1301432E+004	3.225119938033458E+001	-4.4527158E-001	-3.939957172945647E-002	1.7543509E-005	-4.4548187E-001	0
1.1378286E+004	3.245119937528216E+001	-4.4733125E-001	-3.931446631846591E-002	1.7586590E-005	-4.4748190E-001	0
1.1439835E+004	3.265119937022973E+001	-4.4927278E-001	-3.927266145760688E-002	1.7644137E-005	-4.4948184E-001	0
1.1509457E+004	3.285119936517731E+001	-4.5128766E-001	-3.921015906493980E-002	1.7695062E-005	-4.5148188E-001	0
1.1595298E+004	3.305119936012488E+001	-4.5338622E-001	-3.910086699154300E-002	1.7727794E-005	-4.5348191E-001	0
1.1658816E+004	3.325119935507246E+001	-4.5532662E-001	-3.905427518043070E-002	1.7782451E-005	-4.5548192E-001	0
1.1724348E+004	3.345119935002003E+001	-4.5729974E-001	-3.900428080605034E-002	1.7836648E-005	-4.5748186E-001	0
1.1793544E+004	3.365119934496761E+001	-4.5926541E-001	-3.894210343598670E-002	1.7884760E-005	-4.5948189E-001	0
1.1874228E+004	3.385119933991518E+001	-4.6134526E-001	-3.885265466780347E-002	1.7924487E-005	-4.6148193E-001	0
1.1937300E+004	3.405119933486276E+001	-4.6323857E-001	-3.880597611724509E-002	1.7976425E-005	-4.6348187E-001	0
1.2009184E+004	3.425119932981033E+001	-4.6529293E-001	-3.874475876388898E-002	1.8027662E-005	-4.6548188E-001	0
1.2083989E+004	3.445119932475791E+001	-4.6730447E-001	-3.867137347703858E-002	1.8071305E-005	-4.6748191E-001	0
1.2148826E+004	3.465119931970548E+001	-4.6926802E-001	-3.862661408084123E-002	1.8126235E-005	-4.6948189E-001	0
1.2221067E+004	3.485119931465306E+001	-4.7135043E-001	-3.856867863933938E-002	1.8179364E-005	-4.7148189E-001	0
1.2298516E+004	3.505119930960063E+001	-4.7328132E-001	-3.848280033963576E-002	1.8213190E-005	-4.7348192E-001	0
1.2364737E+004	3.525119930454821E+001	-4.7531557E-001	-3.844121870845604E-002	1.8271710E-005	-4.7548190E-001	0
1.2436525E+004	3.545119929949578E+001	-4.7729838E-001	-3.837875629666462E-002	1.8318118E-005	-4.7748187E-001	0
1.2515364E+004	3.565119929444336E+001	-4.7928596E-001	-3.829580621319767E-002	1.8354642E-005	-4.7948191E-001	0
1.2583068E+004	3.585119928939093E+001	-4.8135033E-001	-3.825381093910857E-002	1.8413484E-005	-4.8148194E-001	0
1.2654618E+004	3.605119928433851E+001	-4.8333046E-001	-3.819399791697886E-002	1.8460323E-005	-4.8348188E-001	0
1.2713473E+004	3.625119927928608E+001	-4.8529947E-001	-3.817206135103068E-002	1.8524881E-005	-4.8548189E-001	0
1.2792711E+004	3.645119927423366E+001	-4.8727837E-001	-3.809031381592770E-002	1.8560586E-005	-4.8748189E-001	0
1.2861541E+004	3.665119926918123E+001	-4.8931468E-001	-3.804479292176821E-002	1.8615876E-005	-4.8948190E-001	0
1.2922819E+004	3.685119926412881E+001	-4.9128312E-001	-3.801671418761564E-002	1.8676970E-005	-4.9148190E-001	0
1.2995108E+004	3.705119925907638E+001	-4.9332032E-001	-3.796200186611853E-002	1.8727427E-005	-4.9348187E-001	0
1.3070722E+004	3.725119925402396E+001	-4.9533886E-001	-3.789682653146553E-002	1.8771771E-005	-4.9548191E-001	0
1.3135539E+004	3.745119924897153E+001	-4.9732661E-001	-3.786114964168517E-002	1.8829358E-005	-4.9748188E-001	0
1.3202306E+004	3.765119924391911E+001	-4.9929738E-001	-3.781895355723761E-002	1.8882905E-005	-4.9948186E-001	0
1.3283579E+004	3.785119923886668E+001	-5.0125974E-001	-3.773529333133219E-002	1.8915183E-005	-5.0148189E-001	0
1.3350724E+004	3.805119923381426E+001	-5.0333613E-001	-3.770103643235473E-002	1.8976294E-005	-5.0348192E-001	0
1.3415488E+004	3.825119922876183E+001	-5.0530863E-001	-3.766606404533709E-002	1.9032987E-005	-5.0548190E-001	0
1.3490913E+004	3.845119922370941E+001	-5.0732183E-001	-3.760470802786946E-002	1.9077690E-005	-5.0748193E-001	0
1.3560239E+004	3.865119921865698E+001	-5.0932342E-001	-3.756006008574769E-002	1.9130219E-005	-5.0948191E-001	0
1.3623759E+004	3.885119921360456E+001	-5.1129389E-001	-3.752957675801361E-002	1.9188643E-005	-5.1148188E-001	0
1.3700404E+004	3.905119920855213E+001	-5.1330650E-001	-3.746652279060775E-002	1.9231809E-005	-5.1348191E-001	0
1.3766411E+004	3.925119920349971E+001	-5.1539528E-001	-3.743860981181113E-002	1.9295683E-005	-5.1548195E-001	0
1.3837201E+004	3.945119919844728E+001	-5.1730281E-001	-3.738493158517903E-002	1.9339330E-005	-5.1748186E-001	0
1.3904405E+004	3.965119919339486E+001	-5.1931477E-001	-3.734893680395981E-002	1.9395855E-005	-5.1948190E-001	0
1.3963597E+004	3.985119918834243E+001	-5.2130681E-001	-3.733327542537246E-002	1.9462092E-005	-5.2148187E-001	0
1.4046575E+004	4.005119918329001E+001	-5.2334541E-001	-3.725786442876866E-002	1.9498731E-005	-5.2348197E-001	0
1.4115834E+004	4.025119917823758E+001	-5.2531451E-001	-3.721455754891734E-002	1.9549347E-005	-5.2548182E-001	0
1.4174447E+004	4.045119917318516E+001	-5.2729911E-001	-3.720068192434685E-002	1.9615887E-005	-5.2748185E-001	0
1.4241029E+004	4.065119916813273E+001	-5.2933371E-001	-3.716962511071531E-002	1.9675135E-005	-5.2948195E-001	0
1.4306532E+004	4.085119916308031E+001	-5.3135079E-001	-3.714043341915996E-002	1.9734598E-005	-5.3148186E-001	0
1.4381873E+004	4.105119915802788E+001	-5.3330332E-001	-3.708163173811174E-002	1.9775758E-005	-5.3348190E-001	0
1.4439752E+004	4.125119915297546E+001	-5.3529465E-001	-3.707090354642792E-002	1.9843856E-005	-5.3548187E-001	0
1.4517596E+004	4.145119914792303E+001	-5.3731579E-001	-3.701134758015208E-002	1.9886782E-005	-5.3748196E-001	0
1.4583926E+004	4.165119914287061E+001	-5.3930134E-001	-3.697915994556922E-002	1.9942911E-005	-5.3948188E-001	0
1.4646647E+004	4.185119913781818E+001	-5.4133773E-001	-3.695983882563703E-002	2.0007756E-005	-5.4148191E-001	0
1.4709725E+004	4.205119913276576E+001	-5.4334837E-001	-3.693803720510941E-002	2.0070222E-005	-5.4348195E-001	0
1.4768917E+004	4.225119912771333E+001	-5.4528987E-001	-3.692145360387711E-002	2.0132895E-005	-5.4548186E-001	0
1.4841560E+004	4.245119912266091E+001	-5.4734212E-001	-3.687901733191840E-002	2.0185440E-005	-5.4748189E-001	0
1.4902416E+004	4.265119911760848E+001	-5.4931885E-001	-3.686106077510476E-002	2.0248475E-005	-5.4948193E-001	0
1.4971380E+004	4.285119911255606E+001	-5.5133182E-001	-3.682571916805066E-002	2.0303190E-005	-5.5148190E-001	0
1.5033472E+004	4.305119910750363E+001	-5.5334228E-001	-3.680735084443625E-002	2.0367064E-005	-5.5348194E-001	0
1.5095421E+004	4.325119910245121E+001	-5.5530965E-001	-3.678662953460088E-002	2.0427971E-005	-5.5548191E-001	0
1.5160992E+004	4.345119909739878E+001	-5.5731189E-001	-3.675959276588729E-002	2.0486557E-005	-5.5748194E-001	0
1.5220143E+004	4.365119909234636E+001	-5.5929798E-001	-3.674722439187089E-002	2.0552648E-005	-5.5948186E-001	0
1.5287313E+004	4.385119908729394E+001	-5.6134188E-001	-3.671945894534046E-002	2.0612169E-005	-5.6148183E-001	0
1.5346742E+004	4.405119908224151E+001	-5.6327391E-001	-3.670315930114043E-002	2.0673931E-005	-5.6348193E-001	0
1.5420251E+004	4.425119907718909E+001	-5.6536812E-001	-3.666400251241697E-002	2.0728658E-005	-5.6548190E-001	0
1.5473406E+004	4.445119907213666E+001	-5.6724620E-001	-3.665942587106230E-002	2.0794920E-005	-5.6748188E-001	0
1.5533674E+004	4.465119906708424E+001	-5.6937677E-001	-3.665435274898193E-002	2.0870137E-005	-5.6948191E-001	0
1.5577282E+004	4.485119906203181E+001	-5.7125932E-001	-3.667259324725314E-002	2.0949561E-005	-5.7148194E-001	0
1.5635531E+004	4.505119905697939E+001	-5.7322764E-001	-3.666185869918742E-002	2.1015590E-005	-5.7348186E-001	0
1.5700224E+004	4.525119905192696E+001	-5.7527280E-001	-3.664105775572830E-002	2.1078604E-005	-5.7548189E-001	0
1.5751095E+004	4.545119904687454E+001	-5.7728344E-001	-3.665037011931466E-002	2.1157652E-005	-5.7748193E-001	0
1.5820994E+004	4.565119904182211E+001	-5.7938093E-001	-3.662101920142917E-002	2.1217520E-005	-5.7948190E-001	0
1.5864744E+004	4.585119903676969E+001	-5.8128464E-001	-3.664002589123271E-002	2.1298285E-005	-5.8148187E-001	0
1.5918534E+004	4.605119903171726E+001	-5.8332193E-001	-3.664419876122238E-002	2.1375365E-005	-5.8348191E-001	0
1.5971612E+004	4.625119902666484E+001	-5.8526027E-001	-3.664378083364875E-002	2.1446149E-005	-5.8548194E-001	0
1.6015318E+004	4.645119902161241E+001	-5.8731955E-001	-3.667236188645190E-002	2.1538395E-005	-5.8748192E-001	0
1.6066137E+004	4.665119901655999E+001	-5.8929586E-001	-3.667937646210284E-002	2.1615006E-005	-5.8948189E-001	0
1.6105551E+004	4.685119901150756E+001	-5.9129190E-001	-3.671354674913663E-002	2.1708423E-005	-5.9148192E-001	0
1.6147597E+004	4.705119900645514E+001	-5.9332949E-001	-3.674413624262875E-002	2.1801379E-005	-5.9348196E-001	0
1.6193690E+004	4.725119900140271E+001	-5.9529388E-001	-3.676085423175524E-002	2.1883512E-005	-5.9548187E-001	0
1.6228248E+004	4.745119899635029E+001	-5.9733212E-001	-3.680817110283396E-002	2.1986703E-005	-5.9748191E-001	0
1.6254304E+004	4.765119899129786E+001	-5.9927708E-001	-3.686882601945299E-002	2.2094642E-005	-5.9948194E-001	0
1.6281886E+004	4.785119898624544E+001	-6.0135794E-001	-3.693416962255414E-002	2.2210656E-005	-6.0148185E-001	0
1.6306015E+004	4.805119898119301E+001	-6.0330439E-001	-3.699888692151901E-002	2.2321590E-005	-6.0348189E-001	0
1.6331497E+004	4.825119897614059E+001	-6.0534072E-001	-3.706584446334921E-002	2.2437465E-005	-6.0548192E-001	0
1.6349864E+004	4.845119897108816E+001	-6.0727435E-001	-3.714247102439494E-002	2.2555671E-005	-6.0748190E-001	0
1.6376514E+004	4.865119896603574E+001	-6.0939044E-001	-3.721124277362503E-002	2.2676175E-005	-6.0948187E-001	0
1.6400729E+004	4.885119896098331E+001	-6.1132258E-001	-3.727411227554189E-002	2.2786506E-005	-6.1148190E-001	0
1.6416014E+004	4.905119895593089E+001	-6.1330360E-001	-3.736007952737429E-002	2.2913071E-005	-6.1348194E-001	0
1.6417055E+004	4.925119895087846E+001	-6.1534101E-001	-3.748181552965146E-002	2.3064098E-005	-6.1548185E-001	0
1.6416240E+004	4.945119894582604E+001	-6.1733234E-001	-3.760497677303598E-002	2.3214769E-005	-6.1748189E-001	0
1.6445646E+004	4.965119894077361E+001	-6.1935657E-001	-3.766082306450558E-002	2.3325478E-005	-6.1948192E-001	0
1.6445430E+004	4.985119893572119E+001	-6.2131041E-001	-3.778012510618201E-002	2.3473185E-005	-6.2148190E-001	0
1.6443609E+004	5.005119893066876E+001	-6.2332761E-001	-3.790698137663329E-002	2.3628469E-005	-6.2348193E-001	0
1.6452027E+004	5.025119892561634E+001	-6.2525386E-001	-3.800466735298219E-002	2.3762565E-005	-6.2548190E-001	0
1.6460244E+004	5.045119892056391E+001	-6.2732303E-001	-3.811140443159311E-002	2.3908162E-005	-6.2748194E-001	0
1.6461141E+004	5.065119891551149E+001	-6.2931174E-001	-3.823014017238860E-002	2.4058676E-005	-6.2948185E-001	0
1.6467898E+004	5.085119891045906E+001	-6.3128990E-001	-3.833457492629821E-002	2.4200230E-005	-6.3148189E-001	0
1.6452824E+004	5.105119890540664E+001	-6.3330227E-001	-3.849200895737185E-002	2.4377077E-005	-6.3348198E-001	0
1.6454275E+004	5.125119890035421E+001	-6.3533270E-001	-3.861201478457693E-002	2.4531475E-005	-6.3548189E-001	0
1.6456090E+004	5.145119889530179E+001	-6.3732952E-001	-3.872909853335205E-002	2.4683197E-005	-6.3748193E-001	0
1.6456709E+004	5.165119889024936E+001	-6.3934314E-001	-3.885000073583278E-002	2.4838482E-005	-6.3948196E-001	0
1.6450285E+004	5.185119888519694E+001	-6.4136994E-001	-3.898837828143906E-002	2.5005973E-005	-6.4148194E-001	0
1.6427418E+004	5.205119888014451E+001	-6.4330804E-001	-3.916063079638976E-002	2.5192348E-005	-6.4348185E-001	0
1.6423486E+004	5.225119887509209E+001	-6.4531809E-001	-3.929239163695791E-002	2.5356092E-005	-6.4548188E-001	0
1.6424152E+004	5.245119887003966E+001	-6.4729440E-001	-3.941113146628075E-002	2.5510604E-005	-6.4748198E-001	0
1.6416504E+004	5.265119886498724E+001	-6.4933586E-001	-3.955384377467222E-002	2.5683728E-005	-6.4948189E-001	0
1.6399336E+004	5.285119885993481E+001	-6.5131187E-001	-3.971574836528836E-002	2.5867339E-005	-6.5148187E-001	0
1.6401678E+004	5.305119885488239E+001	-6.5334684E-001	-3.983414845061722E-002	2.6025515E-005	-6.5348196E-001	0
1.6395967E+004	5.325119884982996E+001	-6.5534192E-001	-3.996970454154869E-002	2.6193824E-005	-6.5548187E-001	0
1.6395803E+004	5.345119884477754E+001	-6.5736681E-001	-4.009360446258878E-002	2.6356205E-005	-6.5748191E-001	0
1.6380240E+004	5.365119883972511E+001	-6.5931559E-001	-4.025066687510087E-002	2.6537891E-005	-6.5948188E-001	0
1.6383018E+004	5.385119883467269E+001	-6.6132367E-001	-4.036641473350755E-002	2.6695265E-005	-6.6148192E-001	0
1.6378457E+004	5.405119882962026E+001	-6.6336340E-001	-4.050219005666433E-002	2.6867670E-005	-6.6348189E-001	0
1.6378880E+004	5.425119882456784E+001	-6.6531593E-001	-4.062035617016263E-002	2.7025369E-005	-6.6548187E-001	0
1.6381888E+004	5.445119881951541E+001	-6.6732550E-001	-4.073556756617636E-002	2.7183884E-005	-6.6748196E-001	0
1.6382568E+004	5.465119881446299E+001	-6.6931289E-001	-4.085518798184786E-002	2.7344904E-005	-6.6948193E-001	0
1.6406340E+004	5.485119880941056E+001	-6.7128426E-001	-4.091615146163280E-002	2.7466369E-005	-6.7148185E-001	0
1.6396939E+004	5.505119880435814E+001	-6.7334503E-001	-4.106528737108156E-002	2.7651107E-005	-6.7348194E-001	0
1.6408287E+004	5.525119879930571E+001	-6.7532498E-001	-4.115755456291748E-002	2.7794724E-005	-6.7548192E-001	0
1.6429221E+004	5.545119879425329E+001	-6.7734689E-001	-4.122818180422194E-002	2.7925780E-005	-6.7748189E-001	0
1.6425869E+004	5.565119878920086E+001	-6.7937094E-001	-4.135981473233341E-002	2.8098657E-005	-6.7948186E-001	0
1.6442008E+004	5.585119878414844E+001	-6.8133515E-001	-4.143868464936423E-002	2.8233633E-005	-6.8148196E-001	0
1.6475703E+004	5.605119877909601E+001	-6.8336147E-001	-4.147692364001682E-002	2.8343731E-005	-6.8348193E-001	0
1.6487424E+004	5.625119877404359E+001	-6.8534184E-001	-4.156755366074355E-002	2.8487984E-005	-6.8548185E-001	0
1.6524270E+004	5.645119876899116E+001	-6.8731683E-001	-4.159438296494683E-002	2.8588520E-005	-6.8748194E-001	0
1.6541629E+004	5.665119876393874E+001	-6.8930280E-001	-4.167079532681592E-002	2.8723796E-005	-6.8948185E-001	0
1.6571297E+004	5.685119875888631E+001	-6.9129318E-001	-4.171629899546758E-002	2.8838193E-005	-6.9148189E-001	0
1.6605848E+004	5.705119875383389E+001	-6.9332361E-001	-4.175177670391222E-002	2.8947492E-005	-6.9348186E-001	0
1.6634289E+004	5.725119874878146E+001	-6.9529927E-001	-4.179915744529361E-002	2.9062923E-005	-6.9548196E-001	0
1.6679473E+004	5.745119874372904E+001	-6.9733584E-001	-4.180802709962561E-002	2.9154236E-005	-6.9748193E-001	0
1.6709186E+004	5.765119873867661E+001	-6.9929445E-001	-4.185090116341339E-002	2.9266103E-005	-6.9948190E-001	0
1.6760336E+004	5.785119873362419E+001	-7.0135254E-001	-4.184596949624414E-002	2.9348777E-005	-7.0148200E-001	0
1.6793879E+004	5.805119872857176E+001	-7.0335126E-001	-4.188140438628837E-002	2.9457338E-005	-7.0348191E-001	0
1.6851230E+004	5.825119872351934E+001	-7.0535284E-001	-4.185764842123940E-002	2.9524412E-005	-7.0548189E-001	0
1.6892709E+004	5.845119871846691E+001	-7.0734268E-001	-4.187266072580409E-002	2.9618321E-005	-7.0748192E-001	0
1.6948396E+004	5.865119871341449E+001	-7.0926613E-001	-4.184856628122705E-002	2.9681771E-005	-7.0948195E-001	0
1.6976109E+004	5.885119870836206E+001	-7.1125138E-001	-4.189719675824696E-002	2.9799439E-005	-7.1148193E-001	0
1.7041646E+004	5.905119870330964E+001	-7.1336341E-001	-4.186000412170598E-002	2.9861396E-005	-7.1348190E-001	0
1.7073016E+004	5.925119869825721E+001	-7.1530414E-001	-4.189676745153750E-002	2.9968931E-005	-7.1548200E-001	0
1.7126186E+004	5.945119869320479E+001	-7.1730560E-001	-4.188355784060713E-002	3.0043311E-005	-7.1748197E-001	0
1.7172387E+004	5.965119868815236E+001	-7.1934068E-001	-4.188938135922160E-002	3.0132736E-005	-7.1948195E-001	0
1.7199592E+004	5.985119868309994E+001	-7.2136831E-001	-4.194101242822640E-002	3.0254918E-005	-7.2148192E-001	0
1.7246787E+004	6.005119867804751E+001	-7.2341263E-001	-4.194477873050773E-002	3.0343383E-005	-7.2348201E-001	0
1.7293303E+004	6.025119867299509E+001	-7.2532380E-001	-4.194246601659696E-002	3.0421868E-005	-7.2548187E-001	0
1.7327047E+004	6.045119866794266E+001	-7.2736531E-001	-4.197860988228685E-002	3.0533785E-005	-7.2748196E-001	0
1.7357939E+004	6.065119866289024E+001	-7.2934633E-001	-4.201802522178455E-002	3.0645693E-005	-7.2948194E-001	0
1.7382887E+004	6.085119865783781E+001	-7.3132193E-001	-4.207137185006338E-002	3.0767718E-005	-7.3148191E-001	0
1.7409037E+004	6.105119865278539E+001	-7.3334771E-001	-4.212454358583562E-002	3.0891937E-005	-7.3348188E-001	0
1.7434359E+004	6.125119864773296E+001	-7.3528630E-001	-4.217455097840539E-002	3.1010368E-005	-7.3548198E-001	0
1.7466809E+004	6.145119864268054E+001	-7.3733211E-001	-4.221332802034954E-002	3.1125241E-005	-7.3748195E-001	0
1.7480939E+004	6.165119863762811E+001	-7.3929334E-001	-4.229139634107126E-002	3.1265747E-005	-7.3948187E-001	0
1.7522242E+004	6.185119863257569E+001	-7.4136066E-001	-4.230969004959176E-002	3.1366741E-005	-7.4148190E-001	0
1.7549029E+004	6.205119862752326E+001	-7.4328971E-001	-4.235503083182592E-002	3.1482057E-005	-7.4348193E-001	0
1.7562080E+004	6.225119862247084E+001	-7.4535298E-001	-4.244103999027055E-002	3.1633557E-005	-7.4548191E-001	0
1.7571287E+004	6.245119861741841E+001	-7.4732310E-001	-4.253092328722158E-002	3.1784341E-005	-7.4748194E-001	0
1.7593328E+004	6.265119861236599E+001	-7.4934518E-001	-4.259257509463943E-002	3.1916541E-005	-7.4948198E-001	0
1.7608383E+004	6.285119860731356E+001	-7.5135368E-001	-4.267022804522880E-002	3.2060434E-005	-7.5148195E-001	0
1.7640789E+004	6.305119860226114E+001	-7.5338823E-001	-4.270717238135147E-002	3.2175081E-005	-7.5348192E-001	0
1.7632439E+004	6.325119859720871E+001	-7.5539654E-001	-4.284129721612012E-002	3.2362168E-005	-7.5548190E-001	0
1.7648844E+004	6.345119859215629E+001	-7.5732511E-001	-4.291074847049658E-002	3.2497388E-005	-7.5748199E-001	0
1.7653320E+004	6.365119858710386E+001	-7.5934124E-001	-4.301407445478711E-002	3.2662359E-005	-7.5948185E-001	0
1.7655580E+004	6.385119858205144E+001	-7.6134104E-001	-4.312183651777479E-002	3.2830423E-005	-7.6148194E-001	0
1.7669365E+004	6.405119857699901E+001	-7.6335049E-001	-4.320191673363211E-002	3.2978205E-005	-7.6348197E-001	0
1.7691936E+004	6.425119857194659E+001	-7.6532853E-001	-4.325861025489697E-002	3.3107048E-005	-7.6548189E-001	0
1.7678209E+004	6.445119856689416E+001	-7.6732135E-001	-4.340492369361071E-002	3.3305525E-005	-7.6748186E-001	0
1.7684404E+004	6.465119856184174E+001	-7.6928455E-001	-4.350073409874988E-002	3.3464443E-005	-7.6948196E-001	0
1.7693348E+004	6.485119855678931E+001	-7.7132124E-001	-4.359385318174552E-002	3.3624863E-005	-7.7148193E-001	0
1.7701850E+004	6.505119855173689E+001	-7.7327287E-001	-4.368317023087542E-002	3.3779012E-005	-7.7348191E-001	0
1.7688547E+004	6.525119854668446E+001	-7.7525449E-001	-4.382804749705646E-002	3.3977889E-005	-7.7548194E-001	0
1.7681678E+004	6.545119854163204E+001	-7.7736259E-001	-4.396429836861948E-002	3.4176199E-005	-7.7748197E-001	0
1.7670672E+004	6.565119853657961E+001	-7.7931029E-001	-4.410190617083853E-002	3.4369070E-005	-7.7948189E-001	0
1.7678285E+004	6.585119853152719E+001	-7.8132004E-001	-4.419659587365621E-002	3.4531688E-005	-7.8148186E-001	0
1.7657033E+004	6.605119852647476E+001	-7.8335053E-001	-4.436478827649198E-002	3.4753179E-005	-7.8348202E-001	0
1.7653895E+004	6.625119852142234E+001	-7.8532982E-001	-4.448479180865172E-002	3.4935234E-005	-7.8548199E-001	0
1.7647184E+004	6.645119851636991E+001	-7.8728992E-001	-4.461277782063822E-002	3.5123190E-005	-7.8748196E-001	0
1.7627867E+004	6.665119851131749E+001	-7.8929460E-001	-4.477539017443843E-002	3.5340974E-005	-7.8948194E-001	0
1.7632760E+004	6.685119850626506E+001	-7.9130495E-001	-4.487697615197406E-002	3.5511373E-005	-7.9148197E-001	0
1.7611900E+004	6.705119850121264E+001	-7.9328781E-001	-4.504271616336690E-002	3.5731839E-005	-7.9348195E-001	0
1.7616531E+004	6.725119849616021E+001	-7.9532546E-001	-4.514653999738528E-002	3.5906192E-005	-7.9548192E-001	0
1.7609426E+004	6.745119849110779E+001	-7.9728240E-001	-4.527588850209285E-002	3.6097670E-005	-7.9748201E-001	0
1.7593441E+004	6.765119848605536E+001	-7.9934263E-001	-4.543412499401155E-002	3.6317433E-005	-7.9948199E-001	0
1.7583801E+004	6.785119848100294E+001	-8.0127865E-001	-4.556913944510343E-002	3.6513578E-005	-8.0148196E-001	0
1.7552904E+004	6.805119847595051E+001	-8.0326563E-001	-4.576254673217695E-002	3.6759480E-005	-8.0348194E-001	0
1.7565104E+004	6.825119847089809E+001	-8.0533928E-001	-4.584881821631459E-002	3.6923855E-005	-8.0548191E-001	0
1.7549547E+004	6.845119846584566E+001	-8.0732191E-001	-4.600243462310916E-002	3.7138772E-005	-8.0748200E-001	0
1.7542045E+004	6.865119846079324E+001	-8.0933261E-001	-4.613672960137802E-002	3.7339960E-005	-8.0948192E-001	0
1.7533516E+004	6.885119845574081E+001	-8.1129742E-001	-4.627123724588955E-002	3.7539736E-005	-8.1148201E-001	0
1.7505697E+004	6.905119845068839E+001	-8.1331450E-001	-4.645998617887581E-002	3.7786580E-005	-8.1348205E-001	0
1.7498492E+004	6.925119844563596E+001	-8.1533939E-001	-4.659483441951018E-002	3.7990605E-005	-8.1548184E-001	0
1.7478213E+004	6.945119844058354E+001	-8.1730956E-001	-4.676161948596747E-002	3.8218717E-005	-8.1748199E-001	0
1.7467793E+004	6.965119843553111E+001	-8.1927466E-001	-4.690201516324427E-002	3.8425631E-005	-8.1948197E-001	0
1.7441283E+004	6.985119843047869E+001	-8.2137907E-001	-4.709395900597824E-002	3.8681992E-005	-8.2148194E-001	0
1.7401359E+004	7.005119842542626E+001	-8.2329243E-001	-4.731195955378875E-002	3.8951577E-005	-8.2348192E-001	0
1.7411920E+004	7.025119842037384E+001	-8.2532048E-001	-4.739974147577880E-002	3.9119979E-005	-8.2548201E-001	0
1.7368090E+004	7.045119841532141E+001	-8.2728755E-001	-4.763261464323076E-002	3.9405870E-005	-8.2748199E-001	0
1.7364537E+004	7.065119841026899E+001	-8.2931536E-001	-4.775913951120181E-002	3.9607388E-005	-8.2948190E-001	0
1.7318943E+004	7.085119840521656E+001	-8.3130354E-001	-4.799966761829721E-002	3.9902294E-005	-8.3148199E-001	0
1.7296244E+004	7.105119840016414E+001	-8.3330923E-001	-4.817862604198841E-002	4.0147694E-005	-8.3348197E-001	0
1.7278107E+004	7.125119839511171E+001	-8.3533299E-001	-4.834632366465907E-002	4.0385279E-005	-8.3548194E-001	0
1.7236008E+004	7.145119839005929E+001	-8.3729756E-001	-4.857839094612193E-002	4.0674568E-005	-8.3748192E-001	0
1.7193725E+004	7.165119838500686E+001	-8.3935618E-001	-4.881759130030594E-002	4.0975348E-005	-8.3948201E-001	0
1.7138555E+004	7.185119837995444E+001	-8.4127867E-001	-4.908690633687299E-002	4.1295767E-005	-8.4148198E-001	0
1.7076809E+004	7.205119837490201E+001	-8.4335130E-001	-4.938576855409538E-002	4.1649553E-005	-8.4348190E-001	0
1.7044627E+004	7.225119836984959E+001	-8.4530908E-001	-4.959387426494788E-002	4.1922151E-005	-8.4548205E-001	0
1.7016459E+004	7.245119836479716E+001	-8.4736961E-001	-4.979705993590844E-002	4.2196516E-005	-8.4748203E-001	0
1.6968973E+004	7.265119835974474E+001	-8.4929836E-001	-5.005007257522449E-002	4.2507443E-005	-8.4948188E-001	0
1.6916398E+004	7.285119835469231E+001	-8.5130876E-001	-5.032447153753061E-002	4.2841664E-005	-8.5148197E-001	0
1.6867660E+004	7.305119834963989E+001	-8.5339653E-001	-5.059365249902048E-002	4.3176449E-005	-8.5348207E-001	0
1.6761775E+004	7.325119834458746E+001	-8.5531771E-001	-5.102786932947323E-002	4.3645039E-005	-8.5548192E-001	0
1.6677000E+004	7.345119833953504E+001	-8.5738117E-001	-5.141099542379391E-002	4.4078821E-005	-8.5748196E-001	0
1.6543008E+004	7.365119833448261E+001	-8.5929441E-001	-5.194305555415574E-002	4.4634377E-005	-8.5948199E-001	0
1.6426170E+004	7.385119832943019E+001	-8.6137336E-001	-5.243908706894079E-002	4.5169632E-005	-8.6148196E-001	0
1.6341918E+004	7.405119832437777E+001	-8.6336797E-001	-5.283149741980731E-002	4.5613022E-005	-8.6348194E-001	0
1.6187040E+004	7.425119831932534E+001	-8.6533684E-001	-5.345862199892359E-002	4.6259716E-005	-8.6548197E-001	0
1.6051472E+004	7.445119831427292E+001	-8.6743152E-001	-5.404062192811031E-002	4.6876539E-005	-8.6748201E-001	0
1.5880581E+004	7.465119830922049E+001	-8.6932379E-001	-5.474131032951246E-002	4.7587924E-005	-8.6948192E-001	0
1.5697475E+004	7.485119830416807E+001	-8.7130773E-001	-5.550623543786481E-002	4.8363014E-005	-8.7148190E-001	0
1.5500653E+004	7.505119829911564E+001	-8.7329745E-001	-5.633939624143158E-002	4.9201051E-005	-8.7348199E-001	0
1.5256035E+004	7.525119829406322E+001	-8.7535834E-001	-5.737783991026357E-002	5.0226172E-005	-8.7548196E-001	0
1.4993380E+004	7.545119828901079E+001	-8.7733120E-001	-5.851457060722320E-002	5.1336658E-005	-8.7748194E-001	0
1.4692745E+004	7.565119828395837E+001	-8.7933189E-001	-5.984803059089761E-002	5.2626281E-005	-8.7948203E-001	0
1.4363043E+004	7.585119827890594E+001	-8.8134778E-001	-6.136218968265661E-002	5.4081429E-005	-8.8148201E-001	0
1.4032103E+004	7.605119827385352E+001	-8.8333803E-001	-6.295122316871626E-002	5.5607208E-005	-8.8348186E-001	0
1.3634055E+004	7.625119826880109E+001	-8.8537365E-001	-6.493839447316863E-002	5.7494744E-005	-8.8548195E-001	0
1.3189942E+004	7.645119826374867E+001	-8.8733029E-001	-6.727324991092032E-002	5.9693593E-005	-8.8748205E-001	0
1.2752002E+004	7.665119825869624E+001	-8.8927937E-001	-6.973645006213547E-002	6.2015184E-005	-8.8948190E-001	0
1.2253736E+004	7.685119825364382E+001	-8.9136487E-001	-7.274229083233454E-002	6.4839922E-005	-8.9148200E-001	0
1.1726086E+004	7.705119824859139E+001	-8.9326870E-001	-7.617791062548268E-002	6.8047346E-005	-8.9348197E-001	0
1.1161027E+004	7.725119824353897E+001	-8.9534593E-001	-8.022074413204956E-002	7.1825314E-005	-8.9548194E-001	0
1.0501544E+004	7.746119823823392E+001	-8.9741760E-001	-8.545577960956763E-002	7.6689525E-005	-8.9758199E-001	0
9.6601299E+003	7.767119823292887E+001	-8.9944756E-001	-9.310926165053668E-002	8.3746898E-005	-8.9968204E-001	0
9.1018184E+003	7.787119822787645E+001	-9.0147686E-001	-9.904360012605377E-002	8.9285517E-005	-9.0168208E-001	0
8.5157334E+003	7.807119822282402E+001	-9.0350461E-001	-1.060982703087674E-001	9.5860276E-005	-9.0368199E-001	0
7.9334575E+003	7.827119821777160E+001	-9.0551436E-001	-1.141386821996968E-001	1.0335421E-004	-9.0568197E-001	0
7.3646514E+003	7.847119821271917E+001	-9.0749526E-001	-1.232231141779734E-001	1.1182439E-004	-9.0768206E-001	0
6.8078286E+003	7.867119820766675E+001	-9.0953034E-001	-1.336006536296315E-001	1.2151385E-004	-9.0968192E-001	0
6.2741860E+003	7.887119820261432E+001	-9.1151983E-001	-1.452809722678069E-001	1.3242649E-004	-9.1168195E-001	0
5.7722773E+003	7.907119819756190E+001	-9.1354448E-001	-1.582641322799279E-001	1.4458133E-004	-9.1368198E-001	0
5.2976299E+003	7.927119819250947E+001	-9.1545665E-001	-1.728049503404921E-001	1.5819544E-004	-9.1568196E-001	0
4.8473955E+003	7.947119818745705E+001	-9.1747940E-001	-1.892726418653045E-001	1.7365375E-004	-9.1768193E-001	0
4.3772690E+003	7.967119818240462E+001	-9.1949874E-001	-2.100621936124769E-001	1.9315192E-004	-9.1968197E-001	0
4.0152358E+003	7.987119817735220E+001	-9.2151612E-001	-2.295048567181341E-001	2.1149243E-004	-9.2168194E-001	0
3.6775974E+003	8.007119817229977E+001	-9.2352951E-001	-2.511230492140779E-001	2.3191955E-004	-9.2368191E-001	0
3.3623428E+003	8.027119816724735E+001	-9.2552394E-001	-2.752616165623984E-001	2.5476122E-004	-9.2568201E-001	0
3.0361934E+003	8.047119816219492E+001	-9.2750704E-001	-3.054835117821186E-001	2.8333810E-004	-9.2768204E-001	0
2.7604385E+003	8.067119815714250E+001	-9.2947656E-001	-3.367133747760942E-001	3.1296720E-004	-9.2968196E-001	0
2.5187883E+003	8.087119815209007E+001	-9.3153375E-001	-3.698340826424964E-001	3.4451293E-004	-9.3168199E-001	0
2.2661599E+003	8.107119814703765E+001	-9.3352073E-001	-4.119394824179121E-001	3.8455403E-004	-9.3368202E-001	0
2.0504807E+003	8.127119814198522E+001	-9.3552536E-001	-4.562468401825814E-001	4.2683049E-004	-9.3568206E-001	0
1.8487891E+003	8.147119813693280E+001	-9.3749446E-001	-5.070856917066644E-001	4.7539003E-004	-9.3768197E-001	0
1.6630859E+003	8.167119813188037E+001	-9.3949825E-001	-5.649126138571927E-001	5.3073443E-004	-9.3968195E-001	0
1.4908602E+003	8.187119812682795E+001	-9.4151157E-001	-6.315223396525553E-001	5.9458561E-004	-9.4168204E-001	0
1.3456531E+003	8.207119812177552E+001	-9.4353914E-001	-7.011756088559320E-001	6.6158664E-004	-9.4368190E-001	0
1.2081992E+003	8.227119811672310E+001	-9.4551790E-001	-7.825844488159461E-001	7.3994760E-004	-9.4568193E-001	0
1.0828341E+003	8.247119811167067E+001	-9.4753778E-001	-8.750534786202913E-001	8.2914624E-004	-9.4768196E-001	0
9.7390442E+002	8.267119810661825E+001	-9.4956881E-001	-9.750123308663188E-001	9.2584128E-004	-9.4968194E-001	0
8.7289270E+002	8.288119810131320E+001	-9.5162374E-001	-1.090195573810512E+000	1.0374560E-003	-9.5178199E-001	0
7.8286487E+002	8.309119809600816E+001	-9.5371884E-001	-1.218242017227031E+000	1.1618604E-003	-9.5388204E-001	0
7.0772711E+002	8.329119809095573E+001	-9.5572937E-001	-1.350420725352371E+000	1.2906367E-003	-9.5588207E-001	0
6.4031183E+002	8.349119808590331E+001	-9.5770043E-001	-1.495678215239058E+000	1.4324117E-003	-9.5788199E-001	0
5.7940698E+002	8.369119808085088E+001	-9.5972377E-001	-1.656389683113339E+000	1.5896766E-003	-9.5988196E-001	0
5.2607947E+002	8.389119807579846E+001	-9.6166068E-001	-1.827976177119218E+000	1.7578928E-003	-9.6188205E-001	0
4.7866211E+002	8.409119807074603E+001	-9.6375537E-001	-2.013435622749013E+000	1.9404594E-003	-9.6388191E-001	0
4.3577344E+002	8.429119806569361E+001	-9.6575636E-001	-2.216189084764643E+000	2.1402987E-003	-9.6588194E-001	0
3.9809561E+002	8.449119806064118E+001	-9.6765202E-001	-2.430702634916010E+000	2.3520743E-003	-9.6788198E-001	0
3.6423230E+002	8.469119805558876E+001	-9.6971965E-001	-2.662365874161519E+000	2.5817484E-003	-9.6988195E-001	0
3.3400107E+002	8.489119805053633E+001	-9.7168767E-001	-2.909235104208889E+000	2.8268679E-003	-9.7188193E-001	0
3.0701208E+002	8.509119804548391E+001	-9.7370952E-001	-3.171567390683418E+000	3.0881853E-003	-9.7388196E-001	0
2.8245544E+002	8.529119804043148E+001	-9.7570205E-001	-3.454357503324161E+000	3.3704238E-003	-9.7588193E-001	0
2.6029520E+002	8.549119803537906E+001	-9.7769076E-001	-3.756084697316838E+000	3.6722892E-003	-9.7788197E-001	0
2.4041878E+002	8.569119803032663E+001	-9.7968072E-001	-4.074892643695520E+000	3.9920937E-003	-9.7988200E-001	0
2.2303961E+002	8.589119802527421E+001	-9.8165166E-001	-4.401243684682410E+000	4.3204883E-003	-9.8188204E-001	0
2.0678120E+002	8.609119802022178E+001	-9.8370141E-001	-4.757208942150591E+000	4.6796734E-003	-9.8388195E-001	0
1.9234491E+002	8.629119801516936E+001	-9.8569518E-001	-5.124623269450909E+000	5.0513167E-003	-9.8588192E-001	0
1.7908905E+002	8.649119801011693E+001	-9.8764455E-001	-5.514823905464735E+000	5.4466859E-003	-9.8788202E-001	0
1.6719472E+002	8.669119800506451E+001	-9.8969859E-001	-5.919436965433391E+000	5.8584586E-003	-9.8988199E-001	0
1.5630963E+002	8.689119800001208E+001	-9.9167228E-001	-6.344281050251993E+000	6.2914477E-003	-9.9188191E-001	0
1.4659424E+002	8.709119799495966E+001	-9.9372137E-001	-6.778720584045431E+000	6.7361593E-003	-9.9388194E-001	0
1.3756940E+002	8.729119798990723E+001	-9.9568409E-001	-7.237685889411125E+000	7.2064488E-003	-9.9588192E-001	0
1.2932230E+002	8.749119798485481E+001	-9.9771571E-001	-7.714954778315516E+000	7.6973317E-003	-9.9788189E-001	0
1.2188634E+002	8.769119797980238E+001	-9.9973762E-001	-8.202212201697492E+000	8.2000596E-003	-9.9988192E-001	0
1.1504179E+002	8.789119797474996E+001	-1.0017569E+000	-8.707765718233532E+000	8.7230643E-003	-1.0018820E+000	0
1.0869828E+002	8.809119796969753E+001	-1.0037189E+000	-9.233990420424760E+000	9.2683304E-003	-1.0038819E+000	0
1.0281390E+002	8.829119796464511E+001	-1.0057322E+000	-9.782064623978684E+000	9.8381368E-003	-1.0058820E+000	0
9.7393791E+001	8.849119795959268E+001	-1.0077633E+000	-1.034730465862219E+001	1.0427633E-002	-1.0078820E+000	0
9.2119659E+001	8.870119795428764E+001	-1.0098424E+000	-1.096229016269962E+001	1.1070185E-002	-1.0099820E+000	0
8.7191093E+001	8.891119794898259E+001	-1.0119413E+000	-1.160601692445694E+001	1.1744608E-002	-1.0120820E+000	0
8.3003273E+001	8.911119794393016E+001	-1.0139276E+000	-1.221551279814875E+001	1.2385645E-002	-1.0140820E+000	0
7.9209282E+001	8.931119793887774E+001	-1.0159302E+000	-1.282589762389250E+001	1.3030216E-002	-1.0160820E+000	0
7.5623840E+001	8.951119793382532E+001	-1.0179002E+000	-1.346004429763673E+001	1.3700983E-002	-1.0180819E+000	0
7.2250198E+001	8.971119792877289E+001	-1.0199435E+000	-1.411682590389469E+001	1.4398364E-002	-1.0200820E+000	0
6.9189346E+001	8.991119792372047E+001	-1.0219311E+000	-1.477006402267071E+001	1.5093987E-002	-1.0220820E+000	0
6.6221436E+001	9.011119791866804E+001	-1.0239419E+000	-1.546239251547121E+001	1.5832592E-002	-1.0240819E+000	0
6.3515678E+001	9.031119791361562E+001	-1.0259490E+000	-1.615268883494292E+001	1.6571835E-002	-1.0260820E+000	0
6.0981789E+001	9.051119790856319E+001	-1.0279343E+000	-1.685641454812350E+001	1.7327286E-002	-1.0280820E+000	0
5.8615345E+001	9.071119790351077E+001	-1.0299325E+000	-1.757103909724420E+001	1.8096983E-002	-1.0300820E+000	0
5.6359230E+001	9.091119789845834E+001	-1.0319425E+000	-1.831008867301097E+001	1.8894959E-002	-1.0320818E+000	0
5.4274597E+001	9.111119789340592E+001	-1.0339367E+000	-1.905010438249224E+001	1.9696603E-002	-1.0340819E+000	0
5.2292076E+001	9.131119788835349E+001	-1.0359629E+000	-1.981108888571501E+001	2.0523554E-002	-1.0360820E+000	0
5.0451721E+001	9.151119788330107E+001	-1.0379579E+000	-2.057329013125965E+001	2.1354210E-002	-1.0380820E+000	0
4.8680569E+001	9.171119787824864E+001	-1.0399246E+000	-2.136221258832211E+001	2.2215091E-002	-1.0400820E+000	0
4.7033741E+001	9.191119787319622E+001	-1.0419303E+000	-2.215282605186343E+001	2.3081701E-002	-1.0420820E+000	0
4.5497124E+001	9.211119786814379E+001	-1.0439348E+000	-2.294507227881962E+001	2.3953160E-002	-1.0440820E+000	0
4.4013527E+001	9.231119786309137E+001	-1.0459598E+000	-2.376450761835045E+001	2.4856720E-002	-1.0460820E+000	0
4.2643204E+001	9.251119785803894E+001	-1.0479426E+000	-2.457467035857991E+001	2.5752844E-002	-1.0480820E+000	0
4.1328396E+001	9.271119785298652E+001	-1.0498955E+000	-2.540373209625685E+001	2.6671264E-002	-1.0500820E+000	0
4.0028126E+001	9.291119784793409E+001	-1.0519304E+000	-2.627978214736436E+001	2.7644502E-002	-1.0520818E+000	0
3.8847225E+001	9.311119784288167E+001	-1.0539558E+000	-2.713078748504051E+001	2.8594650E-002	-1.0540820E+000	0
3.7735329E+001	9.331119783782924E+001	-1.0559597E+000	-2.798331722056230E+001	2.9549256E-002	-1.0560820E+000	0
3.6666969E+001	9.351119783277682E+001	-1.0579195E+000	-2.885211111088165E+001	3.0523211E-002	-1.0580821E+000	0
3.5650948E+001	9.371119782772439E+001	-1.0599372E+000	-2.973096858103519E+001	3.1512961E-002	-1.0600820E+000	0
3.4674713E+001	9.391119782267197E+001	-1.0619730E+000	-3.062672581288814E+001	3.2524753E-002	-1.0620819E+000	0
3.3758141E+001	9.411119781761954E+001	-1.0639211E+000	-3.151598477687969E+001	3.3530522E-002	-1.0640820E+000	0
3.2902592E+001	9.431119781256712E+001	-1.0659353E+000	-3.239669456368398E+001	3.4532778E-002	-1.0660821E+000	0
3.2075607E+001	9.451119780751469E+001	-1.0679638E+000	-3.329520163163045E+001	3.5558071E-002	-1.0680820E+000	0
3.1280998E+001	9.471119780246227E+001	-1.0699508E+000	-3.420449749277287E+001	3.6597129E-002	-1.0700819E+000	0
3.0438883E+001	9.491119779740984E+001	-1.0719180E+000	-3.521541862206664E+001	3.7748042E-002	-1.0720819E+000	0
2.9696939E+001	9.511129779235489E+001	-1.0739207E+000	-3.616267466880993E+001	3.8835846E-002	-1.0740827E+000	0
2.8929157E+001	9.531139778729994E+001	-1.0759395E+000	-3.719221757517926E+001	4.0016577E-002	-1.0760840E+000	0
2.8227406E+001	9.551139778224751E+001	-1.0779432E+000	-3.818782412194891E+001	4.1164305E-002	-1.0780840E+000	0
2.7600079E+001	9.571139777719509E+001	-1.0799650E+000	-3.912905509239431E+001	4.2258009E-002	-1.0800840E+000	0
2.6982580E+001	9.591139777214266E+001	-1.0819486E+000	-4.009804115381905E+001	4.3384019E-002	-1.0820839E+000	0
2.6358458E+001	9.611139776709024E+001	-1.0839553E+000	-4.112362223931183E+001	4.4576168E-002	-1.0840840E+000	0
2.5810289E+001	9.631139776203781E+001	-1.0859470E+000	-4.207419166218949E+001	4.5690343E-002	-1.0860840E+000	0
2.5263235E+001	9.651139775698539E+001	-1.0879679E+000	-4.306526262176271E+001	4.6853621E-002	-1.0880841E+000	0
2.4767584E+001	9.671139775193296E+001	-1.0899429E+000	-4.400683212091056E+001	4.7964934E-002	-1.0900840E+000	0
2.4206009E+001	9.691139774688054E+001	-1.0919904E+000	-4.511236555830432E+001	4.9262267E-002	-1.0920839E+000	0
2.3656853E+001	9.711139774182811E+001	-1.0939538E+000	-4.624257889275111E+001	5.0587248E-002	-1.0940840E+000	0
2.3159590E+001	9.731139773677569E+001	-1.0959440E+000	-4.732139181955597E+001	5.1861599E-002	-1.0960841E+000	0
2.2680851E+001	9.751139773172326E+001	-1.0979244E+000	-4.840754474398773E+001	5.3147823E-002	-1.0980840E+000	0
2.2031668E+001	9.771139772667084E+001	-1.0999395E+000	-4.992538512753237E+001	5.4914903E-002	-1.1000839E+000	0
2.1517233E+001	9.791149772161589E+001	-1.1019351E+000	-5.121175092185177E+001	5.6432027E-002	-1.1020848E+000	0
2.1124088E+001	9.811159771656094E+001	-1.1039408E+000	-5.225981015034517E+001	5.7691738E-002	-1.1040860E+000	0
2.0722315E+001	9.831159771150851E+001	-1.1059661E+000	-5.337078171954931E+001	5.9026275E-002	-1.1060860E+000	0
2.0355499E+001	9.851159770645609E+001	-1.1079146E+000	-5.442826984799069E+001	6.0301874E-002	-1.1080860E+000	0
2.0005217E+001	9.871159770140366E+001	-1.1099728E+000	-5.548417224959707E+001	6.1585926E-002	-1.1100860E+000	0
1.9642696E+001	9.891159769635124E+001	-1.1119484E+000	-5.660874426716282E+001	6.2945999E-002	-1.1120859E+000	0
1.9330000E+001	9.911159769129881E+001	-1.1139363E+000	-5.762733227920126E+001	6.4193174E-002	-1.1140860E+000	0
1.8951540E+001	9.931159768624639E+001	-1.1159997E+000	-5.888701627476127E+001	6.5717891E-002	-1.1160860E+000	0
1.8519079E+001	9.951159768119396E+001	-1.1180178E+000	-6.037113412167218E+001	6.7496002E-002	-1.1180861E+000	0
1.8167356E+001	9.971159767614154E+001	-1.1200012E+000	-6.164910371071096E+001	6.9047071E-002	-1.1200860E+000	0
1.7826410E+001	9.991159767108911E+001	-1.1219712E+000	-6.293871116313801E+001	7.0615426E-002	-1.1220859E+000	0
1.7518757E+001	1.001115976660367E+002	-1.1239865E+000	-6.415903292437531E+001	7.2113886E-002	-1.1240860E+000	0
1.7249552E+001	1.003115976609843E+002	-1.1259650E+000	-6.527502959331400E+001	7.3497400E-002	-1.1260860E+000	0
1.6865849E+001	1.005115976559318E+002	-1.1280073E+000	-6.688114995426577E+001	7.5442426E-002	-1.1280860E+000	0
1.6629570E+001	1.007115976508794E+002	-1.1300009E+000	-6.795130307712259E+001	7.6785035E-002	-1.1300859E+000	0
1.6302799E+001	1.009115976458270E+002	-1.1320378E+000	-6.943824202944120E+001	7.8606710E-002	-1.1320859E+000	0
1.5853270E+001	1.011115976407746E+002	-1.1339941E+000	-7.153061486858348E+001	8.1115298E-002	-1.1340859E+000	0
1.5474589E+001	1.013115976357221E+002	-1.1360129E+000	-7.341150831094944E+001	8.3396420E-002	-1.1360860E+000	0
1.5138060E+001	1.015115976306697E+002	-1.1380233E+000	-7.517629790143906E+001	8.5552372E-002	-1.1380861E+000	0
1.4890339E+001	1.017115976256173E+002	-1.1400084E+000	-7.656027412198296E+001	8.7279357E-002	-1.1400859E+000	0
1.4689351E+001	1.019115976205649E+002	-1.1420007E+000	-7.774344032205408E+001	8.8783063E-002	-1.1420859E+000	0
1.4421967E+001	1.021115976155124E+002	-1.1439697E+000	-7.932133680460447E+001	9.0741202E-002	-1.1440860E+000	0
1.4198667E+001	1.023115976104600E+002	-1.1459641E+000	-8.070927681998592E+001	9.2489935E-002	-1.1460861E+000	0
1.3999506E+001	1.025115976054076E+002	-1.1480000E+000	-8.200289347058242E+001	9.4139323E-002	-1.1480860E+000	0
1.3853183E+001	1.027115976003552E+002	-1.1499404E+000	-8.300910792058801E+001	9.5455527E-002	-1.1500859E+000	0
1.3639244E+001	1.029115975953027E+002	-1.1519873E+000	-8.446122611352882E+001	9.7298265E-002	-1.1520859E+000	0
1.3397701E+001	1.031116975902478E+002	-1.1539643E+000	-8.613151508766936E+001	9.9392690E-002	-1.1540868E+000	0
1.3215258E+001	1.033117975851928E+002	-1.1559870E+000	-8.747366273213930E+001	1.0111842E-001	-1.1560880E+000	0
1.3056146E+001	1.035117975801404E+002	-1.1579975E+000	-8.869367403724573E+001	1.0270705E-001	-1.1580880E+000	0
1.2841641E+001	1.037117975750880E+002	-1.1599969E+000	-9.033088688893653E+001	1.0478354E-001	-1.1600879E+000	0
1.2605532E+001	1.039117975700356E+002	-1.1620134E+000	-9.218281888745560E+001	1.0711768E-001	-1.1620879E+000	0
1.2367224E+001	1.041117975649831E+002	-1.1640087E+000	-9.412045909920505E+001	1.0955704E-001	-1.1640879E+000	0
1.2170546E+001	1.043117975599307E+002	-1.1660289E+000	-9.580744584077092E+001	1.1171424E-001	-1.1660880E+000	0
1.1979300E+001	1.045117975548783E+002	-1.1680038E+000	-9.750183686539685E+001	1.1388252E-001	-1.1680881E+000	0
1.1740026E+001	1.047117975498259E+002	-1.1700461E+000	-9.966299208654050E+001	1.1661030E-001	-1.1700879E+000	0
1.1462569E+001	1.049117975447734E+002	-1.1719983E+000	-1.022456874436523E+002	1.1983177E-001	-1.1720879E+000	0
1.1163562E+001	1.051117975397210E+002	-1.1740495E+000	-1.051680025059622E+002	1.2347244E-001	-1.1740880E+000	0
1.0969251E+001	1.053117975346686E+002	-1.1760489E+000	-1.072132373418399E+002	1.2608801E-001	-1.1760881E+000	0
1.0810247E+001	1.055117975296162E+002	-1.1780549E+000	-1.089757634052617E+002	1.2837943E-001	-1.1780879E+000	0
1.0482039E+001	1.057317975240585E+002	-1.1801668E+000	-1.125894294942050E+002	1.3287431E-001	-1.1802880E+000	0
1.0304640E+001	1.059317975190061E+002	-1.1821848E+000	-1.147235457534966E+002	1.3562444E-001	-1.1822879E+000	0
1.0252444E+001	1.061318975139511E+002	-1.1841849E+000	-1.155026905924972E+002	1.3677654E-001	-1.1842887E+000	0
1.0029553E+001	1.063319975088962E+002	-1.1862130E+000	-1.182717719088878E+002	1.4029552E-001	-1.1862900E+000	0
9.9088583E+000	1.065319975038437E+002	-1.1882267E+000	-1.199156040972321E+002	1.4248693E-001	-1.1882900E+000	0
9.8457565E+000	1.067319974987913E+002	-1.1901896E+000	-1.208835112102449E+002	1.4387430E-001	-1.1902900E+000	0
9.6505690E+000	1.069319974937389E+002	-1.1921469E+000	-1.235312539671552E+002	1.4726740E-001	-1.1922898E+000	0
9.5085068E+000	1.071319974886865E+002	-1.1942030E+000	-1.255931139100439E+002	1.4998367E-001	-1.1942899E+000	0
9.4880066E+000	1.073319974836340E+002	-1.1961523E+000	-1.260699248627467E+002	1.5079883E-001	-1.1962900E+000	0
9.3970604E+000	1.075319974785816E+002	-1.1981969E+000	-1.275076302519736E+002	1.5277925E-001	-1.1982901E+000	0
9.1391726E+000	1.077319974735292E+002	-1.2001935E+000	-1.313240955205733E+002	1.5761434E-001	-1.2002901E+000	0
8.9605637E+000	1.079319974684768E+002	-1.2021704E+000	-1.341623555743504E+002	1.6128601E-001	-1.2022899E+000	0
8.8381271E+000	1.081319974634243E+002	-1.2041910E+000	-1.362495686786242E+002	1.6407050E-001	-1.2042900E+000	0
8.7314291E+000	1.083319974583719E+002	-1.2062151E+000	-1.381463601745979E+002	1.6663423E-001	-1.2062900E+000	0
8.6171684E+000	1.085319974533195E+002	-1.2081972E+000	-1.402081431401834E+002	1.6939910E-001	-1.2082899E+000	0
8.5548763E+000	1.087319974482671E+002	-1.2102131E+000	-1.414647090332303E+002	1.7120244E-001	-1.2102900E+000	0
8.4770842E+000	1.089319974432146E+002	-1.2121967E+000	-1.429968975579663E+002	1.7334037E-001	-1.2122899E+000	0
8.3275928E+000	1.091319974381622E+002	-1.2141932E+000	-1.458036231508063E+002	1.7703377E-001	-1.2142899E+000	0
8.2422152E+000	1.093319974331098E+002	-1.2161502E+000	-1.475513769309803E+002	1.7944463E-001	-1.2162900E+000	0
8.1881294E+000	1.095319974280574E+002	-1.2182040E+000	-1.487768389027123E+002	1.8124054E-001	-1.2182900E+000	0
8.0231371E+000	1.097319974230049E+002	-1.2201607E+000	-1.520802587911382E+002	1.8556236E-001	-1.2202899E+000	0
7.9081712E+000	1.099319974179525E+002	-1.2221712E+000	-1.545453668311070E+002	1.8888089E-001	-1.2222899E+000	0
7.7416677E+000	1.101319974129001E+002	-1.2241838E+000	-1.581292087939860E+002	1.9357921E-001	-1.2242900E+000	0
7.5702147E+000	1.103319974078477E+002	-1.2262104E+000	-1.619782839729669E+002	1.9861946E-001	-1.2262900E+000	0
7.5212126E+000	1.105319974027952E+002	-1.2282022E+000	-1.632984331632692E+002	2.0056351E-001	-1.2282900E+000	0
7.3818207E+000	1.107319973977428E+002	-1.2301428E+000	-1.666449104242035E+002	2.0499705E-001	-1.2302899E+000	0
7.2775183E+000	1.109319973926904E+002	-1.2321988E+000	-1.693157963331056E+002	2.0863073E-001	-1.2322899E+000	0
7.0783677E+000	1.111319973876380E+002	-1.2341770E+000	-1.743589784715183E+002	2.1518984E-001	-1.2342900E+000	0
6.9561391E+000	1.113319973825855E+002	-1.2361931E+000	-1.777125284666381E+002	2.1968700E-001	-1.2362900E+000	0
6.8974061E+000	1.115319973775331E+002	-1.2382060E+000	-1.795176396715939E+002	2.2227982E-001	-1.2382900E+000	0
6.8104973E+000	1.117319973724807E+002	-1.2402273E+000	-1.821052600737321E+002	2.2585192E-001	-1.2402900E+000	0
6.7299953E+000	1.119319973674283E+002	-1.2422040E+000	-1.845772380926169E+002	2.2928257E-001	-1.2422899E+000	0
6.6395864E+000	1.121319973623758E+002	-1.2442071E+000	-1.873922606433600E+002	2.3315479E-001	-1.2442900E+000	0
6.6107297E+000	1.123319973573234E+002	-1.2462184E+000	-1.885145010688680E+002	2.3493025E-001	-1.2462900E+000	0
6.5859480E+000	1.125319973522710E+002	-1.2481730E+000	-1.895206247684364E+002	2.3655453E-001	-1.2482899E+000	0
6.5578609E+000	1.127319973472186E+002	-1.2502112E+000	-1.906431534987719E+002	2.3834421E-001	-1.2502900E+000	0
6.4905601E+000	1.129319973421661E+002	-1.2522324E+000	-1.929313305619089E+002	2.4159487E-001	-1.2522900E+000	0
6.4443507E+000	1.131319973371137E+002	-1.2542069E+000	-1.946211377401193E+002	2.4409518E-001	-1.2542900E+000	0
6.3859735E+000	1.133319973320613E+002	-1.2561992E+000	-1.967122499191303E+002	2.4710979E-001	-1.2562901E+000	0
6.3220654E+000	1.135322973270013E+002	-1.2582096E+000	-1.990187596919204E+002	2.5040731E-001	-1.2582924E+000	0
6.2340832E+000	1.137229973221838E+002	-1.2601758E+000	-2.021429327019159E+002	2.5473565E-001	-1.2601992E+000	0
6.1856575E+000	1.138735973183793E+002	-1.2616183E+000	-2.039586405720456E+002	2.5731793E-001	-1.2617046E+000	0
6.1204920E+000	1.140240973145774E+002	-1.2631590E+000	-2.063819471092293E+002	2.6069322E-001	-1.2632104E+000	0
6.0580721E+000	1.142144973097675E+002	-1.2650476E+000	-2.088201477436398E+002	2.6416743E-001	-1.2651147E+000	0
6.0644732E+000	1.144149973047024E+002	-1.2670735E+000	-2.089338152820910E+002	2.6473451E-001	-1.2671192E+000	0
6.0007510E+000	1.145853973003977E+002	-1.2687752E+000	-2.114360637480404E+002	2.6826483E-001	-1.2688231E+000	0
5.9267302E+000	1.147559972960880E+002	-1.2704538E+000	-2.143599943771578E+002	2.7233449E-001	-1.2705295E+000	0
5.9013081E+000	1.149363972915307E+002	-1.2722846E+000	-2.155936592341912E+002	2.7429649E-001	-1.2723331E+000	0
5.8831406E+000	1.151168972869709E+002	-1.2741262E+000	-2.165724425603075E+002	2.7594063E-001	-1.2741387E+000	0
5.8780446E+000	1.153170972819134E+002	-1.2760934E+000	-2.170948815462325E+002	2.7703333E-001	-1.2761406E+000	0
5.8684578E+000	1.154973972773587E+002	-1.2778504E+000	-2.177489227111164E+002	2.7825055E-001	-1.2779435E+000	0
5.8028245E+000	1.156681972730439E+002	-1.2795541E+000	-2.205053907165538E+002	2.8214857E-001	-1.2796513E+000	0
5.7552195E+000	1.158188972692369E+002	-1.2810661E+000	-2.225920507794776E+002	2.8515512E-001	-1.2811583E+000	0
5.6390171E+000	1.159895972649247E+002	-1.2828010E+000	-2.274866411240264E+002	2.9182011E-001	-1.2828653E+000	0
5.4106817E+000	1.161600972606175E+002	-1.2845076E+000	-2.374021798129384E+002	3.0494490E-001	-1.2845707E+000	0
5.3587728E+000	1.163302972563179E+002	-1.2862470E+000	-2.400264229647246E+002	3.0873328E-001	-1.2862722E+000	0
5.2994046E+000	1.164810972525083E+002	-1.2876991E+000	-2.429893924178405E+002	3.1289724E-001	-1.2877800E+000	0
5.2733555E+000	1.166515972482011E+002	-1.2894511E+000	-2.445219337744820E+002	3.1529909E-001	-1.2894855E+000	0
5.2807627E+000	1.168022972443941E+002	-1.2909272E+000	-2.444584817665478E+002	3.1557810E-001	-1.2909921E+000	0
5.2590580E+000	1.169728972400844E+002	-1.2926595E+000	-2.457967835398772E+002	3.1773156E-001	-1.2926981E+000	0
5.2361202E+000	1.171633972352720E+002	-1.2945336E+000	-2.472314500694702E+002	3.2004943E-001	-1.2946035E+000	0
5.1196842E+000	1.173439972307096E+002	-1.2963359E+000	-2.532062406268478E+002	3.2824033E-001	-1.2964092E+000	0
5.0840325E+000	1.175245972261473E+002	-1.2981349E+000	-2.553356930467106E+002	3.3146018E-001	-1.2982153E+000	0
5.0158496E+000	1.177150972213349E+002	-1.3000494E+000	-2.591882829117121E+002	3.3695757E-001	-1.3001201E+000	0
4.9505386E+000	1.178757972172752E+002	-1.3016644E+000	-2.629338928146776E+002	3.4225169E-001	-1.3017271E+000	0
4.9342737E+000	1.180463972129655E+002	-1.3033994E+000	-2.641522497639212E+002	3.4429589E-001	-1.3034332E+000	0
4.9105964E+000	1.182266972084108E+002	-1.3051651E+000	-2.657854427750090E+002	3.4689388E-001	-1.3052365E+000	0
4.8905087E+000	1.183771972046088E+002	-1.3067142E+000	-2.671939230203316E+002	3.4914610E-001	-1.3067409E+000	0
4.8689013E+000	1.185475972003042E+002	-1.3083657E+000	-2.687188774536430E+002	3.5158256E-001	-1.3084452E+000	0
4.8563309E+000	1.186981971964997E+002	-1.3098929E+000	-2.697289248682137E+002	3.5331601E-001	-1.3099511E+000	0
4.7810602E+000	1.188485971927003E+002	-1.3113959E+000	-2.742897743244075E+002	3.5970247E-001	-1.3114555E+000	0
4.7268114E+000	1.190193971883855E+002	-1.3131374E+000	-2.778061892629812E+002	3.6479771E-001	-1.3131629E+000	0
4.7262535E+000	1.191799971843284E+002	-1.3147472E+000	-2.781795804891181E+002	3.6573583E-001	-1.3147693E+000	0
4.7005491E+000	1.193405971802713E+002	-1.3163565E+000	-2.800431418543340E+002	3.6863661E-001	-1.3163750E+000	0
4.6779580E+000	1.195109971759666E+002	-1.3180633E+000	-2.817603772113904E+002	3.7137800E-001	-1.3180794E+000	0
4.6330099E+000	1.196813971716620E+002	-1.3197341E+000	-2.848545791350534E+002	3.7593231E-001	-1.3197833E+000	0
4.6465435E+000	1.198717971668520E+002	-1.3217148E+000	-2.844511677112487E+002	3.7596330E-001	-1.3216870E+000	0
4.6359582E+000	1.200520971622973E+002	-1.3234974E+000	-2.854851973701612E+002	3.7783891E-001	-1.3234905E+000	0
4.6248126E+000	1.202024971584979E+002	-1.3249574E+000	-2.864888679597025E+002	3.7958553E-001	-1.3249942E+000	0
4.6364403E+000	1.203930971536829E+002	-1.3268579E+000	-2.861803074624395E+002	3.7972060E-001	-1.3269002E+000	0
4.6173015E+000	1.205937971486128E+002	-1.3288684E+000	-2.878019503962860E+002	3.8245091E-001	-1.3289074E+000	0
4.5376596E+000	1.207743971440505E+002	-1.3306922E+000	-2.932551703278905E+002	3.9023235E-001	-1.3307133E+000	0
4.5192595E+000	1.209549971394881E+002	-1.3324573E+000	-2.948397433920909E+002	3.9286137E-001	-1.3325193E+000	0
4.5041800E+000	1.211354971349283E+002	-1.3342738E+000	-2.962301444599825E+002	3.9525214E-001	-1.3343239E+000	0
4.5160723E+000	1.212561971318792E+002	-1.3354887E+000	-2.957190548210297E+002	3.9492944E-001	-1.3355308E+000	0
4.4931445E+000	1.214063971280848E+002	-1.3370012E+000	-2.975646878014122E+002	3.9784434E-001	-1.3370339E+000	0
4.4585118E+000	1.215669971240277E+002	-1.3386091E+000	-3.002367471000007E+002	4.0189964E-001	-1.3386388E+000	0
4.4195895E+000	1.217374971197205E+002	-1.3403138E+000	-3.032665715071860E+002	4.0647236E-001	-1.3403450E+000	0
4.3960938E+000	1.219077971154184E+002	-1.3420086E+000	-3.052729538544936E+002	4.0967894E-001	-1.3420470E+000	0
4.4071813E+000	1.220483971118665E+002	-1.3434166E+000	-3.048244375275335E+002	4.0950620E-001	-1.3434530E+000	0
4.3500919E+000	1.222288971073067E+002	-1.3451869E+000	-3.092318456536614E+002	4.1597465E-001	-1.3452582E+000	0
4.3359051E+000	1.223994971029970E+002	-1.3469344E+000	-3.106466758091456E+002	4.1842070E-001	-1.3469646E+000	0
4.2952924E+000	1.225897970981896E+002	-1.3488411E+000	-3.140277735052557E+002	4.2357355E-001	-1.3488674E+000	0
4.2715964E+000	1.227601970938849E+002	-1.3505263E+000	-3.161642999777064E+002	4.2698821E-001	-1.3505714E+000	0
4.2737956E+000	1.229105970900855E+002	-1.3520598E+000	-3.163604210856502E+002	4.2773822E-001	-1.3520750E+000	0
4.2723274E+000	1.230809970857808E+002	-1.3537743E+000	-3.168704568671528E+002	4.2897108E-001	-1.3537793E+000	0
4.2232480E+000	1.232815970807133E+002	-1.3557507E+000	-3.210208456332630E+002	4.3522424E-001	-1.3557851E+000	0
4.1133084E+000	1.234621970761509E+002	-1.3575751E+000	-3.300445469618589E+002	4.4806024E-001	-1.3575912E+000	0
4.0809336E+000	1.236423970715987E+002	-1.3593687E+000	-3.331023600744834E+002	4.5280892E-001	-1.3593938E+000	0
4.0204897E+000	1.238423970665463E+002	-1.3613601E+000	-3.386055342529357E+002	4.6096405E-001	-1.3613937E+000	0
4.0031691E+000	1.240423970614938E+002	-1.3633419E+000	-3.405656494888849E+002	4.6430743E-001	-1.3633938E+000	0
3.9675925E+000	1.242423970564414E+002	-1.3653866E+000	-3.441347909784636E+002	4.6987703E-001	-1.3653936E+000	0
3.9245963E+000	1.244423970513890E+002	-1.3673540E+000	-3.484062785604910E+002	4.7639474E-001	-1.3673937E+000	0
3.9356422E+000	1.246423970463366E+002	-1.3693436E+000	-3.479339810088104E+002	4.7644117E-001	-1.3693938E+000	0
3.9587648E+000	1.248423970412841E+002	-1.3713858E+000	-3.464176041155441E+002	4.7507218E-001	-1.3713937E+000	0
3.9025958E+000	1.250423970362317E+002	-1.3734195E+000	-3.519246248777226E+002	4.8334014E-001	-1.3733937E+000	0
3.8820906E+000	1.252423970311793E+002	-1.3753911E+000	-3.542913574815607E+002	4.8728919E-001	-1.3753937E+000	0
3.8952603E+000	1.254423970261269E+002	-1.3774298E+000	-3.536168836584976E+002	4.8708245E-001	-1.3773937E+000	0
3.9285531E+000	1.256423970210744E+002	-1.3793956E+000	-3.511205125514609E+002	4.8433408E-001	-1.3793938E+000	0
3.9293497E+000	1.258423970160220E+002	-1.3813987E+000	-3.515591073198375E+002	4.8564330E-001	-1.3813938E+000	0
3.9008987E+000	1.260423970109696E+002	-1.3834132E+000	-3.546396077538820E+002	4.9061310E-001	-1.3833938E+000	0
3.8822711E+000	1.262423970059172E+002	-1.3854108E+000	-3.568557605073020E+002	4.9439183E-001	-1.3853937E+000	0
3.7766407E+000	1.264423970008647E+002	-1.3874012E+000	-3.673638455505552E+002	5.0968105E-001	-1.3873937E+000	0
3.7726908E+000	1.266423969958123E+002	-1.3893903E+000	-3.682757072967752E+002	5.1167870E-001	-1.3893938E+000	0
3.7528455E+000	1.268423969907599E+002	-1.3913879E+000	-3.707554593205177E+002	5.1586467E-001	-1.3913939E+000	0
3.7592709E+000	1.270423969857075E+002	-1.3934337E+000	-3.706659430592508E+002	5.1649839E-001	-1.3933938E+000	0
3.7393432E+000	1.272423969806550E+002	-1.3953619E+000	-3.731569618757094E+002	5.2068901E-001	-1.3953937E+000	0
3.6758013E+000	1.274423969756026E+002	-1.3973857E+000	-3.801581258903561E+002	5.3122753E-001	-1.3973938E+000	0
3.7191536E+000	1.276423969705502E+002	-1.3994061E+000	-3.762700275174620E+002	5.2655458E-001	-1.3993938E+000	0
3.6338553E+000	1.278423969654978E+002	-1.4014127E+000	-3.856545085409600E+002	5.4046112E-001	-1.4013938E+000	0
3.5751271E+000	1.280423969604453E+002	-1.4033941E+000	-3.925438358151187E+002	5.5089372E-001	-1.4033939E+000	0
3.5565519E+000	1.282423969553929E+002	-1.4053742E+000	-3.951507609187879E+002	5.5533469E-001	-1.4053937E+000	0
3.6083462E+000	1.284423969503405E+002	-1.4074085E+000	-3.900425277048225E+002	5.4894918E-001	-1.4073938E+000	0
3.5996776E+000	1.286423969452881E+002	-1.4093962E+000	-3.915340076757930E+002	5.5182654E-001	-1.4093938E+000	0
3.5926757E+000	1.288423969402356E+002	-1.4113684E+000	-3.928460342316398E+002	5.5445045E-001	-1.4113938E+000	0
3.5894871E+000	1.290423969351832E+002	-1.4134135E+000	-3.937647609061951E+002	5.5655241E-001	-1.4133939E+000	0
3.5976701E+000	1.292423969301308E+002	-1.4154048E+000	-3.934226178063282E+002	5.5685228E-001	-1.4153938E+000	0
3.5444822E+000	1.294423969250784E+002	-1.4173808E+000	-3.998837399125896E+002	5.6678754E-001	-1.4173938E+000	0
3.5487540E+000	1.296423969200259E+002	-1.4193983E+000	-3.999708943507576E+002	5.6771803E-001	-1.4193939E+000	0
3.5469317E+000	1.298423969149735E+002	-1.4218994E+000	-4.008815247866555E+002	5.7001323E-001	-1.4213938E+000	0
3.5395131E+000	1.300423969099211E+002	-1.4239039E+000	-4.022880748978041E+002	5.7281959E-001	-1.4233938E+000	0
3.5618658E+000	1.302423969048687E+002	-1.4259117E+000	-4.003271715959968E+002	5.7083118E-001	-1.4253937E+000	0
3.5227103E+000	1.304423968998162E+002	-1.4278779E+000	-4.053350227533261E+002	5.7876891E-001	-1.4273938E+000	0
3.5205624E+000	1.306423968947638E+002	-1.4299086E+000	-4.061591394947791E+002	5.8077043E-001	-1.4293939E+000	0
3.5655825E+000	1.308423968897114E+002	-1.4319037E+000	-4.015904084030462E+002	5.7503879E-001	-1.4313937E+000	0
3.5923018E+000	1.310423968846590E+002	-1.4339448E+000	-3.991715898751681E+002	5.7239002E-001	-1.4333938E+000	0
3.5307755E+000	1.312423968796065E+002	-1.4358739E+000	-4.066737819118034E+002	5.8393228E-001	-1.4353937E+000	0
3.3926177E+000	1.314423968745541E+002	-1.4379259E+000	-4.238396679841467E+002	6.0945004E-001	-1.4373938E+000	0
3.3648033E+000	1.316423968695017E+002	-1.4399543E+000	-4.279460545494449E+002	6.1622274E-001	-1.4393939E+000	0
3.3588617E+000	1.318423968644493E+002	-1.4419581E+000	-4.292996138228855E+002	6.1903203E-001	-1.4413937E+000	0
3.3276551E+000	1.320423968593968E+002	-1.4439794E+000	-4.339329978700671E+002	6.2659031E-001	-1.4433938E+000	0
3.2800238E+000	1.322423968543444E+002	-1.4459441E+000	-4.408333942430636E+002	6.3742042E-001	-1.4453937E+000	0
3.2071505E+000	1.324423968492920E+002	-1.4479584E+000	-4.514781514252120E+002	6.5372157E-001	-1.4473938E+000	0
3.1792972E+000	1.326423968442396E+002	-1.4499321E+000	-4.560542932670421E+002	6.6124773E-001	-1.4493939E+000	0
3.1543298E+000	1.328423968391871E+002	-1.4519627E+000	-4.603078511123476E+002	6.6834986E-001	-1.4513937E+000	0
3.1114995E+000	1.330423968341347E+002	-1.4539518E+000	-4.672833197241189E+002	6.7940742E-001	-1.4533938E+000	0
3.1179235E+000	1.332423968290823E+002	-1.4559436E+000	-4.669593747975873E+002	6.7986649E-001	-1.4553937E+000	0
3.0751977E+000	1.334423968240299E+002	-1.4579792E+000	-4.741091034212350E+002	6.9124120E-001	-1.4573938E+000	0
3.0126503E+000	1.336423968189774E+002	-1.4599646E+000	-4.846113929662033E+002	7.0751548E-001	-1.4593939E+000	0
2.9422503E+000	1.338423968139250E+002	-1.4619811E+000	-4.968921626214260E+002	7.2644693E-001	-1.4613937E+000	0
2.9872305E+000	1.340423968088726E+002	-1.4639537E+000	-4.900705734737367E+002	7.1744066E-001	-1.4633938E+000	0
3.0257175E+000	1.342423968038202E+002	-1.4660137E+000	-4.845176777742336E+002	7.1030957E-001	-1.4653938E+000	0
3.0314293E+000	1.344423967987677E+002	-1.4679633E+000	-4.842479348561155E+002	7.1085823E-001	-1.4673938E+000	0
3.0370355E+000	1.346423967937153E+002	-1.4699708E+000	-4.840150417016466E+002	7.1148801E-001	-1.4693938E+000	0
3.0229368E+000	1.348423967886629E+002	-1.4719633E+000	-4.869315282168591E+002	7.1674532E-001	-1.4713938E+000	0
3.0438888E+000	1.350423967836105E+002	-1.4739690E+000	-4.842387845954117E+002	7.1375293E-001	-1.4733937E+000	0
3.0667162E+000	1.352423967785580E+002	-1.4759798E+000	-4.812899882085212E+002	7.1037430E-001	-1.4753938E+000	0
3.0926468E+000	1.354423967735056E+002	-1.4779695E+000	-4.778979375497538E+002	7.0631862E-001	-1.4773937E+000	0
3.0871429E+000	1.356423967684532E+002	-1.4799629E+000	-4.793956547907978E+002	7.0948780E-001	-1.4793938E+000	0
3.0110843E+000	1.358423967634008E+002	-1.4819692E+000	-4.921712827228384E+002	7.2938269E-001	-1.4813938E+000	0
3.0345089E+000	1.360423967583483E+002	-1.4839823E+000	-4.890354169772072E+002	7.2571993E-001	-1.4833938E+000	0
3.0433185E+000	1.362423967532959E+002	-1.4859549E+000	-4.882679580939330E+002	7.2554415E-001	-1.4853938E+000	0
3.0287294E+000	1.364423967482435E+002	-1.4879836E+000	-4.912896922451037E+002	7.3103100E-001	-1.4873939E+000	0
3.0481491E+000	1.366423967431911E+002	-1.4899777E+000	-4.888139210958361E+002	7.2832185E-001	-1.4893938E+000	0
2.9996827E+000	1.368423967381386E+002	-1.4919908E+000	-4.973828865881669E+002	7.4209070E-001	-1.4913938E+000	0
3.0096920E+000	1.370423967330862E+002	-1.4939560E+000	-4.963817040363429E+002	7.4157244E-001	-1.4933939E+000	0
3.0306716E+000	1.372423967280338E+002	-1.4959818E+000	-4.936139686740189E+002	7.3843753E-001	-1.4953938E+000	0
3.0246089E+000	1.374423967229814E+002	-1.4979721E+000	-4.952614212555109E+002	7.4188781E-001	-1.4973938E+000	0
2.9784667E+000	1.376423967179289E+002	-1.5000221E+000	-5.036222211703700E+002	7.5544447E-001	-1.4993938E+000	0
2.9692223E+000	1.378423967128765E+002	-1.5020221E+000	-5.058638373913413E+002	7.5981867E-001	-1.5013938E+000	0
2.9915025E+000	1.380423967078241E+002	-1.5040221E+000	-5.027647956233986E+002	7.5616938E-001	-1.5033937E+000	0
3.0220680E+000	1.382423967027717E+002	-1.5059941E+000	-4.983323025130367E+002	7.5048548E-001	-1.5053937E+000	0
2.9415596E+000	1.384423966977192E+002	-1.5080041E+000	-5.126546025049129E+002	7.7308524E-001	-1.5073938E+000	0
2.7548106E+000	1.386423966926668E+002	-1.5100362E+000	-5.481452076581063E+002	8.2771915E-001	-1.5093939E+000	0
2.7579823E+000	1.388423966876144E+002	-1.5120327E+000	-5.482387640946595E+002	8.2895494E-001	-1.5113938E+000	0
2.7747338E+000	1.390423966825620E+002	-1.5140355E+000	-5.456507074049014E+002	8.2613450E-001	-1.5133936E+000	0
2.7763293E+000	1.392423966775095E+002	-1.5160116E+000	-5.460489299108121E+002	8.2781649E-001	-1.5153937E+000	0
2.7703526E+000	1.394423966724571E+002	-1.5180295E+000	-5.479553264479496E+002	8.3181232E-001	-1.5173938E+000	0
2.7794321E+000	1.396423966674047E+002	-1.5199777E+000	-5.468662839444060E+002	8.3122456E-001	-1.5193939E+000	0
2.7687647E+000	1.398423966623523E+002	-1.5220754E+000	-5.497308777400413E+002	8.3673185E-001	-1.5213938E+000	0
2.7451086E+000	1.400423966572998E+002	-1.5240526E+000	-5.551884575236163E+002	8.4613645E-001	-1.5233936E+000	0
2.7308166E+000	1.402423966522474E+002	-1.5260731E+000	-5.588339883886501E+002	8.5282153E-001	-1.5253937E+000	0
2.7750673E+000	1.404423966471950E+002	-1.5280631E+000	-5.506400073823479E+002	8.4141266E-001	-1.5273938E+000	0
2.7584646E+000	1.406423966421426E+002	-1.5300024E+000	-5.546572375048818E+002	8.4862685E-001	-1.5293937E+000	0
2.6830688E+000	1.408423966370901E+002	-1.5320445E+000	-5.710045570970360E+002	8.7480444E-001	-1.5313938E+000	0
2.6183095E+000	1.410423966320377E+002	-1.5340614E+000	-5.858976472348570E+002	8.9880300E-001	-1.5333937E+000	0
2.6314378E+000	1.412423966269853E+002	-1.5360698E+000	-5.837377996509572E+002	8.9666200E-001	-1.5353937E+000	0
2.6426804E+000	1.414423966219329E+002	-1.5380369E+000	-5.819988334724958E+002	8.9513570E-001	-1.5373938E+000	0
2.6533139E+000	1.415723966186488E+002	-1.5393283E+000	-5.801531425008980E+002	8.9304620E-001	-1.5386935E+000	0
2.6414375E+000	1.416011966179212E+002	-1.5398431E+000	-5.829564652876415E+002	8.9766151E-001	-1.5390935E+000	1