EC-Lab ASCII FILE
Nb header lines : 61                          

Linear Sweep Voltammetry

Run on channel : 1 (SN 1340)
User : 
Electrode connection : standard
Potential control : Ewe
Ewe ctrl range : min = -5.00 V, max = 5.00 V
Ewe,I filtering : 50 kHz
Channel : Grounded
Acquisition started on : 02/24/2026 16:59:03.550
Technique started on : 02/24/2026 16:59:06.389
Loaded Setting File :  NONE
Saved on :
	File : Ni40_sqmagnet_2_24_02_LSV_C01.mpr
	Directory : C:\Users\volt\Documents\Platalytix\
	Host : 127.0.0.1
Device : SP-200 (SN 0262)
Address : USB
EC-LAB for windows v11.60 (software)
Internet server v11.60 (firmware)
Command interpretor v11.60 (firmware)
Electrode material : Ni40_mag
Initial state : 
Electrolyte : KOH (1M)
Comments : 
Cable : standard
Reference electrode : Hg/HgO (0.140 V)
Electrode surface area : 1.000 cm˛
Characteristic mass : 0.001 g
Equivalent Weight : 0.000 g/eq.
Density : 0.000 g/cm3
Volume (V) : 0.001 cmł
Cycle Definition : Charge/Discharge alternance
tR (h:m:s)          0:00:5.0000         
dER/dt (mV/h)       0.0                 
dER (mV)            0                   
dtR (s)             0.0000              
dE/dt               10.000              
dE/dt unit          mV/s                
Ei (V)              -0.200              
vs.                 Ref                 
EL (V)              -2.500              
vs.                 Ref                 
record              <I>                 
dI                  0.000               
unit dI             µA                  
tI (s)              0.0000              
step percent        50                  
N                   10                  
E range min (V)     -5.000              
E range max (V)     5.000               
I Range             Auto                
I Range min         Unset               
I Range max         Unset               
I Range init        Unset               
Bandwidth           8                   

Rwe/Ohm	time/s	Ewe/V	<I>/mA	Pwe/W	control/V	error	
0.0000000E+000	2.839400134835159E+000	-1.6571872E-001	0.000000000000000E+000	0.0000000E+000	0.0000000E+000	0
0.0000000E+000	7.839200008529588E+000	-3.7799474E-002	0.000000000000000E+000	0.0000000E+000	-1.9997454E-001	0
6.1722905E+003	7.979200004992890E+000	-2.0105556E-001	-3.257389671430372E-002	6.5491631E-006	-2.0127432E-001	0
1.3008657E+003	8.099200001961435E+000	-2.0227699E-001	-1.554941394678277E-001	3.1452888E-005	-2.0247439E-001	0
1.3796106E+003	8.309199996656389E+000	-2.0439161E-001	-1.481516687759112E-001	3.0280959E-005	-2.0457433E-001	0
1.5236490E+003	8.509199991603964E+000	-2.0638733E-001	-1.354559494484465E-001	2.7956392E-005	-2.0657423E-001	0
1.6531226E+003	8.709199986551539E+000	-2.0839877E-001	-1.260637208289317E-001	2.6271526E-005	-2.0857416E-001	0
1.7680092E+003	8.909199981499114E+000	-2.1040854E-001	-1.190087419001134E-001	2.5040456E-005	-2.1057406E-001	0
1.8729491E+003	9.109199976446689E+000	-2.1239175E-001	-1.133996346857726E-001	2.4085146E-005	-2.1257398E-001	0
1.9708857E+003	9.309199971394264E+000	-2.1440086E-001	-1.087840116506782E-001	2.3323386E-005	-2.1457390E-001	0
2.0587996E+003	9.509199966341839E+000	-2.1639833E-001	-1.051089845084569E-001	2.2745409E-005	-2.1657380E-001	0
2.1448066E+003	9.709199961289414E+000	-2.1839829E-001	-1.018265572454690E-001	2.2238746E-005	-2.1857373E-001	0
2.2239282E+003	9.909199956236989E+000	-2.2040996E-001	-9.910839399462223E-002	2.1844477E-005	-2.2057363E-001	0
2.3007898E+003	1.010919995118456E+001	-2.2240165E-001	-9.666318024610021E-002	2.1498050E-005	-2.2257355E-001	0
2.3738809E+003	1.030919994613214E+001	-2.2438936E-001	-9.452427123977358E-002	2.1210240E-005	-2.2457345E-001	0
2.4459082E+003	1.050919994107971E+001	-2.2639887E-001	-9.256228893391300E-002	2.0955998E-005	-2.2657338E-001	0
2.5117554E+003	1.070919993602729E+001	-2.2840309E-001	-9.093365341196891E-002	2.0769528E-005	-2.2857328E-001	0
2.5797905E+003	1.090919993097486E+001	-2.3040862E-001	-8.931291781211681E-002	2.0578467E-005	-2.3057319E-001	0
2.6444768E+003	1.110919992592244E+001	-2.3240225E-001	-8.788213163008166E-002	2.0424006E-005	-2.3257312E-001	0
2.7065728E+003	1.130919992087001E+001	-2.3441160E-001	-8.660827779956559E-002	2.0301984E-005	-2.3457302E-001	0
2.7688018E+003	1.150919991581759E+001	-2.3640710E-001	-8.538245586013160E-002	2.0185018E-005	-2.3657295E-001	0
2.8287732E+003	1.170919991076516E+001	-2.3842302E-001	-8.428495348581100E-002	2.0095473E-005	-2.3857285E-001	0
2.8922927E+003	1.190919990571274E+001	-2.4041192E-001	-8.312157444368695E-002	1.9983418E-005	-2.4057275E-001	0
2.9487390E+003	1.210919990066031E+001	-2.4241112E-001	-8.220840330909351E-002	1.9928231E-005	-2.4257267E-001	0
3.0071770E+003	1.230909989561042E+001	-2.4440131E-001	-8.127267113536241E-002	1.9863148E-005	-2.4457194E-001	0
3.0656533E+003	1.250899989056052E+001	-2.4640724E-001	-8.037674681139939E-002	1.9805413E-005	-2.4657251E-001	0
3.1218757E+003	1.270899988550809E+001	-2.4841189E-001	-7.957135744777200E-002	1.9766472E-005	-2.4857241E-001	0
3.1762627E+003	1.290899988045567E+001	-2.5041085E-001	-7.883820464241142E-002	1.9741943E-005	-2.5057235E-001	0
3.2351802E+003	1.310899987540324E+001	-2.5241211E-001	-7.802103452601994E-002	1.9693454E-005	-2.5257227E-001	0
3.2885945E+003	1.330899987035082E+001	-2.5441656E-001	-7.736331045621236E-002	1.9682508E-005	-2.5457218E-001	0
3.3381091E+003	1.350899986529839E+001	-2.5641781E-001	-7.681528537622867E-002	1.9696807E-005	-2.5657210E-001	0
3.3958401E+003	1.370899986024597E+001	-2.5841695E-001	-7.609809036187098E-002	1.9665036E-005	-2.5857201E-001	0
3.4470999E+003	1.390899985519354E+001	-2.6039529E-001	-7.554039872956797E-002	1.9670364E-005	-2.6057193E-001	0
3.4998933E+003	1.410899985014112E+001	-2.6238766E-001	-7.497019067463651E-002	1.9671254E-005	-2.6257184E-001	0
3.5523425E+003	1.430899984508869E+001	-2.6438954E-001	-7.442681641843740E-002	1.9677673E-005	-2.6457176E-001	0
3.6058120E+003	1.450899984003627E+001	-2.6639062E-001	-7.387812469046898E-002	1.9680439E-005	-2.6657167E-001	0
3.6544241E+003	1.470899983498384E+001	-2.6838887E-001	-7.344217691464938E-002	1.9711062E-005	-2.6857156E-001	0
3.7066279E+003	1.490899982993142E+001	-2.7040225E-001	-7.295100920350062E-002	1.9726118E-005	-2.7057147E-001	0
3.7583818E+003	1.510899982487899E+001	-2.7240840E-001	-7.248023273993498E-002	1.9744224E-005	-2.7257141E-001	0
3.8076431E+003	1.530899981982657E+001	-2.7439398E-001	-7.206399499516825E-002	1.9773926E-005	-2.7457133E-001	0
3.8540640E+003	1.550899981477414E+001	-2.7639729E-001	-7.171580063542371E-002	1.9822053E-005	-2.7657124E-001	0
3.9060510E+003	1.570899980972172E+001	-2.7840436E-001	-7.127514346650543E-002	1.9843310E-005	-2.7857113E-001	0
3.9528884E+003	1.590899980466929E+001	-2.8039303E-001	-7.093370929434317E-002	1.9889318E-005	-2.8057104E-001	0
4.0025291E+003	1.610899979961687E+001	-2.8238988E-001	-7.055286342930667E-002	1.9923415E-005	-2.8257096E-001	0
4.0504417E+003	1.630899979456444E+001	-2.8440958E-001	-7.021693056058564E-002	1.9970368E-005	-2.8457087E-001	0
4.0982529E+003	1.650899978951202E+001	-2.8639597E-001	-6.988245315159197E-002	2.0014053E-005	-2.8657079E-001	0
4.1462100E+003	1.670899978445959E+001	-2.8842056E-001	-6.956245509966719E-002	2.0063242E-005	-2.8857073E-001	0
4.1928467E+003	1.690889977940969E+001	-2.9041016E-001	-6.926324178987114E-002	2.0114749E-005	-2.9057020E-001	0
4.2391533E+003	1.710879977435980E+001	-2.9239446E-001	-6.897473248522151E-002	2.0167830E-005	-2.9257053E-001	0
4.2891909E+003	1.730879976930737E+001	-2.9440290E-001	-6.863833243785514E-002	2.0207324E-005	-2.9457048E-001	0
4.3327881E+003	1.750879976425495E+001	-2.9640761E-001	-6.841036584809024E-002	2.0277354E-005	-2.9657036E-001	0
4.3740630E+003	1.770879975920252E+001	-2.9841393E-001	-6.822350712455039E-002	2.0358844E-005	-2.9857028E-001	0
4.4217466E+003	1.790879975415010E+001	-3.0040902E-001	-6.793899297959216E-002	2.0409487E-005	-3.0057019E-001	0
4.4670195E+003	1.810879974909767E+001	-3.0241287E-001	-6.769902447593346E-002	2.0473057E-005	-3.0257010E-001	0
4.5099063E+003	1.830879974404525E+001	-3.0440289E-001	-6.749650334058743E-002	2.0546131E-005	-3.0457002E-001	0
4.5551812E+003	1.850879973899282E+001	-3.0642045E-001	-6.726855571200141E-002	2.0612461E-005	-3.0656993E-001	0
4.5975244E+003	1.870879973394040E+001	-3.0840048E-001	-6.707968407198595E-002	2.0687407E-005	-3.0856985E-001	0
4.6400854E+003	1.890879972888797E+001	-3.1041408E-001	-6.689835293693644E-002	2.0766191E-005	-3.1056973E-001	0
4.6858784E+003	1.910879972383555E+001	-3.1238374E-001	-6.666492535510904E-002	2.0825039E-005	-3.1256968E-001	0
4.7293027E+003	1.930879971878312E+001	-3.1439796E-001	-6.647871471012246E-002	2.0900772E-005	-3.1456959E-001	0
4.7673813E+003	1.950879971373070E+001	-3.1640893E-001	-6.636954699072772E-002	2.0999918E-005	-3.1656951E-001	0
4.8057354E+003	1.970879970867827E+001	-3.1841937E-001	-6.625820029486845E-002	2.1097894E-005	-3.1856942E-001	0
4.8482427E+003	1.990879970362585E+001	-3.2041019E-001	-6.608790336356252E-002	2.1175238E-005	-3.2056934E-001	0
4.8893765E+003	2.010879969857342E+001	-3.2240635E-001	-6.594017863140567E-002	2.1259533E-005	-3.2256925E-001	0
4.9268379E+003	2.030879969352100E+001	-3.2442671E-001	-6.584887359927005E-002	2.1363134E-005	-3.2456917E-001	0
4.9695005E+003	2.050879968846857E+001	-3.2641163E-001	-6.568298446565682E-002	2.1439690E-005	-3.2656908E-001	0
5.0050215E+003	2.070879968341615E+001	-3.2840845E-001	-6.561579030427422E-002	2.1548780E-005	-3.2856897E-001	0
5.0449727E+003	2.090879967836372E+001	-3.3042261E-001	-6.549542270919662E-002	2.1641168E-005	-3.3056891E-001	0
5.0816460E+003	2.110879967331130E+001	-3.3241352E-001	-6.541453981814305E-002	2.1744678E-005	-3.3256879E-001	0
5.1177119E+003	2.130879966825887E+001	-3.3442560E-001	-6.534670302623240E-002	2.1853610E-005	-3.3456874E-001	0
5.1620483E+003	2.150869966320897E+001	-3.3640224E-001	-6.516836392861758E-002	2.1922784E-005	-3.3656800E-001	0
5.1970591E+003	2.170859965815907E+001	-3.3841202E-001	-6.511606274293037E-002	2.2036058E-005	-3.3856854E-001	0
5.2312710E+003	2.190859965310665E+001	-3.4042597E-001	-6.507519021885810E-002	2.2153285E-005	-3.4056845E-001	0
5.2647881E+003	2.210859964805422E+001	-3.4242511E-001	-6.504062503151797E-002	2.2271543E-005	-3.4256837E-001	0
5.3029678E+003	2.230859964300180E+001	-3.4442276E-001	-6.494905820428945E-002	2.2369934E-005	-3.4456828E-001	0
5.3351421E+003	2.250859963794937E+001	-3.4642890E-001	-6.493339711977611E-002	2.2494805E-005	-3.4656823E-001	0
5.3688862E+003	2.270859963289695E+001	-3.4842086E-001	-6.489629872711333E-002	2.2611224E-005	-3.4856817E-001	0
5.4067979E+003	2.290859962784452E+001	-3.5042295E-001	-6.481155146772888E-002	2.2711454E-005	-3.5056806E-001	0
5.4357500E+003	2.310859962279210E+001	-3.5240024E-001	-6.483010310455817E-002	2.2846145E-005	-3.5256797E-001	0
5.4666821E+003	2.330859961773967E+001	-3.5442141E-001	-6.483299931238851E-002	2.2978204E-005	-3.5456792E-001	0
5.5004531E+003	2.350859961268725E+001	-3.5642377E-001	-6.479898196657774E-002	2.3095898E-005	-3.5656777E-001	0
5.5311206E+003	2.370859960763482E+001	-3.5841379E-001	-6.479948573447991E-002	2.3225030E-005	-3.5856771E-001	0
5.5632085E+003	2.390859960258240E+001	-3.6040187E-001	-6.478309627493525E-002	2.3347950E-005	-3.6056760E-001	0
5.5917598E+003	2.410859959752997E+001	-3.6241081E-001	-6.481158537283327E-002	2.3488419E-005	-3.6256751E-001	0
5.6193511E+003	2.430859959247755E+001	-3.6439678E-001	-6.484677057392274E-002	2.3629955E-005	-3.6456746E-001	0
5.6482656E+003	2.450859958742512E+001	-3.6639971E-001	-6.486941925186673E-002	2.3768136E-005	-3.6656734E-001	0
5.6843418E+003	2.470859958237270E+001	-3.6839801E-001	-6.480926422818289E-002	2.3875604E-005	-3.6856726E-001	0
5.7080337E+003	2.490859957732027E+001	-3.7039119E-001	-6.488945565551796E-002	2.4034483E-005	-3.7056717E-001	0
5.7317798E+003	2.510859957226785E+001	-3.7241668E-001	-6.497400455216962E-002	2.4197403E-005	-3.7256709E-001	0
5.7639966E+003	2.530859956721542E+001	-3.7440330E-001	-6.495550106218273E-002	2.4319554E-005	-3.7456700E-001	0
5.7893062E+003	2.550859956216300E+001	-3.7639835E-001	-6.501614517963095E-002	2.4471970E-005	-3.7656692E-001	0
5.8162212E+003	2.570859955711057E+001	-3.7841895E-001	-6.506268022520695E-002	2.4620951E-005	-3.7856686E-001	0
5.8422842E+003	2.590859955205815E+001	-3.8039476E-001	-6.511062168138193E-002	2.4767740E-005	-3.8056675E-001	0
5.8495752E+003	2.610849954700825E+001	-3.8240340E-001	-6.537284857823034E-002	2.4998801E-005	-3.8256577E-001	0
5.8845527E+003	2.630839954195835E+001	-3.8441062E-001	-6.532537373830316E-002	2.5111767E-005	-3.8456661E-001	0
5.9090723E+003	2.650839953690593E+001	-3.8640532E-001	-6.539187392234669E-002	2.5267767E-005	-3.8656649E-001	0
5.9276904E+003	2.670839953185350E+001	-3.8841358E-001	-6.552528046270067E-002	2.5450909E-005	-3.8856640E-001	0
5.9534502E+003	2.690839952680108E+001	-3.9040887E-001	-6.557690916749792E-002	2.5601807E-005	-3.9056629E-001	0
5.9771328E+003	2.710839952174865E+001	-3.9240146E-001	-6.565044885828614E-002	2.5761332E-005	-3.9256623E-001	0
6.0044336E+003	2.730839951669623E+001	-3.9439616E-001	-6.568415664123739E-002	2.5905580E-005	-3.9456615E-001	0
6.0180171E+003	2.750839951164380E+001	-3.9638999E-001	-6.586720775749513E-002	2.6109103E-005	-3.9656603E-001	0
6.0392544E+003	2.770839950659138E+001	-3.9841101E-001	-6.597023318171102E-002	2.6283267E-005	-3.9856598E-001	0
6.0507324E+003	2.790839950153895E+001	-4.0039721E-001	-6.617334519318654E-002	2.6495623E-005	-4.0056589E-001	0
6.0633755E+003	2.810839949648653E+001	-4.0239355E-001	-6.636461034488961E-002	2.6704691E-005	-4.0256584E-001	0
6.0828188E+003	2.830839949143410E+001	-4.0439206E-001	-6.648103038668474E-002	2.6884401E-005	-4.0456569E-001	0
6.1020356E+003	2.850839948638168E+001	-4.0642387E-001	-6.660463551034002E-002	2.7069713E-005	-4.0656564E-001	0
6.1234780E+003	2.870839948132925E+001	-4.0840816E-001	-6.669545764749718E-002	2.7238970E-005	-4.0856552E-001	0
6.1413208E+003	2.890839947627683E+001	-4.1039968E-001	-6.682596489620274E-002	2.7425354E-005	-4.1056544E-001	0
6.1523872E+003	2.910839947122440E+001	-4.1243890E-001	-6.703721675303759E-002	2.7648755E-005	-4.1256535E-001	0
6.1672080E+003	2.930839946617198E+001	-4.1443208E-001	-6.719930278868014E-002	2.7849546E-005	-4.1456529E-001	0
6.1889150E+003	2.950839946111955E+001	-4.1645288E-001	-6.729012781431037E-002	2.8023167E-005	-4.1656518E-001	0
6.2061943E+003	2.970839945606713E+001	-4.1843399E-001	-6.742199416570138E-002	2.8211654E-005	-4.1856512E-001	0
6.2218354E+003	2.990839945101470E+001	-4.2043820E-001	-6.757462675875370E-002	2.8410954E-005	-4.2056498E-001	0
6.2368560E+003	3.010839944596228E+001	-4.2242441E-001	-6.773034526856717E-002	2.8610952E-005	-4.2256492E-001	0
6.2474180E+003	3.030839944090985E+001	-4.2444649E-001	-6.793950556390926E-002	2.8836685E-005	-4.2456484E-001	0
6.2673828E+003	3.050839943585743E+001	-4.2644241E-001	-6.804154561452425E-002	2.9015800E-005	-4.2656478E-001	0
6.2787334E+003	3.070839943080500E+001	-4.2843351E-001	-6.823565955474420E-002	2.9234443E-005	-4.2856467E-001	0
6.2987700E+003	3.090829942575510E+001	-4.3042290E-001	-6.833443739693656E-002	2.9412708E-005	-4.3056509E-001	0
6.3054707E+003	3.110819942070520E+001	-4.3243456E-001	-6.858085304743677E-002	2.9656730E-005	-4.3256453E-001	0
6.3247510E+003	3.130819941565278E+001	-4.3442753E-001	-6.868690126702226E-002	2.9839481E-005	-4.3456441E-001	0
6.3357227E+003	3.150819941060035E+001	-4.3643281E-001	-6.888445697950774E-002	3.0063436E-005	-4.3656433E-001	0
6.3465298E+003	3.170819940554793E+001	-4.3843877E-001	-6.908322986090742E-002	3.0288767E-005	-4.3856421E-001	0
6.3634893E+003	3.190819940049551E+001	-4.4043875E-001	-6.921340462164605E-002	3.0484265E-005	-4.4056416E-001	0
6.3797363E+003	3.210819939544308E+001	-4.4243529E-001	-6.935008859489877E-002	3.0682928E-005	-4.4256407E-001	0
6.3913481E+003	3.230819939039066E+001	-4.4444570E-001	-6.953864434708645E-002	3.0906151E-005	-4.4456401E-001	0
6.4052061E+003	3.250819938533823E+001	-4.4643825E-001	-6.969927820480482E-002	3.1116422E-005	-4.4656387E-001	0
6.4179258E+003	3.270819938028581E+001	-4.4843212E-001	-6.987181462267245E-002	3.1332766E-005	-4.4856381E-001	0
6.4327305E+003	3.290819937523338E+001	-4.5044288E-001	-7.002359005472647E-002	3.1541629E-005	-4.5056373E-001	0
6.4482935E+003	3.310819937018096E+001	-4.5244715E-001	-7.016540873878085E-002	3.1746138E-005	-4.5256367E-001	0
6.4556177E+003	3.330819936512853E+001	-4.5443287E-001	-7.039340045894438E-002	3.1989075E-005	-4.5456356E-001	0
6.4755190E+003	3.350819936007611E+001	-4.5643821E-001	-7.048673880848261E-002	3.2172840E-005	-4.5656350E-001	0
6.4901016E+003	3.370819935502368E+001	-4.5843413E-001	-7.063589412919635E-002	3.2381904E-005	-4.5856336E-001	0
6.5065986E+003	3.390819934997126E+001	-4.6042866E-001	-7.076333993000472E-002	3.2581469E-005	-4.6056330E-001	0
6.5237271E+003	3.410819934491883E+001	-4.6244711E-001	-7.088694865540801E-002	3.2781463E-005	-4.6256316E-001	0
6.5382510E+003	3.430819933986641E+001	-4.6443650E-001	-7.103375122246747E-002	3.2990665E-005	-4.6456316E-001	0
6.5561499E+003	3.450819933481398E+001	-4.6642223E-001	-7.114270450378379E-002	3.3182539E-005	-4.6656302E-001	0
6.5687661E+003	3.470819932976156E+001	-4.6842366E-001	-7.131075312630553E-002	3.3403645E-005	-4.6856299E-001	0
6.5817881E+003	3.490819932470913E+001	-4.7041202E-001	-7.147176434389446E-002	3.3621178E-005	-4.7056285E-001	0
6.6014082E+003	3.510819931965671E+001	-4.7242770E-001	-7.156468701629115E-002	3.3809141E-005	-4.7256285E-001	0
6.6192280E+003	3.530819931460428E+001	-4.7441921E-001	-7.167288899430169E-002	3.4002995E-005	-4.7456270E-001	0
6.6381289E+003	3.550809930955438E+001	-4.7642648E-001	-7.177120200542397E-002	3.4193701E-005	-4.7656289E-001	0
6.6627339E+003	3.570799930450448E+001	-4.7840607E-001	-7.180327014383026E-002	3.4351120E-005	-4.7856250E-001	0
6.6744370E+003	3.590799929945206E+001	-4.8042634E-001	-7.198005688562570E-002	3.4581117E-005	-4.8056245E-001	0
6.6961563E+003	3.610799929439963E+001	-4.8243269E-001	-7.204621309697484E-002	3.4757450E-005	-4.8256233E-001	0
6.7179448E+003	3.630799928934721E+001	-4.8441023E-001	-7.210690781786688E-002	3.4929322E-005	-4.8456228E-001	0
6.7360122E+003	3.650799928429478E+001	-4.8642936E-001	-7.221325337749518E-002	3.5126646E-005	-4.8656219E-001	0
6.7581143E+003	3.670799927924236E+001	-4.8843911E-001	-7.227446795219455E-002	3.5301677E-005	-4.8856211E-001	0
6.7850732E+003	3.690799927418993E+001	-4.9044436E-001	-7.228283763413357E-002	3.5450710E-005	-4.9056202E-001	0
6.8067964E+003	3.710799926913751E+001	-4.9241760E-001	-7.234205101308322E-002	3.5622499E-005	-4.9256191E-001	0
6.8160142E+003	3.730799926408508E+001	-4.9441567E-001	-7.253735768661573E-002	3.5863606E-005	-4.9456185E-001	0
6.7819712E+003	3.750799925903266E+001	-4.9642307E-001	-7.319746053167331E-002	3.6336907E-005	-4.9656174E-001	0
6.8685474E+003	3.770799925398023E+001	-4.9842286E-001	-7.256597824407374E-002	3.6168542E-005	-4.9856168E-001	0
6.8981694E+003	3.790799924892781E+001	-5.0041485E-001	-7.254313762603848E-002	3.6301662E-005	-5.0056159E-001	0
6.9274297E+003	3.810799924387538E+001	-5.0242376E-001	-7.252672151134454E-002	3.6439149E-005	-5.0256157E-001	0
6.9521108E+003	3.830799923882296E+001	-5.0441587E-001	-7.255578860102024E-002	3.6598292E-005	-5.0456142E-001	0
6.9813813E+003	3.850799923377053E+001	-5.0640911E-001	-7.253709519672680E-002	3.6733447E-005	-5.0656140E-001	0
7.0058843E+003	3.870799922871811E+001	-5.0841695E-001	-7.256999029197186E-002	3.6895814E-005	-5.0856125E-001	0
7.0369111E+003	3.890799922366568E+001	-5.1043195E-001	-7.253636308267808E-002	3.7024878E-005	-5.1056117E-001	0
7.0676523E+003	3.910799921861326E+001	-5.1241559E-001	-7.250152700717905E-002	3.7150912E-005	-5.1256102E-001	0
7.0944204E+003	3.930799921356083E+001	-5.1442856E-001	-7.251170874719015E-002	3.7302092E-005	-5.1456106E-001	0
7.1276772E+003	3.950799920850841E+001	-5.1641649E-001	-7.245228494952555E-002	3.7415553E-005	-5.1656091E-001	0
7.1539717E+003	3.970799920345598E+001	-5.1841599E-001	-7.246547984698454E-002	3.7567264E-005	-5.1856089E-001	0
7.1873926E+003	3.990799919840356E+001	-5.2042657E-001	-7.240825685642904E-002	3.7683181E-005	-5.2056074E-001	0
7.2135386E+003	4.010789919335366E+001	-5.2240741E-001	-7.242040971766994E-002	3.7832961E-005	-5.2256095E-001	0
7.2506479E+003	4.030779918830376E+001	-5.2440959E-001	-7.232589351991087E-002	3.7928392E-005	-5.2456057E-001	0
7.2815430E+003	4.050779918325134E+001	-5.2640855E-001	-7.229354351868789E-002	3.8055940E-005	-5.2656054E-001	0
7.3198574E+003	4.070779917819891E+001	-5.2842826E-001	-7.219105716287921E-002	3.8147795E-005	-5.2856040E-001	0
7.3474800E+003	4.090779917314649E+001	-5.3042847E-001	-7.219189243515745E-002	3.8292634E-005	-5.3056037E-001	0
7.3801348E+003	4.110779916809406E+001	-5.3239769E-001	-7.213929222311671E-002	3.8406793E-005	-5.3256023E-001	0
7.4158140E+003	4.130779916304164E+001	-5.3442144E-001	-7.206510898684593E-002	3.8513139E-005	-5.3456014E-001	0
7.4526548E+003	4.150779915798921E+001	-5.3642309E-001	-7.197745009473255E-002	3.8610367E-005	-5.3656006E-001	0
7.4832466E+003	4.170779915293679E+001	-5.3841656E-001	-7.194959505856058E-002	3.8738854E-005	-5.3855991E-001	0
7.5138027E+003	4.190779914788436E+001	-5.4042584E-001	-7.192440944155687E-002	3.8869810E-005	-5.4055989E-001	0
7.5599917E+003	4.210779914283194E+001	-5.4242748E-001	-7.174974472511164E-002	3.8919032E-005	-5.4255980E-001	0
7.5952676E+003	4.230779913777951E+001	-5.4442096E-001	-7.167896878157998E-002	3.9023533E-005	-5.4455972E-001	0
7.6314214E+003	4.250779913272709E+001	-5.4643112E-001	-7.160279885475068E-002	3.9125996E-005	-5.4655963E-001	0
7.6711372E+003	4.270779912767466E+001	-5.4843622E-001	-7.149347111154092E-002	3.9209608E-005	-5.4855955E-001	0
7.7139941E+003	4.290779912262224E+001	-5.5040818E-001	-7.135190771282343E-002	3.9272672E-005	-5.5055946E-001	0
7.7455215E+003	4.310779911756981E+001	-5.5240309E-001	-7.131902983067939E-002	3.9396851E-005	-5.5255938E-001	0
7.7798486E+003	4.330779911251739E+001	-5.5443233E-001	-7.126518295731496E-002	3.9511720E-005	-5.5455929E-001	0
7.8163608E+003	4.350779910746496E+001	-5.5643511E-001	-7.118851196679743E-002	3.9611787E-005	-5.5655921E-001	0
7.8605859E+003	4.370779910241254E+001	-5.5842489E-001	-7.104112900573922E-002	3.9671133E-005	-5.5855906E-001	0
7.8994419E+003	4.390779909736011E+001	-5.6041938E-001	-7.094417413582621E-002	3.9758492E-005	-5.6055903E-001	0
7.9340703E+003	4.410779909230769E+001	-5.6241995E-001	-7.088668538730514E-002	3.9868086E-005	-5.6255889E-001	0
7.9728491E+003	4.430779908725526E+001	-5.6442910E-001	-7.079390466082322E-002	3.9958140E-005	-5.6455886E-001	0
8.0169380E+003	4.450779908220284E+001	-5.6642419E-001	-7.065343103781252E-002	4.0019811E-005	-5.6655872E-001	0
8.0558584E+003	4.470769907715294E+001	-5.6842333E-001	-7.056024487386103E-002	4.0108091E-005	-5.6855869E-001	0
8.0974546E+003	4.490759907210304E+001	-5.7038593E-001	-7.044015092407747E-002	4.0178071E-005	-5.7055855E-001	0
8.1386221E+003	4.510759906705061E+001	-5.7240671E-001	-7.033214107094565E-002	4.0258590E-005	-5.7255852E-001	0
8.1816694E+003	4.530759906199819E+001	-5.7440674E-001	-7.020654596912063E-002	4.0327115E-005	-5.7455844E-001	0
8.2251992E+003	4.550759905694576E+001	-5.7640207E-001	-7.007757816864957E-002	4.0392861E-005	-5.7655835E-001	0
8.2547227E+003	4.570759905189334E+001	-5.7840967E-001	-7.007014941711343E-002	4.0529252E-005	-5.7855827E-001	0
8.3033555E+003	4.590759904684091E+001	-5.8040899E-001	-6.990053629832116E-002	4.0570900E-005	-5.8055818E-001	0
8.3458408E+003	4.610759904178849E+001	-5.8239841E-001	-6.978307582454873E-002	4.0641553E-005	-5.8255804E-001	0
8.3808828E+003	4.630759903673606E+001	-5.8441597E-001	-6.973202600536665E-002	4.0752511E-005	-5.8455801E-001	0
8.4246699E+003	4.650759903168364E+001	-5.8639944E-001	-6.960503042827590E-002	4.0816351E-005	-5.8655792E-001	0
8.4647676E+003	4.670759902663121E+001	-5.8840007E-001	-6.951166560520705E-002	4.0900668E-005	-5.8855778E-001	0
8.5032246E+003	4.690759902157879E+001	-5.9040135E-001	-6.943264364343027E-002	4.0993127E-005	-5.9055775E-001	0
8.5479932E+003	4.710759901652636E+001	-5.9239662E-001	-6.930241872062370E-002	4.1054518E-005	-5.9255761E-001	0
8.5887510E+003	4.730759901147394E+001	-5.9440136E-001	-6.920696278218852E-002	4.1136715E-005	-5.9455758E-001	0
8.6221953E+003	4.750759900642151E+001	-5.9639406E-001	-6.916963175475577E-002	4.1252359E-005	-5.9655744E-001	0
8.6654902E+003	4.770759900136909E+001	-5.9841084E-001	-6.905677683425471E-002	4.1324325E-005	-5.9855741E-001	0
8.7056113E+003	4.790759899631666E+001	-6.0040367E-001	-6.896743200700338E-002	4.1408301E-005	-6.0055727E-001	0
8.7408398E+003	4.810759899126424E+001	-6.0240740E-001	-6.891870509269213E-002	4.1517138E-005	-6.0255724E-001	0
8.7870996E+003	4.830759898621181E+001	-6.0441953E-001	-6.878487536284528E-002	4.1574924E-005	-6.0455710E-001	0
8.8269150E+003	4.850759898115939E+001	-6.0641056E-001	-6.870017213748997E-002	4.1660511E-005	-6.0655707E-001	0
8.8653018E+003	4.870759897610697E+001	-6.0841483E-001	-6.862877996463124E-002	4.1754767E-005	-6.0855693E-001	0
8.9008896E+003	4.890759897105454E+001	-6.1040264E-001	-6.857771388320524E-002	4.1860018E-005	-6.1055690E-001	0
8.9446123E+003	4.910759896600212E+001	-6.1241794E-001	-6.846780481995396E-002	4.1930911E-005	-6.1255676E-001	0
8.9778906E+003	4.930749896095222E+001	-6.1441439E-001	-6.843638662369189E-002	4.2048301E-005	-6.1455655E-001	0
9.0208379E+003	4.950739895590232E+001	-6.1642218E-001	-6.833314271474822E-002	4.2122065E-005	-6.1655658E-001	0
9.0571855E+003	4.970739895084989E+001	-6.1843002E-001	-6.828059780447293E-002	4.2226773E-005	-6.1855656E-001	0
9.0949629E+003	4.990739894579747E+001	-6.2043250E-001	-6.821715668141570E-002	4.2324140E-005	-6.2055641E-001	0
9.1363779E+003	5.010739894074504E+001	-6.2241983E-001	-6.812544751494221E-002	4.2402629E-005	-6.2255633E-001	0
9.1715332E+003	5.030739893569262E+001	-6.2443256E-001	-6.808376870521449E-002	4.2513722E-005	-6.2455630E-001	0
9.2149844E+003	5.050739893064019E+001	-6.2643462E-001	-6.797999959246864E-002	4.2585027E-005	-6.2655616E-001	0
9.2462783E+003	5.070739892558777E+001	-6.2844265E-001	-6.796709276406332E-002	4.2713418E-005	-6.2855607E-001	0
9.2190977E+003	5.090739892053534E+001	-6.3042289E-001	-6.838227871830760E-002	4.3109754E-005	-6.3055605E-001	0
9.3057754E+003	5.110739891548292E+001	-6.3243413E-001	-6.796146289059002E-002	4.2981148E-005	-6.3255590E-001	0
9.3394307E+003	5.130739891043049E+001	-6.3441294E-001	-6.792843958379824E-002	4.3094682E-005	-6.3455582E-001	0
9.3902393E+003	5.150739890537807E+001	-6.3640696E-001	-6.777323879799957E-002	4.3131360E-005	-6.3655573E-001	0
9.3895547E+003	5.170739890032564E+001	-6.3842267E-001	-6.799286095131962E-002	4.3408185E-005	-6.3855565E-001	0
9.4510654E+003	5.190739889527322E+001	-6.4043456E-001	-6.776321607075897E-002	4.3397904E-005	-6.4055556E-001	0
9.4806152E+003	5.210739889022079E+001	-6.4245707E-001	-6.776533314330999E-002	4.3536318E-005	-6.4255548E-001	0
9.5189443E+003	5.230739888516837E+001	-6.4444810E-001	-6.770163539917462E-002	4.3630189E-005	-6.4455539E-001	0
9.5537188E+003	5.250739888011594E+001	-6.4643341E-001	-6.766301651364914E-002	4.3739634E-005	-6.4655530E-001	0
9.5898721E+003	5.270739887506352E+001	-6.4843595E-001	-6.761674391097339E-002	4.3845128E-005	-6.4855522E-001	0
9.6225381E+003	5.290739887001109E+001	-6.5042847E-001	-6.759427510182912E-002	4.3965239E-005	-6.5055513E-001	0
9.6557900E+003	5.310739886495867E+001	-6.5242642E-001	-6.756841364293398E-002	4.4083419E-005	-6.5255505E-001	0
9.6890596E+003	5.330739885990624E+001	-6.5442997E-001	-6.754318573945045E-002	4.4202287E-005	-6.5455496E-001	0
9.7104775E+003	5.350739885485382E+001	-6.5643275E-001	-6.760045713977347E-002	4.4375152E-005	-6.5655494E-001	0
9.7387998E+003	5.370739884980139E+001	-6.5844011E-001	-6.760998557442099E-002	4.4517128E-005	-6.5855479E-001	0
9.7747441E+003	5.390729884475149E+001	-6.6042233E-001	-6.756415167140972E-002	4.4620872E-005	-6.6055429E-001	0
9.7958828E+003	5.410719883970160E+001	-6.6243827E-001	-6.762415400543609E-002	4.4796827E-005	-6.6255462E-001	0
9.8390654E+003	5.430719883464917E+001	-6.6442484E-001	-6.752926123047610E-002	4.4868117E-005	-6.6455454E-001	0
9.8484863E+003	5.450719882959675E+001	-6.6641128E-001	-6.766636622700062E-002	4.5093631E-005	-6.6655439E-001	0
9.8908271E+003	5.470719882454432E+001	-6.6842669E-001	-6.758046761691516E-002	4.5172590E-005	-6.6855437E-001	0
9.9223135E+003	5.490719881949190E+001	-6.7040610E-001	-6.756550254978155E-002	4.5296325E-005	-6.7055428E-001	0
9.9453652E+003	5.510719881443947E+001	-6.7239970E-001	-6.760935466303611E-002	4.5460511E-005	-6.7255419E-001	0
9.9726055E+003	5.530719880938705E+001	-6.7439687E-001	-6.762494072856567E-002	4.5606048E-005	-6.7455411E-001	0
9.9917920E+003	5.550719880433462E+001	-6.7640311E-001	-6.769587328581483E-002	4.5789700E-005	-6.7655402E-001	0
1.0021147E+004	5.570719879928220E+001	-6.7838162E-001	-6.769500547321006E-002	4.5923047E-005	-6.7855394E-001	0
1.0036244E+004	5.590719879422977E+001	-6.8040520E-001	-6.779480065787197E-002	4.6127934E-005	-6.8055385E-001	0
1.0067553E+004	5.610719878917735E+001	-6.8239164E-001	-6.778128576927400E-002	4.6253383E-005	-6.8255377E-001	0
1.0095576E+004	5.630719878412492E+001	-6.8438137E-001	-6.779022554522726E-002	4.6394369E-005	-6.8455368E-001	0
1.0108645E+004	5.650719877907250E+001	-6.8637824E-001	-6.790012859131143E-002	4.6605172E-005	-6.8655360E-001	0
1.0133179E+004	5.670719877402007E+001	-6.8839639E-001	-6.793489402145247E-002	4.6766138E-005	-6.8855351E-001	0
1.0164304E+004	5.690719876896765E+001	-6.9039732E-001	-6.792372318782935E-002	4.6894358E-005	-6.9055343E-001	0
1.0185568E+004	5.710719876391522E+001	-6.9240469E-001	-6.797899070402802E-002	4.7068970E-005	-6.9255328E-001	0
1.0209293E+004	5.730719875886280E+001	-6.9439602E-001	-6.801607327898984E-002	4.7230089E-005	-6.9455332E-001	0
1.0229144E+004	5.750719875381037E+001	-6.9639301E-001	-6.807930612474145E-002	4.7409954E-005	-6.9655311E-001	0
1.0253503E+004	5.770719874875795E+001	-6.9839722E-001	-6.811303664906940E-002	4.7569956E-005	-6.9855309E-001	0
1.0269201E+004	5.790719874370552E+001	-7.0040232E-001	-6.820416483445238E-002	4.7770354E-005	-7.0055300E-001	0
1.0285250E+004	5.810719873865310E+001	-7.0241606E-001	-6.829353486126505E-002	4.7970476E-005	-7.0255297E-001	0
1.0302624E+004	5.830719873360067E+001	-7.0440692E-001	-6.837160338155646E-002	4.8161430E-005	-7.0455277E-001	0
1.0329780E+004	5.850719872854825E+001	-7.0641136E-001	-6.838590577507747E-002	4.8308582E-005	-7.0655304E-001	0
1.0338429E+004	5.870699872350087E+001	-7.0840847E-001	-6.852187081211936E-002	4.8541475E-005	-7.0855266E-001	0
1.0366378E+004	5.890699871844845E+001	-7.1041012E-001	-6.853021523237313E-002	4.8684557E-005	-7.1055257E-001	0
1.0383945E+004	5.910699871339602E+001	-7.1240455E-001	-6.860634465195048E-002	4.8875470E-005	-7.1255249E-001	0
1.0392655E+004	5.930699870834360E+001	-7.1439105E-001	-6.873999031095890E-002	4.9107235E-005	-7.1455240E-001	0
1.0410759E+004	5.950699870329117E+001	-7.1640366E-001	-6.881378102169089E-002	4.9298444E-005	-7.1655226E-001	0
1.0425417E+004	5.970699869823875E+001	-7.1839690E-001	-6.890822005037922E-002	4.9503451E-005	-7.1855217E-001	0
1.0452080E+004	5.990699869318632E+001	-7.2041219E-001	-6.892524444014470E-002	4.9654587E-005	-7.2055215E-001	0
1.0458766E+004	6.010699868813390E+001	-7.2241044E-001	-6.907224499138998E-002	4.9898510E-005	-7.2255200E-001	0
1.0474255E+004	6.030699868308147E+001	-7.2439557E-001	-6.915962783928070E-002	5.0098930E-005	-7.2455198E-001	0
1.0478502E+004	6.050699867802905E+001	-7.2638267E-001	-6.932122973184540E-002	5.0353741E-005	-7.2655189E-001	0
1.0494085E+004	6.070699867297662E+001	-7.2839493E-001	-6.941004899222741E-002	5.0557926E-005	-7.2855181E-001	0
1.0505235E+004	6.090699866792420E+001	-7.3040557E-001	-6.952776978121844E-002	5.0783470E-005	-7.3055166E-001	0
1.0510854E+004	6.110699866287177E+001	-7.3240256E-001	-6.968060128133091E-002	5.1034251E-005	-7.3255163E-001	0
1.0528026E+004	6.130699865781935E+001	-7.3437852E-001	-6.975462365855395E-002	5.1226296E-005	-7.3455149E-001	0
1.0534828E+004	6.150699865276692E+001	-7.3639035E-001	-6.990055758463817E-002	5.1474097E-005	-7.3655146E-001	0
1.0535395E+004	6.170699864771450E+001	-7.3838955E-001	-7.008656018884540E-002	5.1751183E-005	-7.3855138E-001	0
1.0538599E+004	6.190699864266207E+001	-7.4037832E-001	-7.025396290114871E-002	5.2014511E-005	-7.4055135E-001	0
1.0553322E+004	6.210699863760965E+001	-7.4237353E-001	-7.034500657164755E-002	5.2222269E-005	-7.4255115E-001	0
1.0550655E+004	6.230699863255722E+001	-7.4440306E-001	-7.055515033042976E-002	5.2521471E-005	-7.4455118E-001	0
1.0549777E+004	6.250699862750480E+001	-7.4640584E-001	-7.075086101000505E-002	5.2808857E-005	-7.4655098E-001	0
1.0535211E+004	6.270699862245237E+001	-7.4839866E-001	-7.103784531597790E-002	5.3164629E-005	-7.4855095E-001	0
1.0541859E+004	6.290699861739995E+001	-7.5039142E-001	-7.118207395452647E-002	5.3414416E-005	-7.5055075E-001	0
1.0550679E+004	6.310689861235005E+001	-7.5239408E-001	-7.131238885105018E-002	5.3655018E-005	-7.5254989E-001	0
1.0531426E+004	6.330679860730015E+001	-7.5439411E-001	-7.163266726667605E-002	5.4039261E-005	-7.5455040E-001	0
1.0530346E+004	6.350679860224773E+001	-7.5638419E-001	-7.182899710844737E-002	5.4330318E-005	-7.5655055E-001	0
1.0537303E+004	6.370679859719530E+001	-7.5839055E-001	-7.197198222281470E-002	5.4582870E-005	-7.5855047E-001	0
1.0533505E+004	6.390679859214288E+001	-7.6037967E-001	-7.218676920116418E-002	5.4889351E-005	-7.6055044E-001	0
1.0515588E+004	6.410679858709045E+001	-7.6237392E-001	-7.249940862422954E-002	5.5271659E-005	-7.6255035E-001	0
1.0522777E+004	6.430679858203803E+001	-7.6438195E-001	-7.264069985395571E-002	5.5525241E-005	-7.6455027E-001	0
1.0494988E+004	6.450679857698560E+001	-7.6637471E-001	-7.302291856132570E-002	5.5962919E-005	-7.6655018E-001	0
1.0470819E+004	6.470679857193318E+001	-7.6838666E-001	-7.338362428953138E-002	5.6386998E-005	-7.6855004E-001	0
1.0478249E+004	6.490679856688075E+001	-7.7038735E-001	-7.352253053835704E-002	5.6640827E-005	-7.7054995E-001	0
1.0450300E+004	6.510679856182833E+001	-7.7237600E-001	-7.390946182401215E-002	5.7085894E-005	-7.7254987E-001	0
1.0439736E+004	6.530679855677590E+001	-7.7435875E-001	-7.417416395070442E-002	5.7437413E-005	-7.7454984E-001	0
1.0406448E+004	6.550679855172348E+001	-7.7637452E-001	-7.460514241259331E-002	5.7921530E-005	-7.7654964E-001	0
1.0401363E+004	6.570679854667105E+001	-7.7837354E-001	-7.483380109540583E-002	5.8248650E-005	-7.7854967E-001	0
1.0387697E+004	6.590679854161863E+001	-7.8038603E-001	-7.512598727405284E-002	5.8627273E-005	-7.8054947E-001	0
1.0377707E+004	6.610679853656620E+001	-7.8237718E-001	-7.539017585976276E-002	5.8983554E-005	-7.8254956E-001	0
1.0342290E+004	6.630679853151378E+001	-7.8438348E-001	-7.584234195562845E-002	5.9489481E-005	-7.8454936E-001	0
1.0315726E+004	6.650679852646135E+001	-7.8636885E-001	-7.623010776544192E-002	5.9944981E-005	-7.8654933E-001	0
1.0291081E+004	6.670679852140893E+001	-7.8838211E-001	-7.660829269933342E-002	6.0396607E-005	-7.8854924E-001	0
1.0252536E+004	6.690679851635650E+001	-7.9037273E-001	-7.709046392786034E-002	6.0930201E-005	-7.9054922E-001	0
1.0223271E+004	6.710679851130408E+001	-7.9238629E-001	-7.750810512031092E-002	6.1416358E-005	-7.9254901E-001	0
1.0184798E+004	6.730679850625165E+001	-7.9437882E-001	-7.799652144956976E-002	6.1958781E-005	-7.9454905E-001	0
1.0161605E+004	6.750679850119923E+001	-7.9636765E-001	-7.837025834619131E-002	6.2411535E-005	-7.9654890E-001	0
1.0110895E+004	6.770679849614680E+001	-7.9837847E-001	-7.896219833886531E-002	6.3041720E-005	-7.9854918E-001	0
1.0056589E+004	6.790669849109690E+001	-8.0037254E-001	-7.958688463577168E-002	6.3699154E-005	-8.0054939E-001	0
1.0020729E+004	6.810659848604701E+001	-8.0238223E-001	-8.007223659792650E-002	6.4248539E-005	-8.0254865E-001	0
9.9883701E+003	6.830659848099458E+001	-8.0437219E-001	-8.053087461327964E-002	6.4776796E-005	-8.0454850E-001	0
9.9562949E+003	6.850659847594216E+001	-8.0637771E-001	-8.099174464877479E-002	6.5309934E-005	-8.0654842E-001	0
9.8999170E+003	6.870659847088973E+001	-8.0838400E-001	-8.165563095325101E-002	6.6009103E-005	-8.0854833E-001	0
9.8293545E+003	6.890659846583731E+001	-8.1036878E-001	-8.244374319604802E-002	6.6809836E-005	-8.1054825E-001	0
9.7973467E+003	6.910659846078488E+001	-8.1237298E-001	-8.291765331985460E-002	6.7360059E-005	-8.1254822E-001	0
9.7175400E+003	6.930659845573246E+001	-8.1438065E-001	-8.380522570507318E-002	6.8249356E-005	-8.1454813E-001	0
9.6838594E+003	6.950659845068003E+001	-8.1637508E-001	-8.430265647923060E-002	6.8822585E-005	-8.1654805E-001	0
9.6308369E+003	6.970659844562761E+001	-8.1839883E-001	-8.497691790461337E-002	6.9545007E-005	-8.1854790E-001	0
9.5538330E+003	6.990659844057518E+001	-8.2038736E-001	-8.586997308455779E-002	7.0446644E-005	-8.2054788E-001	0
9.5012314E+003	7.010659843552276E+001	-8.2239980E-001	-8.655717852630984E-002	7.1184608E-005	-8.2254773E-001	0
9.4496484E+003	7.030659843047033E+001	-8.2439852E-001	-8.724118388245250E-002	7.1921502E-005	-8.2454771E-001	0
9.3772813E+003	7.050659842541791E+001	-8.2638752E-001	-8.812656252625928E-002	7.2826690E-005	-8.2654750E-001	0
9.3338662E+003	7.070659842036548E+001	-8.2839495E-001	-8.875153823639537E-002	7.3521325E-005	-8.2854754E-001	0
9.2765693E+003	7.090659841531306E+001	-8.3038324E-001	-8.951404856891731E-002	7.4330965E-005	-8.3054739E-001	0
9.1934619E+003	7.110659841026063E+001	-8.3238596E-001	-9.054107473668971E-002	7.5365118E-005	-8.3254731E-001	0
9.1391055E+003	7.130659840520821E+001	-8.3438307E-001	-9.129811384157627E-002	7.6177603E-005	-8.3454722E-001	0
9.0692139E+003	7.150659840015578E+001	-8.3639687E-001	-9.222374761755869E-002	7.7135657E-005	-8.3654714E-001	0
9.0057686E+003	7.170659839510336E+001	-8.3840126E-001	-9.309602125184613E-002	7.8051824E-005	-8.3854711E-001	0
8.9200322E+003	7.190659839005093E+001	-8.4039110E-001	-9.421390913270566E-002	7.9176534E-005	-8.4054703E-001	0
8.8534043E+003	7.210659838499851E+001	-8.4240186E-001	-9.515004895116475E-002	8.0154576E-005	-8.4254682E-001	0
8.7829170E+003	7.230659837994608E+001	-8.4439141E-001	-9.614019761075288E-002	8.1179955E-005	-8.4454679E-001	0
8.6882207E+003	7.250649837489618E+001	-8.4639740E-001	-9.741895309833826E-002	8.2455146E-005	-8.4654605E-001	0
8.6059287E+003	7.270639836984628E+001	-8.4840345E-001	-9.858359830230157E-002	8.3638668E-005	-8.4854668E-001	0
8.5099941E+003	7.290639836479386E+001	-8.5039759E-001	-9.992927475990809E-002	8.4979612E-005	-8.5054654E-001	0
8.4156016E+003	7.310639835974143E+001	-8.5239714E-001	-1.012877225210624E-001	8.6337364E-005	-8.5254639E-001	0
8.3030762E+003	7.330639835468901E+001	-8.5441536E-001	-1.029034732828280E-001	8.7922308E-005	-8.5454643E-001	0
8.1985234E+003	7.350639834963658E+001	-8.5640723E-001	-1.044587152883363E-001	8.9459201E-005	-8.5654628E-001	0
8.0811641E+003	7.370639834458416E+001	-8.5838801E-001	-1.062208353520673E-001	9.1178692E-005	-8.5854620E-001	0
7.9608481E+003	7.390639833953173E+001	-8.6039901E-001	-1.080788113145146E-001	9.2990900E-005	-8.6054611E-001	0
7.8115356E+003	7.410639833447931E+001	-8.6238813E-001	-1.103993097601079E-001	9.5207055E-005	-8.6254603E-001	0
7.6751694E+003	7.430639832942688E+001	-8.6438680E-001	-1.126212023299975E-001	9.7348282E-005	-8.6454600E-001	0
7.5032720E+003	7.450639832437446E+001	-8.6639315E-001	-1.154687150313927E-001	1.0004130E-004	-8.6654592E-001	0
7.3344575E+003	7.470639831932203E+001	-8.6837560E-001	-1.183967030049642E-001	1.0281281E-004	-8.6854571E-001	0
7.1565732E+003	7.490639831426961E+001	-8.7040132E-001	-1.216226408232735E-001	1.0586050E-004	-8.7054569E-001	0
6.9597451E+003	7.510639830921718E+001	-8.7237942E-001	-1.253464655811286E-001	1.0934968E-004	-8.7254560E-001	0
6.7635850E+003	7.530639830416476E+001	-8.7436575E-001	-1.292754868795153E-001	1.1303406E-004	-8.7454557E-001	0
6.5446533E+003	7.550639829911233E+001	-8.7636805E-001	-1.339059516633370E-001	1.1735089E-004	-8.7654537E-001	0
6.3148735E+003	7.570639829405991E+001	-8.7836754E-001	-1.390950283058867E-001	1.2217656E-004	-8.7854540E-001	0
6.0874214E+003	7.590639828900748E+001	-8.8038045E-001	-1.446228821100903E-001	1.2732316E-004	-8.8054526E-001	0
5.8443320E+003	7.610639828395506E+001	-8.8238549E-001	-1.509814085987922E-001	1.3322380E-004	-8.8254517E-001	0
5.5991411E+003	7.630639827890263E+001	-8.8437188E-001	-1.579477677582144E-001	1.3968456E-004	-8.8454509E-001	0
5.3531621E+003	7.650639827385021E+001	-8.8639301E-001	-1.655830705428578E-001	1.4677168E-004	-8.8654649E-001	0
5.1153843E+003	7.670639826879778E+001	-8.8837898E-001	-1.736680805849975E-001	1.5428307E-004	-8.8854647E-001	0
4.8733687E+003	7.690639826374536E+001	-8.9037228E-001	-1.827016084786517E-001	1.6267244E-004	-8.9054644E-001	0
4.6340903E+003	7.710639825869293E+001	-8.9237773E-001	-1.925680423968492E-001	1.7184344E-004	-8.9254642E-001	0
4.3977129E+003	7.730639825364051E+001	-8.9438260E-001	-2.033744811264135E-001	1.8189459E-004	-8.9454651E-001	0
4.1634414E+003	7.750639824858808E+001	-8.9638150E-001	-2.152982149822247E-001	1.9298933E-004	-8.9654648E-001	0
3.9320103E+003	7.770639824353566E+001	-8.9839464E-001	-2.284822672174700E-001	2.0526725E-004	-8.9854658E-001	0
3.7099741E+003	7.790639823848323E+001	-9.0038007E-001	-2.426917327023084E-001	2.1851480E-004	-9.0054655E-001	0
3.4954585E+003	7.810639823343081E+001	-9.0237653E-001	-2.581568416102447E-001	2.3295467E-004	-9.0254641E-001	0
3.2860913E+003	7.830639822837838E+001	-9.0437996E-001	-2.752144963199650E-001	2.4889849E-004	-9.0454650E-001	0
3.0907920E+003	7.850639822332596E+001	-9.0637916E-001	-2.932514321616502E-001	2.6579699E-004	-9.0654647E-001	0
2.9085237E+003	7.870639821827353E+001	-9.0837973E-001	-3.123164246103758E-001	2.8370190E-004	-9.0854645E-001	0
2.6866655E+003	7.890639821322111E+001	-9.1040069E-001	-3.388589594867961E-001	3.0849743E-004	-9.1054648E-001	0
2.5497100E+003	7.910639820816868E+001	-9.1237932E-001	-3.578364991808902E-001	3.2648264E-004	-9.1254652E-001	0
2.4105427E+003	7.930639820311626E+001	-9.1439468E-001	-3.793314395307683E-001	3.4685864E-004	-9.1454649E-001	0
2.2798564E+003	7.950639819806383E+001	-9.1640669E-001	-4.019580688412017E-001	3.6835705E-004	-9.1654640E-001	0
2.1577073E+003	7.970639819301141E+001	-9.1839492E-001	-4.256346217924689E-001	3.9090068E-004	-9.1854650E-001	0
2.0373846E+003	7.990639818795898E+001	-9.2039043E-001	-4.517509432218114E-001	4.1578725E-004	-9.2054647E-001	0
1.9030488E+003	8.010639818290656E+001	-9.2241150E-001	-4.847019747778134E-001	4.4709467E-004	-9.2254645E-001	0
1.7790229E+003	8.030639817785413E+001	-9.2442590E-001	-5.196256206208290E-001	4.8035537E-004	-9.2454654E-001	0
1.6717717E+003	8.050639817280171E+001	-9.2641622E-001	-5.541523599325604E-001	5.1337574E-004	-9.2654651E-001	0
1.5623362E+003	8.070639816774928E+001	-9.2840660E-001	-5.942425324566791E-001	5.5169867E-004	-9.2854649E-001	0
1.4438187E+003	8.090639816269686E+001	-9.3041348E-001	-6.444115547416844E-001	5.9956918E-004	-9.3054646E-001	0
1.3344709E+003	8.110639815764443E+001	-9.3239766E-001	-6.987020838879010E-001	6.5146817E-004	-9.3254656E-001	0
1.2445913E+003	8.130639815259201E+001	-9.3439907E-001	-7.507678055650011E-001	7.0151675E-004	-9.3454653E-001	0
1.1455591E+003	8.150639814753958E+001	-9.3637663E-001	-8.173970765351850E-001	7.6539151E-004	-9.3654650E-001	0
1.0641486E+003	8.170639814248716E+001	-9.3838406E-001	-8.818167344479049E-001	8.2748279E-004	-9.3854648E-001	0
9.9213232E+002	8.190639813743474E+001	-9.4037789E-001	-9.478351231030864E-001	8.9132320E-004	-9.4054657E-001	0
9.1802930E+002	8.210639813238231E+001	-9.4237351E-001	-1.026517882106868E+000	9.6736324E-004	-9.4254643E-001	0
8.5671289E+002	8.231639812707726E+001	-9.4445425E-001	-1.102416302429699E+000	1.0411817E-003	-9.4464648E-001	0
7.9339807E+002	8.252639812177222E+001	-9.4652236E-001	-1.192998076394167E+000	1.1291994E-003	-9.4674641E-001	0
7.4315271E+002	8.272639811671979E+001	-9.4855583E-001	-1.276394267893835E+000	1.2107312E-003	-9.4874650E-001	0
6.9681812E+002	8.292639811166737E+001	-9.5054507E-001	-1.364122248721429E+000	1.2966597E-003	-9.5074648E-001	0
6.5502026E+002	8.312639810661494E+001	-9.5254612E-001	-1.454223901987952E+000	1.3852153E-003	-9.5274657E-001	0
6.1734839E+002	8.332639810156252E+001	-9.5455474E-001	-1.546217254179268E+000	1.4759490E-003	-9.5474654E-001	0
5.8062524E+002	8.352639809651009E+001	-9.5654529E-001	-1.647440103733757E+000	1.5758511E-003	-9.5674646E-001	0
5.5062079E+002	8.372639809145767E+001	-9.5854908E-001	-1.740851686553626E+000	1.6686918E-003	-9.5874649E-001	0
5.2030511E+002	8.392639808640524E+001	-9.6055895E-001	-1.846145570903264E+000	1.7733317E-003	-9.6074659E-001	0
4.9318082E+002	8.412639808135282E+001	-9.6256012E-001	-1.951738782953520E+000	1.8786659E-003	-9.6274644E-001	0
4.6964856E+002	8.432639807630039E+001	-9.6454746E-001	-2.053764277558066E+000	1.9809532E-003	-9.6474648E-001	0
4.4625186E+002	8.452639807124797E+001	-9.6654022E-001	-2.165907385009354E+000	2.0934367E-003	-9.6674651E-001	0
4.2503073E+002	8.472639806619554E+001	-9.6856481E-001	-2.278811240834854E+000	2.2071763E-003	-9.6874648E-001	0
4.0630740E+002	8.492639806114312E+001	-9.7057313E-001	-2.388765631264700E+000	2.3184717E-003	-9.7074646E-001	0
3.8856155E+002	8.512639805609069E+001	-9.7256660E-001	-2.502992390234726E+000	2.4343268E-003	-9.7274649E-001	0
3.7140759E+002	8.532639805103827E+001	-9.7456449E-001	-2.623975768110918E+000	2.5572337E-003	-9.7474647E-001	0
3.5610718E+002	8.552639804598584E+001	-9.7653484E-001	-2.742249753385318E+000	2.6779023E-003	-9.7674644E-001	0
3.4220432E+002	8.572639804093342E+001	-9.7854763E-001	-2.859542119918630E+000	2.7981983E-003	-9.7874653E-001	0
3.2877966E+002	8.592639803588099E+001	-9.8055261E-001	-2.982400581156199E+000	2.9244006E-003	-9.8074651E-001	0
3.1614197E+002	8.612639803082857E+001	-9.8255366E-001	-3.107950803627375E+000	3.0537285E-003	-9.8274648E-001	0
3.0450430E+002	8.632639802577614E+001	-9.8455292E-001	-3.233297191678531E+000	3.1833523E-003	-9.8474646E-001	0
2.9385150E+002	8.652639802072372E+001	-9.8654860E-001	-3.357303219993099E+000	3.3121428E-003	-9.8674655E-001	0
2.8373505E+002	8.672639801567129E+001	-9.8855120E-001	-3.484064554918101E+000	3.4441762E-003	-9.8874658E-001	0
2.7409125E+002	8.692639801061887E+001	-9.9056339E-001	-3.613991274584985E+000	3.5798876E-003	-9.9074650E-001	0
2.6487576E+002	8.712639800556644E+001	-9.9255532E-001	-3.747248696125297E+000	3.7193517E-003	-9.9274647E-001	0
2.5638834E+002	8.732639800051402E+001	-9.9454975E-001	-3.879075508539376E+000	3.8579337E-003	-9.9474645E-001	0
2.4837845E+002	8.752639799546159E+001	-9.9657029E-001	-4.012305773034381E+000	3.9985445E-003	-9.9674636E-001	0
2.4091255E+002	8.772639799040917E+001	-9.9857426E-001	-4.144965546404151E+000	4.1390560E-003	-9.9874645E-001	0
2.3364542E+002	8.792649798535422E+001	-1.0005587E+000	-4.282381043419722E+000	4.2847740E-003	-1.0007474E+000	0
2.2680408E+002	8.812659798029927E+001	-1.0025560E+000	-4.420361420093208E+000	4.4316598E-003	-1.0027485E+000	0
2.2013387E+002	8.832659797524684E+001	-1.0045698E+000	-4.563449348181550E+000	4.5843031E-003	-1.0047485E+000	0
2.1383034E+002	8.852659797019442E+001	-1.0065511E+000	-4.707242135119017E+000	4.7380798E-003	-1.0067484E+000	0
2.0787633E+002	8.872659796514199E+001	-1.0085747E+000	-4.851801716889369E+000	4.8934044E-003	-1.0087484E+000	0
2.0224094E+002	8.892659796008957E+001	-1.0105674E+000	-4.996848994574570E+000	5.0496529E-003	-1.0107484E+000	0
1.9686281E+002	8.912659795503714E+001	-1.0125637E+000	-5.143499402029439E+000	5.2081207E-003	-1.0127485E+000	0
1.9173152E+002	8.932659794998472E+001	-1.0145888E+000	-5.291716580792342E+000	5.3689163E-003	-1.0147485E+000	0
1.8678090E+002	8.952659794493229E+001	-1.0165728E+000	-5.442595121642917E+000	5.5327942E-003	-1.0167485E+000	0
1.8187178E+002	8.972669793987734E+001	-1.0185938E+000	-5.600614718210196E+000	5.7047512E-003	-1.0187492E+000	0
1.7735541E+002	8.992679793482239E+001	-1.0205895E+000	-5.754487231948204E+000	5.8729690E-003	-1.0207504E+000	0
1.7298425E+002	9.012679792976996E+001	-1.0225910E+000	-5.911468728734818E+000	6.0450146E-003	-1.0227504E+000	0
1.6872162E+002	9.032679792471754E+001	-1.0245800E+000	-6.072606688285092E+000	6.2218714E-003	-1.0247505E+000	0
1.6467497E+002	9.052679791966511E+001	-1.0265951E+000	-6.234069074193656E+000	6.3998648E-003	-1.0267506E+000	0
1.6083850E+002	9.072679791461269E+001	-1.0285884E+000	-6.395162667344216E+000	6.5779900E-003	-1.0287504E+000	0
1.5703232E+002	9.092679790956026E+001	-1.0305878E+000	-6.562902775751525E+000	6.7636473E-003	-1.0307504E+000	0
1.5338789E+002	9.112679790450784E+001	-1.0325943E+000	-6.731915222341513E+000	6.9513372E-003	-1.0327505E+000	0
1.4985565E+002	9.132679789945541E+001	-1.0345906E+000	-6.903914354690883E+000	7.1427249E-003	-1.0347505E+000	0
1.4645410E+002	9.152679789440299E+001	-1.0365883E+000	-7.077905350261290E+000	7.3368740E-003	-1.0367504E+000	0
1.4313426E+002	9.172679788935056E+001	-1.0385872E+000	-7.256035122674064E+000	7.5360253E-003	-1.0387504E+000	0
1.3994725E+002	9.192679788429814E+001	-1.0405924E+000	-7.435604544115714E+000	7.7374340E-003	-1.0407504E+000	0
1.3669443E+002	9.212679787924571E+001	-1.0425824E+000	-7.627102726914174E+000	7.9518827E-003	-1.0427505E+000	0
1.3355000E+002	9.232679787419329E+001	-1.0446001E+000	-7.821790315193930E+000	8.1706429E-003	-1.0447505E+000	0
1.3066270E+002	9.252679786914086E+001	-1.0465800E+000	-8.009783614925212E+000	8.3828792E-003	-1.0467505E+000	0
1.2783085E+002	9.272679786408844E+001	-1.0486040E+000	-8.203059033201384E+000	8.6017605E-003	-1.0487505E+000	0
1.2504880E+002	9.292679785903601E+001	-1.0505836E+000	-8.401389225945742E+000	8.8263620E-003	-1.0507505E+000	0
1.2242413E+002	9.312679785398359E+001	-1.0525961E+000	-8.597945954929401E+000	9.0501644E-003	-1.0527505E+000	0
1.1984527E+002	9.332679784893116E+001	-1.0545961E+000	-8.799647109443654E+000	9.2800735E-003	-1.0547506E+000	0
1.1737369E+002	9.352679784387874E+001	-1.0565975E+000	-9.001996260111042E+000	9.5114866E-003	-1.0567505E+000	0
1.1492529E+002	9.372679783882631E+001	-1.0585834E+000	-9.211056750850602E+000	9.7506717E-003	-1.0587505E+000	0
1.1250363E+002	9.392679783377389E+001	-1.0605872E+000	-9.427137136729613E+000	9.9983010E-003	-1.0607505E+000	0
1.1021208E+002	9.412679782872146E+001	-1.0625933E+000	-9.641350659653703E+000	1.0244835E-002	-1.0627505E+000	0
1.0790553E+002	9.432679782366904E+001	-1.0645937E+000	-9.865978936557042E+000	1.0503259E-002	-1.0647506E+000	0
1.0567750E+002	9.452679781861661E+001	-1.0665711E+000	-1.009269828719347E+001	1.0764580E-002	-1.0667505E+000	0
1.0345810E+002	9.472679781356419E+001	-1.0685776E+000	-1.032860292551742E+001	1.1036914E-002	-1.0687505E+000	0
1.0135432E+002	9.492679780851176E+001	-1.0705913E+000	-1.056285849321720E+001	1.1308504E-002	-1.0707505E+000	0
9.9184105E+001	9.513679780320672E+001	-1.0726659E+000	-1.081489765218326E+001	1.1600772E-002	-1.0728505E+000	0
9.6643578E+001	9.534679779790167E+001	-1.0747324E+000	-1.112057793451271E+001	1.1951646E-002	-1.0749506E+000	0
9.4715721E+001	9.554679779284925E+001	-1.0767356E+000	-1.136807742424294E+001	1.2240414E-002	-1.0769506E+000	0
9.2744835E+001	9.574689778779430E+001	-1.0787454E+000	-1.163132571362035E+001	1.2547239E-002	-1.0789512E+000	0
9.0866325E+001	9.594699778273935E+001	-1.0807253E+000	-1.189357346201706E+001	1.2853686E-002	-1.0809524E+000	0
8.8920303E+001	9.614699777768692E+001	-1.0827346E+000	-1.217646056697484E+001	1.3183875E-002	-1.0829525E+000	0
8.7064575E+001	9.634699777263450E+001	-1.0847238E+000	-1.245884227164745E+001	1.3514403E-002	-1.0849526E+000	0
8.5117043E+001	9.654719776757702E+001	-1.0867571E+000	-1.276779672387508E+001	1.3875493E-002	-1.0869544E+000	0
8.3338890E+001	9.674719776252459E+001	-1.0887637E+000	-1.306429341874696E+001	1.4223929E-002	-1.0889544E+000	0
8.1585884E+001	9.694719775747217E+001	-1.0907561E+000	-1.336942159724083E+001	1.4582777E-002	-1.0909544E+000	0
7.9899025E+001	9.714729775241722E+001	-1.0927532E+000	-1.367667710423285E+001	1.4945232E-002	-1.0929552E+000	0
7.8202339E+001	9.734739774736227E+001	-1.0947566E+000	-1.399902676698025E+001	1.5325527E-002	-1.0949565E+000	0
7.6497314E+001	9.754739774230984E+001	-1.0967549E+000	-1.433716908320275E+001	1.5724361E-002	-1.0969565E+000	0
7.4857239E+001	9.774739773725742E+001	-1.0987641E+000	-1.467812731152490E+001	1.6127799E-002	-1.0989565E+000	0
7.3247314E+001	9.794739773220499E+001	-1.1007596E+000	-1.502798604816530E+001	1.6542200E-002	-1.1009564E+000	0
7.1780930E+001	9.814739772715257E+001	-1.1027681E+000	-1.536296706810558E+001	1.6941790E-002	-1.1029565E+000	0
7.0313507E+001	9.834739772210014E+001	-1.1047636E+000	-1.571196865129905E+001	1.7358011E-002	-1.1049565E+000	0
6.8879524E+001	9.854739771704772E+001	-1.1067688E+000	-1.606818334504857E+001	1.7783765E-002	-1.1069565E+000	0
6.7463226E+001	9.874739771199529E+001	-1.1087739E+000	-1.643523465424715E+001	1.8222960E-002	-1.1089566E+000	0
6.6103760E+001	9.894739770694287E+001	-1.1107816E+000	-1.680360589276097E+001	1.8665135E-002	-1.1109564E+000	0
6.4621376E+001	9.914739770189044E+001	-1.1127869E+000	-1.722010469693447E+001	1.9162307E-002	-1.1129565E+000	0
6.3300362E+001	9.934739769683802E+001	-1.1147707E+000	-1.761080994397878E+001	1.9632014E-002	-1.1149565E+000	0
6.2075478E+001	9.954739769178559E+001	-1.1167710E+000	-1.799053404282543E+001	2.0091306E-002	-1.1169566E+000	0
6.0776955E+001	9.974739768673317E+001	-1.1187732E+000	-1.840785263928163E+001	2.0594213E-002	-1.1189566E+000	0
5.9566681E+001	9.994739768168074E+001	-1.1207527E+000	-1.881509437285314E+001	2.1087067E-002	-1.1209564E+000	0
5.8235470E+001	1.001473976766283E+002	-1.1227548E+000	-1.927957003295020E+001	2.1646230E-002	-1.1229565E+000	0
5.7000103E+001	1.003474976715734E+002	-1.1247544E+000	-1.973249778292904E+001	2.2194214E-002	-1.1249574E+000	0
5.5803905E+001	1.005475976665184E+002	-1.1267751E+000	-2.019169034452394E+001	2.2751495E-002	-1.1269585E+000	0
5.4610359E+001	1.007475976614660E+002	-1.1287607E+000	-2.066935184064093E+001	2.3330752E-002	-1.1289585E+000	0
5.3519718E+001	1.009475976564136E+002	-1.1307849E+000	-2.112837798146703E+001	2.3891650E-002	-1.1309584E+000	0
5.2134285E+001	1.011475976513611E+002	-1.1327643E+000	-2.172781927623446E+001	2.4612499E-002	-1.1329585E+000	0
5.1061825E+001	1.013476976463062E+002	-1.1347712E+000	-2.222347587735680E+001	2.5218561E-002	-1.1349593E+000	0
4.9943657E+001	1.015477976412512E+002	-1.1367668E+000	-2.276098414586517E+001	2.5873931E-002	-1.1369605E+000	0
4.8823376E+001	1.017477976361988E+002	-1.1387801E+000	-2.332448608277886E+001	2.6561461E-002	-1.1389605E+000	0
4.7739170E+001	1.019479976311413E+002	-1.1407974E+000	-2.389646508468255E+001	2.7261024E-002	-1.1409624E+000	0
4.6687866E+001	1.021479976260889E+002	-1.1427928E+000	-2.447729761381549E+001	2.7972480E-002	-1.1429625E+000	0
4.5605160E+001	1.023479976210365E+002	-1.1447871E+000	-2.510213947593491E+001	2.8736604E-002	-1.1449625E+000	0
4.4644176E+001	1.025479976159841E+002	-1.1467850E+000	-2.568722521393751E+001	2.9457726E-002	-1.1469625E+000	0
4.3682934E+001	1.027479976109316E+002	-1.1487657E+000	-2.629781345688567E+001	3.0210026E-002	-1.1489624E+000	0
4.2663097E+001	1.029479976058792E+002	-1.1507635E+000	-2.697327602558392E+001	3.1039862E-002	-1.1509625E+000	0
4.1702057E+001	1.031479976008268E+002	-1.1527745E+000	-2.764310797596193E+001	3.1866267E-002	-1.1529624E+000	0
4.0814224E+001	1.033479975957744E+002	-1.1547681E+000	-2.829327509949269E+001	3.2672171E-002	-1.1549624E+000	0
3.9913212E+001	1.035479975907219E+002	-1.1567782E+000	-2.898233843417398E+001	3.3526137E-002	-1.1569625E+000	0
3.9073490E+001	1.037480975856670E+002	-1.1587719E+000	-2.965621752416258E+001	3.4364790E-002	-1.1589633E+000	0
3.8224617E+001	1.039481975806120E+002	-1.1607729E+000	-3.036715513778646E+001	3.5249371E-002	-1.1609645E+000	0
3.7374676E+001	1.041481975755596E+002	-1.1627903E+000	-3.111171538597325E+001	3.6176402E-002	-1.1629643E+000	0
3.6525169E+001	1.043481975705072E+002	-1.1647846E+000	-3.188991434476816E+001	3.7144881E-002	-1.1649644E+000	0
3.5717037E+001	1.045481975654548E+002	-1.1667920E+000	-3.266766004551570E+001	3.8116366E-002	-1.1669645E+000	0
3.4890919E+001	1.047481975604023E+002	-1.1687807E+000	-3.349813489849060E+001	3.9151974E-002	-1.1689645E+000	0
3.4105843E+001	1.049481975553499E+002	-1.1708030E+000	-3.432851542366882E+001	4.0191926E-002	-1.1709645E+000	0
3.3396912E+001	1.051481975502975E+002	-1.1727846E+000	-3.511655794087450E+001	4.1184157E-002	-1.1729645E+000	0
3.2659580E+001	1.053481975452451E+002	-1.1748054E+000	-3.597123302624061E+001	4.2259198E-002	-1.1749645E+000	0
3.1892246E+001	1.055481975401926E+002	-1.1767956E+000	-3.689911340883259E+001	4.3422714E-002	-1.1769645E+000	0
3.1093554E+001	1.057481975351402E+002	-1.1788193E+000	-3.791201654286067E+001	4.4691417E-002	-1.1789644E+000	0
3.0421780E+001	1.059481975300878E+002	-1.1808046E+000	-3.881444948817047E+001	4.5832280E-002	-1.1809645E+000	0
2.9668228E+001	1.061481975250354E+002	-1.1828463E+000	-3.986912495668236E+001	4.7159046E-002	-1.1829644E+000	0
2.9058014E+001	1.063481975199829E+002	-1.1848483E+000	-4.077526814569956E+001	4.8312508E-002	-1.1849644E+000	0
2.8431776E+001	1.065481975149305E+002	-1.1868483E+000	-4.174372765050180E+001	4.9543470E-002	-1.1869645E+000	0
2.7773865E+001	1.067481975098781E+002	-1.1888270E+000	-4.280380237156584E+001	5.0886318E-002	-1.1889645E+000	0
2.7189270E+001	1.069482975048231E+002	-1.1908493E+000	-4.379850352660768E+001	5.2157417E-002	-1.1909653E+000	0
2.6625120E+001	1.071483974997682E+002	-1.1928371E+000	-4.480119273073279E+001	5.3440526E-002	-1.1929663E+000	0
2.6002121E+001	1.073483974947158E+002	-1.1948396E+000	-4.595161987378197E+001	5.4904815E-002	-1.1949664E+000	0
2.5390434E+001	1.075483974896633E+002	-1.1968364E+000	-4.713729399212900E+001	5.6415629E-002	-1.1969665E+000	0
2.4818966E+001	1.077483974846109E+002	-1.1988584E+000	-4.830412140319640E+001	5.7909802E-002	-1.1989665E+000	0
2.4234720E+001	1.079483974795585E+002	-1.2008492E+000	-4.955077711660039E+001	5.9503011E-002	-1.2009665E+000	0
2.3710365E+001	1.081483974745061E+002	-1.2028596E+000	-5.073138352802812E+001	6.1022732E-002	-1.2029665E+000	0
2.3223511E+001	1.083483974694536E+002	-1.2048470E+000	-5.188048447394840E+001	6.2508047E-002	-1.2049665E+000	0
2.2688480E+001	1.085483974644012E+002	-1.2068534E+000	-5.319234127090076E+001	6.4195357E-002	-1.2069665E+000	0
2.2173859E+001	1.087483974593488E+002	-1.2088578E+000	-5.451725136125424E+001	6.5903604E-002	-1.2089664E+000	0
2.1684618E+001	1.089483974542964E+002	-1.2108665E+000	-5.583987974958336E+001	6.7614637E-002	-1.2109665E+000	0
2.1157743E+001	1.091483974492439E+002	-1.2128451E+000	-5.732393393494931E+001	6.9525048E-002	-1.2129664E+000	0
2.0704184E+001	1.093484974441890E+002	-1.2148489E+000	-5.867649434184679E+001	7.1283072E-002	-1.2149673E+000	0
2.0254555E+001	1.095485974391340E+002	-1.2168611E+000	-6.007839238346276E+001	7.3107064E-002	-1.2169685E+000	0
1.9784674E+001	1.097485974340816E+002	-1.2188302E+000	-6.160477035710571E+001	7.5085759E-002	-1.2189685E+000	0
1.9332531E+001	1.099485974290292E+002	-1.2208346E+000	-6.314923733486330E+001	7.7094778E-002	-1.2209685E+000	0
1.8811543E+001	1.101485974239768E+002	-1.2228575E+000	-6.500569845219013E+001	7.9492703E-002	-1.2229683E+000	0
1.8407940E+001	1.103485974189243E+002	-1.2248559E+000	-6.653954275773506E+001	8.1501350E-002	-1.2249684E+000	0
1.8003429E+001	1.105485974138719E+002	-1.2268516E+000	-6.814543952855382E+001	8.3604343E-002	-1.2269685E+000	0
1.7629078E+001	1.107485974088195E+002	-1.2288663E+000	-6.970678132353441E+001	8.5660316E-002	-1.2289686E+000	0
1.7289383E+001	1.109485974037671E+002	-1.2308581E+000	-7.119155308286634E+001	8.7626696E-002	-1.2309685E+000	0
1.6861012E+001	1.111485973987146E+002	-1.2328565E+000	-7.311877221098825E+001	9.0144955E-002	-1.2329684E+000	0
1.6486609E+001	1.113485973936622E+002	-1.2348776E+000	-7.490185668463062E+001	9.2494622E-002	-1.2349685E+000	0
1.6132746E+001	1.115485973886098E+002	-1.2368714E+000	-7.666837181688152E+001	9.4828911E-002	-1.2369685E+000	0
1.5805759E+001	1.117485973835574E+002	-1.2388591E+000	-7.838022842104488E+001	9.7102053E-002	-1.2389684E+000	0
1.5433338E+001	1.119485973785049E+002	-1.2408614E+000	-8.040136198121718E+001	9.9766947E-002	-1.2409685E+000	0
1.5001017E+001	1.121485973734525E+002	-1.2428486E+000	-8.285096228474163E+001	1.0297120E-001	-1.2429684E+000	0
1.4695175E+001	1.123485973684001E+002	-1.2448446E+000	-8.471110614735534E+001	1.0545216E-001	-1.2449684E+000	0
1.4419057E+001	1.125485973633477E+002	-1.2468508E+000	-8.647242699620929E+001	1.0781822E-001	-1.2469685E+000	0
1.4129711E+001	1.127485973582952E+002	-1.2488599E+000	-8.838537761359532E+001	1.1038096E-001	-1.2489685E+000	0
1.3845462E+001	1.129485973532428E+002	-1.2508773E+000	-9.034565330578880E+001	1.1301132E-001	-1.2509685E+000	0
1.3516385E+001	1.131485973481904E+002	-1.2528719E+000	-9.269282233634021E+001	1.1613223E-001	-1.2529684E+000	0
1.3180229E+001	1.133485973431380E+002	-1.2548583E+000	-9.520762256808234E+001	1.1947207E-001	-1.2549685E+000	0
1.2937008E+001	1.135485973380855E+002	-1.2568630E+000	-9.715252334298521E+001	1.2210741E-001	-1.2569685E+000	0
1.2674409E+001	1.137485973330331E+002	-1.2588829E+000	-9.932478360686443E+001	1.2503827E-001	-1.2589685E+000	0
1.2445516E+001	1.139485973279807E+002	-1.2608647E+000	-1.013107635991100E+002	1.2773918E-001	-1.2609686E+000	0
1.2235219E+001	1.141485973229283E+002	-1.2628282E+000	-1.032125594686227E+002	1.3033973E-001	-1.2629685E+000	0
1.2023616E+001	1.143485973178758E+002	-1.2648513E+000	-1.051972536132453E+002	1.3305889E-001	-1.2649685E+000	0
1.1749389E+001	1.145486973128209E+002	-1.2668486E+000	-1.078225056207136E+002	1.3659479E-001	-1.2669693E+000	0
1.1379782E+001	1.147587973075133E+002	-1.2689394E+000	-1.115082327395065E+002	1.4149718E-001	-1.2690707E+000	0
1.0985999E+001	1.149687973022083E+002	-1.2710173E+000	-1.156942871314329E+002	1.4704944E-001	-1.2711705E+000	0
1.0818043E+001	1.151687972971558E+002	-1.2730261E+000	-1.176761981224527E+002	1.4980488E-001	-1.2731705E+000	0
1.0643014E+001	1.153687972921034E+002	-1.2750160E+000	-1.197983895245593E+002	1.5274486E-001	-1.2751704E+000	0
1.0388037E+001	1.155687972870510E+002	-1.2770109E+000	-1.229309154173145E+002	1.5698412E-001	-1.2771707E+000	0
1.0178517E+001	1.157687972819986E+002	-1.2790372E+000	-1.256604666288217E+002	1.6072442E-001	-1.2791705E+000	0
1.0068194E+001	1.159687972769461E+002	-1.2810262E+000	-1.272349551118695E+002	1.6299132E-001	-1.2811705E+000	0
9.8361835E+000	1.161687972718937E+002	-1.2830465E+000	-1.304414947211333E+002	1.6736250E-001	-1.2831706E+000	0
9.6357183E+000	1.163687972668413E+002	-1.2850295E+000	-1.333610527747879E+002	1.7137289E-001	-1.2851706E+000	0
9.4413605E+000	1.165687972617889E+002	-1.2870325E+000	-1.363185391415273E+002	1.7544639E-001	-1.2871706E+000	0
9.2387199E+000	1.167687972567364E+002	-1.2890445E+000	-1.395263095085850E+002	1.7985561E-001	-1.2891705E+000	0
9.0370874E+000	1.169687972516840E+002	-1.2910523E+000	-1.428615591120558E+002	1.8444175E-001	-1.2911705E+000	0
8.8699293E+000	1.171687972466316E+002	-1.2930236E+000	-1.457760899245336E+002	1.8849193E-001	-1.2931705E+000	0
8.7476625E+000	1.173687972415792E+002	-1.2950433E+000	-1.480444948732720E+002	1.9172403E-001	-1.2951704E+000	0
8.6383238E+000	1.175687972365267E+002	-1.2970498E+000	-1.501506310612165E+002	1.9475284E-001	-1.2971705E+000	0
8.4095259E+000	1.177687972314743E+002	-1.2990421E+000	-1.544726916678642E+002	2.0066653E-001	-1.2991705E+000	0
8.2562313E+000	1.179687972264219E+002	-1.3010164E+000	-1.575799435314952E+002	2.0501409E-001	-1.3011705E+000	0
8.0741005E+000	1.181687972213695E+002	-1.3030355E+000	-1.613846106302169E+002	2.1028988E-001	-1.3031704E+000	0
7.9493070E+000	1.183687972163170E+002	-1.3050306E+000	-1.641691028601454E+002	2.1424571E-001	-1.3051705E+000	0
7.8605256E+000	1.185687972112646E+002	-1.3070326E+000	-1.662780180355858E+002	2.1733078E-001	-1.3071705E+000	0
7.7821307E+000	1.187687972062122E+002	-1.3090442E+000	-1.682115427188050E+002	2.2019635E-001	-1.3091705E+000	0
7.6010966E+000	1.189687972011598E+002	-1.3110559E+000	-1.724824722997187E+002	2.2613417E-001	-1.3111706E+000	0
7.3964148E+000	1.191687971961073E+002	-1.3130375E+000	-1.775235125461669E+002	2.3309503E-001	-1.3131704E+000	0
7.2668252E+000	1.193687971910549E+002	-1.3150687E+000	-1.809688118406980E+002	2.3798643E-001	-1.3151705E+000	0
7.1597233E+000	1.195687971860025E+002	-1.3170637E+000	-1.839545576112877E+002	2.4227987E-001	-1.3171705E+000	0
7.0568385E+000	1.197687971809501E+002	-1.3190564E+000	-1.869188896771734E+002	2.4655655E-001	-1.3191705E+000	0
6.9357557E+000	1.199687971758976E+002	-1.3210585E+000	-1.904707437988873E+002	2.5162300E-001	-1.3211704E+000	0
6.7752771E+000	1.201687971708452E+002	-1.3230729E+000	-1.952795330099511E+002	2.5836906E-001	-1.3231705E+000	0
6.7478533E+000	1.203687971657928E+002	-1.3250579E+000	-1.963673144478907E+002	2.6019806E-001	-1.3251705E+000	0
6.5795603E+000	1.205687971607404E+002	-1.3270925E+000	-2.016992725990785E+002	2.6767361E-001	-1.3271706E+000	0
6.4822202E+000	1.207687971556879E+002	-1.3290808E+000	-2.050348156347300E+002	2.7250785E-001	-1.3291705E+000	0
6.4340959E+000	1.209687971506355E+002	-1.3310758E+000	-2.068784550128348E+002	2.7537090E-001	-1.3311704E+000	0
6.3139844E+000	1.211687971455831E+002	-1.3330650E+000	-2.111289691189791E+002	2.8144863E-001	-1.3331705E+000	0
6.2533059E+000	1.213687971405307E+002	-1.3350713E+000	-2.134984901583927E+002	2.8503570E-001	-1.3351705E+000	0
6.1947384E+000	1.215687971354782E+002	-1.3370709E+000	-2.158397751308621E+002	2.8859308E-001	-1.3371705E+000	0
6.1299644E+000	1.217687971304258E+002	-1.3390837E+000	-2.184488555168621E+002	2.9252130E-001	-1.3391706E+000	0
6.0452471E+000	1.219687971253734E+002	-1.3410866E+000	-2.218414971531115E+002	2.9750866E-001	-1.3411704E+000	0
5.9136448E+000	1.221687971203210E+002	-1.3430852E+000	-2.271162986106601E+002	3.0503654E-001	-1.3431704E+000	0
5.8047714E+000	1.223687971152685E+002	-1.3451024E+000	-2.317235819996085E+002	3.1169194E-001	-1.3451705E+000	0
5.7061067E+000	1.225488971107188E+002	-1.3469002E+000	-2.360454039994161E+002	3.1792960E-001	-1.3469709E+000	0
5.7153635E+000	1.226892971071720E+002	-1.3483142E+000	-2.359104810690706E+002	3.1808144E-001	-1.3483747E+000	0
5.6460032E+000	1.228697971026122E+002	-1.3501207E+000	-2.391285650558048E+002	3.2285240E-001	-1.3501800E+000	0
5.5274758E+000	1.230603970977972E+002	-1.3520296E+000	-2.446016277078988E+002	3.3070862E-001	-1.3520858E+000	0
5.3622942E+000	1.232311970934825E+002	-1.3537107E+000	-2.524498962625867E+002	3.4174412E-001	-1.3537937E+000	0
5.3131661E+000	1.234114970889277E+002	-1.3555520E+000	-2.551307246161107E+002	3.4584296E-001	-1.3555973E+000	0
5.2684364E+000	1.235919970843679E+002	-1.3573240E+000	-2.576331757154740E+002	3.4969169E-001	-1.3574016E+000	0
5.1939707E+000	1.237724970798081E+002	-1.3591388E+000	-2.616762634675933E+002	3.5565439E-001	-1.3592067E+000	0
5.1493802E+000	1.239730970747405E+002	-1.3611475E+000	-2.643323058599992E+002	3.5979527E-001	-1.3612130E+000	0
5.0345826E+000	1.241735970696755E+002	-1.3631469E+000	-2.707566763615205E+002	3.6908111E-001	-1.3632179E+000	0
4.9823112E+000	1.243739970646129E+002	-1.3651716E+000	-2.740036564120419E+002	3.7406200E-001	-1.3652221E+000	0
4.8946977E+000	1.245446970603007E+002	-1.3668673E+000	-2.792546935523792E+002	3.8170412E-001	-1.3669286E+000	0
4.9192643E+000	1.247149970559985E+002	-1.3685746E+000	-2.782071860317278E+002	3.8074729E-001	-1.3686320E+000	0
4.8532925E+000	1.248955970514362E+002	-1.3703872E+000	-2.823623885795041E+002	3.8694581E-001	-1.3704383E+000	0
4.8177452E+000	1.250757970468840E+002	-1.3721815E+000	-2.848182068382023E+002	3.9082229E-001	-1.3722399E+000	0
4.7394857E+000	1.252661970420741E+002	-1.3740631E+000	-2.899181822718440E+002	3.9836589E-001	-1.3741437E+000	0
4.7071786E+000	1.254565970372641E+002	-1.3760058E+000	-2.923207167240339E+002	4.0223500E-001	-1.3760480E+000	0
4.6542006E+000	1.256369970327069E+002	-1.3777876E+000	-2.960309828824957E+002	4.0786782E-001	-1.3778518E+000	0
4.5676870E+000	1.258174970281470E+002	-1.3796161E+000	-3.020382463760025E+002	4.1669685E-001	-1.3796568E+000	0
4.4347034E+000	1.259881970238348E+002	-1.3813218E+000	-3.114801024018579E+002	4.3025425E-001	-1.3813634E+000	0
4.3848553E+000	1.261585970195301E+002	-1.3830384E+000	-3.154125645511740E+002	4.3622768E-001	-1.3830677E+000	0
4.3759203E+000	1.263289970152255E+002	-1.3847202E+000	-3.164409249092746E+002	4.3818215E-001	-1.3847717E+000	0
4.4235711E+000	1.264993970109208E+002	-1.3864471E+000	-3.134225790017003E+002	4.3454382E-001	-1.3864760E+000	0
4.3754821E+000	1.266796970063660E+002	-1.3882482E+000	-3.172789305506810E+002	4.4046190E-001	-1.3882793E+000	0
4.3150988E+000	1.268800970013035E+002	-1.3902520E+000	-3.221831335113059E+002	4.4791573E-001	-1.3902829E+000	0
4.2543483E+000	1.270406969972464E+002	-1.3918297E+000	-3.271546320944861E+002	4.5534354E-001	-1.3918891E+000	0
4.2112980E+000	1.272109969929443E+002	-1.3935374E+000	-3.309044820397833E+002	4.6112776E-001	-1.3935914E+000	0
4.1387982E+000	1.273913969883870E+002	-1.3953464E+000	-3.371380659102169E+002	4.7042438E-001	-1.3953960E+000	0
4.0682545E+000	1.275717969838297E+002	-1.3971751E+000	-3.434335662594335E+002	4.7983682E-001	-1.3971997E+000	0
4.0703373E+000	1.277422969795225E+002	-1.3988670E+000	-3.436735006731442E+002	4.8075351E-001	-1.3989049E+000	0
4.0011978E+000	1.279226969749652E+002	-1.4006704E+000	-3.500627704825915E+002	4.9032256E-001	-1.4007087E+000	0
4.0147109E+000	1.281130969701553E+002	-1.4025559E+000	-3.493541578158497E+002	4.8998874E-001	-1.4026132E+000	0
3.9879830E+000	1.282737969660957E+002	-1.4041981E+000	-3.521073419552231E+002	4.9442846E-001	-1.4042194E+000	0
3.9755733E+000	1.284345969620335E+002	-1.4058119E+000	-3.536123676911786E+002	4.9711248E-001	-1.4058275E+000	0
3.9436772E+000	1.286053969577188E+002	-1.4075104E+000	-3.569030425795827E+002	5.0234473E-001	-1.4075354E+000	0
3.8763437E+000	1.287761969534040E+002	-1.4092396E+000	-3.635486781758559E+002	5.1232719E-001	-1.4092437E+000	0
3.8154867E+000	1.289466969490968E+002	-1.4109484E+000	-3.697951327705123E+002	5.2176183E-001	-1.4109490E+000	0
3.8425791E+000	1.291171969447896E+002	-1.4126500E+000	-3.676306822477186E+002	5.1933348E-001	-1.4126538E+000	0
3.8165402E+000	1.292774969407401E+002	-1.4142457E+000	-3.705570098051403E+002	5.2405864E-001	-1.4142570E+000	0
3.7698870E+000	1.294179969371908E+002	-1.4156563E+000	-3.755169164511753E+002	5.3160292E-001	-1.4156618E+000	0
3.7315574E+000	1.295983969326335E+002	-1.4174693E+000	-3.798599562948804E+002	5.3843981E-001	-1.4174659E+000	0
3.6449692E+000	1.297787969280762E+002	-1.4192290E+000	-3.893665411892935E+002	5.5260032E-001	-1.4192697E+000	0
3.6379199E+000	1.299689969232713E+002	-1.4211516E+000	-3.906495217109205E+002	5.5517220E-001	-1.4211725E+000	0
3.7009585E+000	1.301691969182139E+002	-1.4231443E+000	-3.845339796605331E+002	5.4724735E-001	-1.4231743E+000	0
3.6997719E+000	1.303695969131513E+002	-1.4251484E+000	-3.851989794988026E+002	5.4896569E-001	-1.4251781E+000	0
3.6214356E+000	1.305599969083414E+002	-1.4270597E+000	-3.940591046404179E+002	5.6234586E-001	-1.4270819E+000	0
3.5348976E+000	1.307503969035315E+002	-1.4289749E+000	-4.042478973768152E+002	5.7766008E-001	-1.4289861E+000	0
3.5202560E+000	1.309311968989641E+002	-1.4307876E+000	-4.064441708754384E+002	5.8153528E-001	-1.4307936E+000	0
3.4796090E+000	1.311118968943993E+002	-1.4325805E+000	-4.117073154129739E+002	5.8980387E-001	-1.4326007E+000	0
3.5073152E+000	1.312925968898344E+002	-1.4344146E+000	-4.089779719162357E+002	5.8664399E-001	-1.4344078E+000	0
3.5027192E+000	1.314528968857849E+002	-1.4359862E+000	-4.099632515843168E+002	5.8870155E-001	-1.4360112E+000	0
3.4597492E+000	1.316130968817379E+002	-1.4375716E+000	-4.155132385877273E+002	5.9733003E-001	-1.4376129E+000	0
3.3566389E+000	1.317736968776808E+002	-1.4392233E+000	-4.287691725303625E+002	6.1709458E-001	-1.4392186E+000	0
3.3900440E+000	1.319541968731210E+002	-1.4410292E+000	-4.250768291499944E+002	6.1254811E-001	-1.4410239E+000	0
3.3489549E+000	1.321346968685612E+002	-1.4428196E+000	-4.308268148831078E+002	6.2160540E-001	-1.4428289E+000	0
3.2836924E+000	1.323149968640064E+002	-1.4446243E+000	-4.399389874502431E+002	6.3554657E-001	-1.4446318E+000	0
3.3303506E+000	1.325153968589439E+002	-1.4466332E+000	-4.343786525546211E+002	6.2838662E-001	-1.4466360E+000	0
3.3354635E+000	1.326959968543815E+002	-1.4484339E+000	-4.342526609958722E+002	6.2898624E-001	-1.4484421E+000	0
3.2725224E+000	1.328760968498318E+002	-1.4502430E+000	-4.431575322295157E+002	6.4268613E-001	-1.4502431E+000	0
3.2553549E+000	1.330761968447769E+002	-1.4522332E+000	-4.461059557813091E+002	6.4784986E-001	-1.4522443E+000	0
3.2859440E+000	1.332761968397244E+002	-1.4542379E+000	-4.425632243902510E+002	6.4359224E-001	-1.4542444E+000	0
3.2718196E+000	1.334761968346720E+002	-1.4562290E+000	-4.450822959346297E+002	6.4814174E-001	-1.4562442E+000	0
3.2577822E+000	1.336761968296196E+002	-1.4582452E+000	-4.476189756977328E+002	6.5273821E-001	-1.4582443E+000	0
3.2065110E+000	1.338761968245672E+002	-1.4602472E+000	-4.554006373606562E+002	6.6499746E-001	-1.4602442E+000	0
3.1941450E+000	1.340761968195147E+002	-1.4622251E+000	-4.577829583615682E+002	6.6938174E-001	-1.4622443E+000	0
3.2223403E+000	1.342761968144623E+002	-1.4642414E+000	-4.544030967764320E+002	6.6535580E-001	-1.4642444E+000	0
3.1693275E+000	1.344761968094099E+002	-1.4662534E+000	-4.626386552538170E+002	6.7834550E-001	-1.4662442E+000	0
3.0626411E+000	1.346761968043575E+002	-1.4682851E+000	-4.794179482708705E+002	7.0392221E-001	-1.4682443E+000	0
3.0879979E+000	1.348761967993050E+002	-1.4702755E+000	-4.761258002084414E+002	7.0003611E-001	-1.4702442E+000	0
3.0129077E+000	1.350761967942526E+002	-1.4722590E+000	-4.886505432820909E+002	7.1942019E-001	-1.4722443E+000	0
2.9850817E+000	1.352761967892002E+002	-1.4742687E+000	-4.938788214876017E+002	7.2811007E-001	-1.4742444E+000	0
2.9720795E+000	1.354761967841478E+002	-1.4762743E+000	-4.967142512090077E+002	7.3328644E-001	-1.4762442E+000	0
2.9548776E+000	1.356761967790953E+002	-1.4782690E+000	-5.002809595164272E+002	7.3954982E-001	-1.4782443E+000	0
2.9504061E+000	1.358761967740429E+002	-1.4802619E+000	-5.017146434913702E+002	7.4266911E-001	-1.4802443E+000	0
2.9608324E+000	1.360761967689905E+002	-1.4822773E+000	-5.006285531353224E+002	7.4207032E-001	-1.4822443E+000	0
2.9763267E+000	1.362761967639381E+002	-1.4842674E+000	-4.986910234178795E+002	7.4019080E-001	-1.4842443E+000	0
2.9500747E+000	1.364761967588856E+002	-1.4862652E+000	-5.038059622792671E+002	7.4878925E-001	-1.4862443E+000	0
2.8999267E+000	1.366761967538332E+002	-1.4882720E+000	-5.132102196881569E+002	7.6379639E-001	-1.4882442E+000	0
2.9190509E+000	1.368761967487808E+002	-1.4902610E+000	-5.105292902273918E+002	7.6082188E-001	-1.4902443E+000	0
2.8597162E+000	1.370761967437284E+002	-1.4922624E+000	-5.218218370035405E+002	7.7869511E-001	-1.4922442E+000	0
2.8213277E+000	1.372761967386759E+002	-1.4942651E+000	-5.296318932358106E+002	7.9141045E-001	-1.4942443E+000	0
2.8801017E+000	1.374761967336235E+002	-1.4962473E+000	-5.195119616450088E+002	7.7731836E-001	-1.4962443E+000	0
2.8812003E+000	1.376761967285711E+002	-1.4982594E+000	-5.200122506191383E+002	7.7911323E-001	-1.4982443E+000	0
2.7736831E+000	1.378761967235187E+002	-1.5002747E+000	-5.408961865431602E+002	8.1149286E-001	-1.5002443E+000	0
2.7853608E+000	1.380761967184662E+002	-1.5022663E+000	-5.393435129870627E+002	8.1023759E-001	-1.5022444E+000	0
2.8307252E+000	1.382761967134138E+002	-1.5042667E+000	-5.314068410272230E+002	7.9937762E-001	-1.5042443E+000	0
2.7719307E+000	1.384761967083614E+002	-1.5062631E+000	-5.433985605088479E+002	8.1850123E-001	-1.5062443E+000	0
2.7669644E+000	1.386761967033090E+002	-1.5082806E+000	-5.451029860870640E+002	8.2216829E-001	-1.5082444E+000	0
2.8156738E+000	1.388761966982565E+002	-1.5102680E+000	-5.363789002597996E+002	8.1007588E-001	-1.5102443E+000	0
2.7707803E+000	1.390761966932041E+002	-1.5124495E+000	-5.458568659153107E+002	8.2558095E-001	-1.5122443E+000	0
2.6871610E+000	1.392761966881517E+002	-1.5149093E+000	-5.637582939217150E+002	8.5404265E-001	-1.5142443E+000	0
2.7275765E+000	1.394761966830993E+002	-1.5169119E+000	-5.561390550185224E+002	8.4361392E-001	-1.5162443E+000	0
2.7569366E+000	1.396761966780468E+002	-1.5189002E+000	-5.509376730237682E+002	8.3681929E-001	-1.5182444E+000	0
2.6680448E+000	1.398761966729944E+002	-1.5209225E+000	-5.700513499123717E+002	8.6700398E-001	-1.5202442E+000	0
2.6913466E+000	1.400761966679420E+002	-1.5228900E+000	-5.658468116924605E+002	8.6172241E-001	-1.5222443E+000	0
2.6884775E+000	1.402761966628896E+002	-1.5248765E+000	-5.671895830842086E+002	8.6489403E-001	-1.5242444E+000	0
2.7161229E+000	1.404761966578371E+002	-1.5268884E+000	-5.621573350910676E+002	8.5835147E-001	-1.5262443E+000	0
2.6664934E+000	1.406661966530373E+002	-1.5288136E+000	-5.733423265194397E+002	8.7653357E-001	-1.5281442E+000	0
2.6824484E+000	1.407541966508143E+002	-1.5298312E+000	-5.703115219116211E+002	8.7248033E-001	-1.5291440E+000	1