EC-Lab ASCII FILE
Nb header lines : 63                          

Linear Sweep Voltammetry

Run on channel : 1 (SN 1340)
User : 
Electrode connection : standard
Potential control : Ewe
Ewe ctrl range : min = -5.00 V, max = 5.00 V
Ewe,I filtering : <None>
Safety Limits :
	Do not start on E overload
Channel : Floating
Acquisition started on : 03/03/2026 15:52:52.604
Technique started on : 03/03/2026 15:52:55.441
Loaded Setting File :  NONE
Saved on :
	File : Ni40_N52magB_flat_3-3_02_LSV_C01.mpr
	Directory : C:\Users\volt\Documents\Platalytix\
	Host : 127.0.0.1
Device : SP-200 (SN 0262)
Address : USB
EC-LAB for windows v11.60 (software)
Internet server v11.60 (firmware)
Command interpretor v11.60 (firmware)
Electrode material : Ni40
Initial state : 
Electrolyte : KOH (1 M)
Comments : with magnet side B (-), N52 Nd magnet, alloy placed lying flat on top of magnet
Cable : standard
Reference electrode : Hg/HgO (0.140 V)
Electrode surface area : 1.000 cm˛
Characteristic mass : 0.001 g
Equivalent Weight : 0.000 g/eq.
Density : 0.000 g/cm3
Volume (V) : 0.001 cmł
Cycle Definition : Charge/Discharge alternance
tR (h:m:s)          0:00:5.0000         
dER/dt (mV/h)       0.0                 
dER (mV)            0                   
dtR (s)             0.0000              
dE/dt               10.000              
dE/dt unit          mV/s                
Ei (V)              -0.200              
vs.                 Ref                 
EL (V)              -2.500              
vs.                 Ref                 
record              <I>                 
dI                  0.000               
unit dI             µA                  
tI (s)              0.0000              
step percent        50                  
N                   10                  
E range min (V)     -5.000              
E range max (V)     5.000               
I Range             Auto                
I Range min         Unset               
I Range max         Unset               
I Range init        Unset               
Bandwidth           8                   

Rwe/Ohm	time/s	Ewe/V	<I>/mA	Pwe/W	control/V	error	
0.0000000E+000	2.837400134740165E+000	-1.6487224E-001	0.000000000000000E+000	0.0000000E+000	0.0000000E+000	0
0.0000000E+000	7.837200008434593E+000	-5.6490026E-002	0.000000000000000E+000	0.0000000E+000	-1.9985470E-001	0
1.4911585E+004	8.037200003382168E+000	-2.0160770E-001	-1.352020662416181E-002	2.7257779E-006	-2.0175448E-001	0
1.4918727E+003	8.157200000350713E+000	-2.0291737E-001	-1.360152081890527E-001	2.7599848E-005	-2.0295453E-001	0
1.5216615E+003	8.367199995045667E+000	-2.0500496E-001	-1.347244196812163E-001	2.7619175E-005	-2.0505452E-001	0
1.6531797E+003	8.567199989993242E+000	-2.0702472E-001	-1.252281995777407E-001	2.5925334E-005	-2.0705453E-001	0
1.7775431E+003	8.767199984940817E+000	-2.0902269E-001	-1.175907821354376E-001	2.4579142E-005	-2.0905453E-001	0
1.8898704E+003	8.967199979888392E+000	-2.1102890E-001	-1.116631623608844E-001	2.3564155E-005	-2.1105453E-001	0
1.9929845E+003	9.167199974835967E+000	-2.1302429E-001	-1.068870769486319E-001	2.2769544E-005	-2.1305452E-001	0
2.0883679E+003	9.367199969783542E+000	-2.1504533E-001	-1.029729118629823E-001	2.2143844E-005	-2.1505453E-001	0
2.1774844E+003	9.567199964731117E+000	-2.1703628E-001	-9.967293865057969E-002	2.1632644E-005	-2.1705456E-001	0
2.2604219E+003	9.767199959678692E+000	-2.1907155E-001	-9.691621997454902E-002	2.1231586E-005	-2.1905452E-001	0
2.3410835E+003	9.967199954626267E+000	-2.2104847E-001	-9.442144338265446E-002	2.0871716E-005	-2.2105454E-001	0
2.4167043E+003	1.016719994957384E+001	-2.2298637E-001	-9.226878625530832E-002	2.0574682E-005	-2.2305454E-001	0
2.4908406E+003	1.036719994452142E+001	-2.2502743E-001	-9.034196127527061E-002	2.0329418E-005	-2.2505453E-001	0
2.5609729E+003	1.056719993946899E+001	-2.2702004E-001	-8.864601087743784E-002	2.0124420E-005	-2.2705454E-001	0
2.6281130E+003	1.076719993441657E+001	-2.2901244E-001	-8.713949882201533E-002	1.9956029E-005	-2.2905454E-001	0
2.6939785E+003	1.096719992936414E+001	-2.3100105E-001	-8.574717674539545E-002	1.9807689E-005	-2.3105453E-001	0
2.7599456E+003	1.116719992431172E+001	-2.3305841E-001	-8.444311567413232E-002	1.9680178E-005	-2.3305453E-001	0
2.8229038E+003	1.136719991925929E+001	-2.3502600E-001	-8.325682077588503E-002	1.9567518E-005	-2.3505455E-001	0
2.8869919E+003	1.156719991420687E+001	-2.3703982E-001	-8.210615799741186E-002	1.9462428E-005	-2.3705453E-001	0
2.9486309E+003	1.176719990915444E+001	-2.3900020E-001	-8.105463582743599E-002	1.9372073E-005	-2.3905453E-001	0
3.0051565E+003	1.196719990410202E+001	-2.4102849E-001	-8.020497348989530E-002	1.9331683E-005	-2.4105455E-001	0
3.0657183E+003	1.216719989904959E+001	-2.4302897E-001	-7.927309537080485E-002	1.9265659E-005	-2.4305451E-001	0
3.1228035E+003	1.236719989399717E+001	-2.4505174E-001	-7.847171508107387E-002	1.9229630E-005	-2.4505454E-001	0
3.1805781E+003	1.256719988894474E+001	-2.4702825E-001	-7.766772124572091E-002	1.9186122E-005	-2.4705455E-001	0
3.2356902E+003	1.276719988389232E+001	-2.4902828E-001	-7.696295414244536E-002	1.9165953E-005	-2.4905454E-001	0
3.2925076E+003	1.296719987883989E+001	-2.5104067E-001	-7.624603853541972E-002	1.9140856E-005	-2.5105456E-001	0
3.3475845E+003	1.316719987378747E+001	-2.5300294E-001	-7.557776322600995E-002	1.9121397E-005	-2.5305450E-001	0
3.4027646E+003	1.336719986873504E+001	-2.5502124E-001	-7.494531055097209E-002	1.9112646E-005	-2.5505453E-001	0
3.4574202E+003	1.356719986368262E+001	-2.5704488E-001	-7.434585934944149E-002	1.9110223E-005	-2.5705454E-001	0
3.5125723E+003	1.376719985863019E+001	-2.5899336E-001	-7.373324880596110E-002	1.9096422E-005	-2.5905451E-001	0
3.5656501E+003	1.396719985357777E+001	-2.6100740E-001	-7.320050728114469E-002	1.9105873E-005	-2.6105452E-001	0
3.6182185E+003	1.416719984852534E+001	-2.6301169E-001	-7.269093609529054E-002	1.9118566E-005	-2.6305452E-001	0
3.6689119E+003	1.436719984347292E+001	-2.6502514E-001	-7.223535182488805E-002	1.9144185E-005	-2.6505452E-001	0
3.7202009E+003	1.456719983842049E+001	-2.6696512E-001	-7.176094293824531E-002	1.9157669E-005	-2.6705453E-001	0
3.7746528E+003	1.476719983336807E+001	-2.6903394E-001	-7.127382403795024E-002	1.9175077E-005	-2.6905453E-001	0
3.8255129E+003	1.496719982831564E+001	-2.7101621E-001	-7.084440975661144E-002	1.9199984E-005	-2.7105451E-001	0
3.8765554E+003	1.516719982326322E+001	-2.7302578E-001	-7.042999445912612E-002	1.9229205E-005	-2.7305454E-001	0
3.9298723E+003	1.536719981821079E+001	-2.7499637E-001	-6.997590399581644E-002	1.9243120E-005	-2.7505454E-001	0
3.9801831E+003	1.556719981315837E+001	-2.7700850E-001	-6.959692534542850E-002	1.9278939E-005	-2.7705455E-001	0
4.0331614E+003	1.576719980810594E+001	-2.7900073E-001	-6.917668368177443E-002	1.9300345E-005	-2.7905452E-001	0
4.0838279E+003	1.596719980305352E+001	-2.8101692E-001	-6.881213318366464E-002	1.9337373E-005	-2.8105453E-001	0
4.1317700E+003	1.616719979800109E+001	-2.8298089E-001	-6.848902114964783E-002	1.9381085E-005	-2.8305453E-001	0
4.1831162E+003	1.636719979294867E+001	-2.8500664E-001	-6.813261097628653E-002	1.9418247E-005	-2.8505453E-001	0
4.2350093E+003	1.656719978789624E+001	-2.8703362E-001	-6.777638788525109E-002	1.9454103E-005	-2.8705454E-001	0
4.2810845E+003	1.676719978284382E+001	-2.8895497E-001	-6.749573953834076E-002	1.9503230E-005	-2.8905454E-001	0
4.3272754E+003	1.696719977779139E+001	-2.9099810E-001	-6.724742258732075E-002	1.9568872E-005	-2.9105452E-001	0
4.3836733E+003	1.716719977273897E+001	-2.9300788E-001	-6.684071719150186E-002	1.9584857E-005	-2.9305455E-001	0
4.4303555E+003	1.736719976768654E+001	-2.9496366E-001	-6.657787280995608E-002	1.9638053E-005	-2.9505453E-001	0
4.4798218E+003	1.756719976263412E+001	-2.9704306E-001	-6.630688767548643E-002	1.9696001E-005	-2.9705453E-001	0
4.5278599E+003	1.776719975758169E+001	-2.9902017E-001	-6.604006840866458E-002	1.9747313E-005	-2.9905453E-001	0
4.5734512E+003	1.796719975252927E+001	-3.0100393E-001	-6.581548803069914E-002	1.9810721E-005	-3.0105451E-001	0
4.6217080E+003	1.816719974747684E+001	-3.0303261E-001	-6.556723324334890E-002	1.9869010E-005	-3.0305454E-001	0
4.6735122E+003	1.836719974242442E+001	-3.0503395E-001	-6.526867387755081E-002	1.9909161E-005	-3.0505455E-001	0
4.7172656E+003	1.856719973737199E+001	-3.0703169E-001	-6.508679033728004E-002	1.9983707E-005	-3.0705455E-001	0
4.7622007E+003	1.876719973231957E+001	-3.0904317E-001	-6.489503201437241E-002	2.0055366E-005	-3.0905452E-001	0
4.8089941E+003	1.896719972726714E+001	-3.1104791E-001	-6.468045215392726E-002	2.0118719E-005	-3.1105456E-001	0
4.8527471E+003	1.916719972221472E+001	-3.1303948E-001	-6.450768754935821E-002	2.0193453E-005	-3.1305453E-001	0
4.9019131E+003	1.936719971716229E+001	-3.1502509E-001	-6.426574201893298E-002	2.0245321E-005	-3.1505454E-001	0
4.9447090E+003	1.956719971210987E+001	-3.1700289E-001	-6.410951248123020E-002	2.0322901E-005	-3.1705451E-001	0
4.9906221E+003	1.976719970705744E+001	-3.1901821E-001	-6.392353666944184E-002	2.0392772E-005	-3.1905454E-001	0
5.0373750E+003	1.996719970200502E+001	-3.2099682E-001	-6.372303541067589E-002	2.0454892E-005	-3.2105452E-001	0
5.0826035E+003	2.016719969695259E+001	-3.2297903E-001	-6.354598026900060E-002	2.0524019E-005	-3.2305452E-001	0
5.1261758E+003	2.036719969190017E+001	-3.2498401E-001	-6.339696924098648E-002	2.0603002E-005	-3.2505453E-001	0
5.1667632E+003	2.056719968684774E+001	-3.2700253E-001	-6.328962641808300E-002	2.0695868E-005	-3.2705453E-001	0
5.2150522E+003	2.076719968179532E+001	-3.2899323E-001	-6.308531876951207E-002	2.0754644E-005	-3.2905456E-001	0
5.2566431E+003	2.096719967674289E+001	-3.3097485E-001	-6.296315720376661E-002	2.0839221E-005	-3.3105454E-001	0
5.3003105E+003	2.116719967169047E+001	-3.3300123E-001	-6.282673622302015E-002	2.0921379E-005	-3.3305454E-001	0
5.3443989E+003	2.136719966663804E+001	-3.3502436E-001	-6.268700142549394E-002	2.1001671E-005	-3.3505452E-001	0
5.3887310E+003	2.156719966158562E+001	-3.3699453E-001	-6.253690133504797E-002	2.1074593E-005	-3.3705452E-001	0
5.4211113E+003	2.176719965653319E+001	-3.3898741E-001	-6.253098068144303E-002	2.1197215E-005	-3.3905452E-001	0
5.4634517E+003	2.196719965148077E+001	-3.4096813E-001	-6.240892183149682E-002	2.1279453E-005	-3.4105453E-001	0
5.5044048E+003	2.216719964642834E+001	-3.4302357E-001	-6.231801068123055E-002	2.1376547E-005	-3.4305453E-001	0
5.5474702E+003	2.236719964137592E+001	-3.4503788E-001	-6.219733990158682E-002	2.1460439E-005	-3.4505454E-001	0
5.5827993E+003	2.256719963632349E+001	-3.4700629E-001	-6.215632349556824E-002	2.1568636E-005	-3.4705454E-001	0
5.6277153E+003	2.276719963127107E+001	-3.4900084E-001	-6.201465583940702E-002	2.1643167E-005	-3.4905455E-001	0
5.6718989E+003	2.296719962621864E+001	-3.5100707E-001	-6.188528374145807E-002	2.1722173E-005	-3.5105455E-001	0
5.7052856E+003	2.316719962116622E+001	-3.5305017E-001	-6.188124293448771E-002	2.1847183E-005	-3.5305458E-001	0
5.7457617E+003	2.336719961611379E+001	-3.5503072E-001	-6.179001967975967E-002	2.1937354E-005	-3.5505456E-001	0
5.7849688E+003	2.356719961106137E+001	-3.5701400E-001	-6.171407790267502E-002	2.2032789E-005	-3.5705453E-001	0
5.8301694E+003	2.376719960600894E+001	-3.5902235E-001	-6.158009081838167E-002	2.2108628E-005	-3.5905457E-001	0
5.8620483E+003	2.396719960095652E+001	-3.6103237E-001	-6.158809283539207E-002	2.2235296E-005	-3.6105454E-001	0
5.8974873E+003	2.416719959590409E+001	-3.6298361E-001	-6.154885833614132E-002	2.2341226E-005	-3.6305454E-001	0
5.9390107E+003	2.436719959085167E+001	-3.6500534E-001	-6.145894683553244E-002	2.2432843E-005	-3.6505455E-001	0
5.9690298E+003	2.456719958579924E+001	-3.6699733E-001	-6.148358420922911E-002	2.2564311E-005	-3.6705455E-001	0
6.0097114E+003	2.476719958074682E+001	-3.6899906E-001	-6.140046335900373E-002	2.2656714E-005	-3.6905453E-001	0
6.0439316E+003	2.496719957569439E+001	-3.7096792E-001	-6.137857891465037E-002	2.2769484E-005	-3.7105456E-001	0
6.0772275E+003	2.516719957064197E+001	-3.7298116E-001	-6.137357172746305E-002	2.2891187E-005	-3.7305453E-001	0
6.1202197E+003	2.536719956558954E+001	-3.7499395E-001	-6.127132277074088E-002	2.2976375E-005	-3.7505451E-001	0
6.1458296E+003	2.556719956053712E+001	-3.7700483E-001	-6.134319808196864E-002	2.3126682E-005	-3.7705454E-001	0
6.1812861E+003	2.576719955548469E+001	-3.7903777E-001	-6.132020845707262E-002	2.3242676E-005	-3.7905452E-001	0
6.2195806E+003	2.596719955043227E+001	-3.8101280E-001	-6.126020864378708E-002	2.3340923E-005	-3.8105455E-001	0
6.2496758E+003	2.616719954537984E+001	-3.8301456E-001	-6.128550883616990E-002	2.3473242E-005	-3.8305455E-001	0
6.2802612E+003	2.636719954032742E+001	-3.8501376E-001	-6.130537396622064E-002	2.3603412E-005	-3.8505453E-001	0
6.3122427E+003	2.656719953527499E+001	-3.8700193E-001	-6.130973716021471E-002	2.3726987E-005	-3.8705456E-001	0
6.3407671E+003	2.676719953022257E+001	-3.8902488E-001	-6.135296633904197E-002	2.3867831E-005	-3.8905454E-001	0
6.3713462E+003	2.696719952517014E+001	-3.9103237E-001	-6.137358558695782E-002	2.3999059E-005	-3.9105457E-001	0
6.3967456E+003	2.716719952011772E+001	-3.9304987E-001	-6.144528641458402E-002	2.4151062E-005	-3.9305454E-001	0
6.4391162E+003	2.736719951506529E+001	-3.9500344E-001	-6.134435385169978E-002	2.4231231E-005	-3.9505452E-001	0
6.4657363E+003	2.756719951001287E+001	-3.9700520E-001	-6.140139205127826E-002	2.4376672E-005	-3.9705455E-001	0
6.4896865E+003	2.776719950496044E+001	-3.9901525E-001	-6.148451788175668E-002	2.4533259E-005	-3.9905459E-001	0
6.5217344E+003	2.796719949990802E+001	-4.0099430E-001	-6.148583667728746E-002	2.4655470E-005	-4.0105456E-001	0
6.5436089E+003	2.816719949485559E+001	-4.0298605E-001	-6.158467718345154E-002	2.4817766E-005	-4.0305454E-001	0
6.5651953E+003	2.836719948980317E+001	-4.0500775E-001	-6.169012788516326E-002	2.4984980E-005	-4.0505457E-001	0
6.5932788E+003	2.856719948475074E+001	-4.0702033E-001	-6.173261128526519E-002	2.5126428E-005	-4.0705451E-001	0
6.6230552E+003	2.876719947969832E+001	-4.0902275E-001	-6.175741429394210E-002	2.5260188E-005	-4.0905458E-001	0
6.6466323E+003	2.896719947464590E+001	-4.1103366E-001	-6.184088868773252E-002	2.5418687E-005	-4.1105458E-001	0
6.6626675E+003	2.916719946959347E+001	-4.1301668E-001	-6.198968670316152E-002	2.5602774E-005	-4.1305459E-001	0
6.6915278E+003	2.936719946454105E+001	-4.1505072E-001	-6.202630003462306E-002	2.5744061E-005	-4.1505453E-001	0
6.7161597E+003	2.956719945948862E+001	-4.1704187E-001	-6.209528608914983E-002	2.5896334E-005	-4.1705456E-001	0
6.7326138E+003	2.976719945443620E+001	-4.1903067E-001	-6.223893028477012E-002	2.6080021E-005	-4.1905460E-001	0
6.7530698E+003	2.996719944938377E+001	-4.2104807E-001	-6.234913661467761E-002	2.6251984E-005	-4.2105454E-001	0
6.7815542E+003	3.016719944433135E+001	-4.2304716E-001	-6.238203766426309E-002	2.6390544E-005	-4.2305455E-001	0
6.7988931E+003	3.036719943927892E+001	-4.2502490E-001	-6.251383798097687E-002	2.6569938E-005	-4.2505458E-001	0
6.8186738E+003	3.056719943422650E+001	-4.2708734E-001	-6.263495754722981E-002	2.6750597E-005	-4.2705452E-001	0
6.8417720E+003	3.076719942917407E+001	-4.2902350E-001	-6.270649101608383E-002	2.6902559E-005	-4.2905456E-001	0
6.8590454E+003	3.096719942412165E+001	-4.3104157E-001	-6.284279140058779E-002	2.7087855E-005	-4.3105456E-001	0
6.8758311E+003	3.116719941906922E+001	-4.3307415E-001	-6.298498794554719E-002	2.7277170E-005	-4.3305457E-001	0
6.8981616E+003	3.136719941401680E+001	-4.3504685E-001	-6.306707167305281E-002	2.7437130E-005	-4.3505454E-001	0
6.9108735E+003	3.156719940896437E+001	-4.3705750E-001	-6.324200456816265E-002	2.7640392E-005	-4.3705457E-001	0
6.9212417E+003	3.176719940391195E+001	-4.3907154E-001	-6.343826112789386E-002	2.7853936E-005	-4.3905455E-001	0
6.9415088E+003	3.196719939885952E+001	-4.4105545E-001	-6.353884291319856E-002	2.8024153E-005	-4.4105455E-001	0
6.9597646E+003	3.216719939380710E+001	-4.4305643E-001	-6.365968444270620E-002	2.8204833E-005	-4.4305456E-001	0
6.9827407E+003	3.236719938875467E+001	-4.4506791E-001	-6.373828569270867E-002	2.8367866E-005	-4.4505459E-001	0
6.9911445E+003	3.256719938370225E+001	-4.4706777E-001	-6.394772204441640E-002	2.8588966E-005	-4.4705456E-001	0
7.0052202E+003	3.276719937864982E+001	-4.4908825E-001	-6.410765769266347E-002	2.8789995E-005	-4.4905457E-001	0
7.0147856E+003	3.296719937359740E+001	-4.5107490E-001	-6.430344819883227E-002	2.9005671E-005	-4.5105457E-001	0
7.0343950E+003	3.316719936854497E+001	-4.5303822E-001	-6.440329443570458E-002	2.9177154E-005	-4.5305458E-001	0
7.0486216E+003	3.336719936349255E+001	-4.5506203E-001	-6.456042663458206E-002	2.9378998E-005	-4.5505455E-001	0
7.0661074E+003	3.356719935844012E+001	-4.5704514E-001	-6.468131574548697E-002	2.9562281E-005	-4.5705453E-001	0
7.0797349E+003	3.376719935338770E+001	-4.5904264E-001	-6.483895842053511E-002	2.9763847E-005	-4.5905462E-001	0
7.0937954E+003	3.396719934833527E+001	-4.6104255E-001	-6.499236638186801E-002	2.9964247E-005	-4.6105459E-001	0
7.1017153E+003	3.416719934328285E+001	-4.6306232E-001	-6.520429030462038E-002	3.0193649E-005	-4.6305454E-001	0
7.1191255E+003	3.436719933823042E+001	-4.6509591E-001	-6.533048530647778E-002	3.0384941E-005	-4.6505457E-001	0
7.1309448E+003	3.456719933317800E+001	-4.6704075E-001	-6.549493196872327E-002	3.0588802E-005	-4.6705458E-001	0
7.1458906E+003	3.476719932812557E+001	-4.6901852E-001	-6.563472016313252E-002	3.0783900E-005	-4.6905452E-001	0
7.1650791E+003	3.496719932307315E+001	-4.7105232E-001	-6.574279306690878E-002	3.0968295E-005	-4.7105455E-001	0
7.1797915E+003	3.516719931802072E+001	-4.7300488E-001	-6.588002795547832E-002	3.1161573E-005	-4.7305459E-001	0
7.1958774E+003	3.536719931296830E+001	-4.7503629E-001	-6.601506218846298E-002	3.1359552E-005	-4.7505459E-001	0
7.2015488E+003	3.556719930791587E+001	-4.7699600E-001	-6.623519857756199E-002	3.1593925E-005	-4.7705454E-001	0
7.2237852E+003	3.576719930286345E+001	-4.7902223E-001	-6.631180642715438E-002	3.1764830E-005	-4.7905457E-001	0
7.2407500E+003	3.596719929781102E+001	-4.8108146E-001	-6.644083390090494E-002	3.1963453E-005	-4.8105460E-001	0
7.2589741E+003	3.616719929275860E+001	-4.8300639E-001	-6.653920792638757E-002	3.2138862E-005	-4.8305455E-001	0
7.2761006E+003	3.636719928770617E+001	-4.8503274E-001	-6.666108284276528E-002	3.2332806E-005	-4.8505455E-001	0
7.2943662E+003	3.656719928265375E+001	-4.8703668E-001	-6.676888312772722E-002	3.2518896E-005	-4.8705459E-001	0
7.3051987E+003	3.676719927760132E+001	-4.8901659E-001	-6.694090177036816E-002	3.2735210E-005	-4.8905459E-001	0
7.3233032E+003	3.696719927254890E+001	-4.9104592E-001	-6.705251989449018E-002	3.2925866E-005	-4.9105456E-001	0
7.3446929E+003	3.716719926749647E+001	-4.9300840E-001	-6.712444260549599E-002	3.3092914E-005	-4.9305460E-001	0
7.3688486E+003	3.736719926244405E+001	-4.9505088E-001	-6.718157888537951E-002	3.3258300E-005	-4.9505457E-001	0
7.3907368E+003	3.756719925739162E+001	-4.9703062E-001	-6.725048428599878E-002	3.3425549E-005	-4.9705455E-001	0
7.4121167E+003	3.776719925233920E+001	-4.9904040E-001	-6.732764844455330E-002	3.3599215E-005	-4.9905458E-001	0
7.4276714E+003	3.796719924728677E+001	-5.0104856E-001	-6.745701952142596E-002	3.3799242E-005	-5.0105458E-001	0
7.4529116E+003	3.816719924223435E+001	-5.0306576E-001	-6.749922611229020E-002	3.3956549E-005	-5.0305456E-001	0
7.4740073E+003	3.836719923718192E+001	-5.0501728E-001	-6.756981545499607E-002	3.4123925E-005	-5.0505453E-001	0
7.5039839E+003	3.856719923212950E+001	-5.0705743E-001	-6.757176615922894E-002	3.4262765E-005	-5.0705457E-001	0
7.5248384E+003	3.876719922707707E+001	-5.0903076E-001	-6.764673504159024E-002	3.4434270E-005	-5.0905460E-001	0
7.5558413E+003	3.896719922202465E+001	-5.1105452E-001	-6.763701233062525E-002	3.4566201E-005	-5.1105452E-001	0
7.5738213E+003	3.916719921697222E+001	-5.1304382E-001	-6.773909767867914E-002	3.4753124E-005	-5.1305455E-001	0
7.6041206E+003	3.936719921191980E+001	-5.1506144E-001	-6.773451809104025E-002	3.4887438E-005	-5.1505458E-001	0
7.6292349E+003	3.956719920686737E+001	-5.1704401E-001	-6.777141126909636E-002	3.5040801E-005	-5.1705456E-001	0
7.6511299E+003	3.976719920181495E+001	-5.1900280E-001	-6.783348262677458E-002	3.5205769E-005	-5.1905453E-001	0
7.6773843E+003	3.996719919676252E+001	-5.2104867E-001	-6.786799194109583E-002	3.5362526E-005	-5.2105457E-001	0
7.7087422E+003	4.016719919171010E+001	-5.2303940E-001	-6.785016311670478E-002	3.5488309E-005	-5.2305466E-001	0
7.7382046E+003	4.036719918665767E+001	-5.2503777E-001	-6.785007465214743E-002	3.5623852E-005	-5.2505457E-001	0
7.7681675E+003	4.056719918160525E+001	-5.2704895E-001	-6.784726748699105E-002	3.5758832E-005	-5.2705455E-001	0
7.8006128E+003	4.076719917655282E+001	-5.2902132E-001	-6.781791838449858E-002	3.5877125E-005	-5.2905458E-001	0
7.8370190E+003	4.096719917150040E+001	-5.3102541E-001	-6.775859655873628E-002	3.5981535E-005	-5.3105450E-001	0
7.8719868E+003	4.116719916644797E+001	-5.3305137E-001	-6.771497272879989E-002	3.6095560E-005	-5.3305459E-001	0
7.9042261E+003	4.136719916139555E+001	-5.3505206E-001	-6.769189898182293E-002	3.6218691E-005	-5.3505462E-001	0
7.9309028E+003	4.156719915634312E+001	-5.3704071E-001	-6.771495429030283E-002	3.6365687E-005	-5.3705460E-001	0
7.9583638E+003	4.176719915129070E+001	-5.3905308E-001	-6.773415817287798E-002	3.6512305E-005	-5.3905457E-001	0
7.9994077E+003	4.196719914623827E+001	-5.4106605E-001	-6.763826281438354E-002	3.6596768E-005	-5.4105455E-001	0
8.0359443E+003	4.216719914118585E+001	-5.4305613E-001	-6.757838270561471E-002	3.6698853E-005	-5.4305464E-001	0
8.0626821E+003	4.236719913613342E+001	-5.4503894E-001	-6.760020046114779E-002	3.6844740E-005	-5.4505450E-001	0
8.1137119E+003	4.256719913108100E+001	-5.4702353E-001	-6.741963900877013E-002	3.6880130E-005	-5.4705453E-001	0
8.1442671E+003	4.276719912602857E+001	-5.4905909E-001	-6.741663676162835E-002	3.7015718E-005	-5.4905462E-001	0
8.1752061E+003	4.296719912097615E+001	-5.5106294E-001	-6.740661041944163E-002	3.7145284E-005	-5.5105454E-001	0
8.2063066E+003	4.316719911592372E+001	-5.5307335E-001	-6.739613195182215E-002	3.7275004E-005	-5.5305457E-001	0
8.2551953E+003	4.336719911087130E+001	-5.5503505E-001	-6.723463591061468E-002	3.7317579E-005	-5.5505455E-001	0
8.2971855E+003	4.356719910581887E+001	-5.5704188E-001	-6.713624310398822E-002	3.7397698E-005	-5.5705464E-001	0
8.3339512E+003	4.376719910076645E+001	-5.5904913E-001	-6.708091988794185E-002	3.7501530E-005	-5.5905455E-001	0
8.3587803E+003	4.396719909571402E+001	-5.6108487E-001	-6.712520609202177E-002	3.7662936E-005	-5.6105459E-001	0
8.4032842E+003	4.416719909066160E+001	-5.6303239E-001	-6.700146697670673E-002	3.7723996E-005	-5.6305462E-001	0
8.4414658E+003	4.436719908560917E+001	-5.6506336E-001	-6.693901077320452E-002	3.7824782E-005	-5.6505454E-001	0
8.4783613E+003	4.456719908055675E+001	-5.6702495E-001	-6.687907656430836E-002	3.7922106E-005	-5.6705457E-001	0
8.5227529E+003	4.476719907550432E+001	-5.6901503E-001	-6.676422675613214E-002	3.7989848E-005	-5.6905460E-001	0
8.5566836E+003	4.496719907045190E+001	-5.7103378E-001	-6.673541021968377E-002	3.8108174E-005	-5.7105458E-001	0
8.5918643E+003	4.516719906539947E+001	-5.7301885E-001	-6.669318913946753E-002	3.8216454E-005	-5.7305455E-001	0
8.6355684E+003	4.536719906034705E+001	-5.7502353E-001	-6.658780471212689E-002	3.8289556E-005	-5.7505459E-001	0
8.6619316E+003	4.556719905529462E+001	-5.7701510E-001	-6.661506249493332E-002	3.8437898E-005	-5.7705462E-001	0
8.7086289E+003	4.576719905024220E+001	-5.7904351E-001	-6.649077824388727E-002	3.8501053E-005	-5.7905459E-001	0
8.7402959E+003	4.596719904518977E+001	-5.8104640E-001	-6.647903284178325E-002	3.8627404E-005	-5.8105451E-001	0
8.7811221E+003	4.616719904013735E+001	-5.8305901E-001	-6.639914878099207E-002	3.8714621E-005	-5.8305460E-001	0
8.8217871E+003	4.636719903508492E+001	-5.8503842E-001	-6.631744774628656E-002	3.8798255E-005	-5.8505452E-001	0
8.8542813E+003	4.656719903003250E+001	-5.8702558E-001	-6.629849926308790E-002	3.8918915E-005	-5.8705455E-001	0
8.9070879E+003	4.676719902498007E+001	-5.8904916E-001	-6.613263378052836E-002	3.8955372E-005	-5.8905458E-001	0
8.9366436E+003	4.696719901992765E+001	-5.9101635E-001	-6.613404328286523E-002	3.9086302E-005	-5.9105462E-001	0
8.9651777E+003	4.716719901487522E+001	-5.9307837E-001	-6.615355665438594E-002	3.9234244E-005	-5.9305453E-001	0
9.0025898E+003	4.736719900982280E+001	-5.9505403E-001	-6.609809469239447E-002	3.9331939E-005	-5.9505457E-001	0
9.0393682E+003	4.756719900477037E+001	-5.9703159E-001	-6.604793466165093E-002	3.9432703E-005	-5.9705460E-001	0
9.0595811E+003	4.776719899971795E+001	-5.9903252E-001	-6.612143843844431E-002	3.9608891E-005	-5.9905457E-001	0
9.1163682E+003	4.796719899466552E+001	-6.0104126E-001	-6.592989853391118E-002	3.9626590E-005	-6.0105455E-001	0
9.1429053E+003	4.816719898961310E+001	-6.0307676E-001	-6.596117294097781E-002	3.9779650E-005	-6.0305458E-001	0
9.1740869E+003	4.836719898456067E+001	-6.0505754E-001	-6.595289071677624E-002	3.9905295E-005	-6.0505462E-001	0
9.2015479E+003	4.856719897950825E+001	-6.0704190E-001	-6.597171609803121E-002	4.0047595E-005	-6.0705459E-001	0
9.2309863E+003	4.876719897445582E+001	-6.0906082E-001	-6.598003737337033E-002	4.0185856E-005	-6.0905457E-001	0
9.2655010E+003	4.896719896940340E+001	-6.1108971E-001	-6.595322600082243E-002	4.0303337E-005	-6.1105460E-001	0
9.2871719E+003	4.916719896435097E+001	-6.1307126E-001	-6.601269404158883E-002	4.0470484E-005	-6.1305463E-001	0
9.3202705E+003	4.936719895929855E+001	-6.1503148E-001	-6.598858677311181E-002	4.0585059E-005	-6.1505455E-001	0
9.3433271E+003	4.956719895424612E+001	-6.1706668E-001	-6.604357069736255E-002	4.0753286E-005	-6.1705458E-001	0
9.3707402E+003	4.976719894919370E+001	-6.1906958E-001	-6.606410570968513E-002	4.0898278E-005	-6.1905456E-001	0
9.3992607E+003	4.996719894414127E+001	-6.2104690E-001	-6.607401584087147E-002	4.1035062E-005	-6.2105453E-001	0
9.4187393E+003	5.016719893908885E+001	-6.2308323E-001	-6.615356858682420E-002	4.1219180E-005	-6.2305456E-001	0
9.4443936E+003	5.036719893403642E+001	-6.2507486E-001	-6.618475721771033E-002	4.1370429E-005	-6.2505460E-001	0
9.4759229E+003	5.056719892898400E+001	-6.2709653E-001	-6.617788371287914E-002	4.1499923E-005	-6.2705463E-001	0
9.4967920E+003	5.076719892393157E+001	-6.2909383E-001	-6.624276920268192E-002	4.1672916E-005	-6.2905455E-001	0
9.5029141E+003	5.096719891887915E+001	-6.3105929E-001	-6.640692275912929E-002	4.1906704E-005	-6.3105458E-001	0
9.5254268E+003	5.116719891382672E+001	-6.3306773E-001	-6.646082451400182E-002	4.2074204E-005	-6.3305461E-001	0
9.5371123E+003	5.136719890877430E+001	-6.3505173E-001	-6.658742595896924E-002	4.2286461E-005	-6.3505453E-001	0
9.5598984E+003	5.156719890372187E+001	-6.3708031E-001	-6.664090599735896E-002	4.2455609E-005	-6.3705456E-001	0
9.5714531E+003	5.176719889866945E+001	-6.3905513E-001	-6.676678218807008E-002	4.2667656E-005	-6.3905466E-001	0
9.5898330E+003	5.196719889361702E+001	-6.4108163E-001	-6.685013492230563E-002	4.2856394E-005	-6.4105457E-001	0
9.5946885E+003	5.216719888856460E+001	-6.4309549E-001	-6.702619538348942E-002	4.3104243E-005	-6.4305460E-001	0
9.6183525E+003	5.236719888351217E+001	-6.4506584E-001	-6.706614741557143E-002	4.3262080E-005	-6.4505458E-001	0
9.6174131E+003	5.256719887845975E+001	-6.4705867E-001	-6.727990526663755E-002	4.3534044E-005	-6.4705461E-001	0
9.6319512E+003	5.276719887340732E+001	-6.4905351E-001	-6.738546572608745E-002	4.3736774E-005	-6.4905453E-001	0
9.6445000E+003	5.296719886835490E+001	-6.5105504E-001	-6.750532106471019E-002	4.3949680E-005	-6.5105456E-001	0
9.6578652E+003	5.316719886330247E+001	-6.5309131E-001	-6.762273862795354E-002	4.4163822E-005	-6.5305465E-001	0
9.6541055E+003	5.336719885825005E+001	-6.5505809E-001	-6.785280073574740E-002	4.4447526E-005	-6.5505451E-001	0
9.6580928E+003	5.356719885319762E+001	-6.5707374E-001	-6.803348470667214E-002	4.4703014E-005	-6.5705454E-001	0
9.6720654E+003	5.376719884814520E+001	-6.5910977E-001	-6.814570889318272E-002	4.4915501E-005	-6.5905464E-001	0
9.6810156E+003	5.396719884309277E+001	-6.6105592E-001	-6.828373772791185E-002	4.5139368E-005	-6.6105455E-001	0
9.6931436E+003	5.416719883804035E+001	-6.6308355E-001	-6.840748169148969E-002	4.5359877E-005	-6.6305453E-001	0
9.7029111E+003	5.436719883298792E+001	-6.6505539E-001	-6.854183985397662E-002	4.5584122E-005	-6.6505456E-001	0
9.7008760E+003	5.456719882793550E+001	-6.6706240E-001	-6.876310904757421E-002	4.5869285E-005	-6.6705465E-001	0
9.7059766E+003	5.476719882288307E+001	-6.6906333E-001	-6.893312808468333E-002	4.6120629E-005	-6.6905457E-001	0
9.7273936E+003	5.496719881783065E+001	-6.7105812E-001	-6.898642832185242E-002	4.6293902E-005	-6.7105454E-001	0
9.7143623E+003	5.516719881277822E+001	-6.7305714E-001	-6.928474711868793E-002	4.6632595E-005	-6.7305464E-001	0
9.7317754E+003	5.536719880772580E+001	-6.7504358E-001	-6.936489858837736E-002	4.6824331E-005	-6.7505455E-001	0
9.7395996E+003	5.556719880267337E+001	-6.7704159E-001	-6.951431195619101E-002	4.7064081E-005	-6.7705458E-001	0
9.7547051E+003	5.576719879762095E+001	-6.7902821E-001	-6.961032761368549E-002	4.7267375E-005	-6.7905456E-001	0
9.7705107E+003	5.596719879256852E+001	-6.8103540E-001	-6.970315493427931E-002	4.7470316E-005	-6.8105459E-001	0
9.7697432E+003	5.616719878751610E+001	-6.8304807E-001	-6.991463723326341E-002	4.7755057E-005	-6.8305457E-001	0
9.7858135E+003	5.636719878246367E+001	-6.8505913E-001	-7.000533425377981E-002	4.7957794E-005	-6.8505454E-001	0
9.8150352E+003	5.656719877741125E+001	-6.8706816E-001	-7.000160093953545E-002	4.8095870E-005	-6.8705463E-001	0
9.8183574E+003	5.676719877235882E+001	-6.8904376E-001	-7.017912767677592E-002	4.8356491E-005	-6.8905455E-001	0
9.8403359E+003	5.696719876730640E+001	-6.9107115E-001	-7.022841336879287E-002	4.8532831E-005	-6.9105452E-001	0
9.8430244E+003	5.716719876225397E+001	-6.9305950E-001	-7.041123639232572E-002	4.8799178E-005	-6.9305462E-001	0
9.8738535E+003	5.736719875720155E+001	-6.9505793E-001	-7.039378767319937E-002	4.8927759E-005	-6.9505453E-001	0
9.8874668E+003	5.756719875214912E+001	-6.9705486E-001	-7.049883050472361E-002	4.9141552E-005	-6.9705462E-001	0
9.9090869E+003	5.776719874709670E+001	-6.9903296E-001	-7.054463650053466E-002	4.9313025E-005	-6.9905460E-001	0
9.9162920E+003	5.796719874204427E+001	-7.0107812E-001	-7.069962416710029E-002	4.9565959E-005	-7.0105469E-001	0
9.9502793E+003	5.816719873699185E+001	-7.0306027E-001	-7.065733755535386E-002	4.9676368E-005	-7.0305467E-001	0
9.9605117E+003	5.836719873193942E+001	-7.0504314E-001	-7.078382560018204E-002	4.9905651E-005	-7.0505452E-001	0
9.9937783E+003	5.856719872688700E+001	-7.0706350E-001	-7.075037062062466E-002	5.0025006E-005	-7.0705462E-001	0
1.0008229E+004	5.876719872183457E+001	-7.0907706E-001	-7.084940932532713E-002	5.0237690E-005	-7.0905459E-001	0
1.0027397E+004	5.896719871678215E+001	-7.1109557E-001	-7.091526901919631E-002	5.0427534E-005	-7.1105456E-001	0
1.0066823E+004	5.916719871172972E+001	-7.1307337E-001	-7.083400306312990E-002	5.0509843E-005	-7.1305460E-001	0
1.0094934E+004	5.936719870667730E+001	-7.1506935E-001	-7.083448010513684E-002	5.0651564E-005	-7.1505463E-001	0
1.0096832E+004	5.956719870162488E+001	-7.1704519E-001	-7.101684614705506E-002	5.0922288E-005	-7.1705461E-001	0
1.0133581E+004	5.976719869657245E+001	-7.1907985E-001	-7.096009147448523E-002	5.1025971E-005	-7.1905458E-001	0
1.0154647E+004	5.996719869152003E+001	-7.2106111E-001	-7.100799082527076E-002	5.1201099E-005	-7.2105467E-001	0
1.0200775E+004	6.016719868646760E+001	-7.2307616E-001	-7.088442956986496E-002	5.1254843E-005	-7.2305459E-001	0
1.0210774E+004	6.036719868141518E+001	-7.2508991E-001	-7.101223121403555E-002	5.1490253E-005	-7.2505456E-001	0
1.0254085E+004	6.056719867636275E+001	-7.2707921E-001	-7.090629605986104E-002	5.1554493E-005	-7.2705460E-001	0
1.0283288E+004	6.076719867131033E+001	-7.2904301E-001	-7.089590517880029E-002	5.1686166E-005	-7.2905463E-001	0
1.0313417E+004	6.096719866625790E+001	-7.3105806E-001	-7.088417379352396E-002	5.1820447E-005	-7.3105460E-001	0
1.0334221E+004	6.116719866120548E+001	-7.3307818E-001	-7.093695632726910E-002	5.2002335E-005	-7.3305458E-001	0
1.0383495E+004	6.136719865615305E+001	-7.3508137E-001	-7.079324863329442E-002	5.2038798E-005	-7.3505467E-001	0
1.0399194E+004	6.156719865110063E+001	-7.3707151E-001	-7.087775251285389E-002	5.2241972E-005	-7.3705465E-001	0
1.0432164E+004	6.176719864604820E+001	-7.3904675E-001	-7.084309181690540E-002	5.2356358E-005	-7.3905450E-001	0
1.0459921E+004	6.196719864099578E+001	-7.4107587E-001	-7.084909120316962E-002	5.2504551E-005	-7.4105459E-001	0
1.0488412E+004	6.216719863594335E+001	-7.4307799E-001	-7.084752017074614E-002	5.2645231E-005	-7.4305457E-001	0
1.0515917E+004	6.236719863089093E+001	-7.4506593E-001	-7.085125673881110E-002	5.2788859E-005	-7.4505454E-001	0
1.0538412E+004	6.256719862583850E+001	-7.4708825E-001	-7.089191874385725E-002	5.2962521E-005	-7.4705464E-001	0
1.0554206E+004	6.276719862078608E+001	-7.4910170E-001	-7.097660135762895E-002	5.3168693E-005	-7.4905461E-001	0
1.0596263E+004	6.296719861573365E+001	-7.5105792E-001	-7.087951098503242E-002	5.3234617E-005	-7.5105458E-001	0
1.0609422E+004	6.316719861068123E+001	-7.5308359E-001	-7.098253100873916E-002	5.3455780E-005	-7.5305456E-001	0
1.0628204E+004	6.336719860562880E+001	-7.5509256E-001	-7.104610722319815E-002	5.3646389E-005	-7.5505465E-001	0
1.0645217E+004	6.356719860057638E+001	-7.5707036E-001	-7.111836216346994E-002	5.3841602E-005	-7.5705463E-001	0
1.0672259E+004	6.376719859552395E+001	-7.5908673E-001	-7.112708925364575E-002	5.3991629E-005	-7.5905454E-001	0
1.0695461E+004	6.396719859047153E+001	-7.6108831E-001	-7.115993440381385E-002	5.4158994E-005	-7.6105458E-001	0
1.0702866E+004	6.416719858541910E+001	-7.6305956E-001	-7.129488199106632E-002	5.4402240E-005	-7.6305461E-001	0
1.0715458E+004	6.436719858036668E+001	-7.6506209E-001	-7.139798300604733E-002	5.4623892E-005	-7.6505458E-001	0
1.0730985E+004	6.456719857531425E+001	-7.6708537E-001	-7.148321560381288E-002	5.4833730E-005	-7.6705456E-001	0
1.0735511E+004	6.476719857026183E+001	-7.6911694E-001	-7.164232517051999E-002	5.5101325E-005	-7.6905465E-001	0
1.0754493E+004	6.496719856520940E+001	-7.7111876E-001	-7.170201092852825E-002	5.5290766E-005	-7.7105463E-001	0
1.0753236E+004	6.516719856015698E+001	-7.7305084E-001	-7.189006487735428E-002	5.5574674E-005	-7.7305460E-001	0
1.0758053E+004	6.536719855510455E+001	-7.7509415E-001	-7.204781417880679E-002	5.5843841E-005	-7.7505457E-001	0
1.0772710E+004	6.556719855005213E+001	-7.7706242E-001	-7.213249219351281E-002	5.6051449E-005	-7.7705467E-001	0
1.0780155E+004	6.576719854499970E+001	-7.7906144E-001	-7.226810798728978E-002	5.6301295E-005	-7.7905452E-001	0
1.0784988E+004	6.596719853994728E+001	-7.8105682E-001	-7.242073662855719E-002	5.6564710E-005	-7.8105456E-001	0
1.0779961E+004	6.616719853489485E+001	-7.8307223E-001	-7.264147144098265E-002	5.6883520E-005	-7.8305471E-001	0
1.0782074E+004	6.636719852984243E+001	-7.8505617E-001	-7.281123752053187E-002	5.7160913E-005	-7.8505456E-001	0
1.0782520E+004	6.656719852479000E+001	-7.8706384E-001	-7.299442425667990E-002	5.7451271E-005	-7.8705466E-001	0
1.0766457E+004	6.676719851973758E+001	-7.8904080E-001	-7.328695284948150E-002	5.7826397E-005	-7.8905463E-001	0
1.0783261E+004	6.696719851468515E+001	-7.9104733E-001	-7.335882712115416E-002	5.8030306E-005	-7.9105461E-001	0
1.0772356E+004	6.716719850963273E+001	-7.9306406E-001	-7.362029478830334E-002	5.8385609E-005	-7.9305470E-001	0
1.0756874E+004	6.736719850458030E+001	-7.9504728E-001	-7.391062246998770E-002	5.8762438E-005	-7.9505461E-001	0
1.0750731E+004	6.756719849952788E+001	-7.9705864E-001	-7.413994309982330E-002	5.9093883E-005	-7.9705471E-001	0
1.0747523E+004	6.776719849447545E+001	-7.9904103E-001	-7.434652755121424E-002	5.9405927E-005	-7.9905462E-001	0
1.0726634E+004	6.796719848942303E+001	-8.0107725E-001	-7.468114151406102E-002	5.9825365E-005	-8.0105454E-001	0
1.0705434E+004	6.816719848437060E+001	-8.0306518E-001	-7.501473051206520E-002	6.0241717E-005	-8.0305469E-001	0
1.0681512E+004	6.836719847931818E+001	-8.0504590E-001	-7.536816079847419E-002	6.0674829E-005	-8.0505466E-001	0
1.0671016E+004	6.856719847426575E+001	-8.0703306E-001	-7.562851376753388E-002	6.1034712E-005	-8.0705464E-001	0
1.0651173E+004	6.876719846921333E+001	-8.0908513E-001	-7.596207174573877E-002	6.1459781E-005	-8.0905461E-001	0
1.0616952E+004	6.896719846416090E+001	-8.1103891E-001	-7.639093917283457E-002	6.1956023E-005	-8.1105465E-001	0
1.0601898E+004	6.916719845910848E+001	-8.1304896E-001	-7.668899671520885E-002	6.2351908E-005	-8.1305462E-001	0
1.0544194E+004	6.936719845405605E+001	-8.1507397E-001	-7.730073393470338E-002	6.3005813E-005	-8.1505460E-001	0
1.0506376E+004	6.956719844900363E+001	-8.1707156E-001	-7.776911344850146E-002	6.3542931E-005	-8.1705469E-001	0
1.0486636E+004	6.976719844395120E+001	-8.1907010E-001	-7.810609147286274E-002	6.3974367E-005	-8.1905466E-001	0
1.0431559E+004	6.996719843889878E+001	-8.2107610E-001	-7.871078143726251E-002	6.4627544E-005	-8.2105464E-001	0
1.0398219E+004	7.016719843384635E+001	-8.2308012E-001	-7.915587874938235E-002	6.5151631E-005	-8.2305461E-001	0
1.0367122E+004	7.036719842879393E+001	-8.2507634E-001	-7.958586356294217E-002	6.5664412E-005	-8.2505459E-001	0
1.0302099E+004	7.056719842374150E+001	-8.2703215E-001	-8.027803039499215E-002	6.6392509E-005	-8.2705468E-001	0
1.0260341E+004	7.076719841868908E+001	-8.2906449E-001	-8.080282244385728E-002	6.6990753E-005	-8.2905459E-001	0
1.0204787E+004	7.096719841363665E+001	-8.3109206E-001	-8.144139273560924E-002	6.7685294E-005	-8.3105469E-001	0
1.0160324E+004	7.116719840858423E+001	-8.3305258E-001	-8.199074667458217E-002	6.8302601E-005	-8.3305472E-001	0
1.0106603E+004	7.136719840353180E+001	-8.3502662E-001	-8.262189324309566E-002	6.8991481E-005	-8.3505452E-001	0
1.0038087E+004	7.156719839847938E+001	-8.3707058E-001	-8.338945250495733E-002	6.9802860E-005	-8.3705467E-001	0
9.9793564E+003	7.176719839342695E+001	-8.3907014E-001	-8.408058948958463E-002	7.0549511E-005	-8.3905464E-001	0
9.9260752E+003	7.196719838837453E+001	-8.4105843E-001	-8.473222156777549E-002	7.1264752E-005	-8.4105462E-001	0
9.8493291E+003	7.216719838332210E+001	-8.4308386E-001	-8.559809648907007E-002	7.2166375E-005	-8.4305465E-001	0
9.7734980E+003	7.236719837826968E+001	-8.4503239E-001	-8.646161181011713E-002	7.3062860E-005	-8.4505469E-001	0
9.6859785E+003	7.256719837321725E+001	-8.4702480E-001	-8.744855474705959E-002	7.4071097E-005	-8.4705466E-001	0
9.5947119E+003	7.276719836816483E+001	-8.4908420E-001	-8.849501540903393E-002	7.5139717E-005	-8.4905457E-001	0
9.5121826E+003	7.296719836311240E+001	-8.5108840E-001	-8.947351854716956E-002	7.6149874E-005	-8.5105467E-001	0
9.4052861E+003	7.316719835805998E+001	-8.5308337E-001	-9.070254666963073E-002	7.7376833E-005	-8.5305464E-001	0
9.2914941E+003	7.336719835300755E+001	-8.5506034E-001	-9.202614045478064E-002	7.8687903E-005	-8.5505462E-001	0
9.1732920E+003	7.356719834795513E+001	-8.5712397E-001	-9.343690321043674E-002	8.0087011E-005	-8.5705459E-001	0
9.0338018E+003	7.376719834290270E+001	-8.5907459E-001	-9.509557384106404E-002	8.1694190E-005	-8.5905468E-001	0
8.8924424E+003	7.396719833785028E+001	-8.6106741E-001	-9.683137865105662E-002	8.3378342E-005	-8.6105466E-001	0
8.7070625E+003	7.416719833279785E+001	-8.6305183E-001	-9.912089512170263E-002	8.5546468E-005	-8.6305457E-001	0
8.5155547E+003	7.436719832774543E+001	-8.6506265E-001	-1.015861791277688E-001	8.7878412E-005	-8.6505473E-001	0
8.2893545E+003	7.456719832269300E+001	-8.6706841E-001	-1.046002282002884E-001	9.0695554E-005	-8.6705470E-001	0
8.0606055E+003	7.476719831764058E+001	-8.6908448E-001	-1.078187601214231E-001	9.3703609E-005	-8.6905456E-001	0
7.7838359E+003	7.496719831258815E+001	-8.7108481E-001	-1.119094486274419E-001	9.7482618E-005	-8.7105465E-001	0
7.4977065E+003	7.516719830753573E+001	-8.7309337E-001	-1.164480557215408E-001	1.0167003E-004	-8.7305474E-001	0
7.1768940E+003	7.536719830248330E+001	-8.7504435E-001	-1.219252165039486E-001	1.0668997E-004	-8.7505460E-001	0
6.8433228E+003	7.556719829743088E+001	-8.7705326E-001	-1.281619063597554E-001	1.1240482E-004	-8.7705463E-001	0
6.5021465E+003	7.576719829237845E+001	-8.7905127E-001	-1.351940137917036E-001	1.1884247E-004	-8.7905467E-001	0
6.1606660E+003	7.596719828732603E+001	-8.8103807E-001	-1.430102020624577E-001	1.2599744E-004	-8.8105464E-001	0
5.8333174E+003	7.616719828227360E+001	-8.8304222E-001	-1.513790753036481E-001	1.3367411E-004	-8.8305461E-001	0
5.5134380E+003	7.636719827722118E+001	-8.8505137E-001	-1.605262208493454E-001	1.4207396E-004	-8.8505465E-001	0
5.2284546E+003	7.656719827216875E+001	-8.8702852E-001	-1.696540462201601E-001	1.5048798E-004	-8.8705468E-001	0
4.9719053E+003	7.676719826711633E+001	-8.8904744E-001	-1.788142413141673E-001	1.5897435E-004	-8.8905460E-001	0
4.7468950E+003	7.696719826206390E+001	-8.9104521E-001	-1.877111655885937E-001	1.6725913E-004	-8.9105457E-001	0
4.5563262E+003	7.716719825701148E+001	-8.9307153E-001	-1.960069306771315E-001	1.7504820E-004	-8.9305466E-001	0
4.3966392E+003	7.736719825195905E+001	-8.9504439E-001	-2.035746662170048E-001	1.8220836E-004	-8.9505464E-001	0
4.2636118E+003	7.756719824690663E+001	-8.9704907E-001	-2.103965107072778E-001	1.8873600E-004	-8.9705467E-001	0
4.1474443E+003	7.776719824185420E+001	-8.9903098E-001	-2.167674718306409E-001	1.9488067E-004	-8.9905471E-001	0
4.0510359E+003	7.796719823680178E+001	-9.0107328E-001	-2.224303317359750E-001	2.0042603E-004	-9.0105474E-001	0
3.9578682E+003	7.816719823174935E+001	-9.0305406E-001	-2.281667833193253E-001	2.0604694E-004	-9.0305465E-001	0
3.8577021E+003	7.836719822669693E+001	-9.0504861E-001	-2.346082064882766E-001	2.1233183E-004	-9.0505463E-001	0
3.7443745E+003	7.856719822164450E+001	-9.0706629E-001	-2.422477512107211E-001	2.1973476E-004	-9.0705472E-001	0
3.6193689E+003	7.876719821659208E+001	-9.0906233E-001	-2.511659788766072E-001	2.2832553E-004	-9.0905458E-001	0
3.4692981E+003	7.896719821153965E+001	-9.1105896E-001	-2.626061384923024E-001	2.3924968E-004	-9.1105461E-001	0
3.3065085E+003	7.916719820648723E+001	-9.1306257E-001	-2.761409980753902E-001	2.5213402E-004	-9.1305465E-001	0
3.1310305E+003	7.936719820143480E+001	-9.1506249E-001	-2.922560073110096E-001	2.6743251E-004	-9.1505462E-001	0
2.9437651E+003	7.956719819638238E+001	-9.1705543E-001	-3.115246595346002E-001	2.8568538E-004	-9.1705459E-001	0
2.7578459E+003	7.976719819132995E+001	-9.1906166E-001	-3.332534528605615E-001	3.0628048E-004	-9.1905463E-001	0
2.5341699E+003	7.996719818627753E+001	-9.2107618E-001	-3.634626608629152E-001	3.3477679E-004	-9.2105460E-001	0
2.3468472E+003	8.016719818122510E+001	-9.2309761E-001	-3.933352045102403E-001	3.6308679E-004	-9.2305464E-001	0
2.1827922E+003	8.036719817617268E+001	-9.2506158E-001	-4.237973579668068E-001	3.9203867E-004	-9.2505467E-001	0
2.0220676E+003	8.056719817112025E+001	-9.2706347E-001	-4.584730369399992E-001	4.2503359E-004	-9.2705470E-001	0
1.8692412E+003	8.076719816606783E+001	-9.2907745E-001	-4.970345410883699E-001	4.6178358E-004	-9.2905462E-001	0
1.7263937E+003	8.096719816101540E+001	-9.3108636E-001	-5.393244718452763E-001	5.0215767E-004	-9.3105465E-001	0
1.5949258E+003	8.116719815596298E+001	-9.3309247E-001	-5.850381758148471E-001	5.4589473E-004	-9.3305469E-001	0
1.4758804E+003	8.136719815091055E+001	-9.3507677E-001	-6.335722119410123E-001	5.9243868E-004	-9.3505472E-001	0
1.3648716E+003	8.156719814585813E+001	-9.3707502E-001	-6.865664166387790E-001	6.4336421E-004	-9.3705463E-001	0
1.2610194E+003	8.176719814080570E+001	-9.3905562E-001	-7.446797725717076E-001	6.9929572E-004	-9.3905461E-001	0
1.1574924E+003	8.196719813575328E+001	-9.4105279E-001	-8.130099102939199E-001	7.6508522E-004	-9.4105470E-001	0
1.0790922E+003	8.216719813070085E+001	-9.4304198E-001	-8.739216751218386E-001	8.2414481E-004	-9.4305468E-001	0
1.0071752E+003	8.236719812564843E+001	-9.4506741E-001	-9.383346219114195E-001	8.8678946E-004	-9.4505459E-001	0
9.4144678E+002	8.256719812059600E+001	-9.4706440E-001	-1.005967007117881E+000	9.5271552E-004	-9.4705462E-001	0
8.7833722E+002	8.277719811529096E+001	-9.4914752E-001	-1.080618599073722E+000	1.0256665E-003	-9.4915468E-001	0
8.1719397E+002	8.298719810998591E+001	-9.5126569E-001	-1.164063534329802E+000	1.1073337E-003	-9.5125467E-001	0
7.6460498E+002	8.318719810493349E+001	-9.5324600E-001	-1.246717001533227E+000	1.1884280E-003	-9.5325470E-001	0
7.2146320E+002	8.338719809988106E+001	-9.5528203E-001	-1.324089786920551E+000	1.2648791E-003	-9.5525473E-001	0
6.8205920E+002	8.358719809482864E+001	-9.5724523E-001	-1.403463536429975E+000	1.3434588E-003	-9.5725465E-001	0
6.4595020E+002	8.378719808977621E+001	-9.5927435E-001	-1.485059261997812E+000	1.4245793E-003	-9.5925462E-001	0
6.0848938E+002	8.398719808472379E+001	-9.6126884E-001	-1.579762799652661E+000	1.5185768E-003	-9.6125472E-001	0
5.7658118E+002	8.418719807967136E+001	-9.6327651E-001	-1.670669412802132E+000	1.6093166E-003	-9.6325457E-001	0
5.4934290E+002	8.438719807461894E+001	-9.6526295E-001	-1.757122870475529E+000	1.6960856E-003	-9.6525460E-001	0
5.2397046E+002	8.458719806956651E+001	-9.6724242E-001	-1.845986524220898E+000	1.7855165E-003	-9.6725464E-001	0
5.0042603E+002	8.478719806451409E+001	-9.6926737E-001	-1.936884462377243E+000	1.8773589E-003	-9.6925461E-001	0
4.7504916E+002	8.498719805946166E+001	-9.7124350E-001	-2.044511564447624E+000	1.9857185E-003	-9.7125459E-001	0
4.5549832E+002	8.518719805440924E+001	-9.7324485E-001	-2.136659546436356E+000	2.0794929E-003	-9.7325462E-001	0
4.3737906E+002	8.538719804935681E+001	-9.7526634E-001	-2.229796649765666E+000	2.1746457E-003	-9.7525465E-001	0
4.2026773E+002	8.558719804430439E+001	-9.7723454E-001	-2.325266623054366E+000	2.2723309E-003	-9.7725463E-001	0
4.0144016E+002	8.578719803925196E+001	-9.7925764E-001	-2.439361380527227E+000	2.3887632E-003	-9.7925466E-001	0
3.8688940E+002	8.598719803419954E+001	-9.8125678E-001	-2.536272045284027E+000	2.4887342E-003	-9.8125470E-001	0
3.7136880E+002	8.618719802914711E+001	-9.8325330E-001	-2.647646468276339E+000	2.6033071E-003	-9.8325461E-001	0
3.5847009E+002	8.638719802409469E+001	-9.8522860E-001	-2.748426178381559E+000	2.7078281E-003	-9.8525459E-001	0
3.4479547E+002	8.658719801904226E+001	-9.8724556E-001	-2.863278702408280E+000	2.8267591E-003	-9.8725468E-001	0
3.3376910E+002	8.678719801398984E+001	-9.8925173E-001	-2.963880581143499E+000	2.9320240E-003	-9.8925471E-001	0
3.2330588E+002	8.698719800893741E+001	-9.9125659E-001	-3.066002288034973E+000	3.0391950E-003	-9.9125463E-001	0
3.1265030E+002	8.718719800388499E+001	-9.9324781E-001	-3.176865013143114E+000	3.1554142E-003	-9.9325460E-001	0
3.0228586E+002	8.738719799883256E+001	-9.9526191E-001	-3.292452731843447E+000	3.2768529E-003	-9.9525470E-001	0
2.9349850E+002	8.758719799378014E+001	-9.9725133E-001	-3.397807034404103E+000	3.3884675E-003	-9.9725467E-001	0
2.8500003E+002	8.778719798872771E+001	-9.9924785E-001	-3.506132443914879E+000	3.5034954E-003	-9.9925458E-001	0
2.7601947E+002	8.798719798367529E+001	-1.0012244E+000	-3.627368765420655E+000	3.6318102E-003	-1.0012547E+000	0
2.6814807E+002	8.818719797862286E+001	-1.0032775E+000	-3.741505501052693E+000	3.7537685E-003	-1.0032547E+000	0
2.6099655E+002	8.838719797357044E+001	-1.0052387E+000	-3.851539758428956E+000	3.8717166E-003	-1.0052546E+000	0
2.5379007E+002	8.858719796851801E+001	-1.0072709E+000	-3.968913994172009E+000	3.9977715E-003	-1.0072546E+000	0
2.4644029E+002	8.878719796346559E+001	-1.0092480E+000	-4.095304459705121E+000	4.1331779E-003	-1.0092547E+000	0
2.4026837E+002	8.898719795841316E+001	-1.0112652E+000	-4.208898442368671E+000	4.2563123E-003	-1.0112547E+000	0
2.3431689E+002	8.918719795336074E+001	-1.0132209E+000	-4.324147785128936E+000	4.3813167E-003	-1.0132546E+000	0
2.2761032E+002	8.938719794830831E+001	-1.0152601E+000	-4.460518815113302E+000	4.5285868E-003	-1.0152546E+000	0
2.2216985E+002	8.958719794325589E+001	-1.0172578E+000	-4.578739313750845E+000	4.6577584E-003	-1.0172546E+000	0
2.1694810E+002	8.978719793820346E+001	-1.0192293E+000	-4.698032779994996E+000	4.7883727E-003	-1.0192546E+000	0
2.1116504E+002	8.998719793315104E+001	-1.0212545E+000	-4.836286010351586E+000	4.9390788E-003	-1.0212547E+000	0
2.0620659E+002	9.018719792809861E+001	-1.0232139E+000	-4.962081351720819E+000	5.0772703E-003	-1.0232548E+000	0
2.0155009E+002	9.038719792304619E+001	-1.0252689E+000	-5.086918403231895E+000	5.2154595E-003	-1.0252546E+000	0
1.9659720E+002	9.058719791799376E+001	-1.0272776E+000	-5.225291092582296E+000	5.3678243E-003	-1.0272546E+000	0
1.9202194E+002	9.078719791294134E+001	-1.0292765E+000	-5.360202349840662E+000	5.5171303E-003	-1.0292547E+000	0
1.8788135E+002	9.098719790788891E+001	-1.0312746E+000	-5.488966994578863E+000	5.6606322E-003	-1.0312546E+000	0
1.8332967E+002	9.118719790283649E+001	-1.0332758E+000	-5.636162625047078E+000	5.8237105E-003	-1.0332546E+000	0
1.7927957E+002	9.138719789778406E+001	-1.0352727E+000	-5.774627443546592E+000	5.9783142E-003	-1.0352546E+000	0
1.7552834E+002	9.158719789273164E+001	-1.0372880E+000	-5.909518343588672E+000	6.1298721E-003	-1.0372546E+000	0
1.7123598E+002	9.178719788767921E+001	-1.0392649E+000	-6.069197428773833E+000	6.3075041E-003	-1.0392547E+000	0
1.6776738E+002	9.198719788262679E+001	-1.0412927E+000	-6.206764579258511E+000	6.4630583E-003	-1.0412546E+000	0
1.6434468E+002	9.218719787757436E+001	-1.0432920E+000	-6.348195015911038E+000	6.6230213E-003	-1.0432546E+000	0
1.6049533E+002	9.238719787252194E+001	-1.0452826E+000	-6.512853925460632E+000	6.8077729E-003	-1.0452546E+000	0
1.5732735E+002	9.258719786746951E+001	-1.0473099E+000	-6.656884020620993E+000	6.9718203E-003	-1.0472546E+000	0
1.5392703E+002	9.278719786241709E+001	-1.0492957E+000	-6.816838414490604E+000	7.1528791E-003	-1.0492547E+000	0
1.5065421E+002	9.298719785736466E+001	-1.0512767E+000	-6.978077169786502E+000	7.3358896E-003	-1.0512547E+000	0
1.4775314E+002	9.318719785231224E+001	-1.0532693E+000	-7.128574195835341E+000	7.5083082E-003	-1.0532547E+000	0
1.4439870E+002	9.338719784725981E+001	-1.0552880E+000	-7.308154366454318E+000	7.7122073E-003	-1.0552547E+000	0
1.4163057E+002	9.358719784220739E+001	-1.0572782E+000	-7.465041966530180E+000	7.8926254E-003	-1.0572547E+000	0
1.3872346E+002	9.378719783715496E+001	-1.0592618E+000	-7.635779671320336E+000	8.0882898E-003	-1.0592546E+000	0
1.3585358E+002	9.398719783210254E+001	-1.0613010E+000	-7.812094337140110E+000	8.2909837E-003	-1.0612547E+000	0
1.3324605E+002	9.418719782705011E+001	-1.0632998E+000	-7.979972569107190E+000	8.4851030E-003	-1.0632547E+000	0
1.3039624E+002	9.438719782199769E+001	-1.0652583E+000	-8.169393676884340E+000	8.7025138E-003	-1.0652547E+000	0
1.2798112E+002	9.458719781694526E+001	-1.0673039E+000	-8.339541678052910E+000	8.9008249E-003	-1.0672547E+000	0
1.2519562E+002	9.478719781189284E+001	-1.0693212E+000	-8.541202746889240E+000	9.1332886E-003	-1.0692546E+000	0
1.2292400E+002	9.498719780684041E+001	-1.0712926E+000	-8.715081356550243E+000	9.3364026E-003	-1.0712547E+000	0
1.2028075E+002	9.518719780178799E+001	-1.0732794E+000	-8.923118763837707E+000	9.5769996E-003	-1.0732547E+000	0
1.1812392E+002	9.538719779673556E+001	-1.0752678E+000	-9.102879755418627E+000	9.7880336E-003	-1.0752547E+000	0
1.1564233E+002	9.558719779168314E+001	-1.0772545E+000	-9.315399477271029E+000	1.0035057E-002	-1.0772547E+000	0
1.1354861E+002	9.578719778663071E+001	-1.0792835E+000	-9.505034290879209E+000	1.0258626E-002	-1.0792547E+000	0
1.1120963E+002	9.598719778157829E+001	-1.0812830E+000	-9.722925505400241E+000	1.0513234E-002	-1.0812547E+000	0
1.0916875E+002	9.618719777652586E+001	-1.0833163E+000	-9.923319095048782E+000	1.0750093E-002	-1.0832547E+000	0
1.0688586E+002	9.638719777147344E+001	-1.0852940E+000	-1.015376557832128E+001	1.1019821E-002	-1.0852547E+000	0
1.0496081E+002	9.658719776642101E+001	-1.0872803E+000	-1.035891654398165E+001	1.1263045E-002	-1.0872545E+000	0
1.0279846E+002	9.678719776136859E+001	-1.0892605E+000	-1.059607775188357E+001	1.1541888E-002	-1.0892547E+000	0
1.0066486E+002	9.699719775606354E+001	-1.0913675E+000	-1.084159269667398E+001	1.1832162E-002	-1.0913547E+000	0
9.8482872E+001	9.720719775075850E+001	-1.0934644E+000	-1.110309194430474E+001	1.2140836E-002	-1.0934547E+000	0
9.6503876E+001	9.740719774570607E+001	-1.0954353E+000	-1.135120455383441E+001	1.2434510E-002	-1.0954546E+000	0
9.4706215E+001	9.760719774065365E+001	-1.0974201E+000	-1.158762471651545E+001	1.2716493E-002	-1.0974547E+000	0
9.2811615E+001	9.780719773560122E+001	-1.0994380E+000	-1.184590866519747E+001	1.3023841E-002	-1.0994546E+000	0
9.1027145E+001	9.800719773054880E+001	-1.1014493E+000	-1.210022820292415E+001	1.3327788E-002	-1.1014546E+000	0
8.9336655E+001	9.820719772549637E+001	-1.1034564E+000	-1.235166404678441E+001	1.3629522E-002	-1.1034547E+000	0
8.7548828E+001	9.840719772044395E+001	-1.1054710E+000	-1.262690772626414E+001	1.3958680E-002	-1.1054547E+000	0
8.5887878E+001	9.860719771539152E+001	-1.1074860E+000	-1.289455534717126E+001	1.4280540E-002	-1.1074545E+000	0
8.4278404E+001	9.880719771033910E+001	-1.1094835E+000	-1.316450485553329E+001	1.4605801E-002	-1.1094546E+000	0
8.2536621E+001	9.900719770528667E+001	-1.1114320E+000	-1.346592552118557E+001	1.4966460E-002	-1.1114547E+000	0
8.0902664E+001	9.920719770023425E+001	-1.1134778E+000	-1.376317822162792E+001	1.5324994E-002	-1.1134546E+000	0
7.9351822E+001	9.940719769518182E+001	-1.1155142E+000	-1.405782655861378E+001	1.5681705E-002	-1.1154547E+000	0
7.7828133E+001	9.960719769012940E+001	-1.1174669E+000	-1.435813622261111E+001	1.6044741E-002	-1.1174546E+000	0
7.6261681E+001	9.980719768507697E+001	-1.1195151E+000	-1.467991578849268E+001	1.6434386E-002	-1.1194547E+000	0
7.4743080E+001	1.000071976800245E+002	-1.1214768E+000	-1.500442269451219E+001	1.6827112E-002	-1.1214547E+000	0
7.3273933E+001	1.002071976749721E+002	-1.1234765E+000	-1.533255349846382E+001	1.7225763E-002	-1.1234546E+000	0
7.1828430E+001	1.004071976699197E+002	-1.1254842E+000	-1.566906382667236E+001	1.7635284E-002	-1.1254547E+000	0
7.0389633E+001	1.006071976648673E+002	-1.1274954E+000	-1.601791819477302E+001	1.8060129E-002	-1.1274546E+000	0
6.8984703E+001	1.008071976598148E+002	-1.1294740E+000	-1.637281805831022E+001	1.8492673E-002	-1.1294546E+000	0
6.7549080E+001	1.010071976547624E+002	-1.1314715E+000	-1.675036187385484E+001	1.8952558E-002	-1.1314547E+000	0
6.6090111E+001	1.012071976497100E+002	-1.1335043E+000	-1.715089074446234E+001	1.9440608E-002	-1.1334547E+000	0
6.4687691E+001	1.014071976446576E+002	-1.1354463E+000	-1.755274050819631E+001	1.9930195E-002	-1.1354547E+000	0
6.3346619E+001	1.016071976396051E+002	-1.1375041E+000	-1.795682468179126E+001	2.0425962E-002	-1.1374546E+000	0
6.2048244E+001	1.018071976345527E+002	-1.1394862E+000	-1.836451940809513E+001	2.0926116E-002	-1.1394547E+000	0
6.0773148E+001	1.020071976295003E+002	-1.1414715E+000	-1.878249714406974E+001	2.1439685E-002	-1.1414547E+000	0
5.9517483E+001	1.022071976244479E+002	-1.1434535E+000	-1.921206080170174E+001	2.1968098E-002	-1.1434547E+000	0
5.8275791E+001	1.024071976193954E+002	-1.1454785E+000	-1.965616359448484E+001	2.2515712E-002	-1.1454546E+000	0
5.7068501E+001	1.026071976143430E+002	-1.1474520E+000	-2.010657291428571E+001	2.3071326E-002	-1.1474546E+000	0
5.5864681E+001	1.028071976092906E+002	-1.1494954E+000	-2.057642408860784E+001	2.3652503E-002	-1.1494547E+000	0
5.4691490E+001	1.030071976042382E+002	-1.1514990E+000	-2.105444588980168E+001	2.4244174E-002	-1.1514547E+000	0
5.3573116E+001	1.032071975991857E+002	-1.1535242E+000	-2.153177305062621E+001	2.4837421E-002	-1.1534547E+000	0
5.2410053E+001	1.034071975941333E+002	-1.1554790E+000	-2.204689577539489E+001	2.5474723E-002	-1.1554546E+000	0
5.1281754E+001	1.036071975890809E+002	-1.1574854E+000	-2.257109518007883E+001	2.6125712E-002	-1.1574546E+000	0
5.0219154E+001	1.038071975840285E+002	-1.1594858E+000	-2.308851708481910E+001	2.6770808E-002	-1.1594547E+000	0
4.9139412E+001	1.040071975789760E+002	-1.1615013E+000	-2.363685838151687E+001	2.7454242E-002	-1.1614547E+000	0
4.8081203E+001	1.042071975739236E+002	-1.1634651E+000	-2.419792031295719E+001	2.8153436E-002	-1.1634548E+000	0
4.7047729E+001	1.044071975688712E+002	-1.1654650E+000	-2.477197194396763E+001	2.8870866E-002	-1.1654546E+000	0
4.6041264E+001	1.046071975638188E+002	-1.1674954E+000	-2.535758747238145E+001	2.9604865E-002	-1.1674547E+000	0
4.5066017E+001	1.048071975587663E+002	-1.1694645E+000	-2.595002990569128E+001	3.0347638E-002	-1.1694547E+000	0
4.4044575E+001	1.050071975537139E+002	-1.1714772E+000	-2.659753697015810E+001	3.1158408E-002	-1.1714547E+000	0
4.3059311E+001	1.052071975486615E+002	-1.1734550E+000	-2.725206254290879E+001	3.1979069E-002	-1.1734546E+000	0
4.2122093E+001	1.054071975436091E+002	-1.1754639E+000	-2.790611370323484E+001	3.2802630E-002	-1.1754545E+000	0
4.1139420E+001	1.056071975385566E+002	-1.1774802E+000	-2.862170133704228E+001	3.3701487E-002	-1.1774546E+000	0
4.0218681E+001	1.058071975335042E+002	-1.1794679E+000	-2.932637031251328E+001	3.4589514E-002	-1.1794547E+000	0
3.9296997E+001	1.060071975284518E+002	-1.1814784E+000	-3.006535926697738E+001	3.5521571E-002	-1.1814548E+000	0
3.8416714E+001	1.062071975233994E+002	-1.1834751E+000	-3.080625654672554E+001	3.6458440E-002	-1.1834546E+000	0
3.7554096E+001	1.064071975183469E+002	-1.1854769E+000	-3.156717854643624E+001	3.7422162E-002	-1.1854546E+000	0
3.6693817E+001	1.066071975132945E+002	-1.1874393E+000	-3.236074784553509E+001	3.8426425E-002	-1.1874547E+000	0
3.5851574E+001	1.068071975082421E+002	-1.1894604E+000	-3.317735671807845E+001	3.9463151E-002	-1.1894547E+000	0
3.5019115E+001	1.070071975031897E+002	-1.1914760E+000	-3.402358930640747E+001	4.0538289E-002	-1.1914545E+000	0
3.4211002E+001	1.072071974981372E+002	-1.1934725E+000	-3.488563530488369E+001	4.1635048E-002	-1.1934546E+000	0
3.3400749E+001	1.074071974930848E+002	-1.1954571E+000	-3.579132777222691E+001	4.2786997E-002	-1.1954546E+000	0
3.2601860E+001	1.076071974880324E+002	-1.1974730E+000	-3.673020442380948E+001	4.3983430E-002	-1.1974546E+000	0
3.1798470E+001	1.078071974829800E+002	-1.1995167E+000	-3.772246599386619E+001	4.5248725E-002	-1.1994547E+000	0
3.1014822E+001	1.080071974779275E+002	-1.2014678E+000	-3.873850246162372E+001	4.6543062E-002	-1.2014546E+000	0
3.0241583E+001	1.082071974728751E+002	-1.2034577E+000	-3.979480003202326E+001	4.7891360E-002	-1.2034546E+000	0
2.9494164E+001	1.084071974678227E+002	-1.2054778E+000	-4.087174176548058E+001	4.9269978E-002	-1.2054546E+000	0
2.8737501E+001	1.086071974627703E+002	-1.2074790E+000	-4.201753566919263E+001	5.0735291E-002	-1.2074547E+000	0
2.8017748E+001	1.088071974577178E+002	-1.2095008E+000	-4.316909538185791E+001	5.2213054E-002	-1.2094548E+000	0
2.7316563E+001	1.090071974526654E+002	-1.2115099E+000	-4.435074660513129E+001	5.3731371E-002	-1.2114546E+000	0
2.6580093E+001	1.092071974476130E+002	-1.2135257E+000	-4.565543242565923E+001	5.5404037E-002	-1.2134546E+000	0
2.5870041E+001	1.094071974425606E+002	-1.2155032E+000	-4.698497557613041E+001	5.7110388E-002	-1.2154547E+000	0
2.5181751E+001	1.096071974375081E+002	-1.2174940E+000	-4.834826513942426E+001	5.8863722E-002	-1.2174547E+000	0
2.4508867E+001	1.098071974324557E+002	-1.2195197E+000	-4.975830641598418E+001	6.0681235E-002	-1.2194546E+000	0
2.3897991E+001	1.100071974274033E+002	-1.2215229E+000	-5.111404091538753E+001	6.2436972E-002	-1.2214546E+000	0
2.3270100E+001	1.102071974223509E+002	-1.2235214E+000	-5.257911841128680E+001	6.4331673E-002	-1.2234547E+000	0
2.2698557E+001	1.104071974172984E+002	-1.2255242E+000	-5.399127977559360E+001	6.6167623E-002	-1.2254546E+000	0
2.2105440E+001	1.106071974122460E+002	-1.2274996E+000	-5.552929920836641E+001	6.8162195E-002	-1.2274547E+000	0
2.1501877E+001	1.108071974071936E+002	-1.2295263E+000	-5.718227600348541E+001	7.0307113E-002	-1.2294546E+000	0
2.0934006E+001	1.110071974021412E+002	-1.2315105E+000	-5.882822904889565E+001	7.2447583E-002	-1.2314547E+000	0
2.0360909E+001	1.112071973970887E+002	-1.2335536E+000	-6.058440991864450E+001	7.4734122E-002	-1.2334547E+000	0
1.9831837E+001	1.114071973920363E+002	-1.2355345E+000	-6.230055878438156E+001	7.6974496E-002	-1.2354547E+000	0
1.9275782E+001	1.116071973869839E+002	-1.2375219E+000	-6.420086458588912E+001	7.9449974E-002	-1.2374547E+000	0
1.8721474E+001	1.118071973819315E+002	-1.2395064E+000	-6.620773179893297E+001	8.2064904E-002	-1.2394547E+000	0
1.8245298E+001	1.120071973768790E+002	-1.2415344E+000	-6.804681329283824E+001	8.4482454E-002	-1.2414547E+000	0
1.7844116E+001	1.122071973718266E+002	-1.2435191E+000	-6.968790475959935E+001	8.6658239E-002	-1.2434546E+000	0
1.7383408E+001	1.124071973667742E+002	-1.2455726E+000	-7.165296029395756E+001	8.9248963E-002	-1.2454547E+000	0
1.6882736E+001	1.126071973617218E+002	-1.2475089E+000	-7.389257313118515E+001	9.2181638E-002	-1.2474546E+000	0
1.6408894E+001	1.128071973566693E+002	-1.2495084E+000	-7.614823734895424E+001	9.5147863E-002	-1.2494547E+000	0
1.6027868E+001	1.130071973516169E+002	-1.2514828E+000	-7.808167364808196E+001	9.7717874E-002	-1.2514547E+000	0
1.5587125E+001	1.132071973465645E+002	-1.2535149E+000	-8.041989285497152E+001	1.0080753E-001	-1.2534547E+000	0
1.5098639E+001	1.134071973415121E+002	-1.2555022E+000	-8.315333439757762E+001	1.0439920E-001	-1.2554547E+000	0
1.4752832E+001	1.136071973364596E+002	-1.2575039E+000	-8.523812878807678E+001	1.0718728E-001	-1.2574548E+000	0
1.4497951E+001	1.138071973314072E+002	-1.2594913E+000	-8.687374964160449E+001	1.0941673E-001	-1.2594547E+000	0
1.4087152E+001	1.140071973263548E+002	-1.2615277E+000	-8.955164091549250E+001	1.1297187E-001	-1.2614547E+000	0
1.3634370E+001	1.142071973213024E+002	-1.2635243E+000	-9.267200069308569E+001	1.1709332E-001	-1.2634547E+000	0
1.3283410E+001	1.144071973162499E+002	-1.2655437E+000	-9.527250298783383E+001	1.2057152E-001	-1.2654545E+000	0
1.3012753E+001	1.146071973111975E+002	-1.2675548E+000	-9.740864947972068E+001	1.2347080E-001	-1.2674546E+000	0
1.2665727E+001	1.148071973061451E+002	-1.2695403E+000	-1.002343021752881E+002	1.2725149E-001	-1.2694547E+000	0
1.2301080E+001	1.150071973010927E+002	-1.2715391E+000	-1.033680854741137E+002	1.3143656E-001	-1.2714546E+000	0
1.1951694E+001	1.152071972960402E+002	-1.2735319E+000	-1.065565986179172E+002	1.3570324E-001	-1.2734547E+000	0
1.1691862E+001	1.154171972907352E+002	-1.2756672E+000	-1.091072772356927E+002	1.3918458E-001	-1.2755547E+000	0
1.1222031E+001	1.156271972854302E+002	-1.2777450E+000	-1.138604139049037E+002	1.4548458E-001	-1.2776548E+000	0
1.1052899E+001	1.158271972803777E+002	-1.2797235E+000	-1.157817016318273E+002	1.4816856E-001	-1.2796547E+000	0
1.0799917E+001	1.160271972753253E+002	-1.2817010E+000	-1.186769248795883E+002	1.5210833E-001	-1.2816547E+000	0
1.0631082E+001	1.162271972702729E+002	-1.2837561E+000	-1.207549889741838E+002	1.5501995E-001	-1.2836546E+000	0
1.0438439E+001	1.164271972652205E+002	-1.2857146E+000	-1.231711591528120E+002	1.5836295E-001	-1.2856545E+000	0
1.0169413E+001	1.166271972601680E+002	-1.2877126E+000	-1.266260575220967E+002	1.6305797E-001	-1.2876546E+000	0
9.9510918E+000	1.168271972551156E+002	-1.2897260E+000	-1.296064871303620E+002	1.6715686E-001	-1.2896547E+000	0
9.6990023E+000	1.170271972500632E+002	-1.2916936E+000	-1.331779835099806E+002	1.7202514E-001	-1.2916546E+000	0
9.3936291E+000	1.172271972450108E+002	-1.2937584E+000	-1.377272160902044E+002	1.7818575E-001	-1.2936546E+000	0
9.1707335E+000	1.174271972399583E+002	-1.2957271E+000	-1.412893648115146E+002	1.8307246E-001	-1.2956547E+000	0
9.0171604E+000	1.176271972349059E+002	-1.2977123E+000	-1.439158582925252E+002	1.8676138E-001	-1.2976546E+000	0
8.7793322E+000	1.178271972298535E+002	-1.2997507E+000	-1.480466492959972E+002	1.9242373E-001	-1.2996547E+000	0
8.5805006E+000	1.180271972248011E+002	-1.3017616E+000	-1.517116224479233E+002	1.9749236E-001	-1.3016547E+000	0
8.3472052E+000	1.182271972197486E+002	-1.3037537E+000	-1.561904419933587E+002	2.0363387E-001	-1.3036547E+000	0
8.0048943E+000	1.184271972146962E+002	-1.3057842E+000	-1.631232291500584E+002	2.1300374E-001	-1.3056546E+000	0
7.7024097E+000	1.186271972096438E+002	-1.3077787E+000	-1.697882530132388E+002	2.2204547E-001	-1.3076546E+000	0
7.7031474E+000	1.188271972045914E+002	-1.3097787E+000	-1.700316319119637E+002	2.2270381E-001	-1.3096546E+000	0
7.6467915E+000	1.190271971995389E+002	-1.3117896E+000	-1.715477139371316E+002	2.2503451E-001	-1.3116547E+000	0
7.4735432E+000	1.192271971944865E+002	-1.3137691E+000	-1.757893188080820E+002	2.3094657E-001	-1.3136547E+000	0
7.2809601E+000	1.194271971894341E+002	-1.3157710E+000	-1.807139343728813E+002	2.3777816E-001	-1.3156546E+000	0
7.1176543E+000	1.196271971843817E+002	-1.3178108E+000	-1.851467793620368E+002	2.4398842E-001	-1.3176547E+000	0
6.9973855E+000	1.198271971793292E+002	-1.3197954E+000	-1.886126458142071E+002	2.4893010E-001	-1.3196547E+000	0
6.7802033E+000	1.200271971742768E+002	-1.3218062E+000	-1.949508231297102E+002	2.5768721E-001	-1.3216547E+000	0
6.7693949E+000	1.202271971692244E+002	-1.3237705E+000	-1.955522677914632E+002	2.5886634E-001	-1.3236547E+000	0
6.5669069E+000	1.204271971641720E+002	-1.3257991E+000	-2.018909524865703E+002	2.6766685E-001	-1.3256546E+000	0
6.3250008E+000	1.206271971591195E+002	-1.3278428E+000	-2.099356076852534E+002	2.7876151E-001	-1.3276547E+000	0
6.2111068E+000	1.208271971540671E+002	-1.3298175E+000	-2.141031538645425E+002	2.8471813E-001	-1.3296547E+000	0
6.1598306E+000	1.210271971490147E+002	-1.3318496E+000	-2.162152876410628E+002	2.8796625E-001	-1.3316547E+000	0
6.1150427E+000	1.212271971439623E+002	-1.3338221E+000	-2.181214678757869E+002	2.9093525E-001	-1.3336546E+000	0
5.9697952E+000	1.214271971389098E+002	-1.3358368E+000	-2.237659197978155E+002	2.9891473E-001	-1.3356547E+000	0
5.8006024E+000	1.216271971338574E+002	-1.3378416E+000	-2.306383981337077E+002	3.0855766E-001	-1.3376547E+000	0
5.5830793E+000	1.218271971288050E+002	-1.3398229E+000	-2.399791872387844E+002	3.2152960E-001	-1.3396548E+000	0
5.5381932E+000	1.220271971237526E+002	-1.3418307E+000	-2.422867267634590E+002	3.2510778E-001	-1.3416547E+000	0
5.5138454E+000	1.222271971187001E+002	-1.3438302E+000	-2.437192483824128E+002	3.2751730E-001	-1.3436546E+000	0
5.4267640E+000	1.224271971136477E+002	-1.3458394E+000	-2.480003453966174E+002	3.3376864E-001	-1.3456546E+000	0
5.3494430E+000	1.226271971085953E+002	-1.3478365E+000	-2.519582980754962E+002	3.3959860E-001	-1.3476547E+000	0
5.2398205E+000	1.228271971035429E+002	-1.3498127E+000	-2.576066858849549E+002	3.4772080E-001	-1.3496547E+000	0
5.1300044E+000	1.230271970984904E+002	-1.3518510E+000	-2.635184940675490E+002	3.5623774E-001	-1.3516546E+000	0
5.0622663E+000	1.232271970934380E+002	-1.3538903E+000	-2.674474728772429E+002	3.6209455E-001	-1.3536546E+000	0
4.8435435E+000	1.234271970883856E+002	-1.3558420E+000	-2.799277107666953E+002	3.7953773E-001	-1.3556546E+000	0
4.9094162E+000	1.236271970833332E+002	-1.3578720E+000	-2.765852399942842E+002	3.7556735E-001	-1.3576547E+000	0
4.6941638E+000	1.238271970782807E+002	-1.3598740E+000	-2.896946160322959E+002	3.9394817E-001	-1.3596548E+000	0
4.6846075E+000	1.240271970732283E+002	-1.3618504E+000	-2.907074785946170E+002	3.9590010E-001	-1.3616546E+000	0
4.5159979E+000	1.242271970681759E+002	-1.3638569E+000	-3.020056508533535E+002	4.1189250E-001	-1.3636547E+000	0
4.3899083E+000	1.244271970631235E+002	-1.3658640E+000	-3.111372737646657E+002	4.2497122E-001	-1.3656546E+000	0
4.4551744E+000	1.246271970580710E+002	-1.3678936E+000	-3.070347909581373E+002	4.1999093E-001	-1.3676547E+000	0
4.3672733E+000	1.248271970530186E+002	-1.3698641E+000	-3.136657505359772E+002	4.2967945E-001	-1.3696547E+000	0
4.3282599E+000	1.250271970479662E+002	-1.3718340E+000	-3.169481554636886E+002	4.3480027E-001	-1.3716546E+000	0
4.2152371E+000	1.252271970429138E+002	-1.3738669E+000	-3.259287456114544E+002	4.4778273E-001	-1.3736546E+000	0
4.0384083E+000	1.254271970378613E+002	-1.3759030E+000	-3.407042872327277E+002	4.6877605E-001	-1.3756546E+000	0
4.0306792E+000	1.256271970328089E+002	-1.3779048E+000	-3.418542399114504E+002	4.7104260E-001	-1.3776547E+000	0
4.0092378E+000	1.258271970277565E+002	-1.3798792E+000	-3.441749535342176E+002	4.7491989E-001	-1.3796546E+000	0
3.8626657E+000	1.260271970227041E+002	-1.3818996E+000	-3.577580164760138E+002	4.9438566E-001	-1.3816546E+000	0
4.0117254E+000	1.262271970176516E+002	-1.3839064E+000	-3.449653580269824E+002	4.7739977E-001	-1.3836546E+000	0
3.8718309E+000	1.264271970125992E+002	-1.3859115E+000	-3.579473128913478E+002	4.9608329E-001	-1.3856547E+000	0
3.8225319E+000	1.266271970075468E+002	-1.3878652E+000	-3.630748470656736E+002	5.0389892E-001	-1.3876547E+000	0
3.7517967E+000	1.268271970024944E+002	-1.3899128E+000	-3.704659305278401E+002	5.1491535E-001	-1.3896548E+000	0
3.7388315E+000	1.270271969974419E+002	-1.3919462E+000	-3.722944434635247E+002	5.1821381E-001	-1.3916548E+000	0
3.7279344E+000	1.272271969923895E+002	-1.3939356E+000	-3.739163363082607E+002	5.2121526E-001	-1.3936547E+000	0
3.6636386E+000	1.274271969873371E+002	-1.3959395E+000	-3.810254269749134E+002	5.3188843E-001	-1.3956547E+000	0
3.6200311E+000	1.276271969822847E+002	-1.3979427E+000	-3.861686947664703E+002	5.3984171E-001	-1.3976547E+000	0
3.5170822E+000	1.278271969772322E+002	-1.3999506E+000	-3.980431834953976E+002	5.5724078E-001	-1.3996547E+000	0
3.4581373E+000	1.280271969721798E+002	-1.4019530E+000	-4.054069699181455E+002	5.6836152E-001	-1.4016547E+000	0
3.4113216E+000	1.282271969671274E+002	-1.4039305E+000	-4.115503404967631E+002	5.7778811E-001	-1.4036547E+000	0
3.4051902E+000	1.284271969620750E+002	-1.4059353E+000	-4.128801082472710E+002	5.8048272E-001	-1.4056547E+000	0
3.3982382E+000	1.286271969570225E+002	-1.4079577E+000	-4.143198841466917E+002	5.8334488E-001	-1.4076548E+000	0
3.4034584E+000	1.288271969519701E+002	-1.4099563E+000	-4.142716476630740E+002	5.8410496E-001	-1.4096547E+000	0
3.3317370E+000	1.290271969469177E+002	-1.4119418E+000	-4.237854721043386E+002	5.9836042E-001	-1.4116547E+000	0
3.2682798E+000	1.292271969418653E+002	-1.4139589E+000	-4.326309110593902E+002	6.1172235E-001	-1.4136548E+000	0
3.2726378E+000	1.294271969368128E+002	-1.4159352E+000	-4.326586858355804E+002	6.1261666E-001	-1.4156547E+000	0
3.2865851E+000	1.296271969317604E+002	-1.4179499E+000	-4.314356378049267E+002	6.1175412E-001	-1.4176548E+000	0
3.1802347E+000	1.298271969267080E+002	-1.4199692E+000	-4.464982619209881E+002	6.3401377E-001	-1.4196547E+000	0
3.0890424E+000	1.300271969216556E+002	-1.4219805E+000	-4.603305186971274E+002	6.5458101E-001	-1.4216545E+000	0
3.1776350E+000	1.302271969166031E+002	-1.4239465E+000	-4.481151866480323E+002	6.3809204E-001	-1.4236548E+000	0
3.1672568E+000	1.304274969115431E+002	-1.4259735E+000	-4.502235241768749E+002	6.4200681E-001	-1.4256570E+000	0
3.0832605E+000	1.306277969064831E+002	-1.4279501E+000	-4.631298904981213E+002	6.6132641E-001	-1.4276607E+000	0
3.1641092E+000	1.308278969014282E+002	-1.4299561E+000	-4.519300563350444E+002	6.4624012E-001	-1.4296615E+000	0
3.0040584E+000	1.310280968963707E+002	-1.4319893E+000	-4.766849340771157E+002	6.8260771E-001	-1.4316636E+000	0
2.9594064E+000	1.312282968913132E+002	-1.4339825E+000	-4.845507197767948E+002	6.9483727E-001	-1.4336656E+000	0
2.9674540E+000	1.314284968862557E+002	-1.4360133E+000	-4.839209994210332E+002	6.9491702E-001	-1.4356673E+000	0
2.9396765E+000	1.316285968812008E+002	-1.4380031E+000	-4.891705218983370E+002	7.0342869E-001	-1.4376687E+000	0
2.9419510E+000	1.318285968761484E+002	-1.4399755E+000	-4.894627829700912E+002	7.0481443E-001	-1.4396687E+000	0
2.8883586E+000	1.320287968710909E+002	-1.4420122E+000	-4.992497154259399E+002	7.1992415E-001	-1.4416704E+000	0
2.7987666E+000	1.322290968660309E+002	-1.4439921E+000	-5.159387342583232E+002	7.4501145E-001	-1.4436737E+000	0
2.8241103E+000	1.324291968609759E+002	-1.4459850E+000	-5.120143512119257E+002	7.4036503E-001	-1.4456744E+000	0
2.8327811E+000	1.326295968559134E+002	-1.4479942E+000	-5.111564210601937E+002	7.4015152E-001	-1.4476780E+000	0
2.8586810E+000	1.328300968508483E+002	-1.4500203E+000	-5.072340487635720E+002	7.3549968E-001	-1.4496828E+000	0
2.8629155E+000	1.330304968457858E+002	-1.4519974E+000	-5.071743769773280E+002	7.3641586E-001	-1.4516873E+000	0
2.8693171E+000	1.332310968407182E+002	-1.4540200E+000	-5.067477815138336E+002	7.3682141E-001	-1.4536929E+000	0
2.8477461E+000	1.334313968356582E+002	-1.4560288E+000	-5.112916458199088E+002	7.4445540E-001	-1.4556967E+000	0
2.8044190E+000	1.336314968306033E+002	-1.4580014E+000	-5.198942428508344E+002	7.5800651E-001	-1.4576975E+000	0
2.8463500E+000	1.338316968255458E+002	-1.4600042E+000	-5.129390975281040E+002	7.4889326E-001	-1.4596995E+000	0
2.8223348E+000	1.340318968204883E+002	-1.4620320E+000	-5.180221637873101E+002	7.5736499E-001	-1.4617015E+000	0
2.7988861E+000	1.342320968154309E+002	-1.4640610E+000	-5.230870335326406E+002	7.6583135E-001	-1.4637035E+000	0
2.8105867E+000	1.344323968103708E+002	-1.4660519E+000	-5.216177547359839E+002	7.6471871E-001	-1.4657062E+000	0
2.7894573E+000	1.346325968053134E+002	-1.4680481E+000	-5.262844828348336E+002	7.7261096E-001	-1.4677087E+000	0
2.7998281E+000	1.348328968002534E+002	-1.4700489E+000	-5.250496886198475E+002	7.7184874E-001	-1.4697109E+000	0
2.7096126E+000	1.350331967951934E+002	-1.4721024E+000	-5.432888718429863E+002	7.9977685E-001	-1.4717146E+000	0
2.6274672E+000	1.352333967901359E+002	-1.4740745E+000	-5.610249085889486E+002	8.2699251E-001	-1.4737161E+000	0
2.6674638E+000	1.354338967850708E+002	-1.4760374E+000	-5.533486196703570E+002	8.1676322E-001	-1.4757215E+000	0
2.6309867E+000	1.356340967800134E+002	-1.4780557E+000	-5.617875836610465E+002	8.3035332E-001	-1.4777235E+000	0
2.6192167E+000	1.358343967749533E+002	-1.4800636E+000	-5.650786854767412E+002	8.3635235E-001	-1.4797263E+000	0
2.6335764E+000	1.360346967698933E+002	-1.4820893E+000	-5.627667901892028E+002	8.3407062E-001	-1.4817296E+000	0
2.5986753E+000	1.362347967648384E+002	-1.4840747E+000	-5.710889368208664E+002	8.4753865E-001	-1.4837308E+000	0
2.5439010E+000	1.363947967607965E+002	-1.4857026E+000	-5.840253410650766E+002	8.6768800E-001	-1.4853305E+000	0
2.4978848E+000	1.364613967591140E+002	-1.4863918E+000	-5.950601863861084E+002	8.8449258E-001	-1.4860305E+000	1