EC-Lab ASCII FILE
Nb header lines : 63                          

Linear Sweep Voltammetry

Run on channel : 1 (SN 1340)
User : 
Electrode connection : standard
Potential control : Ewe
Ewe ctrl range : min = -5.00 V, max = 5.00 V
Ewe,I filtering : <None>
Safety Limits :
	Do not start on E overload
Channel : Floating
Acquisition started on : 03/03/2026 15:41:07.494
Technique started on : 03/03/2026 15:41:10.176
Loaded Setting File :  NONE
Saved on :
	File : Ni40_N52magA_flat_3-3_02_LSV_C01.mpr
	Directory : C:\Users\volt\Documents\Platalytix\
	Host : 127.0.0.1
Device : SP-200 (SN 0262)
Address : USB
EC-LAB for windows v11.60 (software)
Internet server v11.60 (firmware)
Command interpretor v11.60 (firmware)
Electrode material : Ni40
Initial state : 
Electrolyte : KOH (1 M)
Comments : with magnet side A (+), N52 Nd magnet, alloy placed lying flat on top of magnet
Cable : standard
Reference electrode : Hg/HgO (0.140 V)
Electrode surface area : 1.000 cm˛
Characteristic mass : 0.001 g
Equivalent Weight : 0.000 g/eq.
Density : 0.000 g/cm3
Volume (V) : 0.001 cmł
Cycle Definition : Charge/Discharge alternance
tR (h:m:s)          0:00:5.0000         
dER/dt (mV/h)       0.0                 
dER (mV)            0                   
dtR (s)             0.0000              
dE/dt               10.000              
dE/dt unit          mV/s                
Ei (V)              -0.200              
vs.                 Ref                 
EL (V)              -2.500              
vs.                 Ref                 
record              <I>                 
dI                  0.000               
unit dI             µA                  
tI (s)              0.0000              
step percent        50                  
N                   10                  
E range min (V)     -5.000              
E range max (V)     5.000               
I Range             Auto                
I Range min         Unset               
I Range max         Unset               
I Range init        Unset               
Bandwidth           8                   

Rwe/Ohm	time/s	Ewe/V	<I>/mA	Pwe/W	control/V	error	
0.0000000E+000	2.682400127378060E+000	-1.6347201E-001	0.000000000000000E+000	0.0000000E+000	0.0000000E+000	0
0.0000000E+000	7.682200001072488E+000	-5.4741975E-002	0.000000000000000E+000	0.0000000E+000	-1.9985686E-001	0
3.2172885E+004	7.882199996020063E+000	-2.0175649E-001	-6.271010208874942E-003	1.2652171E-006	-2.0175664E-001	0
1.4807638E+003	8.002199992988608E+000	-2.0294403E-001	-1.370536068444879E-001	2.7814211E-005	-2.0295669E-001	0
1.4712053E+003	8.212199987683562E+000	-2.0504628E-001	-1.393729891488646E-001	2.8577913E-005	-2.0505670E-001	0
1.5956652E+003	8.412199982631137E+000	-2.0703381E-001	-1.297476600154459E-001	2.6862153E-005	-2.0705670E-001	0
1.7141786E+003	8.612199977578712E+000	-2.0903899E-001	-1.219470325525838E-001	2.5491685E-005	-2.0905669E-001	0
1.8223214E+003	8.812199972526287E+000	-2.1106936E-001	-1.158244398828012E-001	2.4446990E-005	-2.1105666E-001	0
1.9211882E+003	9.012199967473862E+000	-2.1305451E-001	-1.108972557604975E-001	2.3627161E-005	-2.1305661E-001	0
2.0128652E+003	9.212199962421437E+000	-2.1502328E-001	-1.068244782221546E-001	2.2969749E-005	-2.1505654E-001	0
2.0987583E+003	9.412199957369012E+000	-2.1700883E-001	-1.033986699873006E-001	2.2438424E-005	-2.1705645E-001	0
2.1791509E+003	9.612199952316587E+000	-2.1905595E-001	-1.005235352656912E-001	2.2020278E-005	-2.1905640E-001	0
2.2555002E+003	9.812199947264162E+000	-2.2105318E-001	-9.800628209676709E-002	2.1664600E-005	-2.2105630E-001	0
2.3295378E+003	1.001219994221174E+001	-2.2303493E-001	-9.574213949752242E-002	2.1353842E-005	-2.2305624E-001	0
2.4008210E+003	1.021219993715931E+001	-2.2504614E-001	-9.373715830821094E-002	2.1095186E-005	-2.2505617E-001	0
2.4696057E+003	1.041219993210689E+001	-2.2704570E-001	-9.193601103788862E-002	2.0873676E-005	-2.2705609E-001	0
2.5371731E+003	1.061219992705446E+001	-2.2903426E-001	-9.027143541613675E-002	2.0675252E-005	-2.2905602E-001	0
2.6024834E+003	1.081219992200204E+001	-2.3105523E-001	-8.878259653650056E-002	2.0513684E-005	-2.3105596E-001	0
2.6653813E+003	1.101219991694961E+001	-2.3305078E-001	-8.743618940037012E-002	2.0377072E-005	-2.3305590E-001	0
2.7279424E+003	1.121219991189719E+001	-2.3507199E-001	-8.617190176530254E-002	2.0256601E-005	-2.3505580E-001	0
2.7888384E+003	1.141219990684476E+001	-2.3704588E-001	-8.499807148565730E-002	2.0148444E-005	-2.3705575E-001	0
2.8501189E+003	1.161219990179234E+001	-2.3905794E-001	-8.387648432606398E-002	2.0051340E-005	-2.3905566E-001	0
2.9086462E+003	1.181219989673991E+001	-2.4103969E-001	-8.287006455511592E-002	1.9974976E-005	-2.4105559E-001	0
2.9661565E+003	1.201219989168749E+001	-2.4303477E-001	-8.193592236233704E-002	1.9913277E-005	-2.4305552E-001	0
3.0249609E+003	1.221219988663506E+001	-2.4505387E-001	-8.101058885288293E-002	1.9851959E-005	-2.4505545E-001	0
3.0813882E+003	1.241219988158264E+001	-2.4702944E-001	-8.016823232649072E-002	1.9803914E-005	-2.4705537E-001	0
3.1387390E+003	1.261219987653021E+001	-2.4902372E-001	-7.933877906688136E-002	1.9757237E-005	-2.4905530E-001	0
3.1953013E+003	1.281219987147779E+001	-2.5103158E-001	-7.856272297959921E-002	1.9721725E-005	-2.5105524E-001	0
3.2511477E+003	1.301219986642536E+001	-2.5304985E-001	-7.783400891887204E-002	1.9695884E-005	-2.5305519E-001	0
3.3057109E+003	1.321219986137294E+001	-2.5503728E-001	-7.715051071486090E-002	1.9676256E-005	-2.5505510E-001	0
3.3610957E+003	1.341219985632051E+001	-2.5704280E-001	-7.647589351105477E-002	1.9657577E-005	-2.5705504E-001	0
3.4161472E+003	1.361219985126809E+001	-2.5901157E-001	-7.581978953546947E-002	1.9638203E-005	-2.5905496E-001	0
3.4702312E+003	1.381209984621819E+001	-2.6102057E-001	-7.521705410575152E-002	1.9633198E-005	-2.6105511E-001	0
3.5227366E+003	1.401199984116829E+001	-2.6300392E-001	-7.465897990726478E-002	1.9635603E-005	-2.6305482E-001	0
3.5773025E+003	1.421199983611587E+001	-2.6498821E-001	-7.407487088987497E-002	1.9628967E-005	-2.6505473E-001	0
3.6304243E+003	1.441199983106344E+001	-2.6703510E-001	-7.355478900387569E-002	1.9641710E-005	-2.6705468E-001	0
3.6852212E+003	1.461199982601102E+001	-2.6902214E-001	-7.300026743522828E-002	1.9638688E-005	-2.6905462E-001	0
3.7392397E+003	1.481199982095859E+001	-2.7102360E-001	-7.248093836091851E-002	1.9644045E-005	-2.7105454E-001	0
3.7919304E+003	1.501199981590617E+001	-2.7306497E-001	-7.201212466601492E-002	1.9663988E-005	-2.7305445E-001	0
3.8456309E+003	1.521199981085374E+001	-2.7501214E-001	-7.151288021452973E-002	1.9666910E-005	-2.7505437E-001	0
3.8982434E+003	1.541199980580132E+001	-2.7705222E-001	-7.107104207579107E-002	1.9690391E-005	-2.7705434E-001	0
3.9495605E+003	1.561199980074889E+001	-2.7903268E-001	-7.064904454649934E-002	1.9713392E-005	-2.7905425E-001	0
4.0013369E+003	1.581199979569647E+001	-2.8104201E-001	-7.023702616763206E-002	1.9739555E-005	-2.8105417E-001	0
4.0555708E+003	1.601199979064404E+001	-2.8305045E-001	-6.979299879626555E-002	1.9754940E-005	-2.8305411E-001	0
4.1043433E+003	1.621199978559162E+001	-2.8504661E-001	-6.944998845251060E-002	1.9796484E-005	-2.8505403E-001	0
4.1587456E+003	1.641199978053919E+001	-2.8703961E-001	-6.902071647662777E-002	1.9811680E-005	-2.8705397E-001	0
4.2109209E+003	1.661199977548677E+001	-2.8901947E-001	-6.863568928208830E-002	1.9837051E-005	-2.8905386E-001	0
4.2585195E+003	1.681199977043434E+001	-2.9100692E-001	-6.833523292413335E-002	1.9886025E-005	-2.9105380E-001	0
4.3097183E+003	1.701199976538192E+001	-2.9303411E-001	-6.799379868439215E-002	1.9924502E-005	-2.9305375E-001	0
4.3622778E+003	1.721199976032949E+001	-2.9506505E-001	-6.764013165990312E-002	1.9958239E-005	-2.9505366E-001	0
4.4123276E+003	1.741199975527707E+001	-2.9702896E-001	-6.731797726043504E-002	1.9995388E-005	-2.9705358E-001	0
4.4635820E+003	1.761199975022464E+001	-2.9898503E-001	-6.698320783588119E-002	2.0026977E-005	-2.9905349E-001	0
4.5120942E+003	1.781199974517222E+001	-3.0100709E-001	-6.671117234694224E-002	2.0080535E-005	-3.0105343E-001	0
4.5622749E+003	1.801199974011979E+001	-3.0302027E-001	-6.641867575858618E-002	2.0126205E-005	-3.0305338E-001	0
4.6125073E+003	1.821199973506737E+001	-3.0499813E-001	-6.612415421572493E-002	2.0167743E-005	-3.0505332E-001	0
4.6641367E+003	1.841199973001494E+001	-3.0700406E-001	-6.582227165762167E-002	2.0207704E-005	-3.0705324E-001	0
4.7115859E+003	1.861199972496252E+001	-3.0897072E-001	-6.557680097252316E-002	2.0261312E-005	-3.0905315E-001	0
4.7653438E+003	1.881199971991009E+001	-3.1103459E-001	-6.527012779774455E-002	2.0301268E-005	-3.1105307E-001	0
4.8126851E+003	1.901199971485767E+001	-3.1296983E-001	-6.503019379578556E-002	2.0352489E-005	-3.1305301E-001	0
4.8618721E+003	1.921189970980777E+001	-3.1501243E-001	-6.479241452791418E-002	2.0410416E-005	-3.1505206E-001	0
4.9129502E+003	1.941179970475787E+001	-3.1701419E-001	-6.452623514676059E-002	2.0455733E-005	-3.1705287E-001	0
4.9621660E+003	1.961179969970544E+001	-3.1902859E-001	-6.429220561007798E-002	2.0511052E-005	-3.1905279E-001	0
5.0111260E+003	1.981179969465302E+001	-3.2101011E-001	-6.405947947781754E-002	2.0563741E-005	-3.2105270E-001	0
5.0594878E+003	2.001179968960059E+001	-3.2299632E-001	-6.383972526306203E-002	2.0619997E-005	-3.2305267E-001	0
5.1048281E+003	2.021179968454817E+001	-3.2504597E-001	-6.367422437428338E-002	2.0697051E-005	-3.2505256E-001	0
5.1506035E+003	2.041179967949574E+001	-3.2701835E-001	-6.349126922332016E-002	2.0762811E-005	-3.2705250E-001	0
5.2008179E+003	2.061179967444332E+001	-3.2907328E-001	-6.327336884574641E-002	2.0821575E-005	-3.2905245E-001	0
5.2470103E+003	2.081179966939089E+001	-3.3103487E-001	-6.309019186050391E-002	2.0885054E-005	-3.3105239E-001	0
5.2952915E+003	2.101179966433847E+001	-3.3305672E-001	-6.289676543908071E-002	2.0948190E-005	-3.3305231E-001	0
5.3399839E+003	2.121179965928604E+001	-3.3500770E-001	-6.273571558269242E-002	2.1016947E-005	-3.3505219E-001	0
5.3892383E+003	2.141179965423362E+001	-3.3701679E-001	-6.253514497629592E-002	2.1075393E-005	-3.3705214E-001	0
5.4328115E+003	2.161179964918119E+001	-3.3901361E-001	-6.240113327214236E-002	2.1154834E-005	-3.3905208E-001	0
5.4813330E+003	2.181179964412877E+001	-3.4101826E-001	-6.221447582251038E-002	2.1216272E-005	-3.4105200E-001	0
5.5238667E+003	2.201179963907634E+001	-3.4301504E-001	-6.209691071749823E-002	2.1300175E-005	-3.4305191E-001	0
5.5669385E+003	2.221179963402392E+001	-3.4501463E-001	-6.197565110651615E-002	2.1382506E-005	-3.4505185E-001	0
5.6146953E+003	2.241179962897149E+001	-3.4699827E-001	-6.180179932644664E-002	2.1445117E-005	-3.4705177E-001	0
5.6621768E+003	2.261179962391907E+001	-3.4904793E-001	-6.164553913798865E-002	2.1517248E-005	-3.4905171E-001	0
5.7045122E+003	2.281179961886664E+001	-3.5102287E-001	-6.153424854217171E-002	2.1599928E-005	-3.5105166E-001	0
5.7459429E+003	2.301179961381422E+001	-3.5303900E-001	-6.144143780587830E-002	2.1691223E-005	-3.5305160E-001	0
5.7902803E+003	2.321179960876179E+001	-3.5499147E-001	-6.130816391722017E-002	2.1763875E-005	-3.5505149E-001	0
5.8304863E+003	2.341179960370937E+001	-3.5703832E-001	-6.123645604871083E-002	2.1863762E-005	-3.5705143E-001	0
5.8753623E+003	2.361179959865694E+001	-3.5904384E-001	-6.111007840098054E-002	2.1941198E-005	-3.5905135E-001	0
5.9152627E+003	2.381179959360452E+001	-3.6103025E-001	-6.103367772367252E-002	2.2035005E-005	-3.6105129E-001	0
5.9600396E+003	2.401179958855209E+001	-3.6299738E-001	-6.090519545164788E-002	2.2108426E-005	-3.6305121E-001	0
5.9982969E+003	2.421179958349967E+001	-3.6499161E-001	-6.084920621166612E-002	2.2209450E-005	-3.6505112E-001	0
6.0369663E+003	2.441179957844724E+001	-3.6700895E-001	-6.079360604277739E-002	2.2311799E-005	-3.6705106E-001	0
6.0827974E+003	2.461179957339482E+001	-3.6899748E-001	-6.066246705801305E-002	2.2384298E-005	-3.6905098E-001	0
6.1231968E+003	2.481169956834492E+001	-3.7100402E-001	-6.058992308137445E-002	2.2479106E-005	-3.7105069E-001	0
6.1577969E+003	2.501159956329502E+001	-3.7303716E-001	-6.057964655192648E-002	2.2598459E-005	-3.7305084E-001	0
6.1972158E+003	2.521159955824260E+001	-3.7501553E-001	-6.051355167376521E-002	2.2693521E-005	-3.7505075E-001	0
6.2354077E+003	2.541159955319017E+001	-3.7698981E-001	-6.045952635445562E-002	2.2792625E-005	-3.7705070E-001	0
6.2733154E+003	2.561159954813775E+001	-3.7903160E-001	-6.041966223996353E-002	2.2900962E-005	-3.7905064E-001	0
6.3118823E+003	2.581159954308532E+001	-3.8102710E-001	-6.036663809347723E-002	2.3001325E-005	-3.8105053E-001	0
6.3526899E+003	2.601159953803290E+001	-3.8298893E-001	-6.028767744482599E-002	2.3089513E-005	-3.8305047E-001	0
6.3840083E+003	2.621159953298047E+001	-3.8502291E-001	-6.031052613432419E-002	2.3220935E-005	-3.8505042E-001	0
6.4187446E+003	2.641159952792805E+001	-3.8702160E-001	-6.029553088103989E-002	2.3335673E-005	-3.8705033E-001	0
6.4550815E+003	2.661159952287562E+001	-3.8900056E-001	-6.026268877245311E-002	2.3442220E-005	-3.8905028E-001	0
6.4915371E+003	2.681159951782320E+001	-3.9099905E-001	-6.023212278667256E-002	2.3550703E-005	-3.9105022E-001	0
6.5280396E+003	2.701159951277077E+001	-3.9300987E-001	-6.020335113532564E-002	2.3660512E-005	-3.9305010E-001	0
6.5582710E+003	2.721159950771835E+001	-3.9502242E-001	-6.023270738270980E-002	2.3793269E-005	-3.9505005E-001	0
6.5881914E+003	2.741159950266592E+001	-3.9701179E-001	-6.026111726328098E-002	2.3924375E-005	-3.9704999E-001	0
6.6272749E+003	2.761159949761350E+001	-3.9905059E-001	-6.021337440794927E-002	2.4028182E-005	-3.9904991E-001	0
6.6531211E+003	2.781159949256107E+001	-4.0101680E-001	-6.027498726718228E-002	2.4171282E-005	-4.0104988E-001	0
6.6875894E+003	2.801159948750865E+001	-4.0301684E-001	-6.026339581629037E-002	2.4287163E-005	-4.0304974E-001	0
6.7191538E+003	2.821159948245622E+001	-4.0503293E-001	-6.028034943134819E-002	2.4415527E-005	-4.0504968E-001	0
6.7502510E+003	2.841159947740380E+001	-4.0702149E-001	-6.029723711204116E-002	2.4542271E-005	-4.0704963E-001	0
6.7804946E+003	2.861159947235137E+001	-4.0899432E-001	-6.031924621951723E-002	2.4670229E-005	-4.0904957E-001	0
6.8028467E+003	2.881159946729895E+001	-4.1103926E-001	-6.042165673272405E-002	2.4835674E-005	-4.1104949E-001	0
6.8270557E+003	2.901159946224652E+001	-4.1307220E-001	-6.050517656597487E-002	2.4993007E-005	-4.1304943E-001	0
6.8597100E+003	2.921159945719410E+001	-4.1505879E-001	-6.050675330248556E-002	2.5113859E-005	-4.1504931E-001	0
6.8875142E+003	2.941159945214167E+001	-4.1706148E-001	-6.055326501959235E-002	2.5254434E-005	-4.1704926E-001	0
6.9123818E+003	2.961159944708925E+001	-4.1904792E-001	-6.062279691467726E-002	2.5403857E-005	-4.1904917E-001	0
6.9414126E+003	2.981159944203682E+001	-4.2106128E-001	-6.065930604043479E-002	2.5541285E-005	-4.2104915E-001	0
6.9682617E+003	3.001159943698440E+001	-4.2309058E-001	-6.071680431125369E-002	2.5688707E-005	-4.2304900E-001	0
6.9852563E+003	3.021159943193197E+001	-4.2507437E-001	-6.085308154521152E-002	2.5867084E-005	-4.2504895E-001	0
7.0092788E+003	3.041149942688207E+001	-4.2706421E-001	-6.092840937331045E-002	2.6020343E-005	-4.2704892E-001	0
7.0418359E+003	3.061139942183218E+001	-4.2905530E-001	-6.092946633090457E-002	2.6142110E-005	-4.2904884E-001	0
7.0615205E+003	3.081139941677975E+001	-4.3104658E-001	-6.104161091256577E-002	2.6311778E-005	-4.3104875E-001	0
7.0840708E+003	3.101139941172733E+001	-4.3307099E-001	-6.113306786062497E-002	2.6474958E-005	-4.3304870E-001	0
7.1086885E+003	3.121139940667490E+001	-4.3507349E-001	-6.120306108455220E-002	2.6627829E-005	-4.3504858E-001	0
7.1282861E+003	3.141139940162248E+001	-4.3708494E-001	-6.131697469390923E-002	2.6800726E-005	-4.3704852E-001	0
7.1501396E+003	3.161139939657005E+001	-4.3907496E-001	-6.140788809381537E-002	2.6962667E-005	-4.3904844E-001	0
7.1690112E+003	3.181139939151763E+001	-4.4108132E-001	-6.152610046590545E-002	2.7138014E-005	-4.4104841E-001	0
7.1872817E+003	3.201139938646520E+001	-4.4306707E-001	-6.164598645581143E-002	2.7313306E-005	-4.4304827E-001	0
7.2149634E+003	3.221139938141278E+001	-4.4504818E-001	-6.168405495081397E-002	2.7452377E-005	-4.4504821E-001	0
7.2322593E+003	3.241139937636035E+001	-4.4703227E-001	-6.181087556280329E-002	2.7631457E-005	-4.4704819E-001	0
7.2523687E+003	3.261139937130793E+001	-4.4907129E-001	-6.192063643383794E-002	2.7806780E-005	-4.4904810E-001	0
7.2748730E+003	3.281139936625550E+001	-4.5106941E-001	-6.200375203613417E-002	2.7967995E-005	-4.5104805E-001	0
7.2907935E+003	3.301139936120308E+001	-4.5309037E-001	-6.214554843021880E-002	2.8157550E-005	-4.5304796E-001	0
7.3117046E+003	3.321139935615065E+001	-4.5503521E-001	-6.223380704813697E-002	2.8318573E-005	-4.5504788E-001	0
7.3324458E+003	3.341139935109823E+001	-4.5708269E-001	-6.233700157181210E-002	2.8493165E-005	-4.5704782E-001	0
7.3475371E+003	3.361139934604580E+001	-4.5906910E-001	-6.247931672365742E-002	2.8682323E-005	-4.5904773E-001	0
7.3723765E+003	3.381139934099338E+001	-4.6109113E-001	-6.254308180917345E-002	2.8838060E-005	-4.6104768E-001	0
7.3871089E+003	3.401139933594095E+001	-4.6304828E-001	-6.268329068051137E-002	2.9025390E-005	-4.6304756E-001	0
7.4090029E+003	3.421139933088853E+001	-4.6504298E-001	-6.276728267741299E-002	2.9189485E-005	-4.6504751E-001	0
7.4267710E+003	3.441139932583610E+001	-4.6704572E-001	-6.288678321275731E-002	2.9371004E-005	-4.6704751E-001	0
7.4460625E+003	3.461139932078368E+001	-4.6905646E-001	-6.299389170983258E-002	2.9547691E-005	-4.6904737E-001	0
7.4641045E+003	3.481139931573125E+001	-4.7103742E-001	-6.310702347019248E-002	2.9725770E-005	-4.7104734E-001	0
7.4835776E+003	3.501139931067883E+001	-4.7302526E-001	-6.320843789853209E-002	2.9899187E-005	-4.7304720E-001	0
7.5022725E+003	3.521139930562640E+001	-4.7505715E-001	-6.332176698787784E-002	3.0081459E-005	-4.7504720E-001	0
7.5210435E+003	3.541139930057398E+001	-4.7701958E-001	-6.342465453675572E-002	3.0254801E-005	-4.7704709E-001	0
7.5440728E+003	3.561139929552155E+001	-4.7904691E-001	-6.349977169739190E-002	3.0419369E-005	-4.7904703E-001	0
7.5608965E+003	3.581139929046913E+001	-4.8104310E-001	-6.362249511568585E-002	3.0605162E-005	-4.8104694E-001	0
7.5793159E+003	3.601129928541923E+001	-4.8303416E-001	-6.373057364466717E-002	3.0784046E-005	-4.8304778E-001	0
7.5921758E+003	3.621119928036933E+001	-4.8496753E-001	-6.387727899485340E-002	3.0978405E-005	-4.8504677E-001	0
7.6134907E+003	3.641119927531690E+001	-4.8706299E-001	-6.397367821153166E-002	3.1159212E-005	-4.8704678E-001	0
7.6346953E+003	3.661119927026448E+001	-4.8905662E-001	-6.405712147729026E-002	3.1327560E-005	-4.8904663E-001	0
7.6547114E+003	3.681119926521205E+001	-4.9102938E-001	-6.414733867291908E-002	3.1498228E-005	-4.9104661E-001	0
7.6790747E+003	3.701119926015963E+001	-4.9302176E-001	-6.420327755073482E-002	3.1653613E-005	-4.9304646E-001	0
7.6987676E+003	3.721119925510720E+001	-4.9500313E-001	-6.429641075535797E-002	3.1826923E-005	-4.9504647E-001	0
7.7222305E+003	3.741119925005478E+001	-4.9703452E-001	-6.436411407564968E-002	3.1991185E-005	-4.9704635E-001	0
7.7409375E+003	3.761119924500235E+001	-4.9902236E-001	-6.446536742002940E-002	3.2169661E-005	-4.9904630E-001	0
7.7694771E+003	3.781119923994993E+001	-5.0101411E-001	-6.448492154588847E-002	3.2307857E-005	-5.0104624E-001	0
7.7837661E+003	3.801119923489750E+001	-5.0305909E-001	-6.462926492031623E-002	3.2512340E-005	-5.0304621E-001	0
7.8150493E+003	3.821119922984508E+001	-5.0502890E-001	-6.462261244726464E-002	3.2636286E-005	-5.0504607E-001	0
7.8331196E+003	3.841119922479265E+001	-5.0703293E-001	-6.472937574941673E-002	3.2819924E-005	-5.0704604E-001	0
7.8657559E+003	3.861119921974023E+001	-5.0902301E-001	-6.471380741438915E-002	3.2940818E-005	-5.0904596E-001	0
7.8835938E+003	3.881119921468780E+001	-5.1105630E-001	-6.482529557307909E-002	3.3129378E-005	-5.1104587E-001	0
7.9107881E+003	3.901119920963538E+001	-5.1303637E-001	-6.485275273863877E-002	3.3271819E-005	-5.1304585E-001	0
7.9373716E+003	3.921119920458295E+001	-5.1502717E-001	-6.488636314928065E-002	3.3418240E-005	-5.1504576E-001	0
7.9628140E+003	3.941119919953053E+001	-5.1705968E-001	-6.493429295336406E-002	3.3574906E-005	-5.1704562E-001	0
7.9887646E+003	3.961119919447810E+001	-5.1903290E-001	-6.497035791533534E-002	3.3721753E-005	-5.1904559E-001	0
8.0166021E+003	3.981119918942568E+001	-5.2106327E-001	-6.499802247703484E-002	3.3868080E-005	-5.2104557E-001	0
8.0520313E+003	4.001119918437325E+001	-5.2304643E-001	-6.495831946498151E-002	3.3976219E-005	-5.2304548E-001	0
8.0770415E+003	4.021119917932083E+001	-5.2504265E-001	-6.500432618350961E-002	3.4130044E-005	-5.2504545E-001	0
8.1100532E+003	4.041119917426840E+001	-5.2706003E-001	-6.498847908473415E-002	3.4252829E-005	-5.2704531E-001	0
8.1446143E+003	4.061119916921598E+001	-5.2903622E-001	-6.495534413116144E-002	3.4363729E-005	-5.2904522E-001	0
8.1740107E+003	4.081119916416355E+001	-5.3099936E-001	-6.496190968605264E-002	3.4494733E-005	-5.3104514E-001	0
8.1972705E+003	4.101119915911113E+001	-5.3304023E-001	-6.502655271468172E-002	3.4661767E-005	-5.3304511E-001	0
8.2375693E+003	4.121119915405870E+001	-5.3503847E-001	-6.495101121465474E-002	3.4751291E-005	-5.3504503E-001	0
8.2680869E+003	4.141109914900881E+001	-5.3700060E-001	-6.494859110913587E-002	3.4877434E-005	-5.3704506E-001	0
8.3020986E+003	4.161099914395891E+001	-5.3904998E-001	-6.492936697021934E-002	3.5000176E-005	-5.3904486E-001	0
8.3378223E+003	4.181099913890648E+001	-5.4103154E-001	-6.488882913623795E-002	3.5106903E-005	-5.4104483E-001	0
8.3708682E+003	4.201099913385406E+001	-5.4304677E-001	-6.487341180851341E-002	3.5229295E-005	-5.4304475E-001	0
8.4074766E+003	4.221099912880163E+001	-5.4504913E-001	-6.482910194968516E-002	3.5335044E-005	-5.4504472E-001	0
8.4402598E+003	4.241099912374921E+001	-5.4705691E-001	-6.481517211517174E-002	3.5457590E-005	-5.4704458E-001	0
8.4762822E+003	4.261099911869678E+001	-5.4899496E-001	-6.476836452100088E-002	3.5557507E-005	-5.4904455E-001	0
8.5158047E+003	4.281099911364436E+001	-5.5103779E-001	-6.470765782385002E-002	3.5656365E-005	-5.5104440E-001	0
8.5602285E+003	4.301099910859193E+001	-5.5305052E-001	-6.460697874859761E-002	3.5730922E-005	-5.5304438E-001	0
8.5927588E+003	4.321099910353951E+001	-5.5508149E-001	-6.459874799211085E-002	3.5857571E-005	-5.5504423E-001	0
8.6295840E+003	4.341099909848708E+001	-5.5702460E-001	-6.454825560169486E-002	3.5954967E-005	-5.5704427E-001	0
8.6637832E+003	4.361099909343466E+001	-5.5905175E-001	-6.452743879090717E-002	3.6074176E-005	-5.5904418E-001	0
8.7125557E+003	4.381099908838223E+001	-5.6104213E-001	-6.439466562170648E-002	3.6128120E-005	-5.6104410E-001	0
8.7487910E+003	4.401099908332981E+001	-5.6304616E-001	-6.435702602503612E-002	3.6235975E-005	-5.6304401E-001	0
8.7908164E+003	4.421099907827738E+001	-5.6504071E-001	-6.427624868598603E-002	3.6318695E-005	-5.6504399E-001	0
8.8370098E+003	4.441099907322496E+001	-5.6705767E-001	-6.416849782764333E-002	3.6387239E-005	-5.6704378E-001	0
8.8694063E+003	4.461099906817253E+001	-5.6902683E-001	-6.415613618090144E-002	3.6506564E-005	-5.6904382E-001	0
8.9189453E+003	4.481099906312011E+001	-5.7105273E-001	-6.402693153464600E-002	3.6562753E-005	-5.7104373E-001	0
8.9578574E+003	4.501099905806768E+001	-5.7300204E-001	-6.396641732666586E-002	3.6652888E-005	-5.7304364E-001	0
8.9968574E+003	4.521099905301526E+001	-5.7501578E-001	-6.391295914584694E-002	3.6750960E-005	-5.7504362E-001	0
9.0443223E+003	4.541099904796283E+001	-5.7702643E-001	-6.379984934442595E-002	3.6814199E-005	-5.7704353E-001	0
9.0859980E+003	4.561099904291041E+001	-5.7906163E-001	-6.373120698963775E-002	3.6904297E-005	-5.7904339E-001	0
9.1333828E+003	4.581099903785798E+001	-5.8099031E-001	-6.361173185553687E-002	3.6957801E-005	-5.8104336E-001	0
9.1711924E+003	4.601099903280556E+001	-5.8301979E-001	-6.357077425113494E-002	3.7063019E-005	-5.8304328E-001	0
9.2091494E+003	4.621099902775313E+001	-5.8500683E-001	-6.352452398489028E-002	3.7162281E-005	-5.8504325E-001	0
9.2564531E+003	4.641099902270071E+001	-5.8703989E-001	-6.341952875324111E-002	3.7229795E-005	-5.8704317E-001	0
9.2992412E+003	4.661099901764828E+001	-5.8902359E-001	-6.334103832481763E-002	3.7309364E-005	-5.8904302E-001	0
9.3406768E+003	4.681099901259586E+001	-5.9101850E-001	-6.327362934100000E-002	3.7395886E-005	-5.9104306E-001	0
9.3780811E+003	4.701079900754849E+001	-5.9301507E-001	-6.323416033052864E-002	3.7498809E-005	-5.9304273E-001	0
9.4193525E+003	4.721079900249606E+001	-5.9503794E-001	-6.317185059500252E-002	3.7589649E-005	-5.9504288E-001	0
9.4657734E+003	4.741079899744364E+001	-5.9701037E-001	-6.307043030365955E-002	3.7653703E-005	-5.9704280E-001	0
9.5096533E+003	4.761079899239121E+001	-5.9902370E-001	-6.299111943917884E-002	3.7733174E-005	-5.9904277E-001	0
9.5344785E+003	4.781079898733879E+001	-6.0101730E-001	-6.303619715129616E-002	3.7885846E-005	-6.0104263E-001	0
9.5812432E+003	4.801079898228636E+001	-6.0305470E-001	-6.294117295003743E-002	3.7956972E-005	-6.0304260E-001	0
9.6130195E+003	4.821079897723394E+001	-6.0503745E-001	-6.293937639552921E-002	3.8080681E-005	-6.0504246E-001	0
9.6647656E+003	4.841079897218151E+001	-6.0705572E-001	-6.281121913132476E-002	3.8129911E-005	-6.0704243E-001	0
9.7040928E+003	4.861079896712909E+001	-6.0904229E-001	-6.276138314962521E-002	3.8224338E-005	-6.0904235E-001	0
9.7341006E+003	4.881079896207666E+001	-6.1100620E-001	-6.276966126365346E-002	3.8352653E-005	-6.1104232E-001	0
9.7707129E+003	4.901079895702424E+001	-6.1304927E-001	-6.274355367795392E-002	3.8464888E-005	-6.1304218E-001	0
9.8109092E+003	4.921079895197181E+001	-6.1502147E-001	-6.268750853697133E-002	3.8554164E-005	-6.1504215E-001	0
9.8459990E+003	4.941079894691939E+001	-6.1705559E-001	-6.267069201903769E-002	3.8671300E-005	-6.1704206E-001	0
9.8856816E+003	4.961079894186696E+001	-6.1903989E-001	-6.261985131556302E-002	3.8764185E-005	-6.1904204E-001	0
9.9113340E+003	4.981079893681454E+001	-6.2103546E-001	-6.265911987249884E-002	3.8913535E-005	-6.2104189E-001	0
9.9523203E+003	5.001079893176211E+001	-6.2308782E-001	-6.260729451397662E-002	3.9009843E-005	-6.2304187E-001	0
9.9881992E+003	5.021079892670969E+001	-6.2502927E-001	-6.257677124496441E-002	3.9112314E-005	-6.2504178E-001	0
1.0033508E+004	5.041079892165726E+001	-6.2704158E-001	-6.249475008026695E-002	3.9186805E-005	-6.2704170E-001	0
1.0056844E+004	5.061079891660484E+001	-6.2905109E-001	-6.254955339710094E-002	3.9346865E-005	-6.2904161E-001	0
1.0092329E+004	5.081079891155241E+001	-6.3105065E-001	-6.252775261814270E-002	3.9458180E-005	-6.3104153E-001	0
1.0122374E+004	5.101079890649999E+001	-6.3305527E-001	-6.254019481003259E-002	3.9591399E-005	-6.3304156E-001	0
1.0157369E+004	5.121079890144756E+001	-6.3501769E-001	-6.251792867125250E-002	3.9699989E-005	-6.3504142E-001	0
1.0199160E+004	5.141079889639514E+001	-6.3706648E-001	-6.246264397363044E-002	3.9792856E-005	-6.3704133E-001	0
1.0222968E+004	5.161079889134271E+001	-6.3904291E-001	-6.251051046520195E-002	3.9946899E-005	-6.3904130E-001	0
1.0256179E+004	5.181079888629029E+001	-6.4105207E-001	-6.250398647454045E-002	4.0068309E-005	-6.4104116E-001	0
1.0286088E+004	5.201079888123786E+001	-6.4304674E-001	-6.251616250299130E-002	4.0200815E-005	-6.4304113E-001	0
1.0314936E+004	5.221079887618544E+001	-6.4505178E-001	-6.253570531782149E-002	4.0338768E-005	-6.4504105E-001	0
1.0341484E+004	5.241069887113554E+001	-6.4704186E-001	-6.256759921463895E-002	4.0483854E-005	-6.4704055E-001	0
1.0365432E+004	5.261069886608311E+001	-6.4907604E-001	-6.261929686592915E-002	4.0644685E-005	-6.4904189E-001	0
1.0406188E+004	5.281059886103321E+001	-6.5104836E-001	-6.256357535652293E-002	4.0731913E-005	-6.5104079E-001	0
1.0434091E+004	5.301059885598079E+001	-6.5306449E-001	-6.258949868976571E-002	4.0874980E-005	-6.5304077E-001	0
1.0459267E+004	5.321059885092836E+001	-6.5505409E-001	-6.262906524194356E-002	4.1025425E-005	-6.5504068E-001	0
1.0488975E+004	5.341059884587594E+001	-6.5704918E-001	-6.264189032409073E-002	4.1158804E-005	-6.5704060E-001	0
1.0508268E+004	5.361059884082351E+001	-6.5902781E-001	-6.271517531240978E-002	4.1331044E-005	-6.5904057E-001	0
1.0540923E+004	5.381059883577109E+001	-6.6105193E-001	-6.271290900755899E-002	4.1456489E-005	-6.6104054E-001	0
1.0570605E+004	5.401059883071866E+001	-6.6307461E-001	-6.272815825056505E-002	4.1593448E-005	-6.6304034E-001	0
1.0584531E+004	5.421059882566624E+001	-6.6506010E-001	-6.283321282340659E-002	4.1787862E-005	-6.6504031E-001	0
1.0597379E+004	5.441059882061381E+001	-6.6705424E-001	-6.294520713162965E-002	4.1987867E-005	-6.6704023E-001	0
1.0617139E+004	5.461059881556139E+001	-6.6903955E-001	-6.301505229057858E-002	4.2159561E-005	-6.6904020E-001	0
1.0652620E+004	5.481059881050896E+001	-6.7103237E-001	-6.299223596981973E-002	4.2269829E-005	-6.7104006E-001	0
1.0667211E+004	5.501059880545654E+001	-6.7306733E-001	-6.309684371953717E-002	4.2468426E-005	-6.7304009E-001	0
1.0680326E+004	5.521059880040411E+001	-6.7504871E-001	-6.320487531092089E-002	4.2666368E-005	-6.7503995E-001	0
1.0703181E+004	5.541059879535169E+001	-6.7703336E-001	-6.325534030440319E-002	4.2825977E-005	-6.7703992E-001	0
1.0719509E+004	5.561059879029926E+001	-6.7904252E-001	-6.334642076531116E-002	4.3014912E-005	-6.7903978E-001	0
1.0745646E+004	5.581059878524684E+001	-6.8104333E-001	-6.337853607324584E-002	4.3163531E-005	-6.8103975E-001	0
1.0756147E+004	5.601059878019441E+001	-6.8305302E-001	-6.350350307613217E-002	4.3376258E-005	-6.8303972E-001	0
1.0765259E+004	5.621059877514199E+001	-6.8506366E-001	-6.363652501510797E-002	4.3595071E-005	-6.8503964E-001	0
1.0782534E+004	5.641059877008956E+001	-6.8703729E-001	-6.371760582276842E-002	4.3776370E-005	-6.8703949E-001	0
1.0790977E+004	5.661059876503714E+001	-6.8902034E-001	-6.385152855921827E-002	4.3995002E-005	-6.8903947E-001	0
1.0816367E+004	5.681059875998471E+001	-6.9101799E-001	-6.388632968741788E-002	4.4146604E-005	-6.9103932E-001	0
1.0817166E+004	5.701059875493229E+001	-6.9304991E-001	-6.406945064125369E-002	4.4403329E-005	-6.9303930E-001	0
1.0832833E+004	5.721059874987986E+001	-6.9502646E-001	-6.415925024905111E-002	4.4592376E-005	-6.9503921E-001	0
1.0833872E+004	5.741059874482744E+001	-6.9704086E-001	-6.433903549685882E-002	4.4846936E-005	-6.9703919E-001	0
1.0859034E+004	5.761059873977501E+001	-6.9902140E-001	-6.437233588161950E-002	4.4997640E-005	-6.9903910E-001	0
1.0863323E+004	5.781059873472259E+001	-7.0103025E-001	-6.453184109305743E-002	4.5238772E-005	-7.0103902E-001	0
1.0869832E+004	5.801039872967522E+001	-7.0305341E-001	-6.467932508956989E-002	4.5473022E-005	-7.0303828E-001	0
1.0863617E+004	5.821039872462279E+001	-7.0505250E-001	-6.490034415162738E-002	4.5758148E-005	-7.0503891E-001	0
1.0880727E+004	5.841039871957037E+001	-7.0707184E-001	-6.498387965475017E-002	4.5948273E-005	-7.0703882E-001	0
1.0877525E+004	5.861039871451794E+001	-7.0906311E-001	-6.518606860887535E-002	4.6221037E-005	-7.0903879E-001	0
1.0874577E+004	5.881039870946552E+001	-7.1102983E-001	-6.538459673828019E-002	4.6490397E-005	-7.1103871E-001	0
1.0877420E+004	5.901039870441309E+001	-7.1304822E-001	-6.555306654457249E-002	4.6742498E-005	-7.1303856E-001	0
1.0863290E+004	5.921039869936067E+001	-7.1505672E-001	-6.582321875354891E-002	4.7067333E-005	-7.1503848E-001	0
1.0876782E+004	5.941039869430824E+001	-7.1704036E-001	-6.592394378619115E-002	4.7270129E-005	-7.1703845E-001	0
1.0847633E+004	5.961039868925582E+001	-7.1908003E-001	-6.628911705505991E-002	4.7667181E-005	-7.1903837E-001	0
1.0848657E+004	5.981039868420339E+001	-7.2110528E-001	-6.646954356439300E-002	4.7931539E-005	-7.2103828E-001	0
1.0843402E+004	6.001039867915097E+001	-7.2307402E-001	-6.668331422167251E-002	4.8216971E-005	-7.2303826E-001	0
1.0823639E+004	6.021039867409854E+001	-7.2507685E-001	-6.699011728004955E-002	4.8572983E-005	-7.2503817E-001	0
1.0807470E+004	6.041039866904612E+001	-7.2702074E-001	-6.727021070494965E-002	4.8906837E-005	-7.2703815E-001	0
1.0797784E+004	6.061039866399369E+001	-7.2900063E-001	-6.751391281006315E-002	4.9217684E-005	-7.2903794E-001	0
1.0786544E+004	6.081039865894127E+001	-7.3105329E-001	-6.777456488572209E-002	4.9546819E-005	-7.3103797E-001	0
1.0767187E+004	6.101039865388884E+001	-7.3303539E-001	-6.808049446066877E-002	4.9905411E-005	-7.3303783E-001	0
1.0740645E+004	6.121039864883642E+001	-7.3504555E-001	-6.843588582045762E-002	5.0303493E-005	-7.3503786E-001	0
1.0715697E+004	6.141039864378399E+001	-7.3702025E-001	-6.877949269796801E-002	5.0691880E-005	-7.3703772E-001	0
1.0721445E+004	6.161039863873157E+001	-7.3905486E-001	-6.893239331763257E-002	5.0944822E-005	-7.3903775E-001	0
1.0704646E+004	6.181039863367914E+001	-7.4105036E-001	-6.922697853096371E-002	5.1300678E-005	-7.4103755E-001	0
1.0732297E+004	6.201039862862672E+001	-7.4300921E-001	-6.923114495244202E-002	5.1439380E-005	-7.4303752E-001	0
1.0758015E+004	6.221039862357429E+001	-7.4503785E-001	-6.925421367059403E-002	5.1597010E-005	-7.4503744E-001	0
1.0789437E+004	6.241039861852187E+001	-7.4705184E-001	-6.923918931823092E-002	5.1725263E-005	-7.4703741E-001	0
1.0802607E+004	6.261039861346944E+001	-7.4905080E-001	-6.933981377120380E-002	5.1939041E-005	-7.4903733E-001	0
1.0816906E+004	6.281039860841702E+001	-7.5105959E-001	-6.943386602120438E-002	5.2148971E-005	-7.5103730E-001	0
1.0826142E+004	6.301039860336459E+001	-7.5304848E-001	-6.955834489966189E-002	5.2380805E-005	-7.5303710E-001	0
1.0846578E+004	6.321039859831217E+001	-7.5505906E-001	-6.961265197995206E-002	5.2561663E-005	-7.5503713E-001	0
1.0881525E+004	6.341029859326227E+001	-7.5706303E-001	-6.957324404824661E-002	5.2671330E-005	-7.5703645E-001	0
1.0919340E+004	6.361019858821237E+001	-7.5906324E-001	-6.951548802336938E-002	5.2766653E-005	-7.5903696E-001	0
1.0942909E+004	6.381019858315995E+001	-7.6104367E-001	-6.954673815586221E-002	5.2928106E-005	-7.6103681E-001	0
1.0986407E+004	6.401019857810752E+001	-7.6304537E-001	-6.945358254300552E-002	5.2996234E-005	-7.6303679E-001	0
1.1022588E+004	6.421019857305510E+001	-7.6507312E-001	-6.940957297815964E-002	5.3103398E-005	-7.6503670E-001	0
1.1072983E+004	6.441019856800267E+001	-7.6707101E-001	-6.927410651065957E-002	5.3138159E-005	-7.6703668E-001	0
1.1122565E+004	6.461019856295025E+001	-7.6904809E-001	-6.914305059786219E-002	5.3174332E-005	-7.6903659E-001	0
1.1160793E+004	6.481019855789782E+001	-7.7105016E-001	-6.908560640288453E-002	5.3268468E-005	-7.7103651E-001	0
1.1204717E+004	6.501019855284540E+001	-7.7306372E-001	-6.899449109657307E-002	5.3337139E-005	-7.7303648E-001	0
1.1243969E+004	6.521019854779297E+001	-7.7502769E-001	-6.892830343144052E-002	5.3421343E-005	-7.7503639E-001	0
1.1297275E+004	6.541019854274055E+001	-7.7701110E-001	-6.877862668834855E-002	5.3441756E-005	-7.7703625E-001	0
1.1355670E+004	6.561019853768812E+001	-7.7903610E-001	-6.860327204349392E-002	5.3444426E-005	-7.7903616E-001	0
1.1385396E+004	6.581019853263570E+001	-7.8106183E-001	-6.860208255555578E-002	5.3582469E-005	-7.8103608E-001	0
1.1409666E+004	6.601019852758327E+001	-7.8303832E-001	-6.862937886840226E-002	5.3739433E-005	-7.8303605E-001	0
1.1444533E+004	6.621019852253085E+001	-7.8503329E-001	-6.859460680232399E-002	5.3849049E-005	-7.8503603E-001	0
1.1460922E+004	6.641019851747842E+001	-7.8701490E-001	-6.866942487642302E-002	5.4043860E-005	-7.8703594E-001	0
1.1493790E+004	6.661019851242600E+001	-7.8906351E-001	-6.865128724679526E-002	5.4170225E-005	-7.8903592E-001	0
1.1511170E+004	6.681019850737357E+001	-7.9101098E-001	-6.871682153898573E-002	5.4355762E-005	-7.9103583E-001	0
1.1526489E+004	6.701019850232115E+001	-7.9300004E-001	-6.879805700268465E-002	5.4556862E-005	-7.9303575E-001	0
1.1528055E+004	6.721019849726872E+001	-7.9499149E-001	-6.896146178106166E-002	5.4823777E-005	-7.9503572E-001	0
1.1557223E+004	6.741019849221630E+001	-7.9703546E-001	-6.896427050898102E-002	5.4966968E-005	-7.9703563E-001	0
1.1556785E+004	6.761019848716387E+001	-7.9901248E-001	-6.913795147583190E-002	5.5242086E-005	-7.9903543E-001	0
1.1561769E+004	6.781019848211145E+001	-8.0106086E-001	-6.928532315753899E-002	5.5501761E-005	-8.0103552E-001	0
1.1561879E+004	6.801019847705902E+001	-8.0303282E-001	-6.945521977377422E-002	5.5774821E-005	-8.0303538E-001	0
1.1581051E+004	6.821019847200660E+001	-8.0502123E-001	-6.951193348715778E-002	5.5958582E-005	-8.0503529E-001	0
1.1564701E+004	6.841019846695417E+001	-8.0705434E-001	-6.978601105395066E-002	5.6321103E-005	-8.0703521E-001	0
1.1552926E+004	6.861019846190175E+001	-8.0907267E-001	-7.003184281978025E-002	5.6660851E-005	-8.0903518E-001	0
1.1542951E+004	6.881019845684932E+001	-8.1104320E-001	-7.026307108915530E-002	5.6986388E-005	-8.1103510E-001	0
1.1527621E+004	6.901009845179942E+001	-8.1301558E-001	-7.052761367496219E-002	5.7340050E-005	-8.1303477E-001	0
1.1504512E+004	6.920999844674952E+001	-8.1508613E-001	-7.084926083375642E-002	5.7748250E-005	-8.1503487E-001	0
1.1458188E+004	6.940999844169710E+001	-8.1702489E-001	-7.130489518650539E-002	5.8257872E-005	-8.1703490E-001	0
1.1444638E+004	6.960999843664467E+001	-8.1904256E-001	-7.156561937050065E-002	5.8615289E-005	-8.1903476E-001	0
1.1409654E+004	6.980999843159225E+001	-8.2106930E-001	-7.196267878123552E-002	5.9086346E-005	-8.2103479E-001	0
1.1358955E+004	7.000999842653982E+001	-8.2305956E-001	-7.245909303052933E-002	5.9638151E-005	-8.2303464E-001	0
1.1321086E+004	7.020999842148740E+001	-8.2502288E-001	-7.287488953060467E-002	6.0123450E-005	-8.2503462E-001	0
1.1282946E+004	7.040999841643497E+001	-8.2701987E-001	-7.329821811889703E-002	6.0619084E-005	-8.2703447E-001	0
1.1240181E+004	7.060999841138255E+001	-8.2906514E-001	-7.375905765093793E-002	6.1151062E-005	-8.2903445E-001	0
1.1172970E+004	7.080999840633012E+001	-8.3104575E-001	-7.438002322597703E-002	6.1813204E-005	-8.3103436E-001	0
1.1133891E+004	7.100999840127770E+001	-8.3303630E-001	-7.481987650459709E-002	6.2327672E-005	-8.3303434E-001	0
1.1069136E+004	7.120999839622527E+001	-8.3506167E-001	-7.544054786934390E-002	6.2997511E-005	-8.3503425E-001	0
1.1008844E+004	7.140999839117285E+001	-8.3706385E-001	-7.603558334268534E-002	6.3646636E-005	-8.3703417E-001	0
1.0932942E+004	7.160999838612042E+001	-8.3905655E-001	-7.674572008340919E-002	6.4394000E-005	-8.3903402E-001	0
1.0872338E+004	7.180999838106800E+001	-8.4108073E-001	-7.735969169781276E-002	6.5065746E-005	-8.4103405E-001	0
1.0798274E+004	7.200999837601557E+001	-8.4302467E-001	-7.807031025277977E-002	6.5815198E-005	-8.4303391E-001	0
1.0725816E+004	7.220999837096315E+001	-8.4503466E-001	-7.878511503514074E-002	6.6576154E-005	-8.4503382E-001	0
1.0636001E+004	7.240999836591072E+001	-8.4705740E-001	-7.964058889682174E-002	6.7460147E-005	-8.4703380E-001	0
1.0544648E+004	7.260999836085830E+001	-8.4906667E-001	-8.052109906559703E-002	6.8367779E-005	-8.4903371E-001	0
1.0467103E+004	7.280999835580587E+001	-8.5108310E-001	-8.131028508372551E-002	6.9201807E-005	-8.5103369E-001	0
1.0374184E+004	7.300999835075345E+001	-8.5302699E-001	-8.222594189134502E-002	7.0140944E-005	-8.5303354E-001	0
1.0252736E+004	7.320999834570102E+001	-8.5509312E-001	-8.340145436235935E-002	7.1316012E-005	-8.5503340E-001	0
1.0156730E+004	7.340999834064860E+001	-8.5706592E-001	-8.438403981309067E-002	7.2322684E-005	-8.5703343E-001	0
1.0018259E+004	7.360999833559617E+001	-8.5907537E-001	-8.575096203842114E-002	7.3666539E-005	-8.5903341E-001	0
9.8920605E+003	7.380999833054375E+001	-8.6104941E-001	-8.704449633736200E-002	7.4949610E-005	-8.6103320E-001	0
9.7340479E+003	7.400999832549132E+001	-8.6305416E-001	-8.866343649300640E-002	7.6521348E-005	-8.6303318E-001	0
9.5614941E+003	7.420999832043890E+001	-8.6506593E-001	-9.047392538807775E-002	7.8265912E-005	-8.6503315E-001	0
9.3844424E+003	7.440999831538647E+001	-8.6707002E-001	-9.239440651287367E-002	8.0112419E-005	-8.6703306E-001	0
9.1724121E+003	7.460989831033658E+001	-8.6906803E-001	-9.474803820643052E-002	8.2342493E-005	-8.6903256E-001	0
8.9429131E+003	7.480979830528668E+001	-8.7105829E-001	-9.740206991985501E-002	8.4842883E-005	-8.7103289E-001	0
8.6828730E+003	7.500979830023425E+001	-8.7303942E-001	-1.005473023728209E-001	8.7781758E-005	-8.7303287E-001	0
8.3687715E+003	7.520979829518183E+001	-8.7505627E-001	-1.045620936178127E-001	9.1497714E-005	-8.7503284E-001	0
8.0365298E+003	7.540979829012940E+001	-8.7702340E-001	-1.091296124987962E-001	9.5709227E-005	-8.7703264E-001	0
7.6864604E+003	7.560979828507698E+001	-8.7903231E-001	-1.143611320970228E-001	1.0052713E-004	-8.7903267E-001	0
7.3222207E+003	7.580979828002455E+001	-8.8100153E-001	-1.203188967126551E-001	1.0600113E-004	-8.8103271E-001	0
6.9451514E+003	7.600979827497213E+001	-8.8302326E-001	-1.271424106715027E-001	1.1226971E-004	-8.8303280E-001	0
6.5692334E+003	7.620979826991970E+001	-8.8502187E-001	-1.347222425531416E-001	1.1923213E-004	-8.8503277E-001	0
6.2089370E+003	7.640979826486728E+001	-8.8702130E-001	-1.428620257455004E-001	1.2672166E-004	-8.8703275E-001	0
5.8634141E+003	7.660979825981485E+001	-8.8905233E-001	-1.516270792436980E-001	1.3480440E-004	-8.8903284E-001	0
5.5365288E+003	7.680979825476243E+001	-8.9107621E-001	-1.609449210680194E-001	1.4341419E-004	-8.9103281E-001	0
5.2433672E+003	7.700979824971000E+001	-8.9304060E-001	-1.703181515021197E-001	1.5210103E-004	-8.9303273E-001	0
4.9790024E+003	7.720979824465758E+001	-8.9504385E-001	-1.797636841696244E-001	1.6089638E-004	-8.9503288E-001	0
4.7427256E+003	7.740979823960515E+001	-8.9705712E-001	-1.891438011090583E-001	1.6967280E-004	-8.9703286E-001	0
4.5325210E+003	7.760979823455273E+001	-8.9901203E-001	-1.983470183896453E-001	1.7831636E-004	-8.9903283E-001	0
4.3497720E+003	7.780979822950030E+001	-9.0104061E-001	-2.071466372325146E-001	1.8664754E-004	-9.0103281E-001	0
4.1837632E+003	7.800979822444788E+001	-9.0307367E-001	-2.158520022267805E-001	1.9493025E-004	-9.0303290E-001	0
4.0394990E+003	7.820979821939545E+001	-9.0503335E-001	-2.240459340858930E-001	2.0276904E-004	-9.0503275E-001	0
3.8912332E+003	7.840979821434303E+001	-9.0705621E-001	-2.331025104657192E-001	2.1143709E-004	-9.0703279E-001	0
3.7008394E+003	7.860979820929060E+001	-9.0905625E-001	-2.456351590032364E-001	2.2329617E-004	-9.0903282E-001	0
3.5756406E+003	7.880979820423818E+001	-9.1102791E-001	-2.547873263321217E-001	2.3211837E-004	-9.1103280E-001	0
3.4309946E+003	7.900979819918575E+001	-9.1304934E-001	-2.661179823910729E-001	2.4297884E-004	-9.1303277E-001	0
3.2729434E+003	7.920979819413333E+001	-9.1502178E-001	-2.795715319339069E-001	2.5581403E-004	-9.1503280E-001	0
3.1002051E+003	7.940979818908090E+001	-9.1705799E-001	-2.958056012489518E-001	2.7127090E-004	-9.1703278E-001	0
2.9216306E+003	7.960979818402848E+001	-9.1904432E-001	-3.145655371975198E-001	2.8909967E-004	-9.1903275E-001	0
2.7423616E+003	7.980979817897605E+001	-9.2101014E-001	-3.358456268779890E-001	3.0931723E-004	-9.2103285E-001	0
2.5166936E+003	8.000979817392363E+001	-9.2307627E-001	-3.667813452771629E-001	3.3856716E-004	-9.2303288E-001	0
2.3465566E+003	8.020979816887120E+001	-9.2505795E-001	-3.942193130153697E-001	3.6467571E-004	-9.2503279E-001	0
2.1827239E+003	8.040979816381878E+001	-9.2706037E-001	-4.247263458529975E-001	3.9374697E-004	-9.2703283E-001	0
2.0148033E+003	8.060979815876635E+001	-9.2904311E-001	-4.611085834205486E-001	4.2838976E-004	-9.2903286E-001	0
1.8425842E+003	8.080979815371393E+001	-9.3106121E-001	-5.053018372750873E-001	4.7046694E-004	-9.3103290E-001	0
1.7128296E+003	8.100979814866150E+001	-9.3305331E-001	-5.447437944790341E-001	5.0827500E-004	-9.3303281E-001	0
1.5719927E+003	8.120979814360908E+001	-9.3505663E-001	-5.948225171759267E-001	5.5619271E-004	-9.3503278E-001	0
1.4523932E+003	8.140979813855665E+001	-9.3706995E-001	-6.451902425723353E-001	6.0458836E-004	-9.3703288E-001	0
1.3443044E+003	8.160979813350423E+001	-9.3908191E-001	-6.985634411780186E-001	6.5600831E-004	-9.3903273E-001	0
1.2401677E+003	8.180979812845180E+001	-9.4103831E-001	-7.587992424132661E-001	7.1405916E-004	-9.4103277E-001	0
1.1510962E+003	8.200979812339938E+001	-9.4307917E-001	-8.192878682039648E-001	7.7265332E-004	-9.4303280E-001	0
1.0680377E+003	8.220979811834695E+001	-9.4504374E-001	-8.848411539514602E-001	8.3621358E-004	-9.4503278E-001	0
9.9239838E+002	8.240979811329453E+001	-9.4706798E-001	-9.543223619342811E-001	9.0380816E-004	-9.4703275E-001	0
9.2804889E+002	8.260979810824210E+001	-9.4907653E-001	-1.022657872530332E+000	9.7058062E-004	-9.4903278E-001	0
8.5846033E+002	8.282979810268444E+001	-9.5124543E-001	-1.108083170028415E+000	1.0540590E-003	-9.5123291E-001	0
8.0520251E+002	8.302979809763201E+001	-9.5324898E-001	-1.183862430092091E+000	1.1285157E-003	-9.5323282E-001	0
7.5611646E+002	8.322979809257959E+001	-9.5524848E-001	-1.263361595537251E+000	1.2068242E-003	-9.5523280E-001	0
7.1062335E+002	8.342979808752716E+001	-9.5723778E-001	-1.347039585557183E+000	1.2894372E-003	-9.5723289E-001	0
6.6978137E+002	8.362979808247474E+001	-9.5927060E-001	-1.432214569486252E+000	1.3738814E-003	-9.5923275E-001	0
6.3401715E+002	8.382979807742231E+001	-9.6129090E-001	-1.516190649565658E+000	1.4575003E-003	-9.6123278E-001	0
6.0038855E+002	8.402979807236989E+001	-9.6324110E-001	-1.604362891678644E+000	1.5453883E-003	-9.6323282E-001	0
5.6801984E+002	8.422979806731746E+001	-9.6524811E-001	-1.699321134679039E+000	1.6402665E-003	-9.6523279E-001	0
5.3984106E+002	8.442979806226504E+001	-9.6723568E-001	-1.791704578549009E+000	1.7330006E-003	-9.6723276E-001	0
5.1330597E+002	8.462979805721261E+001	-9.6923292E-001	-1.888216690783320E+000	1.8301217E-003	-9.6923280E-001	0
4.8993295E+002	8.482979805216019E+001	-9.7125512E-001	-1.982424578665331E+000	1.9254400E-003	-9.7123277E-001	0
4.6779602E+002	8.502979804710776E+001	-9.7325444E-001	-2.080510295910628E+000	2.0248659E-003	-9.7323275E-001	0
4.4741083E+002	8.522979804205534E+001	-9.7524595E-001	-2.179754945662824E+000	2.1257971E-003	-9.7523284E-001	0
4.2790942E+002	8.542979803700291E+001	-9.7724867E-001	-2.283774638966637E+000	2.2318158E-003	-9.7723287E-001	0
4.1005112E+002	8.562979803195049E+001	-9.7924364E-001	-2.388101337025632E+000	2.3385331E-003	-9.7923279E-001	0
3.9393054E+002	8.582979802689806E+001	-9.8123431E-001	-2.490881482641850E+000	2.4441383E-003	-9.8123276E-001	0
3.7851926E+002	8.602979802184564E+001	-9.8322546E-001	-2.597557231496658E+000	2.5539845E-003	-9.8323286E-001	0
3.6425220E+002	8.622979801679321E+001	-9.8524952E-001	-2.704855481006394E+000	2.6649577E-003	-9.8523289E-001	0
3.5073480E+002	8.642979801174079E+001	-9.8724318E-001	-2.814785274282062E+000	2.7788775E-003	-9.8723280E-001	0
3.3827371E+002	8.662979800668836E+001	-9.8923028E-001	-2.924348668193190E+000	2.8928542E-003	-9.8923278E-001	0
3.2633267E+002	8.682979800163594E+001	-9.9121737E-001	-3.037444357699004E+000	3.0107675E-003	-9.9123287E-001	0
3.1521353E+002	8.702979799658351E+001	-9.9325007E-001	-3.151038917013846E+000	3.1297696E-003	-9.9323273E-001	0
3.0470233E+002	8.722979799153109E+001	-9.9526387E-001	-3.266348070805037E+000	3.2508783E-003	-9.9523276E-001	0
2.9480273E+002	8.742979798647866E+001	-9.9727941E-001	-3.382870136711595E+000	3.3736667E-003	-9.9723279E-001	0
2.8554712E+002	8.762979798142624E+001	-9.9924171E-001	-3.499393592548486E+000	3.4967400E-003	-9.9923271E-001	0
2.7667715E+002	8.782979797637381E+001	-1.0012157E+000	-3.618714736635177E+000	3.6231140E-003	-1.0012329E+000	0
2.6820337E+002	8.802979797132139E+001	-1.0032845E+000	-3.740760249007593E+000	3.7530465E-003	-1.0032328E+000	0
2.6041550E+002	8.822979796626896E+001	-1.0052556E+000	-3.860198801607226E+000	3.8804864E-003	-1.0052328E+000	0
2.5276624E+002	8.842999796121148E+001	-1.0072623E+000	-3.984956148642539E+000	4.0138965E-003	-1.0072347E+000	0
2.4551643E+002	8.862999795615906E+001	-1.0092570E+000	-4.110751083074241E+000	4.1488041E-003	-1.0092348E+000	0
2.3872435E+002	8.882999795110663E+001	-1.0112463E+000	-4.236041697312373E+000	4.2836815E-003	-1.0112348E+000	0
2.3199542E+002	8.902999794605421E+001	-1.0132753E+000	-4.367651991833345E+000	4.4256337E-003	-1.0132349E+000	0
2.2568504E+002	8.922999794100178E+001	-1.0152559E+000	-4.498552008179331E+000	4.5671817E-003	-1.0152347E+000	0
2.1967105E+002	8.943009793594683E+001	-1.0172317E+000	-4.630704339713454E+000	4.7104992E-003	-1.0172355E+000	0
2.1375693E+002	8.963019793089188E+001	-1.0192893E+000	-4.768450279084457E+000	4.8604300E-003	-1.0192367E+000	0
2.0818109E+002	8.983019792583946E+001	-1.0212762E+000	-4.905710794791872E+000	5.0100856E-003	-1.0212368E+000	0
2.0292746E+002	9.003019792078703E+001	-1.0232986E+000	-5.042681696429801E+000	5.1601692E-003	-1.0232369E+000	0
1.9788583E+002	9.023019791573461E+001	-1.0252879E+000	-5.181208936873460E+000	5.3122304E-003	-1.0252367E+000	0
1.9289037E+002	9.043029791067966E+001	-1.0272857E+000	-5.325749231926125E+000	5.4710661E-003	-1.0272375E+000	0
1.8808446E+002	9.063049790562218E+001	-1.0292917E+000	-5.472497838310275E+000	5.6327968E-003	-1.0292395E+000	0
1.8361543E+002	9.083059790056723E+001	-1.0312713E+000	-5.616474279808642E+000	5.7921088E-003	-1.0312408E+000	0
1.7924706E+002	9.103059789551480E+001	-1.0332698E+000	-5.764500748408381E+000	5.9562842E-003	-1.0332408E+000	0
1.7490091E+002	9.123059789046238E+001	-1.0352733E+000	-5.919199330567494E+000	6.1279889E-003	-1.0352408E+000	0
1.7085580E+002	9.143069788540743E+001	-1.0373076E+000	-6.071246052558450E+000	6.2977499E-003	-1.0372415E+000	0
1.6690491E+002	9.163089788034995E+001	-1.0393213E+000	-6.227026846313102E+000	6.4718816E-003	-1.0392436E+000	0
1.6295351E+002	9.183099787529500E+001	-1.0413057E+000	-6.390201110147823E+000	6.6541526E-003	-1.0412449E+000	0
1.5926601E+002	9.203099787024257E+001	-1.0432917E+000	-6.550623468801266E+000	6.8342108E-003	-1.0432448E+000	0
1.5567632E+002	9.223099786519015E+001	-1.0452769E+000	-6.714424619396273E+000	7.0184330E-003	-1.0452448E+000	0
1.5214105E+002	9.243109786013520E+001	-1.0472927E+000	-6.883695911692399E+000	7.2092446E-003	-1.0472456E+000	0
1.4872243E+002	9.263119785508025E+001	-1.0492940E+000	-7.055385402270758E+000	7.4031735E-003	-1.0492468E+000	0
1.4541858E+002	9.283119785002782E+001	-1.0512908E+000	-7.229411297982494E+000	7.6002134E-003	-1.0512468E+000	0
1.4225372E+002	9.303119784497540E+001	-1.0532751E+000	-7.404200828467395E+000	7.7986605E-003	-1.0532469E+000	0
1.3905931E+002	9.323119783992297E+001	-1.0552751E+000	-7.588668741539216E+000	8.0081327E-003	-1.0552468E+000	0
1.3606761E+002	9.343129783486802E+001	-1.0572845E+000	-7.770287672667337E+000	8.2154041E-003	-1.0572476E+000	0
1.3310986E+002	9.363149782981054E+001	-1.0592757E+000	-7.957905380176697E+000	8.4296158E-003	-1.0592495E+000	0
1.3019257E+002	9.383159782475559E+001	-1.0612726E+000	-8.151561092424828E+000	8.6510284E-003	-1.0612508E+000	0
1.2747972E+002	9.403159781970317E+001	-1.0633007E+000	-8.340940232044431E+000	8.8689281E-003	-1.0632509E+000	0
1.2477217E+002	9.423159781465074E+001	-1.0652814E+000	-8.537812267098563E+000	9.0951724E-003	-1.0652509E+000	0
1.2211824E+002	9.443179780959326E+001	-1.0672930E+000	-8.739832952293447E+000	9.3279630E-003	-1.0672524E+000	0
1.1956730E+002	9.463209780453326E+001	-1.0692641E+000	-8.942780290744139E+000	9.5621934E-003	-1.0692556E+000	0
1.1710419E+002	9.483219779947831E+001	-1.0712733E+000	-9.148035781791634E+000	9.8000467E-003	-1.0712568E+000	0
1.1464143E+002	9.503219779442588E+001	-1.0732912E+000	-9.362158065682877E+000	1.0048321E-002	-1.0732569E+000	0
1.1227087E+002	9.523229778937093E+001	-1.0753056E+000	-9.577779595141251E+000	1.0299040E-002	-1.0752577E+000	0
1.0994394E+002	9.543249778431345E+001	-1.0772980E+000	-9.798612498375917E+000	1.0556026E-002	-1.0772597E+000	0
1.0771107E+002	9.563259777925850E+001	-1.0793083E+000	-1.002040206088505E+001	1.0815103E-002	-1.0792607E+000	0
1.0548552E+002	9.583259777420608E+001	-1.0812838E+000	-1.025054264426763E+001	1.1083745E-002	-1.0812608E+000	0
1.0332672E+002	9.603259776915365E+001	-1.0832796E+000	-1.048402190451719E+001	1.1357127E-002	-1.0832608E+000	0
1.0117906E+002	9.623269776409870E+001	-1.0852890E+000	-1.072641863360120E+001	1.1641264E-002	-1.0852616E+000	0
9.8810562E+001	9.644279775879113E+001	-1.0874149E+000	-1.100504645541005E+001	1.1967051E-002	-1.0873629E+000	0
9.6604256E+001	9.665279775348608E+001	-1.0894499E+000	-1.127745202048564E+001	1.2286219E-002	-1.0894629E+000	0
9.4639771E+001	9.685279774843366E+001	-1.0914494E+000	-1.153267128025595E+001	1.2587327E-002	-1.0914629E+000	0
9.2741440E+001	9.705279774338123E+001	-1.0934713E+000	-1.179053609454982E+001	1.2892612E-002	-1.0934628E+000	0
9.0863762E+001	9.725289773832628E+001	-1.0955101E+000	-1.205662285488765E+001	1.3208153E-002	-1.0954636E+000	0
8.9059860E+001	9.745299773327133E+001	-1.0975043E+000	-1.232322035523767E+001	1.3524787E-002	-1.0974648E+000	0
8.7236389E+001	9.765299772821891E+001	-1.0994712E+000	-1.260335566377157E+001	1.3857027E-002	-1.0994648E+000	0
8.5490204E+001	9.785299772316648E+001	-1.1015017E+000	-1.288453731663918E+001	1.4192340E-002	-1.1014647E+000	0
8.3797699E+001	9.805299771811406E+001	-1.1034597E+000	-1.316813896613328E+001	1.4530511E-002	-1.1034647E+000	0
8.2049088E+001	9.825299771306163E+001	-1.1054646E+000	-1.347321003080765E+001	1.4894157E-002	-1.1054648E+000	0
8.0386375E+001	9.845299770800921E+001	-1.1074818E+000	-1.377698408922102E+001	1.5257760E-002	-1.1074649E+000	0
7.8766388E+001	9.865299770295678E+001	-1.1094956E+000	-1.408590271291820E+001	1.5628248E-002	-1.1094649E+000	0
7.7121178E+001	9.885299769790436E+001	-1.1114984E+000	-1.441236247646023E+001	1.6019316E-002	-1.1114649E+000	0
7.5575455E+001	9.905309769284941E+001	-1.1134987E+000	-1.473360254630555E+001	1.6405847E-002	-1.1134655E+000	0
7.4033936E+001	9.925319768779445E+001	-1.1154652E+000	-1.506694475998955E+001	1.6806653E-002	-1.1154668E+000	0
7.2530663E+001	9.945319768274203E+001	-1.1174854E+000	-1.540707553014181E+001	1.7217182E-002	-1.1174669E+000	0
7.1095383E+001	9.965319767768960E+001	-1.1194792E+000	-1.574615797650517E+001	1.7627496E-002	-1.1194668E+000	0
6.9635887E+001	9.985329767263465E+001	-1.1214861E+000	-1.610500115692511E+001	1.8061534E-002	-1.1214676E+000	0
6.8196304E+001	1.000535976675747E+002	-1.1234918E+000	-1.647437902014812E+001	1.8508829E-002	-1.1234707E+000	0
6.6761909E+001	1.002535976625222E+002	-1.1254802E+000	-1.685811846961781E+001	1.8973479E-002	-1.1254708E+000	0
6.5382645E+001	1.004535976574698E+002	-1.1275069E+000	-1.724474135764337E+001	1.9443564E-002	-1.1274709E+000	0
6.4052605E+001	1.006535976524174E+002	-1.1294930E+000	-1.763383428836897E+001	1.9917293E-002	-1.1294708E+000	0
6.2698730E+001	1.008536976473624E+002	-1.1314832E+000	-1.804634912774839E+001	2.0419141E-002	-1.1314716E+000	0
6.1416569E+001	1.010537976423075E+002	-1.1334977E+000	-1.845589501787481E+001	2.0919714E-002	-1.1334728E+000	0
6.0140892E+001	1.012537976372550E+002	-1.1355048E+000	-1.888074451428145E+001	2.1439176E-002	-1.1354728E+000	0
5.8922295E+001	1.014537976322026E+002	-1.1374919E+000	-1.930495031377353E+001	2.1959225E-002	-1.1374729E+000	0
5.7742592E+001	1.016538976271477E+002	-1.1394755E+000	-1.973370878665003E+001	2.2486078E-002	-1.1394737E+000	0
5.6550911E+001	1.018539976220927E+002	-1.1414810E+000	-2.018501652679201E+001	2.3040814E-002	-1.1414747E+000	0
5.5351841E+001	1.020539976170403E+002	-1.1434908E+000	-2.065858673157339E+001	2.3622904E-002	-1.1434748E+000	0
5.4193531E+001	1.022539976119879E+002	-1.1454940E+000	-2.113709814153825E+001	2.4212418E-002	-1.1454748E+000	0
5.3068794E+001	1.024540976069329E+002	-1.1474413E+000	-2.162176946279732E+001	2.4809711E-002	-1.1474756E+000	0
5.1991493E+001	1.026541976018780E+002	-1.1494884E+000	-2.210916457695214E+001	2.5414228E-002	-1.1494769E+000	0
5.0916569E+001	1.028541975968255E+002	-1.1514823E+000	-2.261508080275422E+001	2.6040867E-002	-1.1514769E+000	0
4.9841209E+001	1.030541975917731E+002	-1.1534653E+000	-2.314280212898649E+001	2.6694419E-002	-1.1534768E+000	0
4.8804684E+001	1.032542975867182E+002	-1.1554567E+000	-2.367511779419442E+001	2.7355572E-002	-1.1554775E+000	0
4.7780922E+001	1.034544975816607E+002	-1.1574606E+000	-2.422432502453638E+001	2.8038701E-002	-1.1574795E+000	0
4.6780670E+001	1.036545975766057E+002	-1.1594943E+000	-2.478575614709700E+001	2.8738942E-002	-1.1594808E+000	0
4.5763710E+001	1.038545975715533E+002	-1.1614802E+000	-2.537993853459824E+001	2.9478297E-002	-1.1614809E+000	0
4.4801006E+001	1.040545975665009E+002	-1.1634856E+000	-2.597007913411073E+001	3.0215815E-002	-1.1634808E+000	0
4.3842010E+001	1.042546975614459E+002	-1.1654818E+000	-2.658367622750563E+001	3.0982791E-002	-1.1654816E+000	0
4.2928619E+001	1.044547975563910E+002	-1.1674858E+000	-2.719597905914804E+001	3.1750921E-002	-1.1674827E+000	0
4.2017250E+001	1.046549975513335E+002	-1.1694732E+000	-2.783316865513115E+001	3.2550145E-002	-1.1694843E+000	0
4.1133076E+001	1.048551975462760E+002	-1.1715081E+000	-2.848092495043542E+001	3.3365633E-002	-1.1714869E+000	0
4.0246208E+001	1.050551975412236E+002	-1.1734908E+000	-2.915779775989296E+001	3.4216408E-002	-1.1734867E+000	0
3.9390892E+001	1.052551975361712E+002	-1.1754926E+000	-2.984173570360444E+001	3.5078742E-002	-1.1754868E+000	0
3.8553875E+001	1.054552975311162E+002	-1.1775275E+000	-3.054239255624854E+001	3.5964508E-002	-1.1774875E+000	0
3.7715244E+001	1.056553975260613E+002	-1.1795486E+000	-3.127511470036723E+001	3.6890518E-002	-1.1794889E+000	0
3.6931217E+001	1.058553975210089E+002	-1.1815234E+000	-3.199253957098574E+001	3.7799936E-002	-1.1814889E+000	0
3.6150600E+001	1.060553975159564E+002	-1.1835425E+000	-3.273922026914272E+001	3.8748257E-002	-1.1834888E+000	0
3.5376255E+001	1.062553975109040E+002	-1.1855347E+000	-3.351216080264430E+001	3.9729830E-002	-1.1854888E+000	0
3.4601765E+001	1.064553975058516E+002	-1.1875242E+000	-3.431975933051162E+001	4.0755544E-002	-1.1874887E+000	0
3.3861145E+001	1.066553975007992E+002	-1.1895196E+000	-3.512934065108382E+001	4.1787039E-002	-1.1894888E+000	0
3.3152069E+001	1.068554974957442E+002	-1.1915238E+000	-3.594115868904169E+001	4.2824745E-002	-1.1914896E+000	0
3.2438293E+001	1.070555974906893E+002	-1.1935356E+000	-3.679402998704762E+001	4.3914985E-002	-1.1934909E+000	0
3.1748173E+001	1.072555974856368E+002	-1.1955349E+000	-3.765681049856192E+001	4.5020033E-002	-1.1954908E+000	0
3.1044600E+001	1.074555974805844E+002	-1.1975430E+000	-3.857492193748612E+001	4.6195127E-002	-1.1974908E+000	0
3.0347975E+001	1.076556974755295E+002	-1.1995491E+000	-3.952649398781369E+001	4.7413971E-002	-1.1994916E+000	0
2.9691607E+001	1.078557974704745E+002	-1.2015487E+000	-4.046762128454759E+001	4.8623819E-002	-1.2014928E+000	0
2.9055962E+001	1.080560974654145E+002	-1.2035507E+000	-4.142181727667349E+001	4.9853258E-002	-1.2034951E+000	0
2.8423801E+001	1.082565974603494E+002	-1.2055727E+000	-4.241419633266810E+001	5.1133398E-002	-1.2055002E+000	0
2.7839212E+001	1.084567974552920E+002	-1.2075932E+000	-4.337741968015428E+001	5.2382275E-002	-1.2075028E+000	0
2.7247797E+001	1.086569974502345E+002	-1.2095723E+000	-4.439156364171292E+001	5.3694807E-002	-1.2095044E+000	0
2.6636795E+001	1.088572974451745E+002	-1.2115854E+000	-4.548540342760521E+001	5.5109452E-002	-1.2115076E+000	0
2.6062700E+001	1.090573974401195E+002	-1.2135533E+000	-4.656283766288084E+001	5.6506485E-002	-1.2135088E+000	0
2.5502630E+001	1.092573974350671E+002	-1.2156079E+000	-4.766597984950829E+001	5.7943139E-002	-1.2155088E+000	0
2.4967068E+001	1.094573974300147E+002	-1.2175397E+000	-4.876582512104051E+001	5.9374325E-002	-1.2175088E+000	0
2.4427645E+001	1.096573974249623E+002	-1.2195826E+000	-4.992632576884046E+001	6.0889278E-002	-1.2195089E+000	0
2.3901524E+001	1.098573974199098E+002	-1.2215540E+000	-5.110779033226231E+001	6.2430929E-002	-1.2215087E+000	0
2.3399914E+001	1.100574974148549E+002	-1.2235918E+000	-5.229044195229301E+001	6.3982159E-002	-1.2235096E+000	0
2.2914248E+001	1.102575974097999E+002	-1.2255720E+000	-5.348514963007304E+001	6.5549903E-002	-1.2255108E+000	0
2.2447763E+001	1.104575974047475E+002	-1.2276039E+000	-5.468713898453325E+001	6.7134149E-002	-1.2275108E+000	0
2.1931057E+001	1.106575973996951E+002	-1.2295741E+000	-5.606542719735046E+001	6.8936594E-002	-1.2295108E+000	0
2.1429958E+001	1.108576973946401E+002	-1.2315687E+000	-5.746948403476836E+001	7.0777617E-002	-1.2315116E+000	0
2.0969250E+001	1.110577973895852E+002	-1.2335998E+000	-5.882899142122579E+001	7.2571434E-002	-1.2335128E+000	0
2.0520941E+001	1.112577973845328E+002	-1.2355837E+000	-6.021086772715421E+001	7.4395567E-002	-1.2355129E+000	0
2.0069891E+001	1.114578973794778E+002	-1.2375942E+000	-6.166422454421308E+001	7.6315291E-002	-1.2375137E+000	0
1.9640413E+001	1.116579973744228E+002	-1.2395715E+000	-6.311330810858290E+001	7.8233458E-002	-1.2395148E+000	0
1.9208899E+001	1.118580973693679E+002	-1.2415767E+000	-6.463549793636014E+001	8.0249928E-002	-1.2415156E+000	0
1.8778553E+001	1.120582973643104E+002	-1.2436311E+000	-6.622614288650031E+001	8.2360893E-002	-1.2435175E+000	0
1.8361828E+001	1.122583973592555E+002	-1.2456127E+000	-6.783707646069342E+001	8.4498726E-002	-1.2455188E+000	0
1.7938381E+001	1.124583973542030E+002	-1.2476002E+000	-6.954921001479724E+001	8.6769611E-002	-1.2475188E+000	0
1.7533287E+001	1.126583973491506E+002	-1.2495995E+000	-7.127011659680579E+001	8.9059100E-002	-1.2495189E+000	0
1.7162649E+001	1.128583973440982E+002	-1.2516135E+000	-7.292659221214490E+001	9.1275908E-002	-1.2515188E+000	0
1.6808001E+001	1.130583973390458E+002	-1.2535949E+000	-7.458322082030782E+001	9.3497142E-002	-1.2535187E+000	0
1.6467627E+001	1.132584973339908E+002	-1.2555995E+000	-7.624653818048978E+001	9.5735118E-002	-1.2555195E+000	0
1.6144732E+001	1.134586973289333E+002	-1.2575921E+000	-7.789488796157900E+001	9.7959995E-002	-1.2575216E+000	0
1.5802069E+001	1.136588973238759E+002	-1.2596148E+000	-7.971202269833861E+001	1.0040645E-001	-1.2595236E+000	0
1.5476885E+001	1.138589973188209E+002	-1.2616265E+000	-8.151682476229666E+001	1.0284378E-001	-1.2615248E+000	0
1.5162971E+001	1.140589973137685E+002	-1.2636126E+000	-8.333542597969662E+001	1.0530370E-001	-1.2635249E+000	0
1.4851562E+001	1.142589973087161E+002	-1.2655889E+000	-8.521588140334129E+001	1.0784827E-001	-1.2655249E+000	0
1.4544529E+001	1.144589973036636E+002	-1.2675862E+000	-8.715210053709933E+001	1.1047281E-001	-1.2675250E+000	0
1.4253044E+001	1.146591972986062E+002	-1.2696180E+000	-8.907697500436643E+001	1.1309373E-001	-1.2695265E+000	0
1.3937720E+001	1.148593972935487E+002	-1.2715868E+000	-9.123348171586616E+001	1.1601129E-001	-1.2715288E+000	0
1.3638697E+001	1.150593972884963E+002	-1.2736647E+000	-9.338610339435036E+001	1.1894258E-001	-1.2735288E+000	0
1.3358423E+001	1.152593972834438E+002	-1.2755933E+000	-9.548980998938850E+001	1.2180616E-001	-1.2755288E+000	0
1.3062394E+001	1.154598972783788E+002	-1.2776144E+000	-9.780858817686340E+001	1.2496166E-001	-1.2775333E+000	0
1.2794082E+001	1.156602972733162E+002	-1.2796189E+000	-1.000164713803503E+002	1.2798296E-001	-1.2795376E+000	0
1.2552469E+001	1.158603972682613E+002	-1.2816710E+000	-1.021050935851202E+002	1.3086514E-001	-1.2815388E+000	0
1.2310137E+001	1.160605972632038E+002	-1.2836590E+000	-1.042765805774703E+002	1.3385557E-001	-1.2835404E+000	0
1.2039053E+001	1.162608972581438E+002	-1.2856257E+000	-1.067879427198100E+002	1.3728933E-001	-1.2855437E+000	0
1.1728403E+001	1.164709972528362E+002	-1.2877923E+000	-1.098011684563694E+002	1.4140110E-001	-1.2876449E+000	0
1.1394130E+001	1.166810972475287E+002	-1.2898074E+000	-1.131992934242129E+002	1.4600529E-001	-1.2897456E+000	0
1.1203148E+001	1.168813972424687E+002	-1.2918035E+000	-1.153071926090929E+002	1.4895423E-001	-1.2917483E+000	0
1.0982750E+001	1.170815972374112E+002	-1.2937899E+000	-1.178019983665749E+002	1.5241103E-001	-1.2937509E+000	0
1.0773623E+001	1.172815972323588E+002	-1.2958356E+000	-1.202785288503649E+002	1.5586120E-001	-1.2957509E+000	0
1.0600737E+001	1.174816972273038E+002	-1.2977970E+000	-1.224251628367620E+002	1.5888301E-001	-1.2977517E+000	0
1.0394414E+001	1.176820972222413E+002	-1.2998141E+000	-1.250492967446501E+002	1.6254084E-001	-1.2997551E+000	0
1.0236499E+001	1.178823972171813E+002	-1.3018347E+000	-1.271757738282087E+002	1.6556184E-001	-1.3017588E+000	0
1.0053728E+001	1.180824972121263E+002	-1.3038808E+000	-1.296912717466362E+002	1.6910195E-001	-1.3037596E+000	0
9.8383074E+000	1.182827972070663E+002	-1.3058234E+000	-1.327284658718877E+002	1.7331994E-001	-1.3057624E+000	0
9.6577883E+000	1.184829972020088E+002	-1.3078586E+000	-1.354200924324075E+002	1.7711033E-001	-1.3077649E+000	0
9.4760342E+000	1.186831971969514E+002	-1.3098292E+000	-1.382254662315729E+002	1.8105176E-001	-1.3097664E+000	0
9.2786522E+000	1.188833971918939E+002	-1.3118351E+000	-1.413820664012242E+002	1.8546996E-001	-1.3117689E+000	0
9.1126413E+000	1.190834971868389E+002	-1.3138403E+000	-1.441777696192798E+002	1.8942656E-001	-1.3137696E+000	0
8.9556961E+000	1.192835971817840E+002	-1.3158673E+000	-1.469307600581460E+002	1.9334139E-001	-1.3157709E+000	0
8.8013945E+000	1.194837971767265E+002	-1.3178375E+000	-1.497305301642921E+002	1.9732051E-001	-1.3177724E+000	0
8.6757326E+000	1.196840971716665E+002	-1.3198770E+000	-1.521343636118545E+002	2.0079865E-001	-1.3197756E+000	0
8.5583391E+000	1.198841971666116E+002	-1.3218375E+000	-1.544502388549765E+002	2.0415813E-001	-1.3217769E+000	0
8.4123983E+000	1.200842971615566E+002	-1.3238273E+000	-1.573662085745666E+002	2.0832568E-001	-1.3237777E+000	0
8.2642326E+000	1.202843971565017E+002	-1.3258433E+000	-1.604315026287582E+002	2.1270704E-001	-1.3257788E+000	0
8.1156616E+000	1.204844971514467E+002	-1.3277987E+000	-1.636094246332332E+002	2.1724038E-001	-1.3277797E+000	0
7.9739299E+000	1.206845971463918E+002	-1.3298333E+000	-1.667726288782492E+002	2.2177979E-001	-1.3297809E+000	0
7.8230004E+000	1.208845971413393E+002	-1.3318287E+000	-1.702452520232080E+002	2.2673751E-001	-1.3317808E+000	0
7.6808352E+000	1.210847971362819E+002	-1.3338325E+000	-1.736572247932500E+002	2.3162965E-001	-1.3337827E+000	0
7.5622344E+000	1.212851971312193E+002	-1.3359075E+000	-1.766551223587473E+002	2.3599489E-001	-1.3357862E+000	0
7.4596353E+000	1.214357971274148E+002	-1.3373772E+000	-1.792818518431213E+002	2.3976746E-001	-1.3372918E+000	0
7.3614721E+000	1.215762971238655E+002	-1.3387876E+000	-1.818641117807333E+002	2.4347740E-001	-1.3386971E+000	0
7.2703509E+000	1.217168971203137E+002	-1.3402084E+000	-1.843388900291911E+002	2.4705254E-001	-1.3401027E+000	0
7.1871190E+000	1.218475971170119E+002	-1.3414911E+000	-1.866521310226614E+002	2.5039217E-001	-1.3414099E+000	0
7.1041760E+000	1.220080971129573E+002	-1.3431023E+000	-1.890581445241232E+002	2.5392443E-001	-1.3430147E+000	0
7.0178523E+000	1.221387971096556E+002	-1.3444293E+000	-1.915727432168155E+002	2.5755599E-001	-1.3443220E+000	0
6.9484968E+000	1.222694971063538E+002	-1.3457464E+000	-1.936744602037752E+002	2.6063672E-001	-1.3456286E+000	0
6.8945956E+000	1.223904971032971E+002	-1.3469442E+000	-1.953623163832276E+002	2.6314214E-001	-1.3468390E+000	0
6.8096914E+000	1.225512970992349E+002	-1.3485643E+000	-1.980360265675761E+002	2.6706430E-001	-1.3484467E+000	0
6.7619195E+000	1.226922970956730E+002	-1.3499553E+000	-1.996408409291600E+002	2.6950622E-001	-1.3498566E+000	0
6.6978850E+000	1.228329970921186E+002	-1.3513675E+000	-2.017603311456618E+002	2.7265236E-001	-1.3512642E+000	0
6.6249957E+000	1.229735970885667E+002	-1.3527707E+000	-2.041919332809757E+002	2.7622485E-001	-1.3526694E+000	0
6.5595441E+000	1.231043970852625E+002	-1.3540984E+000	-2.064317947684935E+002	2.7952898E-001	-1.3539777E+000	0
6.4613614E+000	1.232450970817081E+002	-1.3554758E+000	-2.097817612319191E+002	2.8435409E-001	-1.3553851E+000	0
6.3984933E+000	1.233957970779011E+002	-1.3569860E+000	-2.120789984152561E+002	2.8778824E-001	-1.3568920E+000	0
6.3429866E+000	1.235266970745943E+002	-1.3582922E+000	-2.141408068703000E+002	2.9086578E-001	-1.3582006E+000	0
6.2910461E+000	1.236472970715477E+002	-1.3595082E+000	-2.161020868535306E+002	2.9379255E-001	-1.3594068E+000	0
6.2363443E+000	1.237677970685036E+002	-1.3607075E+000	-2.181899290307920E+002	2.9689267E-001	-1.3606118E+000	0
6.1753416E+000	1.239181970647041E+002	-1.3622067E+000	-2.205880705493762E+002	3.0048653E-001	-1.3621160E+000	0
6.1569095E+000	1.240888970603919E+002	-1.3639052E+000	-2.215243151132854E+002	3.0213815E-001	-1.3638232E+000	0
6.1077166E+000	1.242495970563323E+002	-1.3655282E+000	-2.235742680364297E+002	3.0529699E-001	-1.3654294E+000	0
6.0377202E+000	1.243902970527779E+002	-1.3669196E+000	-2.263966444780472E+002	3.0946600E-001	-1.3668369E+000	0
5.9831023E+000	1.245112970497212E+002	-1.3681238E+000	-2.286646030842044E+002	3.1284148E-001	-1.3680462E+000	0
5.9317231E+000	1.246420970464169E+002	-1.3694704E+000	-2.308722591047581E+002	3.1617272E-001	-1.3693547E+000	0
5.8777843E+000	1.247727970431151E+002	-1.3707541E+000	-2.332093207576114E+002	3.1967264E-001	-1.3706617E+000	0
5.8382750E+000	1.249033970398159E+002	-1.3720590E+000	-2.350110277327822E+002	3.2244900E-001	-1.3719674E+000	0
5.7889047E+000	1.250339970365167E+002	-1.3733835E+000	-2.372440995123175E+002	3.2582715E-001	-1.3732737E+000	0
5.7121129E+000	1.251847970327071E+002	-1.3748719E+000	-2.406940976011879E+002	3.3092353E-001	-1.3747821E+000	0
5.6644335E+000	1.253553970283974E+002	-1.3766358E+000	-2.430315126785683E+002	3.3456588E-001	-1.3764879E+000	0
5.6010442E+000	1.254860970250957E+002	-1.3779020E+000	-2.460080579636307E+002	3.3897501E-001	-1.3777949E+000	0
5.5631270E+000	1.256369970212836E+002	-1.3793912E+000	-2.479524830691867E+002	3.4202346E-001	-1.3793037E+000	0
5.5076375E+000	1.257481970184745E+002	-1.3805572E+000	-2.506623177924766E+002	3.4605366E-001	-1.3804157E+000	0
5.4698553E+000	1.258690970154203E+002	-1.3817636E+000	-2.526142786298296E+002	3.4905320E-001	-1.3816248E+000	0
5.4508791E+000	1.259800970126162E+002	-1.3828452E+000	-2.536921345871633E+002	3.5081694E-001	-1.3827354E+000	0
5.3955903E+000	1.260909970098146E+002	-1.3839492E+000	-2.564963312900122E+002	3.5497788E-001	-1.3838440E+000	0
5.3622298E+000	1.262117970067629E+002	-1.3851599E+000	-2.583178774774997E+002	3.5781154E-001	-1.3850515E+000	0
5.3189397E+000	1.263029970044590E+002	-1.3860879E+000	-2.605947765495248E+002	3.6120728E-001	-1.3859637E+000	0
5.2573590E+000	1.264137970016600E+002	-1.3871913E+000	-2.638570524776674E+002	3.6602020E-001	-1.3870713E+000	0
5.2181392E+000	1.265346969986058E+002	-1.3884153E+000	-2.660747987035464E+002	3.6942232E-001	-1.3882806E+000	0
5.1944408E+000	1.266853969947988E+002	-1.3899001E+000	-2.675745407831118E+002	3.7190187E-001	-1.3897882E+000	0
5.1747355E+000	1.268061969917471E+002	-1.3911839E+000	-2.688415241442733E+002	3.7400800E-001	-1.3909951E+000	0
5.1473131E+000	1.269274969886828E+002	-1.3923745E+000	-2.705051028970042E+002	3.7664440E-001	-1.3922089E+000	0
5.1162267E+000	1.270383969858813E+002	-1.3934476E+000	-2.723584632165594E+002	3.7951726E-001	-1.3933178E+000	0
5.0721574E+000	1.271291969835875E+002	-1.3943380E+000	-2.749003774053126E+002	3.8330406E-001	-1.3942257E+000	0
5.0448046E+000	1.272598969802857E+002	-1.3956889E+000	-2.766586696541881E+002	3.8612944E-001	-1.3955331E+000	0
5.0029845E+000	1.273608969777342E+002	-1.3967171E+000	-2.791767801518408E+002	3.8993096E-001	-1.3965430E+000	0
4.9660420E+000	1.274814969746876E+002	-1.3978982E+000	-2.814914198250008E+002	3.9349633E-001	-1.3977488E+000	0
4.9251409E+000	1.276119969713909E+002	-1.3992207E+000	-2.840976095329816E+002	3.9751527E-001	-1.3990536E+000	0
4.8881741E+000	1.277625969675864E+002	-1.4007268E+000	-2.865542016830557E+002	4.0138415E-001	-1.4005600E+000	0
4.8497500E+000	1.279031969640346E+002	-1.4020975E+000	-2.891071721239164E+002	4.0535644E-001	-1.4019653E+000	0
4.8111644E+000	1.280437969604827E+002	-1.4035434E+000	-2.917263452881282E+002	4.0945056E-001	-1.4033717E+000	0
4.7823181E+000	1.281746969571759E+002	-1.4048196E+000	-2.937528525539592E+002	4.1266978E-001	-1.4046804E+000	0
4.7560420E+000	1.283051969538792E+002	-1.4061260E+000	-2.956504776504257E+002	4.1572183E-001	-1.4059856E+000	0
4.7319179E+000	1.284157969510852E+002	-1.4072906E+000	-2.974038409545240E+002	4.1853362E-001	-1.4070914E+000	0
4.7052603E+000	1.285065969487914E+002	-1.4081705E+000	-2.992757920260419E+002	4.2143133E-001	-1.4079994E+000	0
4.6865396E+000	1.286471969452396E+002	-1.4095167E+000	-3.007585055478266E+002	4.2392415E-001	-1.4094059E+000	0
4.6368990E+000	1.288178969409273E+002	-1.4112865E+000	-3.043599900984714E+002	4.2953914E-001	-1.4111124E+000	0
4.6201797E+000	1.289784969368702E+002	-1.4128075E+000	-3.057905877045468E+002	4.3202323E-001	-1.4127192E+000	0
4.5797858E+000	1.291191969333158E+002	-1.4143022E+000	-3.088140560538687E+002	4.3675640E-001	-1.4141251E+000	0
4.5678425E+000	1.292600969297564E+002	-1.4156964E+000	-3.099267232264674E+002	4.3876213E-001	-1.4155352E+000	0
4.5293264E+000	1.294106969259519E+002	-1.4171784E+000	-3.128894319780447E+002	4.4342014E-001	-1.4170402E+000	0
4.4838405E+000	1.295513969223975E+002	-1.4186132E+000	-3.163835140403152E+002	4.4882584E-001	-1.4184482E+000	0
4.4690189E+000	1.296919969188457E+002	-1.4199761E+000	-3.177377562940669E+002	4.5118001E-001	-1.4198532E+000	0
4.4380827E+000	1.298224969155490E+002	-1.4212818E+000	-3.202468149135466E+002	4.5516098E-001	-1.4211588E+000	0
4.4059010E+000	1.299432969124973E+002	-1.4225383E+000	-3.228711359795552E+002	4.5929655E-001	-1.4223665E+000	0
4.4147487E+000	1.300443969099433E+002	-1.4235346E+000	-3.224497667563090E+002	4.5901841E-001	-1.4233775E+000	0
4.3963666E+000	1.301354969076419E+002	-1.4244375E+000	-3.240033542521940E+002	4.6152255E-001	-1.4242891E+000	0
4.3692875E+000	1.302759969040926E+002	-1.4258361E+000	-3.263315047447686E+002	4.6529523E-001	-1.4256936E+000	0
4.3140416E+000	1.304265969002881E+002	-1.4273577E+000	-3.308631966738385E+002	4.7226012E-001	-1.4272001E+000	0
4.2743621E+000	1.305970968959809E+002	-1.4290391E+000	-3.343280315232473E+002	4.7776783E-001	-1.4289052E+000	0
4.2237945E+000	1.307472968921866E+002	-1.4305595E+000	-3.386906225543962E+002	4.8451710E-001	-1.4304073E+000	0
4.2063589E+000	1.309171968878945E+002	-1.4322063E+000	-3.404859746285401E+002	4.8764616E-001	-1.4321064E+000	0
4.1736817E+000	1.310575968843477E+002	-1.4336841E+000	-3.435058482064242E+002	4.9247888E-001	-1.4335096E+000	0
4.1841483E+000	1.311782968812986E+002	-1.4348615E+000	-3.429279771079306E+002	4.9205416E-001	-1.4347169E+000	0
4.1326804E+000	1.313484968769990E+002	-1.4365810E+000	-3.476148485714975E+002	4.9937689E-001	-1.4364191E+000	0
4.1018448E+000	1.315285968724493E+002	-1.4383618E+000	-3.506621787448894E+002	5.0437909E-001	-1.4382203E+000	0
4.1088986E+000	1.316788968686524E+002	-1.4398903E+000	-3.504321855693338E+002	5.0458390E-001	-1.4397231E+000	0
4.0685234E+000	1.318388968646104E+002	-1.4414930E+000	-3.543037426436571E+002	5.1072639E-001	-1.4413234E+000	0
4.0615273E+000	1.319889968608186E+002	-1.4430162E+000	-3.552890463061212E+002	5.1268786E-001	-1.4428242E+000	0
4.0216713E+000	1.321492968567691E+002	-1.4445872E+000	-3.592007140158319E+002	5.1889676E-001	-1.4444271E+000	0
3.9497528E+000	1.323096968527170E+002	-1.4462339E+000	-3.661580675029236E+002	5.2955019E-001	-1.4460310E+000	0
3.9235239E+000	1.324304968496654E+002	-1.4474270E+000	-3.689099538270029E+002	5.3397024E-001	-1.4472392E+000	0
3.9268699E+000	1.325610968463661E+002	-1.4487526E+000	-3.689331991060162E+002	5.3449297E-001	-1.4485451E+000	0
3.8595235E+000	1.327212968423191E+002	-1.4503224E+000	-3.757775625922413E+002	5.4499859E-001	-1.4501475E+000	0
3.8445354E+000	1.328912968380246E+002	-1.4520146E+000	-3.776827090774170E+002	5.4840082E-001	-1.4518472E+000	0
3.8142738E+000	1.330615968337224E+002	-1.4537530E+000	-3.811349388662275E+002	5.5407608E-001	-1.4535501E+000	0
3.7899780E+000	1.332019968301756E+002	-1.4551612E+000	-3.839497708918559E+002	5.5870879E-001	-1.4549543E+000	0
3.7706838E+000	1.333523968263762E+002	-1.4566469E+000	-3.863084184039781E+002	5.6271499E-001	-1.4564583E+000	0
3.7357869E+000	1.335225968220766E+002	-1.4583819E+000	-3.903814327992541E+002	5.6932521E-001	-1.4581604E+000	0
3.7259917E+000	1.336928968177745E+002	-1.4600563E+000	-3.918570864145487E+002	5.7213342E-001	-1.4598631E+000	0
3.7132287E+000	1.338332968142277E+002	-1.4614455E+000	-3.935780811951045E+002	5.7519287E-001	-1.4612674E+000	0
3.6745830E+000	1.339636968109335E+002	-1.4627640E+000	-3.980761963882851E+002	5.8229154E-001	-1.4625709E+000	0
3.6573443E+000	1.341338968066339E+002	-1.4644260E+000	-4.004069352265951E+002	5.8636636E-001	-1.4642735E+000	0
3.6405749E+000	1.342842968028344E+002	-1.4659734E+000	-4.026763259542381E+002	5.9031278E-001	-1.4657772E+000	0
3.5991161E+000	1.344544967985348E+002	-1.4676749E+000	-4.077875808778354E+002	5.9849960E-001	-1.4674793E+000	0
3.5550940E+000	1.346049967947329E+002	-1.4691881E+000	-4.132628011549741E+002	6.0716081E-001	-1.4689832E+000	0
3.5505686E+000	1.347455967911810E+002	-1.4706004E+000	-4.141872740861882E+002	6.0910398E-001	-1.4703898E+000	0
3.5453448E+000	1.348957967873866E+002	-1.4721160E+000	-4.152250413108345E+002	6.1125940E-001	-1.4718921E+000	0
3.5362835E+000	1.350457967835973E+002	-1.4736204E+000	-4.167144400373254E+002	6.1407888E-001	-1.4733921E+000	0
3.5167367E+000	1.351959967798030E+002	-1.4751284E+000	-4.194594263738700E+002	6.1875653E-001	-1.4748939E+000	0
3.5154166E+000	1.353362967762587E+002	-1.4765384E+000	-4.200180349782209E+002	6.2017274E-001	-1.4762975E+000	0
3.4432228E+000	1.354765967727144E+002	-1.4784449E+000	-4.293782543127327E+002	6.3481212E-001	-1.4776995E+000	0
3.4174857E+000	1.356269967689150E+002	-1.4799149E+000	-4.330420311064054E+002	6.4086539E-001	-1.4792044E+000	0
3.3836546E+000	1.357773967651156E+002	-1.4814441E+000	-4.378236934954757E+002	6.4861131E-001	-1.4807074E+000	0
3.4148192E+000	1.359277967613161E+002	-1.4829570E+000	-4.342710244434302E+002	6.4400524E-001	-1.4822125E+000	0
3.4151878E+000	1.360980967570140E+002	-1.4846691E+000	-4.347254499146457E+002	6.4542341E-001	-1.4839153E+000	0
3.3882785E+000	1.362582967529670E+002	-1.4862357E+000	-4.386403831738596E+002	6.5192300E-001	-1.4855168E+000	0
3.3397384E+000	1.364084967491726E+002	-1.4877484E+000	-4.454685291348815E+002	6.6274506E-001	-1.4870191E+000	0
3.3207936E+000	1.365687967451231E+002	-1.4893723E+000	-4.484988991237981E+002	6.6798180E-001	-1.4886217E+000	0
3.3279903E+000	1.367489967405709E+002	-1.4911766E+000	-4.480712095982926E+002	6.6815329E-001	-1.4904248E+000	0
3.3205419E+000	1.369389967357711E+002	-1.4930831E+000	-4.496504416685402E+002	6.7136550E-001	-1.4923244E+000	0
3.3100944E+000	1.371091967314715E+002	-1.4948097E+000	-4.515912752610800E+002	6.7504305E-001	-1.4940259E+000	0
3.2976265E+000	1.372493967279297E+002	-1.4961547E+000	-4.537065147835519E+002	6.7881513E-001	-1.4954273E+000	0
3.2872591E+000	1.374095967238827E+002	-1.4977823E+000	-4.556325712701359E+002	6.8243843E-001	-1.4970305E+000	0
3.2505698E+000	1.375996967190804E+002	-1.4997211E+000	-4.613717529408768E+002	6.9192892E-001	-1.4989311E+000	0
3.2374687E+000	1.377500967152810E+002	-1.5012207E+000	-4.637020088744584E+002	6.9611907E-001	-1.5004352E+000	0
3.2511382E+000	1.378409967129846E+002	-1.5021451E+000	-4.620366530592626E+002	6.9404608E-001	-1.5013431E+000	0
3.2233493E+000	1.379416967104407E+002	-1.5031117E+000	-4.663198480701799E+002	7.0093083E-001	-1.5023513E+000	0
3.2217944E+000	1.380720967071466E+002	-1.5044190E+000	-4.669506387194897E+002	7.0248938E-001	-1.5036542E+000	0
3.2217646E+000	1.382223967033497E+002	-1.5059282E+000	-4.674234032254196E+002	7.0390606E-001	-1.5051583E+000	0
3.1477609E+000	1.383726966995528E+002	-1.5074316E+000	-4.788901323706068E+002	7.2189415E-001	-1.5066608E+000	0
3.0986452E+000	1.385327966955083E+002	-1.5090336E+000	-4.869978604194766E+002	7.3489612E-001	-1.5082622E+000	0
3.0953112E+000	1.386236966932120E+002	-1.5099114E+000	-4.878060336079179E+002	7.3654389E-001	-1.5091698E+000	0
3.0952325E+000	1.386453966926638E+002	-1.5101594E+000	-4.878985429545937E+002	7.3680454E-001	-1.5093877E+000	0
3.0964422E+000	1.387660966896146E+002	-1.5113646E+000	-4.880971447257452E+002	7.3769271E-001	-1.5105953E+000	0
3.0556829E+000	1.389363966853125E+002	-1.5130732E+000	-4.951669486212486E+002	7.4922383E-001	-1.5122979E+000	0
3.0375111E+000	1.390966966812630E+002	-1.5146859E+000	-4.986601939494467E+002	7.5531358E-001	-1.5139011E+000	0
3.0287204E+000	1.392371966777137E+002	-1.5161134E+000	-5.005788690837635E+002	7.5893432E-001	-1.5153055E+000	0
3.0241001E+000	1.393777966741618E+002	-1.5174835E+000	-5.017967172279305E+002	7.6146823E-001	-1.5167123E+000	0
3.0072160E+000	1.395480966698597E+002	-1.5192441E+000	-5.051995091943663E+002	7.6752138E-001	-1.5184151E+000	0
2.9812276E+000	1.397182966655600E+002	-1.5208851E+000	-5.101539496525638E+002	7.7588552E-001	-1.5201173E+000	0
2.9665670E+000	1.398587966620107E+002	-1.5223585E+000	-5.131718001798854E+002	7.8123146E-001	-1.5215217E+000	0
3.0029635E+000	1.400289966577111E+002	-1.5240395E+000	-5.075118140385937E+002	7.7346808E-001	-1.5232245E+000	0
2.9720795E+000	1.402189966529113E+002	-1.5259136E+000	-5.134161587453491E+002	7.8342867E-001	-1.5251245E+000	0
2.9445531E+000	1.403793966488593E+002	-1.5275027E+000	-5.187553224454123E+002	7.9240012E-001	-1.5267280E+000	0
2.9665365E+000	1.405496966445571E+002	-1.5292344E+000	-5.154948690649803E+002	7.8831249E-001	-1.5284314E+000	0
2.9909518E+000	1.406902966410053E+002	-1.5306317E+000	-5.117540430501194E+002	7.8330696E-001	-1.5298373E+000	0
2.9564793E+000	1.408209966377035E+002	-1.5319378E+000	-5.181628913951354E+002	7.9379332E-001	-1.5311432E+000	0
2.9438055E+000	1.409315966349095E+002	-1.5330390E+000	-5.207677771331728E+002	7.9835731E-001	-1.5322492E+000	0
2.9010944E+000	1.410719966313627E+002	-1.5344682E+000	-5.289273568798817E+002	8.1162220E-001	-1.5336543E+000	0
2.8737566E+000	1.412223966275633E+002	-1.5359827E+000	-5.344860035952315E+002	8.2096130E-001	-1.5351576E+000	0
2.8712487E+000	1.413233966250118E+002	-1.5370089E+000	-5.353102546878699E+002	8.2277662E-001	-1.5361686E+000	0
2.8705313E+000	1.413549966242135E+002	-1.5373002E+000	-5.355455318021395E+002	8.2329428E-001	-1.5364844E+000	0
2.8698466E+000	1.414653966214246E+002	-1.5384308E+000	-5.360672864860207E+002	8.2470244E-001	-1.5375881E+000	0
2.8703320E+000	1.416057966178778E+002	-1.5398538E+000	-5.364723613058677E+002	8.2608902E-001	-1.5389915E+000	0
2.9182966E+000	1.417561966140784E+002	-1.5413035E+000	-5.281517804224168E+002	8.1404221E-001	-1.5404962E+000	0
2.9054322E+000	1.418964966105341E+002	-1.5427006E+000	-5.309711392009804E+002	8.1912953E-001	-1.5418992E+000	0
2.8847344E+000	1.420863966057368E+002	-1.5446506E+000	-5.354567734984303E+002	8.2709360E-001	-1.5437987E+000	0
2.8669016E+000	1.422764966009345E+002	-1.5464951E+000	-5.394308095506658E+002	8.3422709E-001	-1.5456991E+000	0
2.8577344E+000	1.424169965973852E+002	-1.5479746E+000	-5.416789496349893E+002	8.3850527E-001	-1.5471039E+000	0
2.8579588E+000	1.425473965940910E+002	-1.5492295E+000	-5.420755354533394E+002	8.3979940E-001	-1.5484083E+000	0
2.8437102E+000	1.426976965902941E+002	-1.5507386E+000	-5.453223044696188E+002	8.4565234E-001	-1.5499104E+000	0
2.8209620E+000	1.428283965869923E+002	-1.5520620E+000	-5.501889399067568E+002	8.5392737E-001	-1.5512183E+000	0
2.8120613E+000	1.429884965829478E+002	-1.5536351E+000	-5.524897689098834E+002	8.5836750E-001	-1.5528195E+000	0
2.7993808E+000	1.431484965789059E+002	-1.5552368E+000	-5.555645947081957E+002	8.6403453E-001	-1.5544192E+000	0
2.8132880E+000	1.432988965751065E+002	-1.5567763E+000	-5.533654385961981E+002	8.6146617E-001	-1.5559224E+000	0
2.7901003E+000	1.434392965715597E+002	-1.5581691E+000	-5.584634815190020E+002	8.7018055E-001	-1.5573273E+000	0
2.7633836E+000	1.436192965670125E+002	-1.5599471E+000	-5.645061823294036E+002	8.8059980E-001	-1.5591270E+000	0
2.7338605E+000	1.437598965634606E+002	-1.5613596E+000	-5.711189894440558E+002	8.9172214E-001	-1.5605321E+000	0
2.7287755E+000	1.439102965596612E+002	-1.5628933E+000	-5.727452913361412E+002	8.9513975E-001	-1.5620372E+000	0
2.7276340E+000	1.440106965571249E+002	-1.5638638E+000	-5.733407709888852E+002	8.9662683E-001	-1.5630407E+000	0
2.7323248E+000	1.440491965561523E+002	-1.5644131E+000	-5.725574863978800E+002	8.9571643E-001	-1.5635424E+000	1