EC-Lab ASCII FILE
Nb header lines : 61                          

Linear Sweep Voltammetry

Run on channel : 1 (SN 1340)
User : 
Electrode connection : standard
Potential control : Ewe
Ewe ctrl range : min = -5.00 V, max = 5.00 V
Ewe,I filtering : 50 kHz
Channel : Grounded
Acquisition started on : 02/25/2026 11:25:00.803
Technique started on : 02/25/2026 11:25:04.013
Loaded Setting File :  NONE
Saved on :
	File : Ni40_sqmagnet_2_25_02_LSV_C01.mpr
	Directory : C:\Users\volt\Documents\Platalytix\
	Host : 127.0.0.1
Device : SP-200 (SN 0262)
Address : USB
EC-LAB for windows v11.60 (software)
Internet server v11.60 (firmware)
Command interpretor v11.60 (firmware)
Electrode material : Ni40
Initial state : 
Electrolyte : KOH (1M)
Comments : with magnet
Cable : standard
Reference electrode : Hg/HgO (0.140 V)
Electrode surface area : 1.000 cm˛
Characteristic mass : 0.001 g
Equivalent Weight : 0.000 g/eq.
Density : 0.000 g/cm3
Volume (V) : 0.001 cmł
Cycle Definition : Charge/Discharge alternance
tR (h:m:s)          0:00:5.0000         
dER/dt (mV/h)       0.0                 
dER (mV)            0                   
dtR (s)             0.0000              
dE/dt               10.000              
dE/dt unit          mV/s                
Ei (V)              -0.200              
vs.                 Ref                 
EL (V)              -2.500              
vs.                 Ref                 
record              <I>                 
dI                  0.000               
unit dI             µA                  
tI (s)              0.0000              
step percent        50                  
N                   10                  
E range min (V)     -5.000              
E range max (V)     5.000               
I Range             Auto                
I Range min         Unset               
I Range max         Unset               
I Range init        Unset               
Bandwidth           8                   

Rwe/Ohm	time/s	Ewe/V	<I>/mA	Pwe/W	control/V	error	
0.0000000E+000	3.210400152456714E+000	-1.3804306E-001	0.000000000000000E+000	0.0000000E+000	0.0000000E+000	0
0.0000000E+000	8.210200026151142E+000	-6.2667407E-002	0.000000000000000E+000	0.0000000E+000	-1.9983973E-001	0
1.5478792E+003	8.350200022614445E+000	-2.0088409E-001	1.297802116621183E-001	-2.6070780E-005	-2.0113951E-001	0
2.7294902E+003	8.470200019582990E+000	-2.0208412E-001	-7.403731528988022E-002	1.4961766E-005	-2.0233956E-001	0
2.0092454E+003	8.680200014277943E+000	-2.0420036E-001	-1.016303742823960E-001	2.0752959E-005	-2.0443957E-001	0
2.0671782E+003	8.880200009225518E+000	-2.0619263E-001	-9.974593833160683E-002	2.0566877E-005	-2.0643957E-001	0
2.1593975E+003	9.080200004173093E+000	-2.0823219E-001	-9.643068999767979E-002	2.0079975E-005	-2.0843954E-001	0
2.2531877E+003	9.280199999120669E+000	-2.1021661E-001	-9.329742306047240E-002	1.9612668E-005	-2.1043956E-001	0
2.3443269E+003	9.480199994068244E+000	-2.1221223E-001	-9.052160746774840E-002	1.9209792E-005	-2.1243957E-001	0
2.4311868E+003	9.680199989015819E+000	-2.1423037E-001	-8.811761254482720E-002	1.8877468E-005	-2.1443954E-001	0
2.5109729E+003	9.880199983963394E+000	-2.1621500E-001	-8.610806014978023E-002	1.8617855E-005	-2.1643955E-001	0
2.5898098E+003	1.008019997891097E+001	-2.1821277E-001	-8.425822146627573E-002	1.8386219E-005	-2.1843958E-001	0
2.6653677E+003	1.028019997385854E+001	-2.2021666E-001	-8.262149423367193E-002	1.8194629E-005	-2.2043955E-001	0
2.7385867E+003	1.048019996880612E+001	-2.2221762E-001	-8.114317272232263E-002	1.8031442E-005	-2.2243954E-001	0
2.8077832E+003	1.068019996375369E+001	-2.2420603E-001	-7.985161733285606E-002	1.7903214E-005	-2.2443958E-001	0
2.8777280E+003	1.088019995870127E+001	-2.2619936E-001	-7.860345407674192E-002	1.7780050E-005	-2.2643954E-001	0
2.9439602E+003	1.108019995364884E+001	-2.2821221E-001	-7.751878189047590E-002	1.7690732E-005	-2.2843955E-001	0
3.0065613E+003	1.128019994859642E+001	-2.3020233E-001	-7.656665183519265E-002	1.7625822E-005	-2.3043956E-001	0
3.0700479E+003	1.148019994354399E+001	-2.3219904E-001	-7.563368950774077E-002	1.7562070E-005	-2.3243955E-001	0
3.1329768E+003	1.168019993849157E+001	-2.3421335E-001	-7.475744900314768E-002	1.7509194E-005	-2.3443955E-001	0
3.1971533E+003	1.188019993343914E+001	-2.3621535E-001	-7.388302116272549E-002	1.7452305E-005	-2.3643956E-001	0
3.2596372E+003	1.208019992838672E+001	-2.3821588E-001	-7.308048669136868E-002	1.7408933E-005	-2.3843956E-001	0
3.3187253E+003	1.228019992333429E+001	-2.4021110E-001	-7.238053040718340E-002	1.7386606E-005	-2.4043955E-001	0
3.3784617E+003	1.248019991828187E+001	-2.4222095E-001	-7.169563536238677E-002	1.7366185E-005	-2.4243957E-001	0
3.4355923E+003	1.268019991322944E+001	-2.4419963E-001	-7.107934108861369E-002	1.7357550E-005	-2.4443956E-001	0
3.4953040E+003	1.288019990817702E+001	-2.4622414E-001	-7.044426998748610E-002	1.7345079E-005	-2.4643955E-001	0
3.5510620E+003	1.308019990312459E+001	-2.4822083E-001	-6.990044744888024E-002	1.7350747E-005	-2.4843957E-001	0
3.6076240E+003	1.328019989807217E+001	-2.5021711E-001	-6.935786692501655E-002	1.7354525E-005	-2.5043952E-001	0
3.6647180E+003	1.348019989301974E+001	-2.5221786E-001	-6.882326498093372E-002	1.7358456E-005	-2.5243956E-001	0
3.7221838E+003	1.368019988796732E+001	-2.5421286E-001	-6.829669477857336E-002	1.7361897E-005	-2.5443956E-001	0
3.7766123E+003	1.388019988291489E+001	-2.5620213E-001	-6.783913836662400E-002	1.7380531E-005	-2.5643954E-001	0
3.8323689E+003	1.408019987786247E+001	-2.5820968E-001	-6.737599672713712E-002	1.7397135E-005	-2.5843957E-001	0
3.8934814E+003	1.428019987281004E+001	-2.6019472E-001	-6.682829446024152E-002	1.7388369E-005	-2.6043954E-001	0
3.9479751E+003	1.448019986775762E+001	-2.6221031E-001	-6.641640517883859E-002	1.7415066E-005	-2.6243958E-001	0
4.0036392E+003	1.468019986270519E+001	-2.6420191E-001	-6.599043847574881E-002	1.7434801E-005	-2.6443955E-001	0
4.0521245E+003	1.488019985765277E+001	-2.6621372E-001	-6.569732008544121E-002	1.7489529E-005	-2.6643959E-001	0
4.1137197E+003	1.508019985260034E+001	-2.6817924E-001	-6.519141977878895E-002	1.7482986E-005	-2.6843953E-001	0
4.1663618E+003	1.528019984754792E+001	-2.7020302E-001	-6.485347213411496E-002	1.7523604E-005	-2.7043957E-001	0
4.2196621E+003	1.548019984249549E+001	-2.7219617E-001	-6.450662614572866E-002	1.7558457E-005	-2.7243957E-001	0
4.2741855E+003	1.568019983744307E+001	-2.7419263E-001	-6.415084981921315E-002	1.7589691E-005	-2.7443954E-001	0
4.3243149E+003	1.588019983239064E+001	-2.7619848E-001	-6.387103401344096E-002	1.7641083E-005	-2.7643955E-001	0
4.3759966E+003	1.608019982733822E+001	-2.7819330E-001	-6.357255644775295E-002	1.7685459E-005	-2.7843955E-001	0
4.4298438E+003	1.628019982228579E+001	-2.8019401E-001	-6.325144109383785E-002	1.7722676E-005	-2.8043956E-001	0
4.4810068E+003	1.648019981723337E+001	-2.8218606E-001	-6.297381025741111E-002	1.7770331E-005	-2.8243956E-001	0
4.5321968E+003	1.668019981218094E+001	-2.8420314E-001	-6.270758766583795E-002	1.7821694E-005	-2.8443959E-001	0
4.5865107E+003	1.688019980712852E+001	-2.8620556E-001	-6.240159110852461E-002	1.7859682E-005	-2.8643954E-001	0
4.6353677E+003	1.708019980207609E+001	-2.8819633E-001	-6.217334667208041E-002	1.7918130E-005	-2.8843954E-001	0
4.6846597E+003	1.728019979702367E+001	-2.9020512E-001	-6.194796181038931E-002	1.7977616E-005	-2.9043955E-001	0
4.7332749E+003	1.748019979197124E+001	-2.9219440E-001	-6.173196949630699E-002	1.8037736E-005	-2.9243955E-001	0
4.7869819E+003	1.768019978691882E+001	-2.9421040E-001	-6.146052171890110E-002	1.8082324E-005	-2.9443955E-001	0
4.8378408E+003	1.788019978186639E+001	-2.9621497E-001	-6.122875313777165E-002	1.8136872E-005	-2.9643956E-001	0
4.8840444E+003	1.808019977681397E+001	-2.9819873E-001	-6.105569631754570E-002	1.8206731E-005	-2.9843953E-001	0
4.9357544E+003	1.828019977176155E+001	-3.0019712E-001	-6.082091729532602E-002	1.8258264E-005	-3.0043957E-001	0
4.9872695E+003	1.848019976670912E+001	-3.0218324E-001	-6.059091620605489E-002	1.8309560E-005	-3.0243954E-001	0
5.0341416E+003	1.868019976165670E+001	-3.0420348E-001	-6.042807191069703E-002	1.8382430E-005	-3.0443957E-001	0
5.0828320E+003	1.888019975660427E+001	-3.0619130E-001	-6.024029211599446E-002	1.8445053E-005	-3.0643955E-001	0
5.1238760E+003	1.908019975155185E+001	-3.0819264E-001	-6.014834019216103E-002	1.8537276E-005	-3.0843955E-001	0
5.1728110E+003	1.928019974649942E+001	-3.1019658E-001	-5.996673278058651E-002	1.8601475E-005	-3.1043956E-001	0
5.2250347E+003	1.948019974144700E+001	-3.1221238E-001	-5.975316952367038E-002	1.8655679E-005	-3.1243956E-001	0
5.2709902E+003	1.968019973639457E+001	-3.1417856E-001	-5.960522246623076E-002	1.8726683E-005	-3.1443956E-001	0
5.3153975E+003	1.988019973134215E+001	-3.1619391E-001	-5.948640988736287E-002	1.8809240E-005	-3.1643957E-001	0
5.3594604E+003	2.008019972628972E+001	-3.1820461E-001	-5.937250661283552E-002	1.8892606E-005	-3.1843957E-001	0
5.4038838E+003	2.028019972123730E+001	-3.2020724E-001	-5.925501736362448E-002	1.8973886E-005	-3.2043955E-001	0
5.4462188E+003	2.048019971618487E+001	-3.2221073E-001	-5.916227994786616E-002	1.9062722E-005	-3.2243955E-001	0
5.4904155E+003	2.068019971113245E+001	-3.2419664E-001	-5.904774388030160E-002	1.9143081E-005	-3.2443956E-001	0
5.5412910E+003	2.088019970608002E+001	-3.2619098E-001	-5.886551967448206E-002	1.9201401E-005	-3.2643956E-001	0
5.5818843E+003	2.108019970102760E+001	-3.2819852E-001	-5.879708494866465E-002	1.9297117E-005	-3.2843953E-001	0
5.6316626E+003	2.128019969597517E+001	-3.3018950E-001	-5.863090634531845E-002	1.9359310E-005	-3.3043954E-001	0
5.6801011E+003	2.148019969092275E+001	-3.3217648E-001	-5.848073467238457E-002	1.9425925E-005	-3.3243954E-001	0
5.7204941E+003	2.168019968587032E+001	-3.3419949E-001	-5.842143569992664E-002	1.9524414E-005	-3.3443958E-001	0
5.7557505E+003	2.188019968081790E+001	-3.3620399E-001	-5.841184324582788E-002	1.9638295E-005	-3.3643958E-001	0
5.8035508E+003	2.208019967576547E+001	-3.3818948E-001	-5.827285510872238E-002	1.9707266E-005	-3.3843955E-001	0
5.8438740E+003	2.228019967071305E+001	-3.4019059E-001	-5.821319568063843E-002	1.9803581E-005	-3.4043956E-001	0
5.8887334E+003	2.248019966566062E+001	-3.4220368E-001	-5.811159390916049E-002	1.9886002E-005	-3.4243956E-001	0
5.9271904E+003	2.268019966060820E+001	-3.4418532E-001	-5.806888232341292E-002	1.9986457E-005	-3.4443957E-001	0
5.9659761E+003	2.288019965555577E+001	-3.4619793E-001	-5.802871706756169E-002	2.0089421E-005	-3.4643954E-001	0
6.0088013E+003	2.308019965050335E+001	-3.4820166E-001	-5.794860719430689E-002	2.0177802E-005	-3.4843954E-001	0
6.0500522E+003	2.328019964545092E+001	-3.5021532E-001	-5.788632700918805E-002	2.0272679E-005	-3.5043955E-001	0
6.0888594E+003	2.348019964039850E+001	-3.5218212E-001	-5.784041117380501E-002	2.0370358E-005	-3.5243955E-001	0
6.1235337E+003	2.368019963534607E+001	-3.5420787E-001	-5.784370446981035E-002	2.0488695E-005	-3.5443959E-001	0
6.1722251E+003	2.388019963029365E+001	-3.5619205E-001	-5.770885742157539E-002	2.0555437E-005	-3.5643956E-001	0
6.2077554E+003	2.408019962524122E+001	-3.5819709E-001	-5.770154984123033E-002	2.0668527E-005	-3.5843956E-001	0
6.2438999E+003	2.428019962018880E+001	-3.6020184E-001	-5.768860009648868E-002	2.0779540E-005	-3.6043960E-001	0
6.2841812E+003	2.448019961513637E+001	-3.6217946E-001	-5.763351825084873E-002	2.0873676E-005	-3.6243957E-001	0
6.3209531E+003	2.468019961008395E+001	-3.6417681E-001	-5.761422266362171E-002	2.0981764E-005	-3.6443955E-001	0
6.3560327E+003	2.488019960503152E+001	-3.6618283E-001	-5.761185624634599E-002	2.1096474E-005	-3.6643958E-001	0
6.3961797E+003	2.508019959997910E+001	-3.6818397E-001	-5.756310443288309E-002	2.1193813E-005	-3.6843956E-001	0
6.4263032E+003	2.528019959492667E+001	-3.7018704E-001	-5.760497808331799E-002	2.1324617E-005	-3.7043956E-001	0
6.4559985E+003	2.548019958987425E+001	-3.7217930E-001	-5.764860504300484E-002	2.1455617E-005	-3.7243956E-001	0
6.3339341E+003	2.568019958482182E+001	-3.7419343E-001	-5.907756799690506E-002	2.2106438E-005	-3.7443960E-001	0
6.4549531E+003	2.588019957976940E+001	-3.7619460E-001	-5.827998730634890E-002	2.1924616E-005	-3.7643957E-001	0
6.4952793E+003	2.608019957471697E+001	-3.7818065E-001	-5.822392414290167E-002	2.2019161E-005	-3.7843958E-001	0
6.5316064E+003	2.628019956966455E+001	-3.8016888E-001	-5.820449910975589E-002	2.2127540E-005	-3.8043958E-001	0
6.5659199E+003	2.648019956461212E+001	-3.8218468E-001	-5.820733183665427E-002	2.2245951E-005	-3.8243958E-001	0
6.5992974E+003	2.668019955955970E+001	-3.8417801E-001	-5.821498930760460E-002	2.2364919E-005	-3.8443956E-001	0
6.6174985E+003	2.688019955450727E+001	-3.8618681E-001	-5.835842839685057E-002	2.2537255E-005	-3.8643959E-001	0
6.6521421E+003	2.708019954945485E+001	-3.8819796E-001	-5.835683503327593E-002	2.2654005E-005	-3.8843957E-001	0
6.6944990E+003	2.728019954440242E+001	-3.9018717E-001	-5.828474582512932E-002	2.2741960E-005	-3.9043957E-001	0
6.7186860E+003	2.748019953935000E+001	-3.9218375E-001	-5.837209033515800E-002	2.2892586E-005	-3.9243957E-001	0
6.7464644E+003	2.768019953429757E+001	-3.9420271E-001	-5.843100918017641E-002	2.3033663E-005	-3.9443958E-001	0
6.7919072E+003	2.788019952924515E+001	-3.9619878E-001	-5.833394973498685E-002	2.3111839E-005	-3.9643958E-001	0
6.8097559E+003	2.808019952419272E+001	-3.9820439E-001	-5.847557422402994E-002	2.3285231E-005	-3.9843962E-001	0
6.7872466E+003	2.828019951914030E+001	-4.0020213E-001	-5.896383964524204E-002	2.3597453E-005	-4.0043956E-001	0
6.7841777E+003	2.848019951408787E+001	-4.0218952E-001	-5.928345962138248E-002	2.3843186E-005	-4.0243959E-001	0
6.8290825E+003	2.868019950903545E+001	-4.0419856E-001	-5.918782821681190E-002	2.3923634E-005	-4.0443957E-001	0
6.8636851E+003	2.888019950398302E+001	-4.0618312E-001	-5.917857674398186E-002	2.4037339E-005	-4.0643963E-001	0
6.8636304E+003	2.908019949893060E+001	-4.0820807E-001	-5.947407735025936E-002	2.4277799E-005	-4.0843958E-001	0
6.8935933E+003	2.928019949387817E+001	-4.1018525E-001	-5.950238545955287E-002	2.4407002E-005	-4.1043955E-001	0
6.9290933E+003	2.948019948882575E+001	-4.1221040E-001	-5.948980341933630E-002	2.4522316E-005	-4.1243958E-001	0
6.9524741E+003	2.968019948377332E+001	-4.1423088E-001	-5.958035421270513E-002	2.4680023E-005	-4.1443956E-001	0
6.9768984E+003	2.988019947872090E+001	-4.1623881E-001	-5.965957957290358E-002	2.4832632E-005	-4.1643959E-001	0
7.0106123E+003	3.008019947366847E+001	-4.1822636E-001	-5.965618172749143E-002	2.4949788E-005	-4.1843960E-001	0
7.0288003E+003	3.028019946861605E+001	-4.2021993E-001	-5.978544045381175E-002	2.5123034E-005	-4.2043960E-001	0
7.0566040E+003	3.048019946356362E+001	-4.2222172E-001	-5.983355664172943E-002	2.5263027E-005	-4.2243955E-001	0
7.0910806E+003	3.068019945851120E+001	-4.2422926E-001	-5.982575591341019E-002	2.5379837E-005	-4.2443958E-001	0
7.1039736E+003	3.088019945345877E+001	-4.2622665E-001	-5.999834081601542E-002	2.5572892E-005	-4.2643961E-001	0
7.1299941E+003	3.108019944840635E+001	-4.2824158E-001	-6.006198022894718E-002	2.5721038E-005	-4.2843959E-001	0
7.1574380E+003	3.128019944335392E+001	-4.3022147E-001	-6.010830713976634E-002	2.5859885E-005	-4.3043956E-001	0
7.1833179E+003	3.148019943830150E+001	-4.3220717E-001	-6.016817914750705E-002	2.6005118E-005	-4.3243960E-001	0
7.2027725E+003	3.168019943324907E+001	-4.3424186E-001	-6.028815541445953E-002	2.6179641E-005	-4.3443957E-001	0
7.2165303E+003	3.188019942819665E+001	-4.3621522E-001	-6.044667038713869E-002	2.6367758E-005	-4.3643957E-001	0
7.2234790E+003	3.208019942314422E+001	-4.3822867E-001	-6.066725788323316E-002	2.6586131E-005	-4.3843958E-001	0
7.2337954E+003	3.228019941809180E+001	-4.4023746E-001	-6.085843584065212E-002	2.6792164E-005	-4.4043961E-001	0
7.2392524E+003	3.248019941303937E+001	-4.4222635E-001	-6.108729586072781E-002	2.7014412E-005	-4.4243956E-001	0
7.2497632E+003	3.268019940798695E+001	-4.4422564E-001	-6.127450406623169E-002	2.7219705E-005	-4.4443959E-001	0
7.2644175E+003	3.288019940293452E+001	-4.4623330E-001	-6.142726668331933E-002	2.7410892E-005	-4.4643962E-001	0
7.2451455E+003	3.308019939788210E+001	-4.4823784E-001	-6.186733196981575E-002	2.7731279E-005	-4.4843960E-001	0
7.2275552E+003	3.328019939282967E+001	-4.5024052E-001	-6.229499731711246E-002	2.8047732E-005	-4.5043957E-001	0
7.2562969E+003	3.348019938777725E+001	-4.5224741E-001	-6.232482144163493E-002	2.8186239E-005	-4.5243961E-001	0
7.2513730E+003	3.368019938272482E+001	-4.5421612E-001	-6.263863541663128E-002	2.8451479E-005	-4.5443964E-001	0
7.2536958E+003	3.388019937767240E+001	-4.5622280E-001	-6.289522278823745E-002	2.8694234E-005	-4.5643958E-001	0
7.2813364E+003	3.408019937261997E+001	-4.5822847E-001	-6.293191972490630E-002	2.8837198E-005	-4.5843959E-001	0
7.3049775E+003	3.428019936756755E+001	-4.6021768E-001	-6.300056041609026E-002	2.8993973E-005	-4.6043959E-001	0
7.3212729E+003	3.448019936251512E+001	-4.6221527E-001	-6.313318629852593E-002	2.9181123E-005	-4.6243957E-001	0
7.3307178E+003	3.468019935746270E+001	-4.6422172E-001	-6.332554554042980E-002	2.9397093E-005	-4.6443960E-001	0
7.3267148E+003	3.488019935241027E+001	-4.6622753E-001	-6.363391340393454E-002	2.9667883E-005	-4.6643963E-001	0
7.3424126E+003	3.508019934735785E+001	-4.6820876E-001	-6.376770063083775E-002	2.9856596E-005	-4.6843961E-001	0
7.3596460E+003	3.528019934230542E+001	-4.7021711E-001	-6.389126901265621E-002	3.0042767E-005	-4.7043958E-001	0
7.3745557E+003	3.548019933725300E+001	-4.7221065E-001	-6.403242003820975E-002	3.0236790E-005	-4.7243959E-001	0
7.3862744E+003	3.568019933220057E+001	-4.7420734E-001	-6.420115560352335E-002	3.0444658E-005	-4.7443959E-001	0
7.3943735E+003	3.588019932714815E+001	-4.7620004E-001	-6.440032366082460E-002	3.0667437E-005	-4.7643960E-001	0
7.4152598E+003	3.608019932209572E+001	-4.7821605E-001	-6.449080174873267E-002	3.0840536E-005	-4.7843960E-001	0
7.4305044E+003	3.628019931704330E+001	-4.8020363E-001	-6.462598102306649E-002	3.1033629E-005	-4.8043960E-001	0
7.4456465E+003	3.648019931199087E+001	-4.8221689E-001	-6.476494605608629E-002	3.1230753E-005	-4.8243961E-001	0
7.4655493E+003	3.668019930693845E+001	-4.8422208E-001	-6.486087952014002E-002	3.1407071E-005	-4.8443955E-001	0
7.4810024E+003	3.688019930188602E+001	-4.8620820E-001	-6.499238526649265E-002	3.1599830E-005	-4.8643959E-001	0
7.4977212E+003	3.708019929683360E+001	-4.8820913E-001	-6.511433627994956E-002	3.1789412E-005	-4.8843962E-001	0
7.5153975E+003	3.728019929178117E+001	-4.9020988E-001	-6.522740369880148E-002	3.1975116E-005	-4.9043959E-001	0
7.5244429E+003	3.748019928672875E+001	-4.9221784E-001	-6.541585167046310E-002	3.2198848E-005	-4.9243957E-001	0
7.5454849E+003	3.768019928167632E+001	-4.9420202E-001	-6.549639149110709E-002	3.2368447E-005	-4.9443960E-001	0
7.5670991E+003	3.788019927662390E+001	-4.9622205E-001	-6.557625752468277E-002	3.2540385E-005	-4.9643961E-001	0
7.5792231E+003	3.808019927157147E+001	-4.9821725E-001	-6.573460911466056E-002	3.2750115E-005	-4.9843958E-001	0
7.5949604E+003	3.828019926651905E+001	-5.0020951E-001	-6.586071125035284E-002	3.2944154E-005	-5.0043964E-001	0
7.6229136E+003	3.848019926146662E+001	-5.0221390E-001	-6.588214607603113E-002	3.3086930E-005	-5.0243962E-001	0
7.6402305E+003	3.868019925641420E+001	-5.0420612E-001	-6.599357511474357E-002	3.3274366E-005	-5.0443959E-001	0
7.6592451E+003	3.888019925136177E+001	-5.0621587E-001	-6.609213577114637E-002	3.3456887E-005	-5.0643963E-001	0
7.6747104E+003	3.908019924630935E+001	-5.0820315E-001	-6.621789289036539E-002	3.3652141E-005	-5.0843960E-001	0
7.6937046E+003	3.928019924125692E+001	-5.1021111E-001	-6.631540270235003E-002	3.3834855E-005	-5.1043957E-001	0
7.7231187E+003	3.948019923620450E+001	-5.1221371E-001	-6.632213363299322E-002	3.3971104E-005	-5.1243955E-001	0
7.7413750E+003	3.968019923115207E+001	-5.1421982E-001	-6.642486845922402E-002	3.4156983E-005	-5.1443958E-001	0
7.7660039E+003	3.988019922609965E+001	-5.1623237E-001	-6.647335974311641E-002	3.4315701E-005	-5.1643962E-001	0
7.7895454E+003	4.008019922104722E+001	-5.1819921E-001	-6.652495987732339E-002	3.4473182E-005	-5.1843953E-001	0
7.8089429E+003	4.028019921599480E+001	-5.2022475E-001	-6.661909862206050E-002	3.4656903E-005	-5.2043957E-001	0
7.8461445E+003	4.048019921094237E+001	-5.2221996E-001	-6.655752621200409E-002	3.4757668E-005	-5.2243966E-001	0
7.8661274E+003	4.068019920588995E+001	-5.2422756E-001	-6.664366284469797E-002	3.4936445E-005	-5.2443957E-001	0
7.9002227E+003	4.088019920083752E+001	-5.2621293E-001	-6.660735583494587E-002	3.5049652E-005	-5.2643961E-001	0
7.9287783E+003	4.108019919578510E+001	-5.2822620E-001	-6.662138380731153E-002	3.5191159E-005	-5.2843958E-001	0
7.9569277E+003	4.128019919073267E+001	-5.3021252E-001	-6.663533353485385E-002	3.5330890E-005	-5.3043967E-001	0
7.9958140E+003	4.148019918568025E+001	-5.3219754E-001	-6.655951794353077E-002	3.5422810E-005	-5.3243959E-001	0
8.0246030E+003	4.168019918062782E+001	-5.3422016E-001	-6.657278427459268E-002	3.5564524E-005	-5.3443956E-001	0
8.0572842E+003	4.188019917557540E+001	-5.3622556E-001	-6.655164978513417E-002	3.5686695E-005	-5.3643966E-001	0
8.0904004E+003	4.208019917052297E+001	-5.3822142E-001	-6.652592992369932E-002	3.5805679E-005	-5.3843957E-001	0
8.1248354E+003	4.228019916547055E+001	-5.4022658E-001	-6.649077169347950E-002	3.5920082E-005	-5.4043961E-001	0
8.1611167E+003	4.248019916041812E+001	-5.4221606E-001	-6.643895627381691E-002	3.6024270E-005	-5.4243964E-001	0
8.1991768E+003	4.268019915536570E+001	-5.4422849E-001	-6.637599458970778E-002	3.6123707E-005	-5.4443961E-001	0
8.2398057E+003	4.288019915031327E+001	-5.4621416E-001	-6.628969185848355E-002	3.6208370E-005	-5.4643959E-001	0
8.2757275E+003	4.308019914526085E+001	-5.4821748E-001	-6.624402324700740E-002	3.6316131E-005	-5.4843956E-001	0
8.3147295E+003	4.328019914020842E+001	-5.5022776E-001	-6.617506554871866E-002	3.6411358E-005	-5.5043966E-001	0
8.3574814E+003	4.348019913515600E+001	-5.5221510E-001	-6.607434061110912E-002	3.6487250E-005	-5.5243957E-001	0
8.3986279E+003	4.368019913010357E+001	-5.5421758E-001	-6.598906250155251E-002	3.6572299E-005	-5.5443954E-001	0
8.4460752E+003	4.388019912505115E+001	-5.5623442E-001	-6.585715062094755E-002	3.6632013E-005	-5.5643964E-001	0
8.4844951E+003	4.408019911999872E+001	-5.5821204E-001	-6.579201609844487E-002	3.6725894E-005	-5.5843955E-001	0
8.5347188E+003	4.428019911494630E+001	-5.6022954E-001	-6.564124149973627E-002	3.6774163E-005	-5.6043959E-001	0
8.5795752E+003	4.448019910989387E+001	-5.6221098E-001	-6.552900281014640E-002	3.6841124E-005	-5.6243956E-001	0
8.6287939E+003	4.468019910484145E+001	-5.6422210E-001	-6.538829446639327E-002	3.6893522E-005	-5.6443965E-001	0
8.6729941E+003	4.488019909978902E+001	-5.6622392E-001	-6.528586354697974E-002	3.6966416E-005	-5.6643957E-001	0
8.7259746E+003	4.508019909473660E+001	-5.6820279E-001	-6.511625509271946E-002	3.6999238E-005	-5.6843960E-001	0
8.7766436E+003	4.528019908968417E+001	-5.7020497E-001	-6.496845407394591E-002	3.7045334E-005	-5.7043964E-001	0
8.8300811E+003	4.548019908463175E+001	-5.7220131E-001	-6.480136624053789E-002	3.7079426E-005	-5.7243961E-001	0
8.8850713E+003	4.568019907957932E+001	-5.7421708E-001	-6.462717746318963E-002	3.7110029E-005	-5.7443959E-001	0
8.9359795E+003	4.588019907452690E+001	-5.7619387E-001	-6.448021427466366E-002	3.7153106E-005	-5.7643962E-001	0
8.9873672E+003	4.608019906947447E+001	-5.7819521E-001	-6.433421444906001E-002	3.7197737E-005	-5.7843959E-001	0
9.0360742E+003	4.628019906442205E+001	-5.8020610E-001	-6.420997473149354E-002	3.7255020E-005	-5.8043963E-001	0
9.1008428E+003	4.648019905936962E+001	-5.8219153E-001	-6.397116437074990E-002	3.7243470E-005	-5.8243960E-001	0
9.1515879E+003	4.668019905431720E+001	-5.8421350E-001	-6.383738790104443E-002	3.7294663E-005	-5.8443964E-001	0
9.2085059E+003	4.688019904926477E+001	-5.8620727E-001	-6.365932747742820E-002	3.7317561E-005	-5.8643961E-001	0
9.2654600E+003	4.708019904421235E+001	-5.8822006E-001	-6.348525070429023E-002	3.7343299E-005	-5.8843958E-001	0
9.3246465E+003	4.728019903915992E+001	-5.9020710E-001	-6.329538632562282E-002	3.7357386E-005	-5.9043962E-001	0
9.3876455E+003	4.748019903410750E+001	-5.9222007E-001	-6.308504829527439E-002	3.7360231E-005	-5.9243959E-001	0
9.4438320E+003	4.768019902905507E+001	-5.9421980E-001	-6.292147024496619E-002	3.7389185E-005	-5.9443957E-001	0
9.5022051E+003	4.788019902400265E+001	-5.9620547E-001	-6.274390996955431E-002	3.7408263E-005	-5.9643960E-001	0
9.5696426E+003	4.808019901895022E+001	-5.9820086E-001	-6.251026000806437E-002	3.7393693E-005	-5.9843963E-001	0
9.6248447E+003	4.828019901389780E+001	-6.0022271E-001	-6.236180899054444E-002	3.7430975E-005	-6.0043955E-001	0
9.6808584E+003	4.848019900884537E+001	-6.0221416E-001	-6.220669217741370E-002	3.7461752E-005	-6.0243958E-001	0
9.7498887E+003	4.868019900379295E+001	-6.0423344E-001	-6.197336864870984E-002	3.7446382E-005	-6.0443962E-001	0
9.8103594E+003	4.888019899874053E+001	-6.0621822E-001	-6.179367930548119E-002	3.7460453E-005	-6.0643959E-001	0
9.8744639E+003	4.908019899368810E+001	-6.0821027E-001	-6.159425760638371E-002	3.7462261E-005	-6.0843956E-001	0
9.9353896E+003	4.928019898863568E+001	-6.1021608E-001	-6.141843509389378E-002	3.7478516E-005	-6.1043960E-001	0
1.0000970E+004	4.948019898358325E+001	-6.1221755E-001	-6.121581569240053E-002	3.7477395E-005	-6.1243963E-001	0
1.0063546E+004	4.968019897853083E+001	-6.1422044E-001	-6.103419918459232E-002	3.7488451E-005	-6.1443961E-001	0
1.0124776E+004	4.988019897347840E+001	-6.1621690E-001	-6.086227171441927E-002	3.7504360E-005	-6.1643958E-001	0
1.0185979E+004	5.008019896842598E+001	-6.1822605E-001	-6.069382683473248E-002	3.7522506E-005	-6.1843961E-001	0
1.0248726E+004	5.028019896337355E+001	-6.2021428E-001	-6.051623689796326E-002	3.7533035E-005	-6.2043965E-001	0
1.0316035E+004	5.048019895832113E+001	-6.2222451E-001	-6.031624581284635E-002	3.7530248E-005	-6.2243956E-001	0
1.0382035E+004	5.068019895326870E+001	-6.2422699E-001	-6.012568842353561E-002	3.7532078E-005	-6.2443960E-001	0
1.0434477E+004	5.088019894821628E+001	-6.2621182E-001	-6.001372826855866E-002	3.7581307E-005	-6.2643963E-001	0
1.0500068E+004	5.108019894316385E+001	-6.2820828E-001	-5.982897025976511E-002	3.7585054E-005	-6.2843955E-001	0
1.0559120E+004	5.128019893811143E+001	-6.3023365E-001	-5.968619077181325E-002	3.7616246E-005	-6.3043958E-001	0
1.0631858E+004	5.148019893305900E+001	-6.3221741E-001	-5.946442807070040E-002	3.7594447E-005	-6.3243967E-001	0
1.0681610E+004	5.168019892800658E+001	-6.3423276E-001	-5.937613927402313E-002	3.7658294E-005	-6.3443965E-001	0
1.0764041E+004	5.188019892295415E+001	-6.3624412E-001	-5.910829554444985E-002	3.7607304E-005	-6.3643956E-001	0
1.0813853E+004	5.208019891790173E+001	-6.3822454E-001	-5.901916698096506E-002	3.7667480E-005	-6.3843960E-001	0
1.0877854E+004	5.228019891284930E+001	-6.4022684E-001	-5.885598237220779E-002	3.7681180E-005	-6.4043963E-001	0
1.0942699E+004	5.248019890779688E+001	-6.4223856E-001	-5.869105254941953E-002	3.7693659E-005	-6.4243960E-001	0
1.0996475E+004	5.268019890274445E+001	-6.4423335E-001	-5.858544237455542E-002	3.7742695E-005	-6.4443958E-001	0
1.1059598E+004	5.288019889769203E+001	-6.4622301E-001	-5.843096695335626E-002	3.7759437E-005	-6.4643967E-001	0
1.1124046E+004	5.308019889263960E+001	-6.4824283E-001	-5.827401682381828E-002	3.7775713E-005	-6.4843959E-001	0
1.1193569E+004	5.328019888758718E+001	-6.5023404E-001	-5.808996625377694E-002	3.7772075E-005	-6.5043962E-001	0
1.1228882E+004	5.348019888253475E+001	-6.5223521E-001	-5.808549825906717E-002	3.7885406E-005	-6.5243959E-001	0
1.1285481E+004	5.368019887748233E+001	-6.5422487E-001	-5.797048956694301E-002	3.7925736E-005	-6.5443963E-001	0
1.1349474E+004	5.388019887242990E+001	-6.5623516E-001	-5.782075842014611E-002	3.7944013E-005	-6.5643960E-001	0
1.1393633E+004	5.408019886737748E+001	-6.5821528E-001	-5.777044988780060E-002	3.8025391E-005	-6.5843958E-001	0
1.1461314E+004	5.428019886232505E+001	-6.6023809E-001	-5.760578878378064E-002	3.8033537E-005	-6.6043967E-001	0
1.1523646E+004	5.448019885727263E+001	-6.6222078E-001	-5.746625937297578E-002	3.8055350E-005	-6.6243958E-001	0
1.1586425E+004	5.468019885222020E+001	-6.6423351E-001	-5.732859827128267E-002	3.8079575E-005	-6.6443956E-001	0
1.1633760E+004	5.488019884716778E+001	-6.6624433E-001	-5.726818527230182E-002	3.8154605E-005	-6.6643965E-001	0
1.1701699E+004	5.508019884211535E+001	-6.6824239E-001	-5.710644187044572E-002	3.8160946E-005	-6.6843957E-001	0
1.1760587E+004	5.528019883706293E+001	-6.7022532E-001	-5.698910580584771E-002	3.8195543E-005	-6.7043960E-001	0
1.1824950E+004	5.548019883201050E+001	-6.7222726E-001	-5.684821050542321E-002	3.8214916E-005	-6.7243958E-001	0
1.1872832E+004	5.568019882695808E+001	-6.7421848E-001	-5.678666154209877E-002	3.8286616E-005	-6.7443967E-001	0
1.1918101E+004	5.588019882190565E+001	-6.7622644E-001	-5.673944645628864E-002	3.8368715E-005	-6.7643958E-001	0
1.1970982E+004	5.608019881685323E+001	-6.7823946E-001	-5.665695921004754E-002	3.8426984E-005	-6.7843956E-001	0
1.2026688E+004	5.628019881180080E+001	-6.8023044E-001	-5.656008354267800E-002	3.8473889E-005	-6.8043965E-001	0
1.2072084E+004	5.648019880674838E+001	-6.8223310E-001	-5.651328382040030E-002	3.8555234E-005	-6.8243957E-001	0
1.2127105E+004	5.668019880169595E+001	-6.8421757E-001	-5.642051887835720E-002	3.8603910E-005	-6.8443960E-001	0
1.2174304E+004	5.688019879664353E+001	-6.8621147E-001	-5.636556252949121E-002	3.8678696E-005	-6.8643957E-001	0
1.2216564E+004	5.708019879159110E+001	-6.8821704E-001	-5.633474699044172E-002	3.8770533E-005	-6.8843961E-001	0
1.2262363E+004	5.728019878653868E+001	-6.9021976E-001	-5.628766095827495E-002	3.8850856E-005	-6.9043964E-001	0
1.2307882E+004	5.748019878148625E+001	-6.9221789E-001	-5.624183777628944E-002	3.8931605E-005	-6.9243962E-001	0
1.2345691E+004	5.768019877643383E+001	-6.9422030E-001	-5.623178735751322E-002	3.9037248E-005	-6.9443965E-001	0
1.2401544E+004	5.788019877138140E+001	-6.9622111E-001	-5.613987289987876E-002	3.9085764E-005	-6.9643962E-001	0
1.2445024E+004	5.808019876632898E+001	-6.9821483E-001	-5.610393489660315E-002	3.9172599E-005	-6.9843960E-001	0
1.2470552E+004	5.828019876127655E+001	-7.0021600E-001	-5.614955942706112E-002	3.9316819E-005	-7.0043963E-001	0
1.2532233E+004	5.848019875622413E+001	-7.0221710E-001	-5.603287848929062E-002	3.9347247E-005	-7.0243967E-001	0
1.2554907E+004	5.868019875117170E+001	-7.0421404E-001	-5.609073790578012E-002	3.9499886E-005	-7.0443964E-001	0
1.2581030E+004	5.888019874611928E+001	-7.0622945E-001	-5.613446872905226E-002	3.9643815E-005	-7.0643961E-001	0
1.2626519E+004	5.908019874106685E+001	-7.0822388E-001	-5.609019489245080E-002	3.9724415E-005	-7.0843971E-001	0
1.2665420E+004	5.928019873601443E+001	-7.1021819E-001	-5.607537738714863E-002	3.9825754E-005	-7.1043968E-001	0
1.2710994E+004	5.948019873096200E+001	-7.1221852E-001	-5.603169362259253E-002	3.9906809E-005	-7.1243954E-001	0
1.2741382E+004	5.968019872590958E+001	-7.1421075E-001	-5.605441808770217E-002	4.0034669E-005	-7.1443963E-001	0
1.2761763E+004	5.988019872085715E+001	-7.1620345E-001	-5.612104379333320E-002	4.0194085E-005	-7.1643960E-001	0
1.2793066E+004	6.008019871580473E+001	-7.1820945E-001	-5.614052389858210E-002	4.0320654E-005	-7.1843958E-001	0
1.2816262E+004	6.028019871075230E+001	-7.2020060E-001	-5.619427910161168E-002	4.0471154E-005	-7.2043961E-001	0
1.2849896E+004	6.048019870569988E+001	-7.2221321E-001	-5.620381318121448E-002	4.0591138E-005	-7.2243965E-001	0
1.2875750E+004	6.068019870064745E+001	-7.2420990E-001	-5.624603729086886E-002	4.0733936E-005	-7.2443962E-001	0
1.2886456E+004	6.088019869559503E+001	-7.2620898E-001	-5.635443852069755E-002	4.0925101E-005	-7.2643960E-001	0
1.2919487E+004	6.108019869054260E+001	-7.2819972E-001	-5.636444254018064E-002	4.1044572E-005	-7.2843969E-001	0
1.2933707E+004	6.128019868549018E+001	-7.3021275E-001	-5.645811771329834E-002	4.1226438E-005	-7.3043960E-001	0
1.2955936E+004	6.148019868043775E+001	-7.3220122E-001	-5.651473344827412E-002	4.1380157E-005	-7.3243958E-001	0
1.2963740E+004	6.168019867538533E+001	-7.3421532E-001	-5.663607324063868E-002	4.1583073E-005	-7.3443961E-001	0
1.3006771E+004	6.188019867033290E+001	-7.3622578E-001	-5.660327290218592E-002	4.1672789E-005	-7.3643965E-001	0
1.3012307E+004	6.208019866528048E+001	-7.3821574E-001	-5.673211906369269E-002	4.1880543E-005	-7.3843962E-001	0
1.3027015E+004	6.228019866022805E+001	-7.4021119E-001	-5.682124403810107E-002	4.2059721E-005	-7.4043959E-001	0
1.3035221E+004	6.248019865517563E+001	-7.4220580E-001	-5.693849324683753E-002	4.2260079E-005	-7.4243969E-001	0
1.3061613E+004	6.268019865012320E+001	-7.4422789E-001	-5.697824996199174E-002	4.2404801E-005	-7.4443966E-001	0
1.3069948E+004	6.288019864507078E+001	-7.4621826E-001	-5.709420088752498E-002	4.2604737E-005	-7.4643964E-001	0
1.3078115E+004	6.308019864001835E+001	-7.4822819E-001	-5.721223487596871E-002	4.2807806E-005	-7.4843961E-001	0
1.3074824E+004	6.328019863496593E+001	-7.5021875E-001	-5.737887840832079E-002	4.3046712E-005	-7.5043970E-001	0
1.3088108E+004	6.348019862991350E+001	-7.5219601E-001	-5.747171395401274E-002	4.3229993E-005	-7.5243956E-001	0
1.3100404E+004	6.368019862486108E+001	-7.5420654E-001	-5.757124144362202E-002	4.3420605E-005	-7.5443965E-001	0
1.3110186E+004	6.388019861980865E+001	-7.5619459E-001	-5.767993031116059E-002	4.3617252E-005	-7.5643963E-001	0
1.3106071E+004	6.408019861475623E+001	-7.5821334E-001	-5.785206899462914E-002	4.3864209E-005	-7.5843960E-001	0
1.3099792E+004	6.428019860970380E+001	-7.6023054E-001	-5.803378879846566E-002	4.4119060E-005	-7.6043957E-001	0
1.3108614E+004	6.448019860465138E+001	-7.6219684E-001	-5.814473196450232E-002	4.4317730E-005	-7.6243967E-001	0
1.3106674E+004	6.468019859959895E+001	-7.6423270E-001	-5.830866817697491E-002	4.4561391E-005	-7.6443964E-001	0
1.3097537E+004	6.488019859454653E+001	-7.6623070E-001	-5.850189245493875E-002	4.4825945E-005	-7.6643956E-001	0
1.3089643E+004	6.508019858949410E+001	-7.6821256E-001	-5.868858304413260E-002	4.5085308E-005	-7.6843965E-001	0
1.3083451E+004	6.528019858444168E+001	-7.7022314E-001	-5.887002709782019E-002	4.5343058E-005	-7.7043968E-001	0
1.3053994E+004	6.548019857938925E+001	-7.7221328E-001	-5.915532499507448E-002	4.5680528E-005	-7.7243960E-001	0
1.3056982E+004	6.568019857433683E+001	-7.7420348E-001	-5.929421197544865E-002	4.5905785E-005	-7.7443957E-001	0
1.3032743E+004	6.588019856928440E+001	-7.7622491E-001	-5.955959636086572E-002	4.6231642E-005	-7.7643967E-001	0
1.3016731E+004	6.608019856423198E+001	-7.7821708E-001	-5.978590754534441E-002	4.6526413E-005	-7.7843964E-001	0
1.2988693E+004	6.628019855917955E+001	-7.8022140E-001	-6.006927512081384E-002	4.6867335E-005	-7.8043962E-001	0
1.2960812E+004	6.648019855412713E+001	-7.8221542E-001	-6.035234970346814E-002	4.7208538E-005	-7.8243965E-001	0
1.2951748E+004	6.668019854907470E+001	-7.8421426E-001	-6.054891378654692E-002	4.7483321E-005	-7.8443968E-001	0
1.2910808E+004	6.688019854402228E+001	-7.8619552E-001	-6.089437245063989E-002	4.7874884E-005	-7.8643966E-001	0
1.2864066E+004	6.708019853896985E+001	-7.8821021E-001	-6.127224178813689E-002	4.8295406E-005	-7.8843963E-001	0
1.2850616E+004	6.728019853391743E+001	-7.9020011E-001	-6.149122326596801E-002	4.8590373E-005	-7.9043972E-001	0
1.2796208E+004	6.748019852886500E+001	-7.9220068E-001	-6.190902056370995E-002	4.9044367E-005	-7.9243958E-001	0
1.2741104E+004	6.768019852381258E+001	-7.9420823E-001	-6.233433055503479E-002	4.9506438E-005	-7.9443967E-001	0
1.2705976E+004	6.788019851876015E+001	-7.9621083E-001	-6.266427981612299E-002	4.9893977E-005	-7.9643965E-001	0
1.2660172E+004	6.808019851370773E+001	-7.9822350E-001	-6.304997229914858E-002	5.0327970E-005	-7.9843962E-001	0
1.2609413E+004	6.828019850865530E+001	-8.0021173E-001	-6.346145500967526E-002	5.0782601E-005	-8.0043972E-001	0
1.2542095E+004	6.848019850360288E+001	-8.0219603E-001	-6.396029040042095E-002	5.1308692E-005	-8.0243963E-001	0
1.2483090E+004	6.868019849855045E+001	-8.0419910E-001	-6.442308179820855E-002	5.1808984E-005	-8.0443972E-001	0
1.2439709E+004	6.888019849349803E+001	-8.0620646E-001	-6.480911228269359E-002	5.2249525E-005	-8.0643964E-001	0
1.2350138E+004	6.908019848844560E+001	-8.0821949E-001	-6.544214357725442E-002	5.2891617E-005	-8.0843955E-001	0
1.2304148E+004	6.928019848339318E+001	-8.1021363E-001	-6.584881736248582E-002	5.3351610E-005	-8.1043971E-001	0
1.2249999E+004	6.948019847834075E+001	-8.1221992E-001	-6.630367189413455E-002	5.3853164E-005	-8.1243968E-001	0
1.2173437E+004	6.968019847328833E+001	-8.1421006E-001	-6.688415815118187E-002	5.4457756E-005	-8.1443965E-001	0
1.2088726E+004	6.988019846823590E+001	-8.1621903E-001	-6.751903157592537E-002	5.5110318E-005	-8.1643963E-001	0
1.2019555E+004	7.008019846318348E+001	-8.1821173E-001	-6.807338290102360E-002	5.5698441E-005	-8.1843966E-001	0
1.1951554E+004	7.028019845813105E+001	-8.2020867E-001	-6.862778464213970E-002	5.6289104E-005	-8.2043964E-001	0
1.1855738E+004	7.048019845307863E+001	-8.2224101E-001	-6.935384081805410E-002	5.7025572E-005	-8.2243961E-001	0
1.1793188E+004	7.068019844802620E+001	-8.2422286E-001	-6.988974646274460E-002	5.7604728E-005	-8.2443970E-001	0
1.1707443E+004	7.088019844297378E+001	-8.2621706E-001	-7.057194267198974E-002	5.8307742E-005	-8.2643968E-001	0
1.1630014E+004	7.108019843792135E+001	-8.2819974E-001	-7.121227585231193E-002	5.8977988E-005	-8.2843965E-001	0
1.1552174E+004	7.128019843286893E+001	-8.3021468E-001	-7.186653383937813E-002	5.9664650E-005	-8.3043963E-001	0
1.1473931E+004	7.148019842781650E+001	-8.3220351E-001	-7.252994179831226E-002	6.0359671E-005	-8.3243960E-001	0
1.1382411E+004	7.168019842276408E+001	-8.3422202E-001	-7.329045122440747E-002	6.1140505E-005	-8.3443969E-001	0
1.1284317E+004	7.188019841771165E+001	-8.3621985E-001	-7.410460033521571E-002	6.1967738E-005	-8.3643961E-001	0
1.1202186E+004	7.208019841265923E+001	-8.3820271E-001	-7.482492824057585E-002	6.2718456E-005	-8.3843976E-001	0
1.1119348E+004	7.228019840760680E+001	-8.4023398E-001	-7.556503967491801E-002	6.3492313E-005	-8.4043974E-001	0
1.1025734E+004	7.248019840255438E+001	-8.4222084E-001	-7.638682170545086E-002	6.4334570E-005	-8.4243959E-001	0
1.0929179E+004	7.268019839750195E+001	-8.4423190E-001	-7.724568226201482E-002	6.5213266E-005	-8.4443969E-001	0
1.0835282E+004	7.288019839244953E+001	-8.4622437E-001	-7.809896867768729E-002	6.6089247E-005	-8.4643966E-001	0
1.0731437E+004	7.308019838739710E+001	-8.4822482E-001	-7.904112878595537E-002	6.7044646E-005	-8.4843963E-001	0
1.0623918E+004	7.328019838234468E+001	-8.5023290E-001	-8.003006656516876E-002	6.8044195E-005	-8.5043967E-001	0
1.0505271E+004	7.348019837729225E+001	-8.5221255E-001	-8.112238375987449E-002	6.9133515E-005	-8.5243970E-001	0
1.0400722E+004	7.368019837223983E+001	-8.5421669E-001	-8.213051917694503E-002	7.0157257E-005	-8.5443968E-001	0
1.0268753E+004	7.388019836718740E+001	-8.5622537E-001	-8.338163016773670E-002	7.1393464E-005	-8.5643965E-001	0
1.0154820E+004	7.408019836213498E+001	-8.5822773E-001	-8.451432025518288E-002	7.2532530E-005	-8.5843968E-001	0
1.0013521E+004	7.428019835708255E+001	-8.6022425E-001	-8.590627636638026E-002	7.3898664E-005	-8.6043966E-001	0
9.8815342E+003	7.448019835203013E+001	-8.6223799E-001	-8.725750547318456E-002	7.5236734E-005	-8.6243963E-001	0
9.7248213E+003	7.468019834697770E+001	-8.6421347E-001	-8.886676898243029E-002	7.6799857E-005	-8.6443961E-001	0
9.4319531E+003	7.488019834192528E+001	-8.6621606E-001	-9.183846504212079E-002	7.9551952E-005	-8.6643970E-001	0
9.3294404E+003	7.508019833687285E+001	-8.6822891E-001	-9.306334496619351E-002	8.0800288E-005	-8.6843967E-001	0
9.1752012E+003	7.528019833182043E+001	-8.7020892E-001	-9.484357869119542E-002	8.2533727E-005	-8.7043965E-001	0
8.9922275E+003	7.548019832676800E+001	-8.7222499E-001	-9.699765135863547E-002	8.4603773E-005	-8.7243974E-001	0
8.8261045E+003	7.568019832171558E+001	-8.7421894E-001	-9.904923679332445E-002	8.6590720E-005	-8.7443972E-001	0
8.6239844E+003	7.588019831666315E+001	-8.7622833E-001	-1.016036519071177E-001	8.9027999E-005	-8.7643957E-001	0
8.4176094E+003	7.608019831161073E+001	-8.7819934E-001	-1.043288334443865E-001	9.1621514E-005	-8.7843966E-001	0
8.2025947E+003	7.628019830655830E+001	-8.8019902E-001	-1.073073849320632E-001	9.4451854E-005	-8.8043976E-001	0
7.9710933E+003	7.648019830150588E+001	-8.8221067E-001	-1.106762468462170E-001	9.7639764E-005	-8.8243961E-001	0
7.7290596E+003	7.668019829645345E+001	-8.8419414E-001	-1.143986726868175E-001	1.0115063E-004	-8.8443965E-001	0
7.4781572E+003	7.688019829140103E+001	-8.8621187E-001	-1.185067220582555E-001	1.0502207E-004	-8.8643968E-001	0
7.2048740E+003	7.708019828634860E+001	-8.8821203E-001	-1.232793237528256E-001	1.0949818E-004	-8.8843966E-001	0
6.9259380E+003	7.728019828129618E+001	-8.9021033E-001	-1.285328141977495E-001	1.1442124E-004	-8.9043963E-001	0
6.6269497E+003	7.748019827624375E+001	-8.9219558E-001	-1.346314109844954E-001	1.2011755E-004	-8.9243966E-001	0
6.3140532E+003	7.768019827119133E+001	-8.9420974E-001	-1.416221390607137E-001	1.2663989E-004	-8.9443970E-001	0
5.9906860E+003	7.788019826613890E+001	-8.9621454E-001	-1.496013255352720E-001	1.3407489E-004	-8.9643961E-001	0
5.6591997E+003	7.808019826108648E+001	-8.9821428E-001	-1.587175436322149E-001	1.4256236E-004	-8.9843965E-001	0
5.3306416E+003	7.828019825603405E+001	-9.0020925E-001	-1.688744725074516E-001	1.5202236E-004	-9.0043974E-001	0
4.9979824E+003	7.848019825098163E+001	-9.0221673E-001	-1.805161809603648E-001	1.6286472E-004	-9.0243965E-001	0
4.6315273E+003	7.868019824592920E+001	-9.0421170E-001	-1.952296999587242E-001	1.7652898E-004	-9.0443969E-001	0
4.2721279E+003	7.888019824087678E+001	-9.0622187E-001	-2.121242234724114E-001	1.9223162E-004	-9.0643972E-001	0
3.9791133E+003	7.908019823582435E+001	-9.0820998E-001	-2.282443137928132E-001	2.0729376E-004	-9.0843976E-001	0
3.6859370E+003	7.928019823077193E+001	-9.1022450E-001	-2.469452058668349E-001	2.2477558E-004	-9.1043967E-001	0
3.4102334E+003	7.948019822571951E+001	-9.1221094E-001	-2.674922249142648E-001	2.4400934E-004	-9.1243964E-001	0
3.1518918E+003	7.968019822066708E+001	-9.1420794E-001	-2.900505377942710E-001	2.6516651E-004	-9.1443974E-001	0
2.8692146E+003	7.988019821561466E+001	-9.1621214E-001	-3.193250591116967E-001	2.9256949E-004	-9.1643959E-001	0
2.6614785E+003	8.008019821056223E+001	-9.1821516E-001	-3.450019160610811E-001	3.1678600E-004	-9.1843963E-001	0
2.4736536E+003	8.028019820550981E+001	-9.2021328E-001	-3.720057106655013E-001	3.4232461E-004	-9.2043966E-001	0
2.3009182E+003	8.048019820045738E+001	-9.2224050E-001	-4.008141331302841E-001	3.6964702E-004	-9.2243963E-001	0
2.1054146E+003	8.068019819540496E+001	-9.2422307E-001	-4.389743770086243E-001	4.0571025E-004	-9.2443961E-001	0
1.9754612E+003	8.088019819035253E+001	-9.2621982E-001	-4.688625872903884E-001	4.3426981E-004	-9.2643970E-001	0
1.8501451E+003	8.108019818530011E+001	-9.2820972E-001	-5.016956131803934E-001	4.6567875E-004	-9.2843968E-001	0
1.7067858E+003	8.128019818024768E+001	-9.3022287E-001	-5.450144222390545E-001	5.0698488E-004	-9.3043965E-001	0
1.6029335E+003	8.148019817519526E+001	-9.3223941E-001	-5.815833254575788E-001	5.4217491E-004	-9.3243968E-001	0
1.5046860E+003	8.168019817014283E+001	-9.3422168E-001	-6.208748264943598E-001	5.8003474E-004	-9.3443972E-001	0
1.3924869E+003	8.188019816509041E+001	-9.3625343E-001	-6.723606456240061E-001	6.2949996E-004	-9.3643963E-001	0
1.3111108E+003	8.208019816003798E+001	-9.3822950E-001	-7.155989112919539E-001	6.7139603E-004	-9.3843967E-001	0
1.2145054E+003	8.228019815498556E+001	-9.4022620E-001	-7.741638568151874E-001	7.2788913E-004	-9.4043970E-001	0
1.1430942E+003	8.248019814993313E+001	-9.4220233E-001	-8.242560361940647E-001	7.7661598E-004	-9.4243973E-001	0
1.0608774E+003	8.268019814488071E+001	-9.4419873E-001	-8.900168334511918E-001	8.4035279E-004	-9.4443965E-001	0
9.9657312E+002	8.288019813982828E+001	-9.4620115E-001	-9.494548038729480E-001	8.9837523E-004	-9.4643962E-001	0
9.2965326E+002	8.308019813477586E+001	-9.4821239E-001	-1.019963499344458E+000	9.6714200E-004	-9.4843972E-001	0
8.6892877E+002	8.329019812947081E+001	-9.5028090E-001	-1.093623493738743E+000	1.0392495E-003	-9.5053977E-001	0
8.1625372E+002	8.350019812416576E+001	-9.5237619E-001	-1.166764873648042E+000	1.1111990E-003	-9.5263970E-001	0
7.6689270E+002	8.370019811911334E+001	-9.5438081E-001	-1.244477658602246E+000	1.1877056E-003	-9.5463973E-001	0
7.2203595E+002	8.390019811406091E+001	-9.5638394E-001	-1.324565555596230E+000	1.2667932E-003	-9.5663965E-001	0
6.8346765E+002	8.410019810900849E+001	-9.5837945E-001	-1.402230829802978E+000	1.3438693E-003	-9.5863968E-001	0
6.4736615E+002	8.430019810395606E+001	-9.6038347E-001	-1.483524457143957E+000	1.4247524E-003	-9.6063972E-001	0
6.1276825E+002	8.450019809890364E+001	-9.6237910E-001	-1.570543357760329E+000	1.5114581E-003	-9.6263975E-001	0
5.8151416E+002	8.470019809385121E+001	-9.6438450E-001	-1.658402368899381E+000	1.5993376E-003	-9.6463966E-001	0
5.5410382E+002	8.490019808879879E+001	-9.6638656E-001	-1.744053319704779E+000	1.6854297E-003	-9.6663964E-001	0
5.2835327E+002	8.510019808374636E+001	-9.6839052E-001	-1.832846618141311E+000	1.7749113E-003	-9.6863973E-001	0
5.0426791E+002	8.530019807869394E+001	-9.7040302E-001	-1.924379802581402E+000	1.8674240E-003	-9.7063959E-001	0
4.8277289E+002	8.550019807364151E+001	-9.7239524E-001	-2.014187760718688E+000	1.9585865E-003	-9.7263962E-001	0
4.6186307E+002	8.570019806858909E+001	-9.7437084E-001	-2.109653059350933E+000	2.0555845E-003	-9.7463965E-001	0
4.4297586E+002	8.590019806353666E+001	-9.7637093E-001	-2.204117753997000E+000	2.1520364E-003	-9.7663963E-001	0
4.2526794E+002	8.610019805848424E+001	-9.7838086E-001	-2.300622190443836E+000	2.2508847E-003	-9.7863972E-001	0
4.0887897E+002	8.630019805343181E+001	-9.8038638E-001	-2.397742303861246E+000	2.3507138E-003	-9.8063970E-001	0
3.9350345E+002	8.650019804837939E+001	-9.8236632E-001	-2.496461828938287E+000	2.4524401E-003	-9.8263967E-001	0
3.7913440E+002	8.670019804332696E+001	-9.8436993E-001	-2.596361337301410E+000	2.5557801E-003	-9.8463964E-001	0
3.6579889E+002	8.690019803827454E+001	-9.8636615E-001	-2.696471255956858E+000	2.6597080E-003	-9.8663968E-001	0
3.5329825E+002	8.710019803322211E+001	-9.8838276E-001	-2.797587457613481E+000	2.7650872E-003	-9.8863971E-001	0
3.4131030E+002	8.730019802816969E+001	-9.9039757E-001	-2.901751195593761E+000	2.8738873E-003	-9.9063969E-001	0
3.3000201E+002	8.750019802311726E+001	-9.9237800E-001	-3.007187578261172E+000	2.9842667E-003	-9.9263960E-001	0
3.1958044E+002	8.770019801806484E+001	-9.9438155E-001	-3.111521884359739E+000	3.0940399E-003	-9.9463969E-001	0
3.0958591E+002	8.790019801301241E+001	-9.9640065E-001	-3.218494743041177E+000	3.2069103E-003	-9.9663967E-001	0
3.0012421E+002	8.810019800795999E+001	-9.9839139E-001	-3.326594019321341E+000	3.3212428E-003	-9.9863958E-001	0
2.9117010E+002	8.830019800290756E+001	-1.0003897E+000	-3.435757066252002E+000	3.4370960E-003	-1.0006397E+000	0
2.8258826E+002	8.850019799785514E+001	-1.0023787E+000	-3.547134968226189E+000	3.5555726E-003	-1.0026398E+000	0
2.7428030E+002	8.870019799280271E+001	-1.0043924E+000	-3.661919605164306E+000	3.6780043E-003	-1.0046396E+000	0
2.6659445E+002	8.890019798775029E+001	-1.0063978E+000	-3.775014277049209E+000	3.7991663E-003	-1.0066396E+000	0
2.5923358E+002	8.910019798269786E+001	-1.0083901E+000	-3.889889627526131E+000	3.9225263E-003	-1.0086397E+000	0
2.5220499E+002	8.930019797764544E+001	-1.0103886E+000	-4.006219799015817E+000	4.0478390E-003	-1.0106397E+000	0
2.4552962E+002	8.950019797259301E+001	-1.0123949E+000	-4.123310623323022E+000	4.1744187E-003	-1.0126396E+000	0
2.3907916E+002	8.970019796754059E+001	-1.0143872E+000	-4.242892806323205E+000	4.3039364E-003	-1.0146396E+000	0
2.3288960E+002	8.990019796248816E+001	-1.0164058E+000	-4.364324500974327E+000	4.4359248E-003	-1.0166397E+000	0
2.2700119E+002	9.010019795743574E+001	-1.0184109E+000	-4.486368338098060E+000	4.5689666E-003	-1.0186397E+000	0
2.2123114E+002	9.030019795238331E+001	-1.0204172E+000	-4.612448250929781E+000	4.7066216E-003	-1.0206397E+000	0
2.1578587E+002	9.050019794733089E+001	-1.0224131E+000	-4.738091022249243E+000	4.8442865E-003	-1.0226396E+000	0
2.1044104E+002	9.070019794227846E+001	-1.0244206E+000	-4.867969876953516E+000	4.9868487E-003	-1.0246396E+000	0
2.0544936E+002	9.090019793722604E+001	-1.0264263E+000	-4.996006633587982E+000	5.1280325E-003	-1.0266396E+000	0
2.0056943E+002	9.110019793217361E+001	-1.0284332E+000	-5.127566951337599E+000	5.2733603E-003	-1.0286397E+000	0
1.9579959E+002	9.130019792712119E+001	-1.0304055E+000	-5.262552156098316E+000	5.4225628E-003	-1.0306398E+000	0
1.9117151E+002	9.150019792206876E+001	-1.0324091E+000	-5.400433941121264E+000	5.5754571E-003	-1.0326396E+000	0
1.8678351E+002	9.170019791701634E+001	-1.0344343E+000	-5.538145706868519E+000	5.7288478E-003	-1.0346396E+000	0
1.8257327E+002	9.190019791196391E+001	-1.0364058E+000	-5.676656754615617E+000	5.8833198E-003	-1.0366397E+000	0
1.7840720E+002	9.210019790691149E+001	-1.0384266E+000	-5.820542284623283E+000	6.0442062E-003	-1.0386397E+000	0
1.7441525E+002	9.230019790185906E+001	-1.0404274E+000	-5.965232018541869E+000	6.2063909E-003	-1.0406396E+000	0
1.7052348E+002	9.250019789680664E+001	-1.0424440E+000	-6.113198921591248E+000	6.3726674E-003	-1.0426396E+000	0
1.6670952E+002	9.270019789175421E+001	-1.0444489E+000	-6.265082069197462E+000	6.5435576E-003	-1.0446396E+000	0
1.6312192E+002	9.290019788670179E+001	-1.0464362E+000	-6.415055984677622E+000	6.7129466E-003	-1.0466397E+000	0
1.5961064E+002	9.310019788164936E+001	-1.0484313E+000	-6.568680587944797E+000	6.8868101E-003	-1.0486397E+000	0
1.5606230E+002	9.330019787659694E+001	-1.0504344E+000	-6.730865165625048E+000	7.0703318E-003	-1.0506396E+000	0
1.5278807E+002	9.350019787154451E+001	-1.0524468E+000	-6.888278889683079E+000	7.2495472E-003	-1.0526397E+000	0
1.4949004E+002	9.370019786649209E+001	-1.0544341E+000	-7.053540529645232E+000	7.4374932E-003	-1.0546397E+000	0
1.4636520E+002	9.390019786143966E+001	-1.0564213E+000	-7.217707469484964E+000	7.6249395E-003	-1.0566397E+000	0
1.4322716E+002	9.410019785638724E+001	-1.0584496E+000	-7.390006422658630E+000	7.8219492E-003	-1.0586398E+000	0
1.4028531E+002	9.430019785133481E+001	-1.0604231E+000	-7.559046074714232E+000	8.0157872E-003	-1.0606397E+000	0
1.3724385E+002	9.450019784628239E+001	-1.0624369E+000	-7.741235421425614E+000	8.2245748E-003	-1.0626397E+000	0
1.3441730E+002	9.470019784122997E+001	-1.0644248E+000	-7.918807598536262E+000	8.4289750E-003	-1.0646397E+000	0
1.3167081E+002	9.490019783617754E+001	-1.0664129E+000	-8.099083597427580E+000	8.6369673E-003	-1.0666397E+000	0
1.2892632E+002	9.510019783112512E+001	-1.0684254E+000	-8.287100978651836E+000	8.8541489E-003	-1.0686398E+000	0
1.2622401E+002	9.530019782607269E+001	-1.0704160E+000	-8.480287814289028E+000	9.0774354E-003	-1.0706397E+000	0
1.2364674E+002	9.550019782102027E+001	-1.0724269E+000	-8.673313189188082E+000	9.3014948E-003	-1.0726397E+000	0
1.2112052E+002	9.570019781596784E+001	-1.0744213E+000	-8.870679107247568E+000	9.5308460E-003	-1.0746397E+000	0
1.1866808E+002	9.590019781091542E+001	-1.0764297E+000	-9.070928445411099E+000	9.7642168E-003	-1.0766397E+000	0
1.1620681E+002	9.610019780586299E+001	-1.0784162E+000	-9.280146779049019E+000	1.0007861E-002	-1.0786397E+000	0
1.1387129E+002	9.630019780081057E+001	-1.0804226E+000	-9.488103680937670E+000	1.0251162E-002	-1.0806397E+000	0
1.1151315E+002	9.650019779575814E+001	-1.0824217E+000	-9.706672351984736E+000	1.0506713E-002	-1.0826397E+000	0
1.0926886E+002	9.670019779070572E+001	-1.0844084E+000	-9.924222029863813E+000	1.0761910E-002	-1.0846397E+000	0
1.0702797E+002	9.690019778565329E+001	-1.0864273E+000	-1.015087289969668E+001	1.1028185E-002	-1.0866398E+000	0
1.0485103E+002	9.710019778060087E+001	-1.0884213E+000	-1.038064569511922E+001	1.1298517E-002	-1.0886397E+000	0
1.0273038E+002	9.730019777554844E+001	-1.0904185E+000	-1.061437236708577E+001	1.1574107E-002	-1.0906397E+000	0
1.0051278E+002	9.751019777024339E+001	-1.0925276E+000	-1.086953968934864E+001	1.1875273E-002	-1.0927397E+000	0
9.8152267E+001	9.772019776493835E+001	-1.0945851E+000	-1.115190761490749E+001	1.2206712E-002	-1.0948397E+000	0
9.6158821E+001	9.792019775988592E+001	-1.0965916E+000	-1.140396208929369E+001	1.2505489E-002	-1.0968397E+000	0
9.4235161E+001	9.812019775483350E+001	-1.0985802E+000	-1.165785931310955E+001	1.2807094E-002	-1.0988398E+000	0
9.2308418E+001	9.832019774978107E+001	-1.1005826E+000	-1.192288456630820E+001	1.3122119E-002	-1.1008397E+000	0
9.0427528E+001	9.852019774472865E+001	-1.1025935E+000	-1.219311767992252E+001	1.3444053E-002	-1.1028396E+000	0
8.8609642E+001	9.872019773967622E+001	-1.1045699E+000	-1.246557244104324E+001	1.3769097E-002	-1.1048397E+000	0
8.6809486E+001	9.892019773462380E+001	-1.1065967E+000	-1.274741699865882E+001	1.4106249E-002	-1.1068397E+000	0
8.5054321E+001	9.912019772957137E+001	-1.1086107E+000	-1.303414952160281E+001	1.4449799E-002	-1.1088398E+000	0
8.3354347E+001	9.932019772451895E+001	-1.1105982E+000	-1.332381852292153E+001	1.4797409E-002	-1.1108397E+000	0
8.1673393E+001	9.952019771946652E+001	-1.1125865E+000	-1.362238664989295E+001	1.5156084E-002	-1.1128397E+000	0
7.9855942E+001	9.972019771441410E+001	-1.1145946E+000	-1.395756615951755E+001	1.5557027E-002	-1.1148396E+000	0
7.8207352E+001	9.992019770936167E+001	-1.1165811E+000	-1.427718779654199E+001	1.5941638E-002	-1.1168398E+000	0
7.6584656E+001	1.001201977043092E+002	-1.1185914E+000	-1.460594688413363E+001	1.6338088E-002	-1.1188397E+000	0
7.4981834E+001	1.003201976992568E+002	-1.1205833E+000	-1.494473041022985E+001	1.6746815E-002	-1.1208396E+000	0
7.3408592E+001	1.005201976942044E+002	-1.1226058E+000	-1.529256629727592E+001	1.7167524E-002	-1.1228397E+000	0
7.1871094E+001	1.007201976891520E+002	-1.1245965E+000	-1.564740986997032E+001	1.7597022E-002	-1.1248397E+000	0
7.0318130E+001	1.009201976840995E+002	-1.1266030E+000	-1.602151468808415E+001	1.8049886E-002	-1.1268398E+000	0
6.8817032E+001	1.011201976790471E+002	-1.1286013E+000	-1.640002825133110E+001	1.8509094E-002	-1.1288397E+000	0
6.7356102E+001	1.013201976739947E+002	-1.1305954E+000	-1.678534529498377E+001	1.8977435E-002	-1.1308396E+000	0
6.5902107E+001	1.015201976689423E+002	-1.1326165E+000	-1.718634663633759E+001	1.9465540E-002	-1.1328397E+000	0
6.4483047E+001	1.017201976638898E+002	-1.1345819E+000	-1.759504096024159E+001	1.9963015E-002	-1.1348397E+000	0
6.3014881E+001	1.019201976588374E+002	-1.1366087E+000	-1.803714763591080E+001	2.0501180E-002	-1.1368396E+000	0
6.1573784E+001	1.021201976537850E+002	-1.1386153E+000	-1.849188410857370E+001	2.1055141E-002	-1.1388397E+000	0
6.0174103E+001	1.023201976487326E+002	-1.1406064E+000	-1.895510460676240E+001	2.1620315E-002	-1.1408397E+000	0
5.8729176E+001	1.025201976436801E+002	-1.1426067E+000	-1.945552102832838E+001	2.2230009E-002	-1.1428397E+000	0
5.7373230E+001	1.027201976386277E+002	-1.1446002E+000	-1.995007362495468E+001	2.2834858E-002	-1.1448396E+000	0
5.6064228E+001	1.029201976335753E+002	-1.1465893E+000	-2.045135270738277E+001	2.3449302E-002	-1.1468397E+000	0
5.4767109E+001	1.031201976285229E+002	-1.1485974E+000	-2.097239311063098E+001	2.4088835E-002	-1.1488397E+000	0
5.3555237E+001	1.033201976234704E+002	-1.1505905E+000	-2.148418408875560E+001	2.4719499E-002	-1.1508397E+000	0
5.2358082E+001	1.035201976184180E+002	-1.1525753E+000	-2.201332033842863E+001	2.5372008E-002	-1.1528397E+000	0
5.1190323E+001	1.037201976133656E+002	-1.1545866E+000	-2.255478168412407E+001	2.6041448E-002	-1.1548396E+000	0
5.0026585E+001	1.039201976083132E+002	-1.1565760E+000	-2.311922805568796E+001	2.6739145E-002	-1.1568397E+000	0
4.8854931E+001	1.041201976032607E+002	-1.1585964E+000	-2.371503499643609E+001	2.7476154E-002	-1.1588397E+000	0
4.7742256E+001	1.043201975982083E+002	-1.1606206E+000	-2.431013205978599E+001	2.8214840E-002	-1.1608397E+000	0
4.6633621E+001	1.045201975931559E+002	-1.1626025E+000	-2.493056530760532E+001	2.8984338E-002	-1.1628397E+000	0
4.5540981E+001	1.047201975881035E+002	-1.1646001E+000	-2.557257358692675E+001	2.9781822E-002	-1.1648396E+000	0
4.4467392E+001	1.049201975830510E+002	-1.1665970E+000	-2.623488717798205E+001	3.0605542E-002	-1.1668397E+000	0
4.3355911E+001	1.051201975779986E+002	-1.1686066E+000	-2.695380116022648E+001	3.1498391E-002	-1.1688397E+000	0
4.2365864E+001	1.053201975729462E+002	-1.1706045E+000	-2.763084058291244E+001	3.2344785E-002	-1.1708397E+000	0
4.1408268E+001	1.055201975678938E+002	-1.1726031E+000	-2.831809128357963E+001	3.3205882E-002	-1.1728396E+000	0
4.0462158E+001	1.057201975628413E+002	-1.1746049E+000	-2.902971397154465E+001	3.4098443E-002	-1.1748397E+000	0
3.9515762E+001	1.059201975577889E+002	-1.1766336E+000	-2.977631039549146E+001	3.5035808E-002	-1.1768397E+000	0
3.8596088E+001	1.061201975527365E+002	-1.1786479E+000	-3.053801444950022E+001	3.5993565E-002	-1.1788397E+000	0
3.7695595E+001	1.063201975476841E+002	-1.1806403E+000	-3.132037946075008E+001	3.6978103E-002	-1.1808397E+000	0
3.6791035E+001	1.065201975426316E+002	-1.1826532E+000	-3.214514581010999E+001	3.8016558E-002	-1.1828398E+000	0
3.5898846E+001	1.067201975375792E+002	-1.1846621E+000	-3.300000645433158E+001	3.9093856E-002	-1.1848396E+000	0
3.5037266E+001	1.069201975325268E+002	-1.1866581E+000	-3.386845733951822E+001	4.0190279E-002	-1.1868397E+000	0
3.4224281E+001	1.071201975274744E+002	-1.1886597E+000	-3.473147156935948E+001	4.1283898E-002	-1.1888398E+000	0
3.3423534E+001	1.073201975224220E+002	-1.1906575E+000	-3.562332547819270E+001	4.2415179E-002	-1.1908396E+000	0
3.2560253E+001	1.075201975173695E+002	-1.1926577E+000	-3.662925045371338E+001	4.3686159E-002	-1.1928396E+000	0
3.1737087E+001	1.077201975123171E+002	-1.1946570E+000	-3.764230061712726E+001	4.4969637E-002	-1.1948397E+000	0
3.0975489E+001	1.079201975072647E+002	-1.1966659E+000	-3.863267182817262E+001	4.6230402E-002	-1.1968397E+000	0
3.0253843E+001	1.081201975022123E+002	-1.1986701E+000	-3.962042523403539E+001	4.7491822E-002	-1.1988397E+000	0
2.9580147E+001	1.083201974971598E+002	-1.2006783E+000	-4.059068357836372E+001	4.8736356E-002	-1.2008396E+000	0
2.8884268E+001	1.085201974921074E+002	-1.2026627E+000	-4.163729179851572E+001	5.0075617E-002	-1.2028396E+000	0
2.8193787E+001	1.087201974870550E+002	-1.2046659E+000	-4.272806285784645E+001	5.1473040E-002	-1.2048396E+000	0
2.7564863E+001	1.089201974820026E+002	-1.2066492E+000	-4.377490117057903E+001	5.2820947E-002	-1.2068397E+000	0
2.6959375E+001	1.091201974769501E+002	-1.2086289E+000	-4.483148826952720E+001	5.4184631E-002	-1.2088398E+000	0
2.6352295E+001	1.093201974718977E+002	-1.2106487E+000	-4.594092088707964E+001	5.5618316E-002	-1.2108396E+000	0
2.5761683E+001	1.095201974668453E+002	-1.2126514E+000	-4.707190129708272E+001	5.7081807E-002	-1.2128396E+000	0
2.5137514E+001	1.097201974617929E+002	-1.2146416E+000	-4.831987575960306E+001	5.8691330E-002	-1.2148397E+000	0
2.4552170E+001	1.099201974567404E+002	-1.2166643E+000	-4.955424636480780E+001	6.0290884E-002	-1.2168398E+000	0
2.4013105E+001	1.101201974516880E+002	-1.2186650E+000	-5.074999477425376E+001	6.1847243E-002	-1.2188396E+000	0
2.3472986E+001	1.103201974466356E+002	-1.2206559E+000	-5.200258215214393E+001	6.3477263E-002	-1.2208396E+000	0
2.2905426E+001	1.105201974415832E+002	-1.2226418E+000	-5.337782482387274E+001	6.5261960E-002	-1.2228397E+000	0
2.2385948E+001	1.107201974365307E+002	-1.2246608E+000	-5.470667310582817E+001	6.6997118E-002	-1.2248397E+000	0
2.1877748E+001	1.109201974314783E+002	-1.2266625E+000	-5.606895806135229E+001	6.8777688E-002	-1.2268397E+000	0
2.1398413E+001	1.111201974264259E+002	-1.2286688E+000	-5.741868840161374E+001	7.0548549E-002	-1.2288396E+000	0
2.0872234E+001	1.113201974213735E+002	-1.2306807E+000	-5.896257549402674E+001	7.2564103E-002	-1.2308397E+000	0
2.0442017E+001	1.115201974163210E+002	-1.2326809E+000	-6.030133686152180E+001	7.4332304E-002	-1.2328397E+000	0
1.9900190E+001	1.117201974112686E+002	-1.2346802E+000	-6.204363848292610E+001	7.6604053E-002	-1.2348397E+000	0
1.9467850E+001	1.119201974062162E+002	-1.2366740E+000	-6.352390911141197E+001	7.8558363E-002	-1.2368398E+000	0
1.9054493E+001	1.121201974011638E+002	-1.2386721E+000	-6.500682907796499E+001	8.0522150E-002	-1.2388397E+000	0
1.8646332E+001	1.123201973961113E+002	-1.2406770E+000	-6.653732075172229E+001	8.2551323E-002	-1.2408397E+000	0
1.8254343E+001	1.125201973910589E+002	-1.2426682E+000	-6.807520849418188E+001	8.4594890E-002	-1.2428397E+000	0
1.7859819E+001	1.127201973860065E+002	-1.2446830E+000	-6.969180201456925E+001	8.6744204E-002	-1.2448397E+000	0
1.7554859E+001	1.129201973809541E+002	-1.2466791E+000	-7.101618298489518E+001	8.8534392E-002	-1.2468398E+000	0
1.7186333E+001	1.131201973759016E+002	-1.2486806E+000	-7.265544236652443E+001	9.0723440E-002	-1.2488397E+000	0
1.6755341E+001	1.133201973708492E+002	-1.2506816E+000	-7.464376293126179E+001	9.3355581E-002	-1.2508396E+000	0
1.6359413E+001	1.135201973657968E+002	-1.2526704E+000	-7.657183948611964E+001	9.5919274E-002	-1.2528397E+000	0
1.5983786E+001	1.137201973607444E+002	-1.2546830E+000	-7.849723652322825E+001	9.8489150E-002	-1.2548398E+000	0
1.5572641E+001	1.139201973556919E+002	-1.2566739E+000	-8.069754534513777E+001	1.0141050E-001	-1.2568398E+000	0
1.5283526E+001	1.141201973506395E+002	-1.2586913E+000	-8.235607920049770E+001	1.0366088E-001	-1.2588397E+000	0
1.4924614E+001	1.143201973455871E+002	-1.2606694E+000	-8.446914139842806E+001	1.0648765E-001	-1.2608397E+000	0
1.4525994E+001	1.145201973405347E+002	-1.2626709E+000	-8.692492098548803E+001	1.0975756E-001	-1.2628397E+000	0
1.4166262E+001	1.147201973354822E+002	-1.2646544E+000	-8.927227710650362E+001	1.1289858E-001	-1.2648398E+000	0
1.3877500E+001	1.149201973304298E+002	-1.2666695E+000	-9.127505336488980E+001	1.1561533E-001	-1.2668397E+000	0
1.3558928E+001	1.151201973253774E+002	-1.2686865E+000	-9.356835080166223E+001	1.1870891E-001	-1.2688397E+000	0
1.3256942E+001	1.153201973203250E+002	-1.2706828E+000	-9.585037485109751E+001	1.2179542E-001	-1.2708397E+000	0
1.2949493E+001	1.155201973152725E+002	-1.2726846E+000	-9.828064576568499E+001	1.2508026E-001	-1.2728397E+000	0
1.2623314E+001	1.157201973102201E+002	-1.2746788E+000	-1.009781448857311E+002	1.2871471E-001	-1.2748396E+000	0
1.2287323E+001	1.159201973051677E+002	-1.2766973E+000	-1.039036148432433E+002	1.3265346E-001	-1.2768399E+000	0
1.2058827E+001	1.161201973001153E+002	-1.2786765E+000	-1.060365563152600E+002	1.3558646E-001	-1.2788396E+000	0
1.1838962E+001	1.163201972950628E+002	-1.2806821E+000	-1.081752065066039E+002	1.3853805E-001	-1.2808397E+000	0
1.1585561E+001	1.165301972897578E+002	-1.2827681E+000	-1.107212782587321E+002	1.4202973E-001	-1.2829398E+000	0
1.1261182E+001	1.167401972844527E+002	-1.2848245E+000	-1.140932156828797E+002	1.4658976E-001	-1.2850398E+000	0
1.1051466E+001	1.169401972794003E+002	-1.2868346E+000	-1.164401723489741E+002	1.4983924E-001	-1.2870398E+000	0
1.0763850E+001	1.171401972743479E+002	-1.2888265E+000	-1.197365617535820E+002	1.5431964E-001	-1.2890397E+000	0
1.0548989E+001	1.173401972692955E+002	-1.2908505E+000	-1.223672270828903E+002	1.5795779E-001	-1.2910397E+000	0
1.0392023E+001	1.175401972642430E+002	-1.2928388E+000	-1.244068453879580E+002	1.6083799E-001	-1.2930396E+000	0
1.0197877E+001	1.177401972591906E+002	-1.2948534E+000	-1.269728427430664E+002	1.6441122E-001	-1.2950397E+000	0
1.0026772E+001	1.179401972541382E+002	-1.2968588E+000	-1.293396119325334E+002	1.6773522E-001	-1.2970397E+000	0
9.8204031E+000	1.181401972490858E+002	-1.2988753E+000	-1.322629404933001E+002	1.7179307E-001	-1.2990396E+000	0
9.6363497E+000	1.183401972440333E+002	-1.3008507E+000	-1.349941401351883E+002	1.7560723E-001	-1.3010397E+000	0
9.4298868E+000	1.185401972389809E+002	-1.3028764E+000	-1.381645776538894E+002	1.8001136E-001	-1.3030397E+000	0
9.2278185E+000	1.187401972339285E+002	-1.3048626E+000	-1.414053139848770E+002	1.8451451E-001	-1.3050396E+000	0
9.0344114E+000	1.189401972288761E+002	-1.3068644E+000	-1.446540704368199E+002	1.8904325E-001	-1.3070397E+000	0
8.8661289E+000	1.191401972238236E+002	-1.3088664E+000	-1.476254626044888E+002	1.9322200E-001	-1.3090397E+000	0
8.7255173E+000	1.193401972187712E+002	-1.3108726E+000	-1.502343608927565E+002	1.9693810E-001	-1.3110397E+000	0
8.5570955E+000	1.195401972137188E+002	-1.3128563E+000	-1.534231259514681E+002	2.0142253E-001	-1.3130397E+000	0
8.4291277E+000	1.197401972086664E+002	-1.3148596E+000	-1.559900077616546E+002	2.0510496E-001	-1.3150396E+000	0
8.2637863E+000	1.199401972036139E+002	-1.3168638E+000	-1.593535608153221E+002	2.0984693E-001	-1.3170397E+000	0
8.1029005E+000	1.201401971985615E+002	-1.3188787E+000	-1.627662333944756E+002	2.1466891E-001	-1.3190397E+000	0
7.9633551E+000	1.203401971935091E+002	-1.3208727E+000	-1.658688667204368E+002	2.1909165E-001	-1.3210397E+000	0
7.8469639E+000	1.205401971884567E+002	-1.3228717E+000	-1.685838917993906E+002	2.2301486E-001	-1.3230397E+000	0
7.6945605E+000	1.207302971836543E+002	-1.3247904E+000	-1.721723204126747E+002	2.2809222E-001	-1.3249403E+000	0
7.5710740E+000	1.209006971793497E+002	-1.3265094E+000	-1.752075554155040E+002	2.3241445E-001	-1.3266441E+000	0
7.4349484E+000	1.210708971750501E+002	-1.3281978E+000	-1.786425063285410E+002	2.3727259E-001	-1.3283465E+000	0
7.3660583E+000	1.212413971707429E+002	-1.3299152E+000	-1.805463826084210E+002	2.4011137E-001	-1.3300509E+000	0
7.2374306E+000	1.214118971664357E+002	-1.3316138E+000	-1.839898478928317E+002	2.4500342E-001	-1.3317561E+000	0
7.1505413E+000	1.215724971623786E+002	-1.3332413E+000	-1.864532009491030E+002	2.4858712E-001	-1.3333617E+000	0
7.0393767E+000	1.217327971583290E+002	-1.3348460E+000	-1.896255955975189E+002	2.5312096E-001	-1.3349653E+000	0
6.9522758E+000	1.218929971542821E+002	-1.3364447E+000	-1.922312617171968E+002	2.5690645E-001	-1.3365672E+000	0
6.8317332E+000	1.220533971502300E+002	-1.3380278E+000	-1.958548153542454E+002	2.6205918E-001	-1.3381711E+000	0
6.6995134E+000	1.222140971461704E+002	-1.3396257E+000	-1.999586524084577E+002	2.6786974E-001	-1.3397777E+000	0
6.5940633E+000	1.223846971418607E+002	-1.3413486E+000	-2.034176238160080E+002	2.7285394E-001	-1.3414840E+000	0
6.5146561E+000	1.225653971372958E+002	-1.3431488E+000	-2.061734004364920E+002	2.7692157E-001	-1.3432909E+000	0
6.4577498E+000	1.227458971327360E+002	-1.3449659E+000	-2.082716125155948E+002	2.8011823E-001	-1.3450959E+000	0
6.3553281E+000	1.229263971281762E+002	-1.3467551E+000	-2.119096118686102E+002	2.8539035E-001	-1.3469012E+000	0
6.2663293E+000	1.231069971236138E+002	-1.3485821E+000	-2.152108623808414E+002	2.9022953E-001	-1.3487071E+000	0
6.1807756E+000	1.232872971190591E+002	-1.3503783E+000	-2.184803900119994E+002	2.9503116E-001	-1.3505101E+000	0
6.1215348E+000	1.234378971152546E+002	-1.3518893E+000	-2.208415453633925E+002	2.9855332E-001	-1.3520161E+000	0
6.0194993E+000	1.236084971109449E+002	-1.3535910E+000	-2.248677020211476E+002	3.0437890E-001	-1.3537222E+000	0
5.9890542E+000	1.237988971061350E+002	-1.3554980E+000	-2.263292191094479E+002	3.0678880E-001	-1.3556262E+000	0
5.9530430E+000	1.239790971015827E+002	-1.3572903E+000	-2.279994126875590E+002	3.0946139E-001	-1.3574283E+000	0
5.8931780E+000	1.241492970972831E+002	-1.3590112E+000	-2.306075233814513E+002	3.1339821E-001	-1.3591301E+000	0
5.8081188E+000	1.243097970932286E+002	-1.3606184E+000	-2.342614516101285E+002	3.1874043E-001	-1.3607348E+000	0
5.7198586E+000	1.244803970889188E+002	-1.3623106E+000	-2.381720842658506E+002	3.2446438E-001	-1.3624412E+000	0
5.6580939E+000	1.246309970851144E+002	-1.3638079E+000	-2.410366439847658E+002	3.2872769E-001	-1.3639466E+000	0
5.6221795E+000	1.247515970820677E+002	-1.3650217E+000	-2.427922608527369E+002	3.3141670E-001	-1.3651528E+000	0
5.5192037E+000	1.249021970782633E+002	-1.3665144E+000	-2.475926890578180E+002	3.3833897E-001	-1.3666588E+000	0
5.4432678E+000	1.250826970737035E+002	-1.3683448E+000	-2.513829513558522E+002	3.4397855E-001	-1.3684641E+000	0
5.4497333E+000	1.252633970691386E+002	-1.3701614E+000	-2.514180700329116E+002	3.4448335E-001	-1.3702708E+000	0
5.4268241E+000	1.254339970648289E+002	-1.3718705E+000	-2.527943540001952E+002	3.4680113E-001	-1.3719769E+000	0
5.3438315E+000	1.256043970605242E+002	-1.3735814E+000	-2.570405635424054E+002	3.5306615E-001	-1.3736809E+000	0
5.1966004E+000	1.257850970559593E+002	-1.3753701E+000	-2.646672880536071E+002	3.6401549E-001	-1.3754879E+000	0
5.1482601E+000	1.259457970518997E+002	-1.3770081E+000	-2.674705810402151E+002	3.6830914E-001	-1.3770947E+000	0
5.1362314E+000	1.261161970475951E+002	-1.3787153E+000	-2.684293468475003E+002	3.7008765E-001	-1.3787994E+000	0
5.0605230E+000	1.262665970437956E+002	-1.3801956E+000	-2.727377334210246E+002	3.7643144E-001	-1.3803027E+000	0
5.0212817E+000	1.263970970404989E+002	-1.3815165E+000	-2.751322392405809E+002	3.8009971E-001	-1.3816080E+000	0
5.0302415E+000	1.265676970361892E+002	-1.3832349E+000	-2.749837988806462E+002	3.8036719E-001	-1.3833139E+000	0
4.9723730E+000	1.267281970321346E+002	-1.3848243E+000	-2.785037012567700E+002	3.8567868E-001	-1.3849186E+000	0
4.8833261E+000	1.268585970288405E+002	-1.3860981E+000	-2.838430524864471E+002	3.9343432E-001	-1.3862222E+000	0
4.8296390E+000	1.270088970250436E+002	-1.3876381E+000	-2.873171472711956E+002	3.9869222E-001	-1.3877263E+000	0
4.7720089E+000	1.271792970207389E+002	-1.3893425E+000	-2.911441777372065E+002	4.0449899E-001	-1.3894298E+000	0
4.7143135E+000	1.273498970164292E+002	-1.3910329E+000	-2.950658604995051E+002	4.1044632E-001	-1.3911362E+000	0
4.6874604E+000	1.275206970121144E+002	-1.3927594E+000	-2.971245108061161E+002	4.1382298E-001	-1.3928438E+000	0
4.6780624E+000	1.277111970073020E+002	-1.3946599E+000	-2.981276643685078E+002	4.1578668E-001	-1.3947494E+000	0
4.5867066E+000	1.278815970029973E+002	-1.3963685E+000	-3.044381442056501E+002	4.2510784E-001	-1.3964524E+000	0
4.5735044E+000	1.280023969999456E+002	-1.3975862E+000	-3.055832250522255E+002	4.2707890E-001	-1.3976607E+000	0
4.5450592E+000	1.281525969961513E+002	-1.3990732E+000	-3.078228848485178E+002	4.3066677E-001	-1.3991630E+000	0
4.5169497E+000	1.282930969926019E+002	-1.4004778E+000	-3.100494524265059E+002	4.3421736E-001	-1.4005685E+000	0
4.4586768E+000	1.284331969890627E+002	-1.4018880E+000	-3.144179314108983E+002	4.4077873E-001	-1.4019688E+000	0
4.4425354E+000	1.285833969852683E+002	-1.4034038E+000	-3.159015389428541E+002	4.4333741E-001	-1.4034712E+000	0
4.4509783E+000	1.287238969817190E+002	-1.4048029E+000	-3.156166565107105E+002	4.4337919E-001	-1.4048758E+000	0
4.3658757E+000	1.288744969779145E+002	-1.4062998E+000	-3.221117507745425E+002	4.5298570E-001	-1.4063818E+000	0
4.2838225E+000	1.290647969731072E+002	-1.4082069E+000	-3.287267398574709E+002	4.6291527E-001	-1.4082855E+000	0
4.3121161E+000	1.292647969680547E+002	-1.4102031E+000	-3.270327411011494E+002	4.6118259E-001	-1.4102856E+000	0
4.2382321E+000	1.294647969630023E+002	-1.4122075E+000	-3.332067188535411E+002	4.7055703E-001	-1.4122854E+000	0
4.1686511E+000	1.296647969579499E+002	-1.4142188E+000	-3.392509405585906E+002	4.7977504E-001	-1.4142854E+000	0
4.1831026E+000	1.298647969528975E+002	-1.4162129E+000	-3.385556300805529E+002	4.7946686E-001	-1.4162855E+000	0
4.1219497E+000	1.300647969478450E+002	-1.4182218E+000	-3.440657961601029E+002	4.8796162E-001	-1.4182855E+000	0
4.0414076E+000	1.302647969427926E+002	-1.4202497E+000	-3.514245307559062E+002	4.9911058E-001	-1.4202855E+000	0
4.0316544E+000	1.304647969377402E+002	-1.4222313E+000	-3.527662019967499E+002	5.0171512E-001	-1.4222856E+000	0
4.0151272E+000	1.306647969326878E+002	-1.4242394E+000	-3.547183767413881E+002	5.0520390E-001	-1.4242854E+000	0
3.9630933E+000	1.308647969276353E+002	-1.4262350E+000	-3.598792215615431E+002	5.1327235E-001	-1.4262855E+000	0
3.9553292E+000	1.310647969225829E+002	-1.4282461E+000	-3.610941351438596E+002	5.1573128E-001	-1.4282855E+000	0
3.8982816E+000	1.312647969175305E+002	-1.4302543E+000	-3.668935420799671E+002	5.2475107E-001	-1.4302855E+000	0
3.8846724E+000	1.314647969124781E+002	-1.4322219E+000	-3.686853759575333E+002	5.2803928E-001	-1.4322855E+000	0
3.8170860E+000	1.316647969074256E+002	-1.4342397E+000	-3.757420665369008E+002	5.3890419E-001	-1.4342855E+000	0
3.7490494E+000	1.318647969023732E+002	-1.4362438E+000	-3.830954455680585E+002	5.5021846E-001	-1.4362855E+000	0
3.7680607E+000	1.320647968973208E+002	-1.4382287E+000	-3.816893828277416E+002	5.4895663E-001	-1.4382856E+000	0
3.7403569E+000	1.322647968922684E+002	-1.4402298E+000	-3.850514247336355E+002	5.5456251E-001	-1.4402854E+000	0
3.6571617E+000	1.324647968872159E+002	-1.4422393E+000	-3.943602759519126E+002	5.6876189E-001	-1.4422855E+000	0
3.6451113E+000	1.326647968821635E+002	-1.4442314E+000	-3.962104938122166E+002	5.7221961E-001	-1.4442854E+000	0
3.6829994E+000	1.328647968771111E+002	-1.4462322E+000	-3.926778388747825E+002	5.6790334E-001	-1.4462855E+000	0
3.6200485E+000	1.330647968720587E+002	-1.4482422E+000	-4.000615344642238E+002	5.7938600E-001	-1.4482856E+000	0
3.5191422E+000	1.332647968670062E+002	-1.4506345E+000	-4.122125281206338E+002	5.9796971E-001	-1.4502854E+000	0
3.4802752E+000	1.334647968619538E+002	-1.4527887E+000	-4.174350101055752E+002	6.0644490E-001	-1.4522855E+000	0
3.4779608E+000	1.336647968569014E+002	-1.4547821E+000	-4.182859313428526E+002	6.0851490E-001	-1.4542854E+000	0
3.4543667E+000	1.338647968518490E+002	-1.4568090E+000	-4.217297123889521E+002	6.1437964E-001	-1.4562855E+000	0
3.4199169E+000	1.340647968467965E+002	-1.4587982E+000	-4.265595415638703E+002	6.2226427E-001	-1.4582856E+000	0
3.3999426E+000	1.342647968417441E+002	-1.4608088E+000	-4.296568959943293E+002	6.2764657E-001	-1.4602854E+000	0
3.3936224E+000	1.344647968366917E+002	-1.4628204E+000	-4.310498546678227E+002	6.3054854E-001	-1.4622855E+000	0
3.4438305E+000	1.346647968316393E+002	-1.4647954E+000	-4.253389761010012E+002	6.2303454E-001	-1.4642854E+000	0
3.3593023E+000	1.348647968265868E+002	-1.4668130E+000	-4.366421396251171E+002	6.4047235E-001	-1.4662855E+000	0
3.3740699E+000	1.350647968215344E+002	-1.4688104E+000	-4.353230435031874E+002	6.3940704E-001	-1.4682856E+000	0
3.3772180E+000	1.352647968164820E+002	-1.4707999E+000	-4.355063561376810E+002	6.4054269E-001	-1.4702854E+000	0
3.3000915E+000	1.354647968114296E+002	-1.4728210E+000	-4.462970149414359E+002	6.5731561E-001	-1.4722855E+000	0
3.2591352E+000	1.356647968063771E+002	-1.4748268E+000	-4.525208943468642E+002	6.6738993E-001	-1.4742854E+000	0
3.3261719E+000	1.358647968013247E+002	-1.4768385E+000	-4.440054743846804E+002	6.5572435E-001	-1.4762855E+000	0
3.2223558E+000	1.360647967962723E+002	-1.4788270E+000	-4.589272917749640E+002	6.7867404E-001	-1.4782856E+000	0
3.2269585E+000	1.362647967912199E+002	-1.4808226E+000	-4.588911003536668E+002	6.7953628E-001	-1.4802854E+000	0
3.2092533E+000	1.364647967861674E+002	-1.4828218E+000	-4.620457307854485E+002	6.8513149E-001	-1.4822855E+000	0
3.1638703E+000	1.366647967811150E+002	-1.4848335E+000	-4.693092172713496E+002	6.9684601E-001	-1.4842855E+000	0
3.1416705E+000	1.368647967760626E+002	-1.4868346E+000	-4.732624460510119E+002	7.0366299E-001	-1.4862854E+000	0
3.1480408E+000	1.370647967710102E+002	-1.4888402E+000	-4.729418435085945E+002	7.0413482E-001	-1.4882855E+000	0
3.1427538E+000	1.372647967659577E+002	-1.4908350E+000	-4.743721774613741E+002	7.0721060E-001	-1.4902855E+000	0
3.1195874E+000	1.374647967609053E+002	-1.4928390E+000	-4.785373197456079E+002	7.1437919E-001	-1.4922854E+000	0
3.1174862E+000	1.376647967558529E+002	-1.4948298E+000	-4.794984480020967E+002	7.1676856E-001	-1.4942855E+000	0
3.0195658E+000	1.378647967508005E+002	-1.4968618E+000	-4.957208841198424E+002	7.4202567E-001	-1.4962854E+000	0
3.0275700E+000	1.380647967457480E+002	-1.4988624E+000	-4.950711032538727E+002	7.4204344E-001	-1.4982855E+000	0
2.9221609E+000	1.382647967406956E+002	-1.5008595E+000	-5.136128987941611E+002	7.7086079E-001	-1.5002855E+000	0
2.9331708E+000	1.384647967356432E+002	-1.5028592E+000	-5.123667530526905E+002	7.7001512E-001	-1.5022855E+000	0
2.9425707E+000	1.386647967305908E+002	-1.5048540E+000	-5.114079324544978E+002	7.6959425E-001	-1.5042855E+000	0
2.8955221E+000	1.388647967255383E+002	-1.5068626E+000	-5.204113659112645E+002	7.8418845E-001	-1.5062855E+000	0
2.9559052E+000	1.390647967204859E+002	-1.5088555E+000	-5.104546097216971E+002	7.7020222E-001	-1.5082855E+000	0
2.9296179E+000	1.392647967154335E+002	-1.5108783E+000	-5.157253983988508E+002	7.7919835E-001	-1.5102855E+000	0
2.9440634E+000	1.394647967103811E+002	-1.5128710E+000	-5.138717526719147E+002	7.7742171E-001	-1.5122856E+000	0
2.9596553E+000	1.396647967053286E+002	-1.5148585E+000	-5.118361300643610E+002	7.7535933E-001	-1.5142854E+000	0
2.8923302E+000	1.398647967002762E+002	-1.5168732E+000	-5.244467838270070E+002	7.9551929E-001	-1.5162855E+000	0
2.8364763E+000	1.400647966952238E+002	-1.5188818E+000	-5.354819288188887E+002	8.1333375E-001	-1.5182855E+000	0
2.8518617E+000	1.402647966901714E+002	-1.5208770E+000	-5.332926824833539E+002	8.1107259E-001	-1.5202855E+000	0
2.8355026E+000	1.404647966851189E+002	-1.5228809E+000	-5.370761769569372E+002	8.1790304E-001	-1.5222856E+000	0
2.8110938E+000	1.406647966800665E+002	-1.5248802E+000	-5.424508508349172E+002	8.2717252E-001	-1.5242854E+000	0
2.7929702E+000	1.408647966750141E+002	-1.5268756E+000	-5.466852609543585E+002	8.3472037E-001	-1.5262855E+000	0
2.7801991E+000	1.410647966699617E+002	-1.5288783E+000	-5.499168807827700E+002	8.4075600E-001	-1.5282856E+000	0
2.7782278E+000	1.412647966649092E+002	-1.5308667E+000	-5.510227759484560E+002	8.4354246E-001	-1.5302855E+000	0
2.7959809E+000	1.414647966598568E+002	-1.5328677E+000	-5.482396678189289E+002	8.4037888E-001	-1.5322853E+000	0
2.7981617E+000	1.416647966548044E+002	-1.5348831E+000	-5.485326513476350E+002	8.4193355E-001	-1.5342854E+000	0
2.7120676E+000	1.418647966497520E+002	-1.5368773E+000	-5.666810473141486E+002	8.7091923E-001	-1.5362855E+000	0
2.6890726E+000	1.420647966446995E+002	-1.5389017E+000	-5.722797056660929E+002	8.8068223E-001	-1.5382856E+000	0
2.7009821E+000	1.422647966396471E+002	-1.5408809E+000	-5.704891305131982E+002	8.7905580E-001	-1.5402855E+000	0
2.7064476E+000	1.424647966345947E+002	-1.5428958E+000	-5.700815275975092E+002	8.7957639E-001	-1.5422854E+000	0
2.7138515E+000	1.426247966305527E+002	-1.5444940E+000	-5.691151909185937E+002	8.7899500E-001	-1.5438854E+000	0
2.6736536E+000	1.426947966287844E+002	-1.5452299E+000	-5.779469504842955E+002	8.9306092E-001	-1.5445852E+000	1
2.6626208E+000	1.426949966287793E+002	-1.5451744E+000	-5.803208618164063E+002	8.9669693E-001	-1.5447853E+000	1