EC-Lab ASCII FILE
Nb header lines : 63                          

Linear Sweep Voltammetry

Run on channel : 1 (SN 1340)
User : 
Electrode connection : standard
Potential control : Ewe
Ewe ctrl range : min = -5.00 V, max = 5.00 V
Ewe,I filtering : <None>
Safety Limits :
	Do not start on E overload
Channel : Floating
Acquisition started on : 03/03/2026 15:24:59.852
Technique started on : 03/03/2026 15:25:02.535
Loaded Setting File :  NONE
Saved on :
	File : Ni40_N52magB_3-3_02_LSV_C01.mpr
	Directory : C:\Users\volt\Documents\Platalytix\
	Host : 127.0.0.1
Device : SP-200 (SN 0262)
Address : USB
EC-LAB for windows v11.60 (software)
Internet server v11.60 (firmware)
Command interpretor v11.60 (firmware)
Electrode material : Ni40
Initial state : 
Electrolyte : KOH (1 M)
Comments : with magnet side B (-), N52 Nd magnet
Cable : standard
Reference electrode : Hg/HgO (0.140 V)
Electrode surface area : 1.000 cm˛
Characteristic mass : 0.001 g
Equivalent Weight : 0.000 g/eq.
Density : 0.000 g/cm3
Volume (V) : 0.001 cmł
Cycle Definition : Charge/Discharge alternance
tR (h:m:s)          0:00:5.0000         
dER/dt (mV/h)       0.0                 
dER (mV)            0                   
dtR (s)             0.0000              
dE/dt               10.000              
dE/dt unit          mV/s                
Ei (V)              -0.200              
vs.                 Ref                 
EL (V)              -2.500              
vs.                 Ref                 
record              <I>                 
dI                  0.000               
unit dI             µA                  
tI (s)              0.0000              
step percent        50                  
N                   10                  
E range min (V)     -5.000              
E range max (V)     5.000               
I Range             Auto                
I Range min         Unset               
I Range max         Unset               
I Range init        Unset               
Bandwidth           8                   

Rwe/Ohm	time/s	Ewe/V	<I>/mA	Pwe/W	control/V	error	
0.0000000E+000	2.683400127425557E+000	-1.9190750E-001	0.000000000000000E+000	0.0000000E+000	0.0000000E+000	0
0.0000000E+000	7.683200001119985E+000	-7.9471394E-002	0.000000000000000E+000	0.0000000E+000	-1.9987354E-001	0
9.8406226E+002	7.883199996067560E+000	-2.0165932E-001	2.049253682792185E-001	-4.1325111E-005	-2.0177332E-001	0
1.4202412E+004	8.003199993036105E+000	-2.0288068E-001	-1.428494552629700E-002	2.8981394E-006	-2.0297338E-001	0
3.8035488E+003	8.213199987731059E+000	-2.0497538E-001	-5.389056172825879E-002	1.1046239E-005	-2.0507336E-001	0
3.5904270E+003	8.413199982678634E+000	-2.0700429E-001	-5.765450550528350E-002	1.1934731E-005	-2.0707338E-001	0
3.6083596E+003	8.613199977626209E+000	-2.0904025E-001	-5.793221368424822E-002	1.2110165E-005	-2.0907336E-001	0
3.6901499E+003	8.813199972573784E+000	-2.1103713E-001	-5.718930980270875E-002	1.2069067E-005	-2.1107337E-001	0
3.7762820E+003	9.013199967521359E+000	-2.1304740E-001	-5.641723717636749E-002	1.2019545E-005	-2.1307337E-001	0
3.8716240E+003	9.213199962468934E+000	-2.1502793E-001	-5.553946470579896E-002	1.1942536E-005	-2.1507335E-001	0
3.9671875E+003	9.413199957416509E+000	-2.1700406E-001	-5.469972481782159E-002	1.1870063E-005	-2.1707337E-001	0
4.0617817E+003	9.613199952364084E+000	-2.1901600E-001	-5.392116454193396E-002	1.1809598E-005	-2.1907337E-001	0
4.1551309E+003	9.813199947311659E+000	-2.2098912E-001	-5.318463771749715E-002	1.1753226E-005	-2.2107336E-001	0
4.2481445E+003	1.001319994225923E+001	-2.2301891E-001	-5.249796079233079E-002	1.1708038E-005	-2.2307336E-001	0
4.3386328E+003	1.021319993720681E+001	-2.2501814E-001	-5.186383880288364E-002	1.1670305E-005	-2.2507338E-001	0
4.4268208E+003	1.041319993215438E+001	-2.2703308E-001	-5.128580946242967E-002	1.1643575E-005	-2.2707336E-001	0
4.5119492E+003	1.061319992710196E+001	-2.2904739E-001	-5.076461813049371E-002	1.1627503E-005	-2.2907336E-001	0
4.6001646E+003	1.081319992204953E+001	-2.3101921E-001	-5.021977386608417E-002	1.1601733E-005	-2.3107338E-001	0
4.6834570E+003	1.101319991699711E+001	-2.3301229E-001	-4.975219935288577E-002	1.1592874E-005	-2.3307334E-001	0
4.7648086E+003	1.121319991194468E+001	-2.3501638E-001	-4.932336382306013E-002	1.1591798E-005	-2.3507337E-001	0
4.8504282E+003	1.141319990689226E+001	-2.3700778E-001	-4.886326913525466E-002	1.1580975E-005	-2.3707338E-001	0
4.9288105E+003	1.161319990183983E+001	-2.3900996E-001	-4.849242430038823E-002	1.1590172E-005	-2.3907337E-001	0
5.0097720E+003	1.181319989678741E+001	-2.4104145E-001	-4.811425378695011E-002	1.1597530E-005	-2.4107337E-001	0
5.0927568E+003	1.201319989173498E+001	-2.4304470E-001	-4.772360260068289E-002	1.1598969E-005	-2.4307337E-001	0
5.1678438E+003	1.221319988668256E+001	-2.4499536E-001	-4.740765586425710E-002	1.1614656E-005	-2.4507338E-001	0
5.2482500E+003	1.241319988163013E+001	-2.4703082E-001	-4.706918127024895E-002	1.1627539E-005	-2.4707335E-001	0
5.3292612E+003	1.261319987657771E+001	-2.4907061E-001	-4.673642529277100E-002	1.1640670E-005	-2.4907339E-001	0
5.4069414E+003	1.281319987152528E+001	-2.5102738E-001	-4.642687339225873E-002	1.1654416E-005	-2.5107336E-001	0
5.4760435E+003	1.301319986647286E+001	-2.5299117E-001	-4.619962859992777E-002	1.1688098E-005	-2.5307336E-001	0
5.5571987E+003	1.321319986142043E+001	-2.5504833E-001	-4.589512479088154E-002	1.1705475E-005	-2.5507337E-001	0
5.6324990E+003	1.341319985636801E+001	-2.5704780E-001	-4.563654744005041E-002	1.1730775E-005	-2.5707334E-001	0
5.7097637E+003	1.361319985131559E+001	-2.5901198E-001	-4.536299436810354E-002	1.1749559E-005	-2.5907335E-001	0
5.7819463E+003	1.381319984626316E+001	-2.6103583E-001	-4.514670592644054E-002	1.1784908E-005	-2.6107338E-001	0
5.8581245E+003	1.401319984121074E+001	-2.6303738E-001	-4.490129650061500E-002	1.1810719E-005	-2.6307335E-001	0
5.9287788E+003	1.421319983615831E+001	-2.6501837E-001	-4.470033196536007E-002	1.1846410E-005	-2.6507336E-001	0
6.0024927E+003	1.441319983110589E+001	-2.6697940E-001	-4.447808617392290E-002	1.1874733E-005	-2.6707336E-001	0
6.0810874E+003	1.461319982605346E+001	-2.6900664E-001	-4.423660177382671E-002	1.1899940E-005	-2.6907337E-001	0
6.1482427E+003	1.481319982100104E+001	-2.7100441E-001	-4.407835213885603E-002	1.1945428E-005	-2.7107337E-001	0
6.2270757E+003	1.501319981594861E+001	-2.7302670E-001	-4.384509060962674E-002	1.1970880E-005	-2.7307338E-001	0
6.2959663E+003	1.521319981089619E+001	-2.7497882E-001	-4.367539668909775E-002	1.2009809E-005	-2.7507335E-001	0
6.3635024E+003	1.541319980584376E+001	-2.7697274E-001	-4.352520487446548E-002	1.2055295E-005	-2.7707338E-001	0
6.4362832E+003	1.561319980079134E+001	-2.7899939E-001	-4.334790265750429E-002	1.2094039E-005	-2.7907336E-001	0
6.5100420E+003	1.581319979573891E+001	-2.8099498E-001	-4.316331355731151E-002	1.2128675E-005	-2.8107336E-001	0
6.6155278E+003	1.602319979043386E+001	-2.8310606E-001	-4.279417474611580E-002	1.2115290E-005	-2.8317338E-001	0
6.7503916E+003	1.623319978512882E+001	-2.8529432E-001	-4.226337343030923E-002	1.2057500E-005	-2.8527337E-001	0
6.8273931E+003	1.643319978007639E+001	-2.8723183E-001	-4.207049952999453E-002	1.2083987E-005	-2.8727335E-001	0
6.8892808E+003	1.663319977502397E+001	-2.8923252E-001	-4.198297816555713E-002	1.2142843E-005	-2.8927338E-001	0
6.9662144E+003	1.683319976997154E+001	-2.9125425E-001	-4.180954504956647E-002	1.2177208E-005	-2.9127336E-001	0
7.0369141E+003	1.703319976491912E+001	-2.9319999E-001	-4.166598936681198E-002	1.2216467E-005	-2.9327336E-001	0
7.1071943E+003	1.723319975986669E+001	-2.9522213E-001	-4.153849159593351E-002	1.2263082E-005	-2.9527336E-001	0
7.1783394E+003	1.743319975481427E+001	-2.9722181E-001	-4.140537315604753E-002	1.2306580E-005	-2.9727337E-001	0
7.2413340E+003	1.763319974976184E+001	-2.9924053E-001	-4.132395154424845E-002	1.2365801E-005	-2.9927337E-001	0
7.3156655E+003	1.783319974470942E+001	-3.0116147E-001	-4.116665263229458E-002	1.2397810E-005	-3.0127338E-001	0
7.3847129E+003	1.803319973965699E+001	-3.0320442E-001	-4.105839046439508E-002	1.2449085E-005	-3.0327338E-001	0
7.4495405E+003	1.823319973460457E+001	-3.0515778E-001	-4.096330219616795E-002	1.2500271E-005	-3.0527335E-001	0
7.5123535E+003	1.843319972955214E+001	-3.0718270E-001	-4.089034018011722E-002	1.2560805E-005	-3.0727339E-001	0
7.5812920E+003	1.863319972449972E+001	-3.0922183E-001	-4.078748439546352E-002	1.2612380E-005	-3.0927336E-001	0
7.6498003E+003	1.883319971944729E+001	-3.1122658E-001	-4.068427580454159E-002	1.2662028E-005	-3.1127337E-001	0
7.7106968E+003	1.903319971439487E+001	-3.1320077E-001	-4.061899813818104E-002	1.2721902E-005	-3.1327337E-001	0
7.7789839E+003	1.923319970934244E+001	-3.1518364E-001	-4.051732715502243E-002	1.2770399E-005	-3.1527337E-001	0
7.8396021E+003	1.943319970429002E+001	-3.1719303E-001	-4.046034828370094E-002	1.2833741E-005	-3.1727335E-001	0
7.9105156E+003	1.963319969923759E+001	-3.1923643E-001	-4.035595764697464E-002	1.2883092E-005	-3.1927335E-001	0
7.9701543E+003	1.983319969418517E+001	-3.2117072E-001	-4.029667377709507E-002	1.2942111E-005	-3.2127336E-001	0
8.0331016E+003	2.003319968913274E+001	-3.2322550E-001	-4.023670004268931E-002	1.3005528E-005	-3.2327336E-001	0
8.1022139E+003	2.023319968408032E+001	-3.2521561E-001	-4.013910398120590E-002	1.3053863E-005	-3.2527339E-001	0
8.1624375E+003	2.043319967902789E+001	-3.2721356E-001	-4.008772567335878E-002	1.3117247E-005	-3.2727337E-001	0
8.2230313E+003	2.063319967397547E+001	-3.2916611E-001	-4.002977897098407E-002	1.3176446E-005	-3.2927337E-001	0
8.2863359E+003	2.083319966892304E+001	-3.3121434E-001	-3.997114611115904E-002	1.3239017E-005	-3.3127338E-001	0
8.3429297E+003	2.103319966387062E+001	-3.3322972E-001	-3.994157270933851E-002	1.3309719E-005	-3.3327338E-001	0
8.4107871E+003	2.123319965881819E+001	-3.3519840E-001	-3.985339285206047E-002	1.3358794E-005	-3.3527336E-001	0
8.4629395E+003	2.143319965376577E+001	-3.3722711E-001	-3.984751500286432E-002	1.3437662E-005	-3.3727336E-001	0
8.5332109E+003	2.163319964871334E+001	-3.3921358E-001	-3.975215965439513E-002	1.3484472E-005	-3.3927336E-001	0
8.5808955E+003	2.183319964366092E+001	-3.4120733E-001	-3.976360391751527E-002	1.3567633E-005	-3.4127337E-001	0
8.6484678E+003	2.203319963860849E+001	-3.4320590E-001	-3.968400995499455E-002	1.3619786E-005	-3.4327337E-001	0
8.6943975E+003	2.223319963355607E+001	-3.4520194E-001	-3.970395120957865E-002	1.3705881E-005	-3.4527338E-001	0
8.7566865E+003	2.243319962850364E+001	-3.4723750E-001	-3.965398265458570E-002	1.3769350E-005	-3.4727338E-001	0
8.8126553E+003	2.263319962345122E+001	-3.4921589E-001	-3.962663933819521E-002	1.3838252E-005	-3.4927341E-001	0
8.8697021E+003	2.283319961839879E+001	-3.5123870E-001	-3.959982905139864E-002	1.3908993E-005	-3.5127339E-001	0
8.9177246E+003	2.303319961334637E+001	-3.5326910E-001	-3.961426501459053E-002	1.3994496E-005	-3.5327336E-001	0
8.9822441E+003	2.323319960829394E+001	-3.5520616E-001	-3.954536911567907E-002	1.4046759E-005	-3.5527340E-001	0
9.0175762E+003	2.343319960324152E+001	-3.5724249E-001	-3.961624262607388E-002	1.4152605E-005	-3.5727337E-001	0
9.0850801E+003	2.363319959818909E+001	-3.5923433E-001	-3.954112840987428E-002	1.4204531E-005	-3.5927337E-001	0
9.1272500E+003	2.383319959313667E+001	-3.6120787E-001	-3.957466794839959E-002	1.4294682E-005	-3.6127338E-001	0
9.1911846E+003	2.403319958808424E+001	-3.6318058E-001	-3.951400995984167E-002	1.4350721E-005	-3.6327338E-001	0
9.2290967E+003	2.423319958303182E+001	-3.6521608E-001	-3.957224692890626E-002	1.4452421E-005	-3.6527339E-001	0
9.2907646E+003	2.443319957797939E+001	-3.6725414E-001	-3.952894448392447E-002	1.4517168E-005	-3.6727339E-001	0
9.3284678E+003	2.463319957292697E+001	-3.6921388E-001	-3.957926093805532E-002	1.4613212E-005	-3.6927336E-001	0
9.3890029E+003	2.483319956787454E+001	-3.7116918E-001	-3.953233078362894E-002	1.4673183E-005	-3.7127340E-001	0
9.4157510E+003	2.503319956282212E+001	-3.7319982E-001	-3.963569469582046E-002	1.4792035E-005	-3.7327337E-001	0
9.4624990E+003	2.523319955776969E+001	-3.7523916E-001	-3.965539856478059E-002	1.4880258E-005	-3.7527335E-001	0
9.5140674E+003	2.543319955271727E+001	-3.7719440E-001	-3.964596894219119E-002	1.4954237E-005	-3.7727338E-001	0
9.5575215E+003	2.563319954766484E+001	-3.7919030E-001	-3.967454348259991E-002	1.5044202E-005	-3.7927336E-001	0
9.6056309E+003	2.583319954261242E+001	-3.8123509E-001	-3.968870912545497E-002	1.5130729E-005	-3.8127336E-001	0
9.6447520E+003	2.603319953755999E+001	-3.8317367E-001	-3.972872428156754E-002	1.5223001E-005	-3.8327339E-001	0
9.6766377E+003	2.623319953250757E+001	-3.8522258E-001	-3.980955043533091E-002	1.5335538E-005	-3.8527337E-001	0
9.7358096E+003	2.643319952745514E+001	-3.8722980E-001	-3.977376544587258E-002	1.5401587E-005	-3.8727340E-001	0
9.7730186E+003	2.663319952240272E+001	-3.8918385E-001	-3.982227695620116E-002	1.5498186E-005	-3.8927338E-001	0
9.8039043E+003	2.683319951735029E+001	-3.9111227E-001	-3.989352294599710E-002	1.5602845E-005	-3.9127341E-001	0
9.8367695E+003	2.703319951229787E+001	-3.9321992E-001	-3.997449865701963E-002	1.5718770E-005	-3.9327338E-001	0
9.8933711E+003	2.723319950724544E+001	-3.9521191E-001	-3.994714184753956E-002	1.5787586E-005	-3.9527342E-001	0
9.9234912E+003	2.743319950219302E+001	-3.9719433E-001	-4.002566351407449E-002	1.5897966E-005	-3.9727339E-001	0
9.9596230E+003	2.763319949714059E+001	-3.9916006E-001	-4.007782730856774E-002	1.5997468E-005	-3.9927337E-001	0
9.9995850E+003	2.783319949208817E+001	-4.0123931E-001	-4.012559665775639E-002	1.6099966E-005	-4.0127340E-001	0
1.0022896E+004	2.803319948703574E+001	-4.0320390E-001	-4.022828448757038E-002	1.6220201E-005	-4.0327337E-001	0
1.0065482E+004	2.823319948198332E+001	-4.0519360E-001	-4.025575456704705E-002	1.6311375E-005	-4.0527341E-001	0
1.0095525E+004	2.843319947693089E+001	-4.0717095E-001	-4.033182279308184E-002	1.6421947E-005	-4.0727341E-001	0
1.0122943E+004	2.863319947187847E+001	-4.0919524E-001	-4.042255524556455E-002	1.6540718E-005	-4.0927342E-001	0
1.0149642E+004	2.883319946682605E+001	-4.1122928E-001	-4.051662900125025E-002	1.6661625E-005	-4.1127336E-001	0
1.0190897E+004	2.903319946177362E+001	-4.1323933E-001	-4.054984765189601E-002	1.6756792E-005	-4.1327339E-001	0
1.0230075E+004	2.923319945672120E+001	-4.1522813E-001	-4.058896044909088E-002	1.6853679E-005	-4.1527343E-001	0
1.0238395E+004	2.943319945166877E+001	-4.1728127E-001	-4.075651206767769E-002	1.7006929E-005	-4.1727340E-001	0
1.0265123E+004	2.963319944661635E+001	-4.1920450E-001	-4.083774927285533E-002	1.7119368E-005	-4.1927338E-001	0
1.0294175E+004	2.983319944156392E+001	-4.2123452E-001	-4.091969763573966E-002	1.7236789E-005	-4.2127341E-001	0
1.0321385E+004	3.003319943651150E+001	-4.2322907E-001	-4.100506634175849E-002	1.7354536E-005	-4.2327338E-001	0
1.0352943E+004	3.023319943145907E+001	-4.2519987E-001	-4.107043472258060E-002	1.7463144E-005	-4.2527339E-001	0
1.0370992E+004	3.043319942640665E+001	-4.2721671E-001	-4.119342825847483E-002	1.7598521E-005	-4.2727339E-001	0
1.0408094E+004	3.063319942135422E+001	-4.2925709E-001	-4.124262275373836E-002	1.7703689E-005	-4.2927343E-001	0
1.0425220E+004	3.083319941630180E+001	-4.3126124E-001	-4.136711403187948E-002	1.7840033E-005	-4.3127337E-001	0
1.0442305E+004	3.103319941124937E+001	-4.3328801E-001	-4.149352130928885E-002	1.7978646E-005	-4.3327340E-001	0
1.0460384E+004	3.123319940619695E+001	-4.3524498E-001	-4.160889193532830E-002	1.8110060E-005	-4.3527344E-001	0
1.0480531E+004	3.143319940114452E+001	-4.3719861E-001	-4.171531013521423E-002	1.8237875E-005	-4.3727338E-001	0
1.0500831E+004	3.163319939609210E+001	-4.3920845E-001	-4.182606498719266E-002	1.8370361E-005	-4.3927339E-001	0
1.0529254E+004	3.183319939103967E+001	-4.4123039E-001	-4.190519045961300E-002	1.8489844E-005	-4.4127342E-001	0
1.0525871E+004	3.203319938598725E+001	-4.4323090E-001	-4.210871466316178E-002	1.8663883E-005	-4.4327340E-001	0
1.0563623E+004	3.223319938093482E+001	-4.4528723E-001	-4.215289014254342E-002	1.8770144E-005	-4.4527340E-001	0
1.0578934E+004	3.243319937588240E+001	-4.4727433E-001	-4.227971713916046E-002	1.8910632E-005	-4.4727340E-001	0
1.0595396E+004	3.263319937082997E+001	-4.4930878E-001	-4.240603795298331E-002	1.9053405E-005	-4.4927344E-001	0
1.0615239E+004	3.283319936577755E+001	-4.5123541E-001	-4.250826730547042E-002	1.9181236E-005	-4.5127338E-001	0
1.0622948E+004	3.303319936072512E+001	-4.5319945E-001	-4.266230382955498E-002	1.9334533E-005	-4.5327336E-001	0
1.0650041E+004	3.323319935567270E+001	-4.5520440E-001	-4.274203294498502E-002	1.9456362E-005	-4.5527345E-001	0
1.0656725E+004	3.343319935062027E+001	-4.5730376E-001	-4.291222643454573E-002	1.9623923E-005	-4.5727342E-001	0
1.0664168E+004	3.363319934556785E+001	-4.5928726E-001	-4.306826840895039E-002	1.9780708E-005	-4.5927337E-001	0
1.0682073E+004	3.383319934051542E+001	-4.6123981E-001	-4.317886670343907E-002	1.9915813E-005	-4.6127340E-001	0
1.0698748E+004	3.403319933546300E+001	-4.6327659E-001	-4.330194440391555E-002	2.0060777E-005	-4.6327341E-001	0
1.0699772E+004	3.423319933041057E+001	-4.6519455E-001	-4.347705188373119E-002	2.0225289E-005	-4.6527335E-001	0
1.0722063E+004	3.443319932535815E+001	-4.6722057E-001	-4.357561910928337E-002	2.0359426E-005	-4.6727338E-001	0
1.0725217E+004	3.463319932030572E+001	-4.6930301E-001	-4.375697371086351E-002	2.0535279E-005	-4.6927342E-001	0
1.0746929E+004	3.483319931525330E+001	-4.7120857E-001	-4.384588056308364E-002	2.0660555E-005	-4.7127342E-001	0
1.0747726E+004	3.503319931020087E+001	-4.7325170E-001	-4.403272854288831E-002	2.0838565E-005	-4.7327337E-001	0
1.0759154E+004	3.523319930514845E+001	-4.7524336E-001	-4.417107170109802E-002	2.0992009E-005	-4.7527340E-001	0
1.0776393E+004	3.543319930009602E+001	-4.7721076E-001	-4.428297727523989E-002	2.1132313E-005	-4.7727343E-001	0
1.0784582E+004	3.563319929504360E+001	-4.7918472E-001	-4.443238536608685E-002	2.1291320E-005	-4.7927338E-001	0
1.0793207E+004	3.583319928999117E+001	-4.8127496E-001	-4.459054243899785E-002	2.1460311E-005	-4.8127338E-001	0
1.0802973E+004	3.603319928493875E+001	-4.8318866E-001	-4.472737970192830E-002	2.1611762E-005	-4.8327342E-001	0
1.0807962E+004	3.623319927988632E+001	-4.8518813E-001	-4.489173298720645E-002	2.1780936E-005	-4.8527339E-001	0
1.0813342E+004	3.643319927483390E+001	-4.8720792E-001	-4.505618477647833E-002	2.1951730E-005	-4.8727340E-001	0
1.0837020E+004	3.663319926978147E+001	-4.8927528E-001	-4.514851085387611E-002	2.2090049E-005	-4.8927343E-001	0
1.0845162E+004	3.683319926472905E+001	-4.9117836E-001	-4.529008835363002E-002	2.2245511E-005	-4.9127340E-001	0
1.0843868E+004	3.703319925967662E+001	-4.9319863E-001	-4.548179919070150E-002	2.2431561E-005	-4.9327338E-001	0
1.0858228E+004	3.723319925462420E+001	-4.9521732E-001	-4.560756347012293E-002	2.2585655E-005	-4.9527341E-001	0
1.0873785E+004	3.743319924957177E+001	-4.9724928E-001	-4.572917872595302E-002	2.2738801E-005	-4.9727345E-001	0
1.0884889E+004	3.763319924451935E+001	-4.9924552E-001	-4.586592788465926E-002	2.2898359E-005	-4.9927339E-001	0
1.0894826E+004	3.783319923946692E+001	-5.0128442E-001	-4.601123564334939E-002	2.3064715E-005	-5.0127339E-001	0
1.0903110E+004	3.803319923441450E+001	-5.0323629E-001	-4.615529637774265E-002	2.3227019E-005	-5.0327343E-001	0
1.0914793E+004	3.823319922936207E+001	-5.0519609E-001	-4.628544897865305E-002	2.3383229E-005	-5.0527340E-001	0
1.0926496E+004	3.843319922430965E+001	-5.0725406E-001	-4.642422012525438E-002	2.3548875E-005	-5.0727344E-001	0
1.0947863E+004	3.863319921925722E+001	-5.0923568E-001	-4.651461931182055E-002	2.3686904E-005	-5.0927341E-001	0
1.0946899E+004	3.883319921420480E+001	-5.1118934E-001	-4.669718254783128E-002	2.3871102E-005	-5.1127344E-001	0
1.0974642E+004	3.903319920915237E+001	-5.1325178E-001	-4.676706560696275E-002	2.4003280E-005	-5.1327336E-001	0
1.0972988E+004	3.923319920409995E+001	-5.1520818E-001	-4.695240420008456E-002	2.4190264E-005	-5.1527339E-001	0
1.0998590E+004	3.943319919904752E+001	-5.1722795E-001	-4.702675271311513E-002	2.4323550E-005	-5.1727343E-001	0
1.1013627E+004	3.963319919399510E+001	-5.1923376E-001	-4.714466640282249E-002	2.4479103E-005	-5.1927340E-001	0
1.1028400E+004	3.983319918894267E+001	-5.2124447E-001	-4.726383338873474E-002	2.4636012E-005	-5.2127337E-001	0
1.1043090E+004	4.003319918389025E+001	-5.2320486E-001	-4.737848631220332E-002	2.4788655E-005	-5.2327341E-001	0
1.1071421E+004	4.023319917883782E+001	-5.2527517E-001	-4.744424076583009E-002	2.4921281E-005	-5.2527344E-001	0
1.1077948E+004	4.043319917378540E+001	-5.2723664E-001	-4.759334575447149E-002	2.5092955E-005	-5.2727342E-001	0
1.1096040E+004	4.063319916873297E+001	-5.2925116E-001	-4.769729980259152E-002	2.5243851E-005	-5.2927339E-001	0
1.1127408E+004	4.083319916368055E+001	-5.3121787E-001	-4.773958627099728E-002	2.5360121E-005	-5.3127342E-001	0
1.1137493E+004	4.103319915862812E+001	-5.3324890E-001	-4.787871896557488E-002	2.5531273E-005	-5.3327340E-001	0
1.1156989E+004	4.123319915357570E+001	-5.3525281E-001	-4.797466411577361E-002	2.5678573E-005	-5.3527337E-001	0
1.1178894E+004	4.143319914852327E+001	-5.3725398E-001	-4.805967473301409E-002	2.5820251E-005	-5.3727341E-001	0
1.1195689E+004	4.163319914347085E+001	-5.3927630E-001	-4.816820896774443E-002	2.5975974E-005	-5.3927338E-001	0
1.1226862E+004	4.183319913841842E+001	-5.4130274E-001	-4.821496205710640E-002	2.6098891E-005	-5.4127342E-001	0
1.1253419E+004	4.203319913336600E+001	-5.4328513E-001	-4.827734076601722E-002	2.6228361E-005	-5.4327345E-001	0
1.1270839E+004	4.223319912831357E+001	-5.4527336E-001	-4.837912673161254E-002	2.6379848E-005	-5.4527342E-001	0
1.1299774E+004	4.243319912326115E+001	-5.4726303E-001	-4.843132137167827E-002	2.6504671E-005	-5.4727346E-001	0
1.1326302E+004	4.263319911820872E+001	-5.4925036E-001	-4.849335316504200E-002	2.6634993E-005	-5.4927337E-001	0
1.1363908E+004	4.283319911315630E+001	-5.5125111E-001	-4.850893639727116E-002	2.6740605E-005	-5.5127341E-001	0
1.1400520E+004	4.303319910810387E+001	-5.5329651E-001	-4.853256993511046E-002	2.6852902E-005	-5.5327344E-001	0
1.1414731E+004	4.323319910305145E+001	-5.5527264E-001	-4.864526642966904E-002	2.7011385E-005	-5.5527335E-001	0
1.1455370E+004	4.343319909799902E+001	-5.5727035E-001	-4.864708175001042E-002	2.7109576E-005	-5.5727345E-001	0
1.1488670E+004	4.363319909294660E+001	-5.5925995E-001	-4.867925979524379E-002	2.7224360E-005	-5.5927342E-001	0
1.1514568E+004	4.383319908789417E+001	-5.6128973E-001	-4.874604951211239E-002	2.7360657E-005	-5.6127346E-001	0
1.1549856E+004	4.403319908284175E+001	-5.6324428E-001	-4.876634574921845E-002	2.7467366E-005	-5.6327337E-001	0
1.1580598E+004	4.423319907778932E+001	-5.6524944E-001	-4.881004267319373E-002	2.7589849E-005	-5.6527340E-001	0
1.1611767E+004	4.443319907273690E+001	-5.6718612E-001	-4.884580661154136E-002	2.7704664E-005	-5.6727344E-001	0
1.1647473E+004	4.463319906768447E+001	-5.6930441E-001	-4.887793632778548E-002	2.7826425E-005	-5.6927335E-001	0
1.1690815E+004	4.483319906263205E+001	-5.7125562E-001	-4.886362477244754E-002	2.7913620E-005	-5.7127339E-001	0
1.1716897E+004	4.503319905757962E+001	-5.7324344E-001	-4.892450823794947E-002	2.8045653E-005	-5.7327342E-001	0
1.1766544E+004	4.523319905252720E+001	-5.7526916E-001	-4.889023930331726E-002	2.8125047E-005	-5.7527339E-001	0
1.1800898E+004	4.543319904747477E+001	-5.7726413E-001	-4.891696647590976E-002	2.8238010E-005	-5.7727343E-001	0
1.1825563E+004	4.563319904242235E+001	-5.7923371E-001	-4.898149029630550E-002	2.8371731E-005	-5.7927340E-001	0
1.1876667E+004	4.583319903736992E+001	-5.8119470E-001	-4.893583994329220E-002	2.8441251E-005	-5.8127344E-001	0
1.1914245E+004	4.603319903231750E+001	-5.8331162E-001	-4.895917717377973E-002	2.8558457E-005	-5.8327341E-001	0
1.1946051E+004	4.623319902726507E+001	-5.8528078E-001	-4.899366060483057E-002	2.8675047E-005	-5.8527339E-001	0
1.1975076E+004	4.643319902221265E+001	-5.8722740E-001	-4.903746610232851E-002	2.8796145E-005	-5.8727342E-001	0
1.2022433E+004	4.663319901716022E+001	-5.8919543E-001	-4.900800357224272E-002	2.8875293E-005	-5.8927333E-001	0
1.2044549E+004	4.683319901210780E+001	-5.9126681E-001	-4.908999069931723E-002	2.9025283E-005	-5.9127343E-001	0
1.2087295E+004	4.703319900705537E+001	-5.9319139E-001	-4.907560968442137E-002	2.9111228E-005	-5.9327346E-001	0
1.2127451E+004	4.723319900200295E+001	-5.9518123E-001	-4.907719104639469E-002	2.9209823E-005	-5.9527338E-001	0
1.2157428E+004	4.743319899695052E+001	-5.9720546E-001	-4.912268236710293E-002	2.9336334E-005	-5.9727341E-001	0
1.2184803E+004	4.763319899189810E+001	-5.9921890E-001	-4.917756324663536E-002	2.9468125E-005	-5.9927338E-001	0
1.2217751E+004	4.783319898684567E+001	-6.0125422E-001	-4.921152903128184E-002	2.9588640E-005	-6.0127348E-001	0
1.2246717E+004	4.803319898179325E+001	-6.0325855E-001	-4.925879973880209E-002	2.9715791E-005	-6.0327339E-001	0
1.2284757E+004	4.823319897674082E+001	-6.0519588E-001	-4.926397037943664E-002	2.9814351E-005	-6.0527337E-001	0
1.2309106E+004	4.843319897168840E+001	-6.0725760E-001	-4.933401039809993E-002	2.9958454E-005	-6.0727346E-001	0
1.2330419E+004	4.863319896663597E+001	-6.0920238E-001	-4.940646397194848E-002	3.0098536E-005	-6.0927337E-001	0
1.2354403E+004	4.883319896158355E+001	-6.1127859E-001	-4.947859972827295E-002	3.0245208E-005	-6.1127341E-001	0
1.2379661E+004	4.903319895653112E+001	-6.1329520E-001	-4.954054985932441E-002	3.0382982E-005	-6.1327338E-001	0
1.2407586E+004	4.923319895147870E+001	-6.1520296E-001	-4.958281080320870E-002	3.0503492E-005	-6.1527342E-001	0
1.2418535E+004	4.943319894642627E+001	-6.1721218E-001	-4.970088366909020E-002	3.0675990E-005	-6.1727339E-001	0
1.2445474E+004	4.963319894137385E+001	-6.1932319E-001	-4.976292537702698E-002	3.0819334E-005	-6.1927342E-001	0
1.2483073E+004	4.983319893632142E+001	-6.2125570E-001	-4.976784794796259E-002	3.0918560E-005	-6.2127346E-001	0
1.2498401E+004	5.003319893126900E+001	-6.2324721E-001	-4.986615517005619E-002	3.1078940E-005	-6.2327337E-001	0
1.2523260E+004	5.023319892621657E+001	-6.2524790E-001	-4.992692674881904E-002	3.1216707E-005	-6.2527341E-001	0
1.2551562E+004	5.043319892116415E+001	-6.2734240E-001	-4.998122381052761E-002	3.1355343E-005	-6.2727344E-001	0
1.2572383E+004	5.063319891611172E+001	-6.2925488E-001	-5.005056562024635E-002	3.1494561E-005	-6.2927347E-001	0
1.2599569E+004	5.083319891105930E+001	-6.3128060E-001	-5.010334649619552E-002	3.1629272E-005	-6.3127339E-001	0
1.2635930E+004	5.103319890600687E+001	-6.3327599E-001	-5.011708723210107E-002	3.1737949E-005	-6.3327342E-001	0
1.2651090E+004	5.123319890095445E+001	-6.3520646E-001	-5.020962222141384E-002	3.1893476E-005	-6.3527346E-001	0
1.2665083E+004	5.143319889590202E+001	-6.3728333E-001	-5.031813085797210E-002	3.2066906E-005	-6.3727343E-001	0
1.2689347E+004	5.163319889084960E+001	-6.3929403E-001	-5.038037431498149E-002	3.2207874E-005	-6.3927335E-001	0
1.2696828E+004	5.183319888579717E+001	-6.4124811E-001	-5.050459084240405E-002	3.2385975E-005	-6.4127344E-001	0
1.2702487E+004	5.203319888074475E+001	-6.4331603E-001	-5.064488606223352E-002	3.2580669E-005	-6.4327341E-001	0
1.2728655E+004	5.223319887569232E+001	-6.4529872E-001	-5.069653371448252E-002	3.2714408E-005	-6.4527339E-001	0
1.2737396E+004	5.243319887063990E+001	-6.4727801E-001	-5.081713692361145E-002	3.2892814E-005	-6.4727342E-001	0
1.2727207E+004	5.263319886558747E+001	-6.4926428E-001	-5.101388458652489E-002	3.3121494E-005	-6.4927340E-001	0
1.2726989E+004	5.283319886053505E+001	-6.5126163E-001	-5.117169710123270E-002	3.3326163E-005	-6.5127343E-001	0
1.2738885E+004	5.303319885548262E+001	-6.5325618E-001	-5.128048237808103E-002	3.3499291E-005	-6.5327340E-001	0
1.2722307E+004	5.323319885043020E+001	-6.5527451E-001	-5.150595035028083E-002	3.3750537E-005	-6.5527344E-001	0
1.2717560E+004	5.343319884537777E+001	-6.5728670E-001	-5.168339881629958E-002	3.3970809E-005	-6.5727341E-001	0
1.2729115E+004	5.363319884032535E+001	-6.5925503E-001	-5.179111045244600E-002	3.4143552E-005	-6.5927339E-001	0
1.2722337E+004	5.383319883527292E+001	-6.6130948E-001	-5.198018748551836E-002	3.4374993E-005	-6.6127342E-001	0
1.2716117E+004	5.403319883022050E+001	-6.6324675E-001	-5.215796296296848E-002	3.4593599E-005	-6.6327345E-001	0
1.2709677E+004	5.423319882516807E+001	-6.6525620E-001	-5.234249695225322E-002	3.4821172E-005	-6.6527337E-001	0
1.2715289E+004	5.443319882011565E+001	-6.6727722E-001	-5.247833602216997E-002	3.5017598E-005	-6.6727340E-001	0
1.2722499E+004	5.463319881506322E+001	-6.6921955E-001	-5.260126431400802E-002	3.5201796E-005	-6.6927344E-001	0
1.2735320E+004	5.483319881001080E+001	-6.7127043E-001	-5.270934871518293E-002	3.5382229E-005	-6.7127341E-001	0
1.2751413E+004	5.503319880495837E+001	-6.7324477E-001	-5.279766196646873E-002	3.5545749E-005	-6.7327338E-001	0
1.2763420E+004	5.523319879990595E+001	-6.7528051E-001	-5.290748941334059E-002	3.5727397E-005	-6.7527342E-001	0
1.2776179E+004	5.543319879485352E+001	-6.7729568E-001	-5.301238476011527E-002	3.5905061E-005	-6.7727345E-001	0
1.2783838E+004	5.563319878980110E+001	-6.7923230E-001	-5.313211052452571E-002	3.6089044E-005	-6.7927337E-001	0
1.2808692E+004	5.583319878474867E+001	-6.8127674E-001	-5.318862714492156E-002	3.6236175E-005	-6.8127340E-001	0
1.2814282E+004	5.603319877969625E+001	-6.8327701E-001	-5.332151946322372E-002	3.6433368E-005	-6.8327349E-001	0
1.2841954E+004	5.623319877464382E+001	-6.8528152E-001	-5.336271170178281E-002	3.6568479E-005	-6.8527341E-001	0
1.2857484E+004	5.643319876959140E+001	-6.8722731E-001	-5.344959209639355E-002	3.6732021E-005	-6.8727338E-001	0
1.2854532E+004	5.663319876453897E+001	-6.8921548E-001	-5.361653714654091E-002	3.6953348E-005	-6.8927342E-001	0
1.2877437E+004	5.683319875948655E+001	-6.9131446E-001	-5.368416946298959E-002	3.7112644E-005	-6.9127345E-001	0
1.2882742E+004	5.703319875443412E+001	-6.9324130E-001	-5.381162713182586E-002	3.7304442E-005	-6.9327337E-001	0
1.2902063E+004	5.723319874938170E+001	-6.9526970E-001	-5.388825943549902E-002	3.7466874E-005	-6.9527340E-001	0
1.2904775E+004	5.743319874432927E+001	-6.9722068E-001	-5.402811632339616E-002	3.7669521E-005	-6.9727349E-001	0
1.2911954E+004	5.763319873927685E+001	-6.9924080E-001	-5.415452872994264E-002	3.7867056E-005	-6.9927341E-001	0
1.2931586E+004	5.783319873422442E+001	-7.0128661E-001	-5.423051978423421E-002	3.8031136E-005	-7.0127344E-001	0
1.2939525E+004	5.803319872917200E+001	-7.0329481E-001	-5.435244226511471E-002	3.8225789E-005	-7.0327348E-001	0
1.2933839E+004	5.823319872411957E+001	-7.0533061E-001	-5.453374074791006E-002	3.8464317E-005	-7.0527345E-001	0
1.2959440E+004	5.843319871906715E+001	-7.0728576E-001	-5.457687629978103E-002	3.8601447E-005	-7.0727342E-001	0
1.2955298E+004	5.863319871401472E+001	-7.0925850E-001	-5.474660033993650E-002	3.8829490E-005	-7.0927340E-001	0
1.2976061E+004	5.883319870896230E+001	-7.1124715E-001	-5.481225598071296E-002	3.8985061E-005	-7.1127349E-001	0
1.2974229E+004	5.903319870390987E+001	-7.1324587E-001	-5.497404683514395E-002	3.9210012E-005	-7.1327335E-001	0
1.2993326E+004	5.923319869885745E+001	-7.1527553E-001	-5.504945345495393E-002	3.9375525E-005	-7.1527344E-001	0
1.3002442E+004	5.943319869380503E+001	-7.1726704E-001	-5.516402308814350E-002	3.9567334E-005	-7.1727347E-001	0
1.3011646E+004	5.963319868875260E+001	-7.1920985E-001	-5.527432010426725E-002	3.9753835E-005	-7.1927339E-001	0
1.3017902E+004	5.983319868370018E+001	-7.2125590E-001	-5.540492523001206E-002	3.9961131E-005	-7.2127336E-001	0
1.3039104E+004	6.003319867864775E+001	-7.2328663E-001	-5.547058006881622E-002	4.0121129E-005	-7.2327346E-001	0
1.3052825E+004	6.023319867359533E+001	-7.2523040E-001	-5.556118274276523E-002	4.0294657E-005	-7.2527355E-001	0
1.3069325E+004	6.043319866854290E+001	-7.2725040E-001	-5.564559501006583E-002	4.0468280E-005	-7.2727340E-001	0
1.3085646E+004	6.063319866349048E+001	-7.2921216E-001	-5.572610870774519E-002	4.0636158E-005	-7.2927338E-001	0
1.3118941E+004	6.083319865843805E+001	-7.3127007E-001	-5.574154681230481E-002	4.0762126E-005	-7.3127347E-001	0
1.3150217E+004	6.103319865338563E+001	-7.3323154E-001	-5.575813312883846E-002	4.0883620E-005	-7.3327339E-001	0
1.3183741E+004	6.123319864833320E+001	-7.3528045E-001	-5.577176201258671E-002	4.1007886E-005	-7.3527342E-001	0
1.3205933E+004	6.143319864328078E+001	-7.3726040E-001	-5.582797075748441E-002	4.1159754E-005	-7.3727345E-001	0
1.3266877E+004	6.163319863822835E+001	-7.3926389E-001	-5.572252567010683E-002	4.1193653E-005	-7.3927343E-001	0
1.3309983E+004	6.183319863317593E+001	-7.4125910E-001	-5.569196206542870E-002	4.1282172E-005	-7.4127340E-001	0
1.3357434E+004	6.203319862812350E+001	-7.4325466E-001	-5.564352380673543E-002	4.1357307E-005	-7.4327338E-001	0
1.3410929E+004	6.223319862307108E+001	-7.4531895E-001	-5.557549307587401E-002	4.1421466E-005	-7.4527353E-001	0
1.3490773E+004	6.243319861801865E+001	-7.4733543E-001	-5.539603967720114E-002	4.1399424E-005	-7.4727345E-001	0
1.3557018E+004	6.263319861296623E+001	-7.4928457E-001	-5.526913046232879E-002	4.1412306E-005	-7.4927342E-001	0
1.3610674E+004	6.283319860791380E+001	-7.5123286E-001	-5.519439343441190E-002	4.1463842E-005	-7.5127345E-001	0
1.3683799E+004	6.303319860286138E+001	-7.5328988E-001	-5.504976203686259E-002	4.1468429E-005	-7.5327337E-001	0
1.3744831E+004	6.323319859780895E+001	-7.5524092E-001	-5.494726666031813E-002	4.1498424E-005	-7.5527346E-001	0
1.3773244E+004	6.343319859275653E+001	-7.5727659E-001	-5.498171771101457E-002	4.1636369E-005	-7.5727344E-001	0
1.3845100E+004	6.363319858770410E+001	-7.5929493E-001	-5.484214237291396E-002	4.1641360E-005	-7.5927353E-001	0
1.3901059E+004	6.383319858265168E+001	-7.6130015E-001	-5.476562543128038E-002	4.1693078E-005	-7.6127338E-001	0
1.3948197E+004	6.403319857759925E+001	-7.6329464E-001	-5.472353278435427E-002	4.1770178E-005	-7.6327336E-001	0
1.3978068E+004	6.423319857254683E+001	-7.6523638E-001	-5.474550073941031E-002	4.1893250E-005	-7.6527345E-001	0
1.4043812E+004	6.443319856749440E+001	-7.6725066E-001	-5.463265078437940E-002	4.1916937E-005	-7.6727343E-001	0
1.4074749E+004	6.463319856244198E+001	-7.6924336E-001	-5.465414255008494E-002	4.2042335E-005	-7.6927340E-001	0
1.4131085E+004	6.483319855738955E+001	-7.7127010E-001	-5.457968192118012E-002	4.2095675E-005	-7.7127343E-001	0
1.4190093E+004	6.503319855233713E+001	-7.7325690E-001	-5.449273206014826E-002	4.2136882E-005	-7.7327347E-001	0
1.4217081E+004	6.523319854728470E+001	-7.7525699E-001	-5.452996992206183E-002	4.2274740E-005	-7.7527338E-001	0
1.4262317E+004	6.543319854223228E+001	-7.7729309E-001	-5.449977344115320E-002	4.2362299E-005	-7.7727342E-001	0
1.4290999E+004	6.563319853717985E+001	-7.7923137E-001	-5.452602387980354E-002	4.2488387E-005	-7.7927351E-001	0
1.4297711E+004	6.583319853212743E+001	-7.8126919E-001	-5.464295585863621E-002	4.2690859E-005	-7.8127342E-001	0
1.4300426E+004	6.603319852707500E+001	-7.8326893E-001	-5.477242055929799E-002	4.2901534E-005	-7.8327346E-001	0
1.4310868E+004	6.623319852202258E+001	-7.8527945E-001	-5.487294241843033E-002	4.3090593E-005	-7.8527349E-001	0
1.4315019E+004	6.643319851697015E+001	-7.8724396E-001	-5.499426786663197E-002	4.3293905E-005	-7.8727347E-001	0
1.4324298E+004	6.663319851191773E+001	-7.8928638E-001	-5.510122600896394E-002	4.3490647E-005	-7.8927344E-001	0
1.4292293E+004	6.683319850686530E+001	-7.9126960E-001	-5.536337668718161E-002	4.3807358E-005	-7.9127342E-001	0
1.4268677E+004	6.703319850181288E+001	-7.9327190E-001	-5.559533794279581E-002	4.4102220E-005	-7.9327351E-001	0
1.4203725E+004	6.723319849676045E+001	-7.9527742E-001	-5.599076551218407E-002	4.4528191E-005	-7.9527354E-001	0
1.4172787E+004	6.743319849170803E+001	-7.9718286E-001	-5.624742969520014E-002	4.4839486E-005	-7.9727346E-001	0
1.4168974E+004	6.763319848665560E+001	-7.9928041E-001	-5.641060864685876E-002	4.5087894E-005	-7.9927349E-001	0
1.4096713E+004	6.783319848160318E+001	-8.0129039E-001	-5.684235814352689E-002	4.5547236E-005	-8.0127352E-001	0
1.4072559E+004	6.803319847655075E+001	-8.0324501E-001	-5.707881644066184E-002	4.5848275E-005	-8.0327338E-001	0
1.3981039E+004	6.823319847149833E+001	-8.0527288E-001	-5.759749804779712E-002	4.6381701E-005	-8.0527347E-001	0
1.3936804E+004	6.843319846644590E+001	-8.0728406E-001	-5.792461817264738E-002	4.6761619E-005	-8.0727357E-001	0
1.3877976E+004	6.863319846139348E+001	-8.0923826E-001	-5.831097392840487E-002	4.7187470E-005	-8.0927342E-001	0
1.3794633E+004	6.883319845634105E+001	-8.1126547E-001	-5.881022642917791E-002	4.7710706E-005	-8.1127352E-001	0
1.3719047E+004	6.903319845128863E+001	-8.1323117E-001	-5.927752539285325E-002	4.8206330E-005	-8.1327349E-001	0
1.3632116E+004	6.923319844623620E+001	-8.1527686E-001	-5.980559602873969E-002	4.8758120E-005	-8.1527346E-001	0
1.3552824E+004	6.943319844118378E+001	-8.1728613E-001	-6.030375105402774E-002	4.9285420E-005	-8.1727344E-001	0
1.3455146E+004	6.963319843613135E+001	-8.1928265E-001	-6.088991152321122E-002	4.9886046E-005	-8.1927347E-001	0
1.3345985E+004	6.983319843107893E+001	-8.2130605E-001	-6.153955822704948E-002	5.0542811E-005	-8.2127351E-001	0
1.3251995E+004	7.003319842602650E+001	-8.2334030E-001	-6.212953598684101E-002	5.1153751E-005	-8.2327342E-001	0
1.3156235E+004	7.023319842097408E+001	-8.2527429E-001	-6.272875695529456E-002	5.1768431E-005	-8.2527339E-001	0
1.3019591E+004	7.043319841592165E+001	-8.2726991E-001	-6.354039280818968E-002	5.2565054E-005	-8.2727355E-001	0
1.2931394E+004	7.063319841086923E+001	-8.2927525E-001	-6.412883793519142E-002	5.3180458E-005	-8.2927352E-001	0
1.2826424E+004	7.083319840581680E+001	-8.3124137E-001	-6.480694490763655E-002	5.3870215E-005	-8.3127344E-001	0
1.2723901E+004	7.103319840076438E+001	-8.3336073E-001	-6.549569251925996E-002	5.4581538E-005	-8.3327347E-001	0
1.2610656E+004	7.123319839571195E+001	-8.3526701E-001	-6.623501425699818E-002	5.5323922E-005	-8.3527350E-001	0
1.2480716E+004	7.143319839065953E+001	-8.3731949E-001	-6.708905959920008E-002	5.6174977E-005	-8.3727336E-001	0
1.2357501E+004	7.163319838560710E+001	-8.3929664E-001	-6.791799285611710E-002	5.7003344E-005	-8.3927345E-001	0
1.2246909E+004	7.183319838055468E+001	-8.4128165E-001	-6.869338286297200E-002	5.7790483E-005	-8.4127355E-001	0
1.2112378E+004	7.203319837550225E+001	-8.4321266E-001	-6.961578022859682E-002	5.8700909E-005	-8.4327340E-001	0
1.1998812E+004	7.223319837044983E+001	-8.4525985E-001	-7.044529754989448E-002	5.9544582E-005	-8.4527349E-001	0
1.1836153E+004	7.243319836539740E+001	-8.4731042E-001	-7.158663989701475E-002	6.0656108E-005	-8.4727347E-001	0
1.1708988E+004	7.263319836034498E+001	-8.4926248E-001	-7.253081562808483E-002	6.1597697E-005	-8.4927344E-001	0
1.1572177E+004	7.283319835529255E+001	-8.5123944E-001	-7.355914330067748E-002	6.2616447E-005	-8.5127342E-001	0
1.1426908E+004	7.303319835024013E+001	-8.5323584E-001	-7.466900180719027E-002	6.3710271E-005	-8.5327345E-001	0
1.1247064E+004	7.323319834518770E+001	-8.5529268E-001	-7.604585651703211E-002	6.5041466E-005	-8.5527360E-001	0
1.1075136E+004	7.343319834013528E+001	-8.5730016E-001	-7.740764462287686E-002	6.6361587E-005	-8.5727346E-001	0
1.0884112E+004	7.363319833508285E+001	-8.5927886E-001	-7.894799292463472E-002	6.7838344E-005	-8.5927337E-001	0
1.0692370E+004	7.383319833003043E+001	-8.6133188E-001	-8.055574521253417E-002	6.9385234E-005	-8.6127353E-001	0
1.0481004E+004	7.403319832497800E+001	-8.6327267E-001	-8.236545543218043E-002	7.1103845E-005	-8.6327350E-001	0
1.0129703E+004	7.424319831967296E+001	-8.6540556E-001	-8.543247376328500E-002	7.3933741E-005	-8.6537349E-001	0
9.8675654E+003	7.445319831436791E+001	-8.6744106E-001	-8.790831431448753E-002	7.6255281E-005	-8.6747348E-001	0
9.6091055E+003	7.465319830931549E+001	-8.6945879E-001	-9.048280141595137E-002	7.8671066E-005	-8.6947346E-001	0
9.3120088E+003	7.485319830426306E+001	-8.7143511E-001	-9.358185690684095E-002	8.1550512E-005	-8.7147343E-001	0
9.0025869E+003	7.505319829921064E+001	-8.7345123E-001	-9.702224562170603E-002	8.4744199E-005	-8.7347347E-001	0
8.6511934E+003	7.525319829415821E+001	-8.7545663E-001	-1.011948985630506E-001	8.8591747E-005	-8.7547350E-001	0
8.2890684E+003	7.545319828910579E+001	-8.7744761E-001	-1.058560043896488E-001	9.2883100E-005	-8.7747347E-001	0
7.9202617E+003	7.565319828405336E+001	-8.7943661E-001	-1.110363101392418E-001	9.7649398E-005	-8.7947339E-001	0
7.5309419E+003	7.585319827900094E+001	-8.8143611E-001	-1.170419485882648E-001	1.0316500E-004	-8.8147354E-001	0
7.1311470E+003	7.605319827394851E+001	-8.8345695E-001	-1.238870740901941E-001	1.0944890E-004	-8.8347346E-001	0
6.7471753E+003	7.625319826889609E+001	-8.8547528E-001	-1.312364377957813E-001	1.1620662E-004	-8.8547343E-001	0
6.3734546E+003	7.645319826384366E+001	-8.8743931E-001	-1.392399193782392E-001	1.2356698E-004	-8.8747352E-001	0
6.0240820E+003	7.665319825879124E+001	-8.8943869E-001	-1.476471714354424E-001	1.3132310E-004	-8.8947350E-001	0
5.6933516E+003	7.685319825373881E+001	-8.9142340E-001	-1.565726983546780E-001	1.3957257E-004	-8.9147347E-001	0
5.3892227E+003	7.705319824868639E+001	-8.9341217E-001	-1.657775625356316E-001	1.4810769E-004	-8.9347345E-001	0
5.1001611E+003	7.725319824363396E+001	-8.9542139E-001	-1.755672771506887E-001	1.5720670E-004	-8.9547354E-001	0
4.7931226E+003	7.745319823858154E+001	-8.9741820E-001	-1.872303887775120E-001	1.6802397E-004	-8.9747351E-001	0
4.5826558E+003	7.765319823352911E+001	-8.9942598E-001	-1.962674201377443E-001	1.7652802E-004	-8.9947349E-001	0
4.3914531E+003	7.785319822847669E+001	-9.0142387E-001	-2.052677970109276E-001	1.8503329E-004	-9.0147346E-001	0
4.2190195E+003	7.805319822342426E+001	-9.0346438E-001	-2.141408389349748E-001	1.9346862E-004	-9.0347344E-001	0
4.0606047E+003	7.825319821837184E+001	-9.0545201E-001	-2.229845276072853E-001	2.0190178E-004	-9.0547353E-001	0
3.9194109E+003	7.845319821331941E+001	-9.0745413E-001	-2.315281986759419E-001	2.1010122E-004	-9.0747350E-001	0
3.7898887E+003	7.865319820826699E+001	-9.0944046E-001	-2.399649582845473E-001	2.1823384E-004	-9.0947348E-001	0
3.6621699E+003	7.885319820321456E+001	-9.1143769E-001	-2.488791444623963E-001	2.2683783E-004	-9.1147345E-001	0
3.5316594E+003	7.905319819816214E+001	-9.1342878E-001	-2.586401020685649E-001	2.3624931E-004	-9.1347349E-001	0
3.3735469E+003	7.925319819310971E+001	-9.1543502E-001	-2.713568420202179E-001	2.4840955E-004	-9.1547352E-001	0
3.1927727E+003	7.945319818805729E+001	-9.1742945E-001	-2.873456876919240E-001	2.6361938E-004	-9.1747350E-001	0
3.0506396E+003	7.965319818300486E+001	-9.1942996E-001	-3.013892441717665E-001	2.7710630E-004	-9.1947347E-001	0
2.8904810E+003	7.985319817795244E+001	-9.2145467E-001	-3.187893876476453E-001	2.9374997E-004	-9.2147350E-001	0
2.7210657E+003	8.005319817290001E+001	-9.2344797E-001	-3.393699523893580E-001	3.1339048E-004	-9.2347354E-001	0
2.5407383E+003	8.025319816784759E+001	-9.2543691E-001	-3.642393838056694E-001	3.3708056E-004	-9.2547351E-001	0
2.3452957E+003	8.045319816279516E+001	-9.2742568E-001	-3.954408312419133E-001	3.6674200E-004	-9.2747343E-001	0
2.1923450E+003	8.065319815774274E+001	-9.2947501E-001	-4.239638320544135E-001	3.9406380E-004	-9.2947352E-001	0
2.0341456E+003	8.085319815269031E+001	-9.3145740E-001	-4.579108604346129E-001	4.2652446E-004	-9.3147349E-001	0
1.8684833E+003	8.105319814763789E+001	-9.3342304E-001	-4.995618852535406E-001	4.6630256E-004	-9.3347341E-001	0
1.7416212E+003	8.125319814258546E+001	-9.3547833E-001	-5.371307641766183E-001	5.0247420E-004	-9.3547356E-001	0
1.5961444E+003	8.145319813753304E+001	-9.3744957E-001	-5.873212689521159E-001	5.5058405E-004	-9.3747342E-001	0
1.4914958E+003	8.165319813248061E+001	-9.3941879E-001	-6.298501060773010E-001	5.9169304E-004	-9.3947351E-001	0
1.3722583E+003	8.185319812742819E+001	-9.4144452E-001	-6.860548878202635E-001	6.4588262E-004	-9.4147348E-001	0
1.2848068E+003	8.205319812237576E+001	-9.4346684E-001	-7.343258642403612E-001	6.9281209E-004	-9.4347358E-001	0
1.1890334E+003	8.225319811732334E+001	-9.4549090E-001	-7.951760577363167E-001	7.5183174E-004	-9.4547355E-001	0
1.1095991E+003	8.245319811227091E+001	-9.4744313E-001	-8.538607871096522E-001	8.0898451E-004	-9.4747347E-001	0
1.0388889E+003	8.265319810721849E+001	-9.4946313E-001	-9.139217494093685E-001	8.6773501E-004	-9.4947350E-001	0
9.6834076E+002	8.285319810216606E+001	-9.5145220E-001	-9.825592915909773E-001	9.3485822E-004	-9.5147347E-001	0
9.0792090E+002	8.306319809686102E+001	-9.5358855E-001	-1.050299162656080E+000	1.0015533E-003	-9.5357358E-001	0
8.5049963E+002	8.327319809155597E+001	-9.5566690E-001	-1.123653491726675E+000	1.0738384E-003	-9.5567346E-001	0
8.0174487E+002	8.347319808650354E+001	-9.5766383E-001	-1.194474542669770E+000	1.1439051E-003	-9.5767343E-001	0
7.5470898E+002	8.367319808145112E+001	-9.5965654E-001	-1.271558383137593E+000	1.2202593E-003	-9.5967352E-001	0
7.1458112E+002	8.387319807639869E+001	-9.6163768E-001	-1.345736255239940E+000	1.2941107E-003	-9.6167350E-001	0
6.7826654E+002	8.407319807134627E+001	-9.6366870E-001	-1.420781676528684E+000	1.3691628E-003	-9.6367347E-001	0
6.4443890E+002	8.427319806629384E+001	-9.6563834E-001	-1.498417160754636E+000	1.4469291E-003	-9.6567345E-001	0
6.1276129E+002	8.447319806124142E+001	-9.6763909E-001	-1.579145264666096E+000	1.5280427E-003	-9.6767348E-001	0
5.8364813E+002	8.467319805618899E+001	-9.6963364E-001	-1.661332612151866E+000	1.6108840E-003	-9.6967351E-001	0
5.5665491E+002	8.487319805113657E+001	-9.7161299E-001	-1.745449378985136E+000	1.6959013E-003	-9.7167349E-001	0
5.3281055E+002	8.507319804608414E+001	-9.7362995E-001	-1.827347325967821E+000	1.7791601E-003	-9.7367340E-001	0
5.1027512E+002	8.527319804103172E+001	-9.7562140E-001	-1.911951708364512E+000	1.8653410E-003	-9.7567350E-001	0
4.8925443E+002	8.547319803597929E+001	-9.7762281E-001	-1.998189025674684E+000	1.9534752E-003	-9.7767353E-001	0
4.6984213E+002	8.567319803092687E+001	-9.7961277E-001	-2.084982858763803E+000	2.0424759E-003	-9.7967345E-001	0
4.5177014E+002	8.587319802587444E+001	-9.8160696E-001	-2.172801727965433E+000	2.1328372E-003	-9.8167342E-001	0
4.3452322E+002	8.607319802082202E+001	-9.8362368E-001	-2.263685030647277E+000	2.2266142E-003	-9.8367351E-001	0
4.1883917E+002	8.627319801576959E+001	-9.8564690E-001	-2.353282532791965E+000	2.3195057E-003	-9.8567349E-001	0
4.0390195E+002	8.647319801071717E+001	-9.8762912E-001	-2.445219911229451E+000	2.4149704E-003	-9.8767346E-001	0
3.9013470E+002	8.667319800566474E+001	-9.8965579E-001	-2.536702820858032E+000	2.5104627E-003	-9.8967355E-001	0
3.7703854E+002	8.687319800061232E+001	-9.9161118E-001	-2.629999584317751E+000	2.6079370E-003	-9.9167341E-001	0
3.6468369E+002	8.707319799555989E+001	-9.9363941E-001	-2.724661094379389E+000	2.7073307E-003	-9.9367350E-001	0
3.5292014E+002	8.727319799050747E+001	-9.9560410E-001	-2.821046416941286E+000	2.8086454E-003	-9.9567342E-001	0
3.4180609E+002	8.747319798545504E+001	-9.9765921E-001	-2.918787036927384E+000	2.9119547E-003	-9.9767339E-001	0
3.3164963E+002	8.767319798040262E+001	-9.9959308E-001	-3.014003247360524E+000	3.0127768E-003	-9.9967343E-001	0
3.2167862E+002	8.787329797534767E+001	-1.0016584E+000	-3.113848436754686E+000	3.1190126E-003	-1.0016743E+000	0
3.1224182E+002	8.807349797029019E+001	-1.0036310E+000	-3.214274637309862E+000	3.2259456E-003	-1.0036763E+000	0
3.0334494E+002	8.827399796522514E+001	-1.0056528E+000	-3.315212121477302E+000	3.3339523E-003	-1.0056808E+000	0
2.9500540E+002	8.847419796016766E+001	-1.0076494E+000	-3.415698036010836E+000	3.4418262E-003	-1.0076834E+000	0
2.8692728E+002	8.867419795511523E+001	-1.0096625E+000	-3.518879575388780E+000	3.5528808E-003	-1.0096835E+000	0
2.7919437E+002	8.887429795006028E+001	-1.0116228E+000	-3.623363851574780E+000	3.6654775E-003	-1.0116843E+000	0
2.7185239E+002	8.907459794500028E+001	-1.0136328E+000	-3.728614794441120E+000	3.7794462E-003	-1.0136870E+000	0
2.6471518E+002	8.927499793993775E+001	-1.0156471E+000	-3.836754314183401E+000	3.8967882E-003	-1.0156910E+000	0
2.5800723E+002	8.947539793487522E+001	-1.0176663E+000	-3.944332699556952E+000	4.0140147E-003	-1.0176950E+000	0
2.5146939E+002	8.967579792981269E+001	-1.0196913E+000	-4.054932170846492E+000	4.1347793E-003	-1.0196990E+000	0
2.4519623E+002	8.987599792475521E+001	-1.0216558E+000	-4.166686373705787E+000	4.2569195E-003	-1.0217015E+000	0
2.3918628E+002	9.007609791970026E+001	-1.0236641E+000	-4.279777839479635E+000	4.3810550E-003	-1.0237023E+000	0
2.3345218E+002	9.027639791464026E+001	-1.0256969E+000	-4.393605797830169E+000	4.5065079E-003	-1.0257050E+000	0
2.2798402E+002	9.047699790957267E+001	-1.0276761E+000	-4.507667066238646E+000	4.6324218E-003	-1.0277109E+000	0
2.2260524E+002	9.067729790451267E+001	-1.0296953E+000	-4.625656084860527E+000	4.7630160E-003	-1.0297143E+000	0
2.1749411E+002	9.087749789945519E+001	-1.0317204E+000	-4.743670545227701E+000	4.8941416E-003	-1.0317163E+000	0
2.1257768E+002	9.107759789440024E+001	-1.0337001E+000	-4.862693381214910E+000	5.0265668E-003	-1.0337174E+000	0
2.0769408E+002	9.127779788934276E+001	-1.0357157E+000	-4.986736862983335E+000	5.1648417E-003	-1.0357189E+000	0
2.0306126E+002	9.147809788428276E+001	-1.0376927E+000	-5.110244309309909E+000	5.3028632E-003	-1.0377222E+000	0
1.9854074E+002	9.167829787922528E+001	-1.0397012E+000	-5.236714881462440E+000	5.4446189E-003	-1.0397242E+000	0
1.9411226E+002	9.187849787416781E+001	-1.0417199E+000	-5.366584718501326E+000	5.5904780E-003	-1.0417264E+000	0
1.8987216E+002	9.207859786911285E+001	-1.0437329E+000	-5.497029443041271E+000	5.7374304E-003	-1.0437274E+000	0
1.8586156E+002	9.227859786406043E+001	-1.0457226E+000	-5.626352129575906E+000	5.8836038E-003	-1.0457275E+000	0
1.8179665E+002	9.247869785900548E+001	-1.0477448E+000	-5.763278703980433E+000	6.0384450E-003	-1.0477283E+000	0
1.7799036E+002	9.267889785394800E+001	-1.0497242E+000	-5.897646478055322E+000	6.1909026E-003	-1.0497303E+000	0
1.7410776E+002	9.287919784888800E+001	-1.0516882E+000	-6.040444154462818E+000	6.3526640E-003	-1.0517333E+000	0
1.7053146E+002	9.307949784382799E+001	-1.0537250E+000	-6.179065088271273E+000	6.5110354E-003	-1.0537363E+000	0
1.6692313E+002	9.327969783877052E+001	-1.0557411E+000	-6.324714203121598E+000	6.6772606E-003	-1.0557383E+000	0
1.6349033E+002	9.347989783371304E+001	-1.0577289E+000	-6.469672884581868E+000	6.8431599E-003	-1.0577402E+000	0
1.6002972E+002	9.368009782865556E+001	-1.0597413E+000	-6.622152698877869E+000	7.0177685E-003	-1.0597422E+000	0
1.5677878E+002	9.388039782359556E+001	-1.0617566E+000	-6.772323527519973E+000	7.1905591E-003	-1.0617452E+000	0
1.5353360E+002	9.408069781853555E+001	-1.0637330E+000	-6.928340196550224E+000	7.3699038E-003	-1.0637482E+000	0
1.5042915E+002	9.428089781347808E+001	-1.0657487E+000	-7.084721390008269E+000	7.5505325E-003	-1.0657504E+000	0
1.4737881E+002	9.448109780842060E+001	-1.0677383E+000	-7.244855916016267E+000	7.7356100E-003	-1.0677522E+000	0
1.4436734E+002	9.468139780336060E+001	-1.0697186E+000	-7.409699516019565E+000	7.9262936E-003	-1.0697550E+000	0
1.4139349E+002	9.488189779829554E+001	-1.0717285E+000	-7.579757851083343E+000	8.1234425E-003	-1.0717603E+000	0
1.3851994E+002	9.508199779324059E+001	-1.0737448E+000	-7.751553290758011E+000	8.3231898E-003	-1.0737615E+000	0
1.3574792E+002	9.528209778818564E+001	-1.0757600E+000	-7.924688349203469E+000	8.5250624E-003	-1.0757623E+000	0
1.3304793E+002	9.548219778313069E+001	-1.0777317E+000	-8.100326867533397E+000	8.7299794E-003	-1.0777636E+000	0
1.3033116E+002	9.568229777807574E+001	-1.0797306E+000	-8.284516145703876E+000	8.9450460E-003	-1.0797642E+000	0
1.2772825E+002	9.588249777301826E+001	-1.0817667E+000	-8.469283119470392E+000	9.1617890E-003	-1.0817662E+000	0
1.2519482E+002	9.608259776796331E+001	-1.0837898E+000	-8.656826021449637E+000	9.3821799E-003	-1.0837675E+000	0
1.2259819E+002	9.628279776290583E+001	-1.0857438E+000	-8.856116116916922E+000	9.6154734E-003	-1.0857691E+000	0
1.2013542E+002	9.648309775784583E+001	-1.0877501E+000	-9.054365871582007E+000	9.8488871E-003	-1.0877724E+000	0
1.1773093E+002	9.668339775278582E+001	-1.0897278E+000	-9.256087582367485E+000	1.0086616E-002	-1.0897751E+000	0
1.1536681E+002	9.688399774771824E+001	-1.0917821E+000	-9.463571349564148E+000	1.0332158E-002	-1.0917810E+000	0
1.1307711E+002	9.708429774265824E+001	-1.0937545E+000	-9.672642898536793E+000	1.0579497E-002	-1.0937843E+000	0
1.1080949E+002	9.728439773760329E+001	-1.0957872E+000	-9.888928375546886E+000	1.0836161E-002	-1.0957855E+000	0
1.0860371E+002	9.748439773255086E+001	-1.0977753E+000	-1.010808342087029E+001	1.1096405E-002	-1.0977855E+000	0
1.0643002E+002	9.768459772749338E+001	-1.0997722E+000	-1.033328947665328E+001	1.1364264E-002	-1.0997870E+000	0
1.0432613E+002	9.788479772243591E+001	-1.1017532E+000	-1.056066450530707E+001	1.1635247E-002	-1.1017895E+000	0
1.0227999E+002	9.808519771737338E+001	-1.1037784E+000	-1.079173344561684E+001	1.1911682E-002	-1.1037930E+000	0
9.9799767E+001	9.829549771206075E+001	-1.1058751E+000	-1.108093901676853E+001	1.2254135E-002	-1.1058964E+000	0
9.7671074E+001	9.850569770675065E+001	-1.1079382E+000	-1.134356521614860E+001	1.2567969E-002	-1.1079983E+000	0
9.5704811E+001	9.870589770169317E+001	-1.1099933E+000	-1.159809352637220E+001	1.2873807E-002	-1.1100003E+000	0
9.3760338E+001	9.890619769663317E+001	-1.1119394E+000	-1.185937930399274E+001	1.3186911E-002	-1.1120030E+000	0
9.1872177E+001	9.910659769157064E+001	-1.1139385E+000	-1.212487303156158E+001	1.3506362E-002	-1.1140074E+000	0
9.0056442E+001	9.930659768651822E+001	-1.1159939E+000	-1.239216036483007E+001	1.3829575E-002	-1.1160076E+000	0
8.8254272E+001	9.950669768146327E+001	-1.1179793E+000	-1.266770687371081E+001	1.4162234E-002	-1.1180083E+000	0
8.6462746E+001	9.970699767640326E+001	-1.1199781E+000	-1.295330168385422E+001	1.4507414E-002	-1.1200110E+000	0
8.4740273E+001	9.990719767134578E+001	-1.1219627E+000	-1.324001760007039E+001	1.4854806E-002	-1.1220134E+000	0
8.3087852E+001	1.001071976662934E+002	-1.1239662E+000	-1.352744337706878E+001	1.5204390E-002	-1.1240134E+000	0
8.1397705E+001	1.003071976612409E+002	-1.1259845E+000	-1.383312362513573E+001	1.5575884E-002	-1.1260135E+000	0
7.9768944E+001	1.005072976561860E+002	-1.1279808E+000	-1.414060173594228E+001	1.5950328E-002	-1.1280143E+000	0
7.8157372E+001	1.007073976511310E+002	-1.1300296E+000	-1.445838734338611E+001	1.6338404E-002	-1.1300155E+000	0
7.6596886E+001	1.009074976460761E+002	-1.1320087E+000	-1.477878162001625E+001	1.6729709E-002	-1.1320163E+000	0
7.5018333E+001	1.011075976410211E+002	-1.1340127E+000	-1.511647478252848E+001	1.7142273E-002	-1.1340173E+000	0
7.3502296E+001	1.013077976359637E+002	-1.1359577E+000	-1.545472485276309E+001	1.7555915E-002	-1.1360193E+000	0
7.1985725E+001	1.015078976309087E+002	-1.1379780E+000	-1.580838331239249E+001	1.7989593E-002	-1.1380204E+000	0
7.0487251E+001	1.017080976258512E+002	-1.1400057E+000	-1.617321779417995E+001	1.8437561E-002	-1.1400223E+000	0
6.9030670E+001	1.019082976207937E+002	-1.1420085E+000	-1.654349525308859E+001	1.8892813E-002	-1.1420243E+000	0
6.7618256E+001	1.021086976157312E+002	-1.1439863E+000	-1.691830582894062E+001	1.9354312E-002	-1.1440278E+000	0
6.6219986E+001	1.023091976106662E+002	-1.1459666E+000	-1.730545001422246E+001	1.9831469E-002	-1.1460329E+000	0
6.4857208E+001	1.025095976056036E+002	-1.1479998E+000	-1.770041809225839E+001	2.0320076E-002	-1.1480370E+000	0
6.3483990E+001	1.027100976005386E+002	-1.1500262E+000	-1.811521594182233E+001	2.0832973E-002	-1.1500422E+000	0
6.2138187E+001	1.029103975954786E+002	-1.1520085E+000	-1.853946157464307E+001	2.1357618E-002	-1.1520451E+000	0
6.0792622E+001	1.031106975904186E+002	-1.1540105E+000	-1.898274025510376E+001	2.1906283E-002	-1.1540483E+000	0
5.9485229E+001	1.033107975853636E+002	-1.1560133E+000	-1.943361895479043E+001	2.2465521E-002	-1.1560494E+000	0
5.8191368E+001	1.035107975803112E+002	-1.1580142E+000	-1.990010271172403E+001	2.3044601E-002	-1.1580495E+000	0
5.6917332E+001	1.037107975752588E+002	-1.1599917E+000	-2.038029074601306E+001	2.3640970E-002	-1.1600494E+000	0
5.5655087E+001	1.039108975702038E+002	-1.1620338E+000	-2.087920175292716E+001	2.4262339E-002	-1.1620502E+000	0
5.4442326E+001	1.041109975651489E+002	-1.1640670E+000	-2.138165514620528E+001	2.4889680E-002	-1.1640515E+000	0
5.3223335E+001	1.043109975600964E+002	-1.1660124E+000	-2.190791729085842E+001	2.5544904E-002	-1.1660515E+000	0
5.2028694E+001	1.045110975550415E+002	-1.1680024E+000	-2.244919687161689E+001	2.6220715E-002	-1.1680523E+000	0
5.0857986E+001	1.047111975499865E+002	-1.1700253E+000	-2.300573435770417E+001	2.6917292E-002	-1.1700535E+000	0
4.9695637E+001	1.049114975449265E+002	-1.1720163E+000	-2.358388698263739E+001	2.7640698E-002	-1.1720562E+000	0
4.8580463E+001	1.051116975398691E+002	-1.1740245E+000	-2.416659666358066E+001	2.8372176E-002	-1.1740583E+000	0
4.7490780E+001	1.053117975348141E+002	-1.1760514E+000	-2.476378348071023E+001	2.9123481E-002	-1.1760595E+000	0
4.6405651E+001	1.055119975297566E+002	-1.1780504E+000	-2.538592459955453E+001	2.9905898E-002	-1.1780614E+000	0
4.5361847E+001	1.057120975247017E+002	-1.1800926E+000	-2.601509009623823E+001	3.0700214E-002	-1.1800623E+000	0
4.4364033E+001	1.059121975196467E+002	-1.1820772E+000	-2.664494382443070E+001	3.1496380E-002	-1.1820635E+000	0
4.3384296E+001	1.061122975145918E+002	-1.1840822E+000	-2.729287356269649E+001	3.2317005E-002	-1.1840644E+000	0
4.2413036E+001	1.063124975095343E+002	-1.1860731E+000	-2.796482201531728E+001	3.3168323E-002	-1.1860664E+000	0
4.1506920E+001	1.065125975044793E+002	-1.1880823E+000	-2.862371809493376E+001	3.4007333E-002	-1.1880676E+000	0
4.0620693E+001	1.067127974994219E+002	-1.1901200E+000	-2.929836606715355E+001	3.4868572E-002	-1.1900690E+000	0
3.9717506E+001	1.069131974943593E+002	-1.1920751E+000	-3.001384723265613E+001	3.5778761E-002	-1.1920730E+000	0
3.8830002E+001	1.071133974893019E+002	-1.1941382E+000	-3.075297794888098E+001	3.6723305E-002	-1.1940755E+000	0
3.7970036E+001	1.073137974842393E+002	-1.1960922E+000	-3.150095034385828E+001	3.7678044E-002	-1.1960789E+000	0
3.7128551E+001	1.075139974791819E+002	-1.1981173E+000	-3.226943083577135E+001	3.8662560E-002	-1.1980815E+000	0
3.6312225E+001	1.077139974741294E+002	-1.2000990E+000	-3.304944672930549E+001	3.9662607E-002	-1.2000816E+000	0
3.5496483E+001	1.079140974690745E+002	-1.2021258E+000	-3.386605334155502E+001	4.0711258E-002	-1.2020823E+000	0
3.4726440E+001	1.081141974640195E+002	-1.2041104E+000	-3.467416824775489E+001	4.1751526E-002	-1.2040834E+000	0
3.3967392E+001	1.083143974589620E+002	-1.2061415E+000	-3.550880418426689E+001	4.2828642E-002	-1.2060850E+000	0
3.3198235E+001	1.085147974538995E+002	-1.2080791E+000	-3.638985865397251E+001	4.3961827E-002	-1.2080894E+000	0
3.2480568E+001	1.087147974488471E+002	-1.2100861E+000	-3.725569596879888E+001	4.5082599E-002	-1.2100896E+000	0
3.1782360E+001	1.089148974437921E+002	-1.2121325E+000	-3.813852950530350E+001	4.6228949E-002	-1.2120904E+000	0
3.1068407E+001	1.091150974387347E+002	-1.2141199E+000	-3.907892278741519E+001	4.7446497E-002	-1.2140924E+000	0
3.0387232E+001	1.093152974336772E+002	-1.2161167E+000	-4.002064786503911E+001	4.8669778E-002	-1.2160943E+000	0
2.9731714E+001	1.095153974286222E+002	-1.2181221E+000	-4.097046296774928E+001	4.9907029E-002	-1.2180954E+000	0
2.9097734E+001	1.097154974235673E+002	-1.2201176E+000	-4.193170291658237E+001	5.1161606E-002	-1.2200962E+000	0
2.8472475E+001	1.099156974185098E+002	-1.2221349E+000	-4.292338204713212E+001	5.2458167E-002	-1.2220984E+000	0
2.7842403E+001	1.101157974134549E+002	-1.2241163E+000	-4.396589933879773E+001	5.3819377E-002	-1.2240995E+000	0
2.7284864E+001	1.103157974084024E+002	-1.2261347E+000	-4.493827082024146E+001	5.5100370E-002	-1.2260995E+000	0
2.6707867E+001	1.105157974033500E+002	-1.2281004E+000	-4.598272079161779E+001	5.6471400E-002	-1.2280995E+000	0
2.6139042E+001	1.107158973982951E+002	-1.2301102E+000	-4.706026145837910E+001	5.7889305E-002	-1.2301003E+000	0
2.5513037E+001	1.109159973932401E+002	-1.2321465E+000	-4.829477902496774E+001	5.9506241E-002	-1.2321016E+000	0
2.4980425E+001	1.111160973881852E+002	-1.2341102E+000	-4.940309328567162E+001	6.0968865E-002	-1.2341022E+000	0
2.4470188E+001	1.113162973831277E+002	-1.2361170E+000	-5.051522361732714E+001	6.2442727E-002	-1.2361042E+000	0
2.3961294E+001	1.115164973780702E+002	-1.2381399E+000	-5.167249388308903E+001	6.3977778E-002	-1.2381063E+000	0
2.3431149E+001	1.117166973730127E+002	-1.2401515E+000	-5.292747561409266E+001	6.5638088E-002	-1.2401083E+000	0
2.2971415E+001	1.119168973679552E+002	-1.2421055E+000	-5.407178861695249E+001	6.7162864E-002	-1.2421103E+000	0
2.2507057E+001	1.121171973628952E+002	-1.2441523E+000	-5.527832001810356E+001	6.8774648E-002	-1.2441131E+000	0
2.2041143E+001	1.123174973578352E+002	-1.2461435E+000	-5.653715083248187E+001	7.0453398E-002	-1.2461164E+000	0
2.1564495E+001	1.125177973527752E+002	-1.2481599E+000	-5.788031943645592E+001	7.2243892E-002	-1.2481194E+000	0
2.1109201E+001	1.127178973477203E+002	-1.2501279E+000	-5.922194235693286E+001	7.4035004E-002	-1.2501203E+000	0
2.0700392E+001	1.129180973426628E+002	-1.2521175E+000	-6.048762493562641E+001	7.5737618E-002	-1.2521223E+000	0
2.0274006E+001	1.131181973376079E+002	-1.2541173E+000	-6.185838360310694E+001	7.7577665E-002	-1.2541234E+000	0
1.9883219E+001	1.133182973325529E+002	-1.2561500E+000	-6.317638845491041E+001	7.9359017E-002	-1.2561244E+000	0
1.9526518E+001	1.135184973274954E+002	-1.2581620E+000	-6.443350467667983E+001	8.1067786E-002	-1.2581264E+000	0
1.9149046E+001	1.137186973224379E+002	-1.2601507E+000	-6.580748958883260E+001	8.2927354E-002	-1.2601283E+000	0
1.8760525E+001	1.139189973173779E+002	-1.2621663E+000	-6.727777056615025E+001	8.4915735E-002	-1.2621311E+000	0
1.8353083E+001	1.141192973123179E+002	-1.2641522E+000	-6.887955700127532E+001	8.7074243E-002	-1.2641343E+000	0
1.7963673E+001	1.143195973072579E+002	-1.2661532E+000	-7.048409825151998E+001	8.9243665E-002	-1.2661374E+000	0
1.7595850E+001	1.145198973021979E+002	-1.2681452E+000	-7.207069543826287E+001	9.1396108E-002	-1.2681401E+000	0
1.7215939E+001	1.147199972971430E+002	-1.2701766E+000	-7.377911346299317E+001	9.3712509E-002	-1.2701416E+000	0
1.6866274E+001	1.149199972920906E+002	-1.2721680E+000	-7.542674260561162E+001	9.5955491E-002	-1.2721416E+000	0
1.6501495E+001	1.151199972870381E+002	-1.2741821E+000	-7.721615852628474E+001	9.8387443E-002	-1.2741416E+000	0
1.6121435E+001	1.153200972819832E+002	-1.2761809E+000	-7.916050000583164E+001	1.0102312E-001	-1.2761424E+000	0
1.5785197E+001	1.155201972769282E+002	-1.2781839E+000	-8.097357923373636E+001	1.0349913E-001	-1.2781435E+000	0
1.5497014E+001	1.157201972718758E+002	-1.2801751E+000	-8.260785433116143E+001	1.0575252E-001	-1.2801435E+000	0
1.5234701E+001	1.159202972668209E+002	-1.2822117E+000	-8.416388849682266E+001	1.0791592E-001	-1.2821443E+000	0
1.4927413E+001	1.161203972617659E+002	-1.2842226E+000	-8.603115791852775E+001	1.1048315E-001	-1.2841455E+000	0
1.4645499E+001	1.163203972567135E+002	-1.2861956E+000	-8.782190733756048E+001	1.1295615E-001	-1.2861456E+000	0
1.4308797E+001	1.165203972516611E+002	-1.2882022E+000	-9.002868269954934E+001	1.1597514E-001	-1.2881455E+000	0
1.4079536E+001	1.167204972466061E+002	-1.2901918E+000	-9.163595796080153E+001	1.1822796E-001	-1.2901464E+000	0
1.3804181E+001	1.169207972415461E+002	-1.2921935E+000	-9.360885151678463E+001	1.2096075E-001	-1.2921491E+000	0
1.3551509E+001	1.171209972364886E+002	-1.2941891E+000	-9.550147223472570E+001	1.2359697E-001	-1.2941515E+000	0
1.3255136E+001	1.173210972314337E+002	-1.2961957E+000	-9.778819119668913E+001	1.2675264E-001	-1.2961524E+000	0
1.2962085E+001	1.175211972263787E+002	-1.2981873E+000	-1.001526565454440E+002	1.3001691E-001	-1.2981535E+000	0
1.2677353E+001	1.177212972213238E+002	-1.3002032E+000	-1.025610950204000E+002	1.3335027E-001	-1.3001542E+000	0
1.2464420E+001	1.179213972162688E+002	-1.3021871E+000	-1.044723344649317E+002	1.3604252E-001	-1.3021555E+000	0
1.2295331E+001	1.181213972112164E+002	-1.3041853E+000	-1.060715865386039E+002	1.3833700E-001	-1.3041555E+000	0
1.2064963E+001	1.183215972061589E+002	-1.3061932E+000	-1.082633423748579E+002	1.4141284E-001	-1.3061575E+000	0
1.1742875E+001	1.185317972008488E+002	-1.3082747E+000	-1.114100920814421E+002	1.4575501E-001	-1.3082591E+000	0
1.1446293E+001	1.187420971955362E+002	-1.3103861E+000	-1.144812588668169E+002	1.5001464E-001	-1.3103622E+000	0
1.1268484E+001	1.189422971904787E+002	-1.3123763E+000	-1.164643143998419E+002	1.5284500E-001	-1.3123642E+000	0
1.1095891E+001	1.191424971854212E+002	-1.3143976E+000	-1.184580486916320E+002	1.5570097E-001	-1.3143663E+000	0
1.0848128E+001	1.193427971803612E+002	-1.3163909E+000	-1.213472783606321E+002	1.5974045E-001	-1.3163691E+000	0
1.0673434E+001	1.195429971753038E+002	-1.3183608E+000	-1.235179627812101E+002	1.6284125E-001	-1.3183715E+000	0
1.0453880E+001	1.197431971702463E+002	-1.3204277E+000	-1.263098080718542E+002	1.6678296E-001	-1.3203731E+000	0
1.0314389E+001	1.199434971651863E+002	-1.3224164E+000	-1.282108263697610E+002	1.6954811E-001	-1.3223763E+000	0
1.0203125E+001	1.201437971601263E+002	-1.3244169E+000	-1.298050191766242E+002	1.7191596E-001	-1.3243790E+000	0
1.0025070E+001	1.203439971550688E+002	-1.3264012E+000	-1.323084221870174E+002	1.7549406E-001	-1.3263814E+000	0
9.7575941E+000	1.205440971500138E+002	-1.3284434E+000	-1.361445609691824E+002	1.8086034E-001	-1.3283824E+000	0
9.5715485E+000	1.207441971449589E+002	-1.3304043E+000	-1.389957164615189E+002	1.8492049E-001	-1.3303835E+000	0
9.4173164E+000	1.209442971399039E+002	-1.3323900E+000	-1.414829721711012E+002	1.8851049E-001	-1.3323842E+000	0
9.2873306E+000	1.211443971348490E+002	-1.3344247E+000	-1.436822663737533E+002	1.9173317E-001	-1.3343855E+000	0
9.1313057E+000	1.213147971305443E+002	-1.3361437E+000	-1.463255948389410E+002	1.9551203E-001	-1.3360884E+000	0
8.9723730E+000	1.214654971267373E+002	-1.3376251E+000	-1.490826456219602E+002	1.9941670E-001	-1.3375958E+000	0
8.8691845E+000	1.216260971226802E+002	-1.3392692E+000	-1.510025113163865E+002	2.0223300E-001	-1.3392018E+000	0
8.7772779E+000	1.217765971188783E+002	-1.3407338E+000	-1.527505163565399E+002	2.0479777E-001	-1.3407063E+000	0
8.6421204E+000	1.219172971153239E+002	-1.3421472E+000	-1.553030076756702E+002	2.0843950E-001	-1.3421135E+000	0
8.5536423E+000	1.220578971117720E+002	-1.3435537E+000	-1.570738736990506E+002	2.1103717E-001	-1.3435198E+000	0
8.4543190E+000	1.222182971077200E+002	-1.3451765E+000	-1.591111545085455E+002	2.1403258E-001	-1.3451238E+000	0
8.3575144E+000	1.223789971036604E+002	-1.3467710E+000	-1.611449201592882E+002	2.1702531E-001	-1.3467304E+000	0
8.2784147E+000	1.225296970998534E+002	-1.3482767E+000	-1.628665437022767E+002	2.1958917E-001	-1.3482376E+000	0
8.2136402E+000	1.226801970960514E+002	-1.3497697E+000	-1.643326998967916E+002	2.2181129E-001	-1.3497428E+000	0
8.1513166E+000	1.228305970922520E+002	-1.3513058E+000	-1.657776124332213E+002	2.2401625E-001	-1.3512466E+000	0
8.0757961E+000	1.229709970887052E+002	-1.3527141E+000	-1.675022452286885E+002	2.2658265E-001	-1.3526500E+000	0
8.0242805E+000	1.231115970851533E+002	-1.3541067E+000	-1.687511568967611E+002	2.2850707E-001	-1.3540567E+000	0
7.9563684E+000	1.232620970813514E+002	-1.3555969E+000	-1.703788450652497E+002	2.3096503E-001	-1.3555616E+000	0
7.8927760E+000	1.234125970775494E+002	-1.3570877E+000	-1.719404818813382E+002	2.3333831E-001	-1.3570669E+000	0
7.7903485E+000	1.235731970734923E+002	-1.3587059E+000	-1.744088741643905E+002	2.3697037E-001	-1.3586726E+000	0
7.6848965E+000	1.237236970696904E+002	-1.3602102E+000	-1.769978582534604E+002	2.4075429E-001	-1.3601775E+000	0
7.6162591E+000	1.238542970663912E+002	-1.3614935E+000	-1.787614433783340E+002	2.4338254E-001	-1.3614837E+000	0
7.4902992E+000	1.239849970630894E+002	-1.3628323E+000	-1.819463068114958E+002	2.4796231E-001	-1.3627905E+000	0
7.4197688E+000	1.241156970597876E+002	-1.3641542E+000	-1.838540002847719E+002	2.5080520E-001	-1.3640977E+000	0
7.2991056E+000	1.242761970557331E+002	-1.3657515E+000	-1.871121772875499E+002	2.5554875E-001	-1.3657027E+000	0
7.2236633E+000	1.244267970519286E+002	-1.3672698E+000	-1.892765015436587E+002	2.5879204E-001	-1.3672088E+000	0
7.2191639E+000	1.245672970483793E+002	-1.3686613E+000	-1.895872290278917E+002	2.5948071E-001	-1.3686136E+000	0
7.1627316E+000	1.247079970448249E+002	-1.3700227E+000	-1.912709718792962E+002	2.6204556E-001	-1.3700204E+000	0
7.0386386E+000	1.248485970412730E+002	-1.3714778E+000	-1.948498677056656E+002	2.6723227E-001	-1.3714261E+000	0
6.9328394E+000	1.249992970374660E+002	-1.3729292E+000	-1.980327507994316E+002	2.7188495E-001	-1.3729336E+000	0
6.8682113E+000	1.251598970334089E+002	-1.3745638E+000	-2.001341769730388E+002	2.7509719E-001	-1.3745399E+000	0
6.8446994E+000	1.253202970293569E+002	-1.3761809E+000	-2.010579039052304E+002	2.7669203E-001	-1.3761439E+000	0
6.7698460E+000	1.254607970258076E+002	-1.3775979E+000	-2.034902887246394E+002	2.8032780E-001	-1.3775485E+000	0
6.7297788E+000	1.255913970225083E+002	-1.3789097E+000	-2.048967349754475E+002	2.8253409E-001	-1.3788548E+000	0
6.6639142E+000	1.257419970187038E+002	-1.3803777E+000	-2.071421767094016E+002	2.8593442E-001	-1.3803605E+000	0
6.5848331E+000	1.258727970153996E+002	-1.3817269E+000	-2.098347603210007E+002	2.8993434E-001	-1.3816687E+000	0
6.5089636E+000	1.259636970131032E+002	-1.3826269E+000	-2.124189022298233E+002	2.9369608E-001	-1.3825775E+000	0
6.4214158E+000	1.261043970095488E+002	-1.3840429E+000	-2.155354738239341E+002	2.9831034E-001	-1.3839847E+000	0
6.3400187E+000	1.262551970057393E+002	-1.3855575E+000	-2.185415486949406E+002	3.0280188E-001	-1.3854923E+000	0
6.3273721E+000	1.264056970019374E+002	-1.3870342E+000	-2.192117277032480E+002	3.0405417E-001	-1.3869977E+000	0
6.2681470E+000	1.265558969981430E+002	-1.3885602E+000	-2.215264206084530E+002	3.0760276E-001	-1.3884995E+000	0
6.2861362E+000	1.266964969945911E+002	-1.3899697E+000	-2.211167093352724E+002	3.0734554E-001	-1.3899056E+000	0
6.2660904E+000	1.268371969910368E+002	-1.3913951E+000	-2.220515519521241E+002	3.0896145E-001	-1.3913124E+000	0
6.1764679E+000	1.269677969877375E+002	-1.3926774E+000	-2.254812085487401E+002	3.1402260E-001	-1.3926185E+000	0
6.1148672E+000	1.271080969841933E+002	-1.3941141E+000	-2.279876369811800E+002	3.1784078E-001	-1.3940215E+000	0
6.0209656E+000	1.272687969801336E+002	-1.3957087E+000	-2.318081153229650E+002	3.2353660E-001	-1.3956286E+000	0
5.9336739E+000	1.274193969763292E+002	-1.3972178E+000	-2.354726262411426E+002	3.2900652E-001	-1.3971344E+000	0
5.8506789E+000	1.275801969722670E+002	-1.3987843E+000	-2.390806741229653E+002	3.3442229E-001	-1.3987427E+000	0
5.8077049E+000	1.277408969682074E+002	-1.4004071E+000	-2.411291660025965E+002	3.3767900E-001	-1.4003497E+000	0
5.7278848E+000	1.278814969646555E+002	-1.4018385E+000	-2.447393124189912E+002	3.4308499E-001	-1.4017555E+000	0
5.7015553E+000	1.280221969611011E+002	-1.4032087E+000	-2.461098192309438E+002	3.4534344E-001	-1.4031626E+000	0
5.7071762E+000	1.281325969583122E+002	-1.4042937E+000	-2.460575195150641E+002	3.4553701E-001	-1.4042666E+000	0
5.7069464E+000	1.282731969547604E+002	-1.4057219E+000	-2.463176941715474E+002	3.4625417E-001	-1.4056726E+000	0
5.6838026E+000	1.284337969507033E+002	-1.4073112E+000	-2.476003006140263E+002	3.4845069E-001	-1.4072788E+000	0
5.6026330E+000	1.285943969466462E+002	-1.4089363E+000	-2.514775249255969E+002	3.5431582E-001	-1.4088846E+000	0
5.5271664E+000	1.287450969428392E+002	-1.4103972E+000	-2.551754478137684E+002	3.5989872E-001	-1.4103913E+000	0
5.5082369E+000	1.288956969390347E+002	-1.4119227E+000	-2.563293413026345E+002	3.6191723E-001	-1.4118978E+000	0
5.5158172E+000	1.290365969354752E+002	-1.4133964E+000	-2.562442374148136E+002	3.6217466E-001	-1.4133066E+000	0
5.4298344E+000	1.291970969314207E+002	-1.4149823E+000	-2.605940172513801E+002	3.6873594E-001	-1.4149116E+000	0
5.3258705E+000	1.293175969283766E+002	-1.4161769E+000	-2.659052430890356E+002	3.7656885E-001	-1.4161166E+000	0
5.3008184E+000	1.294779969243245E+002	-1.4177716E+000	-2.674627592445368E+002	3.7920108E-001	-1.4177210E+000	0
5.2139959E+000	1.296484969200174E+002	-1.4194813E+000	-2.722444067345778E+002	3.8644585E-001	-1.4194258E+000	0
5.1881404E+000	1.298088969159653E+002	-1.4211509E+000	-2.739229810988122E+002	3.8928589E-001	-1.4210297E+000	0
5.2124548E+000	1.299495969124109E+002	-1.4225054E+000	-2.729050754277796E+002	3.8820893E-001	-1.4224364E+000	0
5.1847687E+000	1.300998969086140E+002	-1.4239906E+000	-2.746488100889860E+002	3.9109734E-001	-1.4239401E+000	0
5.1397672E+000	1.302799969040643E+002	-1.4257560E+000	-2.773969999170620E+002	3.9550042E-001	-1.4257412E+000	0
5.0932627E+000	1.304799968990119E+002	-1.4278069E+000	-2.803324677235969E+002	4.0026063E-001	-1.4277413E+000	0
4.9438844E+000	1.306799968939595E+002	-1.4298164E+000	-2.892091069989188E+002	4.1351593E-001	-1.4297414E+000	0
4.9233160E+000	1.308799968889070E+002	-1.4318033E+000	-2.908209176377090E+002	4.1639838E-001	-1.4317412E+000	0
4.9098639E+000	1.310799968838546E+002	-1.4338377E+000	-2.920320503857679E+002	4.1872656E-001	-1.4337413E+000	0
4.8153400E+000	1.312799968788022E+002	-1.4358274E+000	-2.981777875320713E+002	4.2813182E-001	-1.4357414E+000	0
4.7524843E+000	1.314799968737498E+002	-1.4378583E+000	-3.025487753290709E+002	4.3502229E-001	-1.4377412E+000	0
4.7580662E+000	1.316799968686973E+002	-1.4398448E+000	-3.026113489998706E+002	4.3571338E-001	-1.4397413E+000	0
4.7284427E+000	1.318799968636449E+002	-1.4418510E+000	-3.049314679926492E+002	4.3966573E-001	-1.4417412E+000	0
4.6759615E+000	1.320799968585925E+002	-1.4438405E+000	-3.087793924608477E+002	4.4582820E-001	-1.4437413E+000	0
4.6161513E+000	1.322799968535401E+002	-1.4458376E+000	-3.132127744562222E+002	4.5285481E-001	-1.4457413E+000	0
4.6118846E+000	1.324799968484876E+002	-1.4478605E+000	-3.139411934227636E+002	4.5454305E-001	-1.4477413E+000	0
4.5378633E+000	1.326799968434352E+002	-1.4498442E+000	-3.194993346575443E+002	4.6322426E-001	-1.4497412E+000	0
4.4831538E+000	1.328799968383828E+002	-1.4518228E+000	-3.238395963180083E+002	4.7015768E-001	-1.4517413E+000	0
4.4404163E+000	1.330799968333304E+002	-1.4538527E+000	-3.274136056013372E+002	4.7601113E-001	-1.4537413E+000	0
4.3793631E+000	1.332799968282779E+002	-1.4558504E+000	-3.324342644793107E+002	4.8397455E-001	-1.4557413E+000	0
4.4046664E+000	1.334799968232255E+002	-1.4578403E+000	-3.309763463857221E+002	4.8251066E-001	-1.4577414E+000	0
4.4090753E+000	1.336799968181731E+002	-1.4598124E+000	-3.310926585878638E+002	4.8333317E-001	-1.4597412E+000	0
4.3153543E+000	1.338799968131207E+002	-1.4618338E+000	-3.387517357456438E+002	4.9519876E-001	-1.4617413E+000	0
4.3321409E+000	1.340799968080682E+002	-1.4638399E+000	-3.379021871246709E+002	4.9463469E-001	-1.4637413E+000	0
4.3084798E+000	1.342799968030158E+002	-1.4658278E+000	-3.402192582565103E+002	4.9870285E-001	-1.4657413E+000	0
4.1989660E+000	1.344799967979634E+002	-1.4681594E+000	-3.496478357185324E+002	5.1333874E-001	-1.4677414E+000	0
4.1898232E+000	1.346799967929110E+002	-1.4704098E+000	-3.509479078435568E+002	5.1603723E-001	-1.4697412E+000	0
4.1846914E+000	1.348799967878585E+002	-1.4723773E+000	-3.518484563892384E+002	5.1805365E-001	-1.4717413E+000	0
4.1920300E+000	1.350799967828061E+002	-1.4744397E+000	-3.517245395967484E+002	5.1859665E-001	-1.4737414E+000	0
4.1663756E+000	1.352799967777537E+002	-1.4763323E+000	-3.543445065340475E+002	5.2313024E-001	-1.4757413E+000	0
4.0479541E+000	1.354799967727013E+002	-1.4783729E+000	-3.652148281235823E+002	5.3992373E-001	-1.4777414E+000	0
4.0203104E+000	1.356799967676488E+002	-1.4804288E+000	-3.682374274649583E+002	5.4514933E-001	-1.4797412E+000	0
3.9963522E+000	1.358799967625964E+002	-1.4823548E+000	-3.709269524096362E+002	5.4984534E-001	-1.4817413E+000	0
3.9152677E+000	1.360799967575440E+002	-1.4844033E+000	-3.791319962304742E+002	5.6278479E-001	-1.4837414E+000	0
3.8818259E+000	1.362799967524916E+002	-1.4864023E+000	-3.829131653087225E+002	5.6916302E-001	-1.4857413E+000	0
3.8784928E+000	1.364799967474391E+002	-1.4883703E+000	-3.837496478087232E+002	5.7116157E-001	-1.4877414E+000	0
3.9131117E+000	1.366799967423867E+002	-1.4904345E+000	-3.808821757872365E+002	5.6767994E-001	-1.4897412E+000	0
3.8444858E+000	1.368799967373343E+002	-1.4924046E+000	-3.881935547268567E+002	5.7934183E-001	-1.4917413E+000	0
3.8919265E+000	1.370799967322819E+002	-1.4943783E+000	-3.839687924028240E+002	5.7379466E-001	-1.4937412E+000	0
3.8578343E+000	1.372799967272294E+002	-1.4963973E+000	-3.878853082743362E+002	5.8043051E-001	-1.4957412E+000	0
3.8575242E+000	1.374799967221770E+002	-1.4983684E+000	-3.884274676446203E+002	5.8200741E-001	-1.4977413E+000	0
3.8466191E+000	1.376799967171246E+002	-1.5003877E+000	-3.900536070345770E+002	5.8523160E-001	-1.4997412E+000	0
3.7637327E+000	1.378799967120722E+002	-1.5023824E+000	-3.991735169936201E+002	5.9971124E-001	-1.5017413E+000	0
3.7389586E+000	1.380799967070197E+002	-1.5044115E+000	-4.023610979759242E+002	6.0531664E-001	-1.5037414E+000	0
3.7340188E+000	1.382799967019673E+002	-1.5064727E+000	-4.034453896762589E+002	6.0777944E-001	-1.5057415E+000	0
3.7201536E+000	1.384799966969149E+002	-1.5084357E+000	-4.054767287074847E+002	6.1163557E-001	-1.5077412E+000	0
3.7238688E+000	1.386799966918625E+002	-1.5104389E+000	-4.056101247739916E+002	6.1264932E-001	-1.5097412E+000	0
3.6903889E+000	1.388799966868100E+002	-1.5124129E+000	-4.098247975805717E+002	6.1982429E-001	-1.5117413E+000	0
3.6222947E+000	1.390799966817576E+002	-1.5144397E+000	-4.180884872185688E+002	6.3316983E-001	-1.5137414E+000	0
3.6512005E+000	1.392799966767052E+002	-1.5164145E+000	-4.153194241253402E+002	6.2979639E-001	-1.5157412E+000	0
3.6234524E+000	1.394799966716528E+002	-1.5184238E+000	-4.190544338356067E+002	6.3630223E-001	-1.5177412E+000	0
3.6408916E+000	1.396799966666003E+002	-1.5204153E+000	-4.175942381428489E+002	6.3491666E-001	-1.5197413E+000	0
3.5326798E+000	1.398799966615479E+002	-1.5224075E+000	-4.309497537548032E+002	6.5608114E-001	-1.5217413E+000	0
3.4791465E+000	1.400799966564955E+002	-1.5244204E+000	-4.381593105895736E+002	6.6793901E-001	-1.5237412E+000	0
3.5321722E+000	1.402799966514431E+002	-1.5264215E+000	-4.321481228566772E+002	6.5964019E-001	-1.5257413E+000	0
3.4872513E+000	1.404799966463906E+002	-1.5284262E+000	-4.382896704295340E+002	6.6989338E-001	-1.5277412E+000	0
3.4744408E+000	1.406799966413382E+002	-1.5304282E+000	-4.404818772339768E+002	6.7412585E-001	-1.5297413E+000	0
3.4516628E+000	1.408799966362858E+002	-1.5324831E+000	-4.439840210203129E+002	6.8039799E-001	-1.5317414E+000	0
3.4608169E+000	1.410799966312334E+002	-1.5344611E+000	-4.433811935459408E+002	6.8035120E-001	-1.5337414E+000	0
3.4080925E+000	1.412799966261809E+002	-1.5364498E+000	-4.508239734675612E+002	6.9266838E-001	-1.5357413E+000	0
3.3815386E+000	1.414799966211285E+002	-1.5384685E+000	-4.549610849281012E+002	6.9994330E-001	-1.5377413E+000	0
3.3607106E+000	1.416799966160761E+002	-1.5404557E+000	-4.583720213701945E+002	7.0610178E-001	-1.5397413E+000	0
3.2824194E+000	1.418799966110237E+002	-1.5424836E+000	-4.699227571336035E+002	7.2484815E-001	-1.5417414E+000	0
3.2616699E+000	1.420799966059712E+002	-1.5444626E+000	-4.735189571640126E+002	7.3133230E-001	-1.5437412E+000	0
3.2871571E+000	1.422799966009188E+002	-1.5465087E+000	-4.704699681037671E+002	7.2758591E-001	-1.5457413E+000	0
3.2659960E+000	1.424799965958664E+002	-1.5484165E+000	-4.741023755192491E+002	7.3410791E-001	-1.5477414E+000	0
3.2544053E+000	1.426799965908140E+002	-1.5505100E+000	-4.764342179114574E+002	7.3871607E-001	-1.5497413E+000	0
3.2630374E+000	1.428799965857615E+002	-1.5524597E+000	-4.757713398533351E+002	7.3861581E-001	-1.5517414E+000	0
3.2545483E+000	1.430799965807091E+002	-1.5544393E+000	-4.776206087601163E+002	7.4243224E-001	-1.5537415E+000	0
3.2130837E+000	1.432799965756567E+002	-1.5564715E+000	-4.844167311445672E+002	7.5398082E-001	-1.5557413E+000	0
3.2496827E+000	1.434799965706043E+002	-1.5585147E+000	-4.795898037346051E+002	7.4744779E-001	-1.5577412E+000	0
3.2988007E+000	1.436799965655518E+002	-1.5604879E+000	-4.730470369689310E+002	7.3818415E-001	-1.5597413E+000	0
3.2687137E+000	1.438799965604994E+002	-1.5624553E+000	-4.780030903416146E+002	7.4685848E-001	-1.5617411E+000	0
3.1876380E+000	1.440799965554470E+002	-1.5644755E+000	-4.907946121319633E+002	7.6783615E-001	-1.5637414E+000	0
3.1989412E+000	1.442799965503946E+002	-1.5664651E+000	-4.896823589212472E+002	7.6707035E-001	-1.5657413E+000	0
3.2163198E+000	1.444799965453421E+002	-1.5684619E+000	-4.876573245898417E+002	7.6487195E-001	-1.5677412E+000	0
3.1796749E+000	1.446799965402897E+002	-1.5704613E+000	-4.939062616084429E+002	7.7566063E-001	-1.5697412E+000	0
3.0901468E+000	1.448799965352373E+002	-1.5724953E+000	-5.088740048311201E+002	8.0020201E-001	-1.5717413E+000	0
3.0907402E+000	1.450799965301849E+002	-1.5744810E+000	-5.094187476921525E+002	8.0207014E-001	-1.5737414E+000	0
3.1510801E+000	1.452799965251324E+002	-1.5764670E+000	-5.002941789605420E+002	7.8869730E-001	-1.5757413E+000	0
3.1220534E+000	1.454799965200800E+002	-1.5785056E+000	-5.055985423669770E+002	7.9809016E-001	-1.5777413E+000	0
3.1020739E+000	1.456799965150276E+002	-1.5805084E+000	-5.095005371630050E+002	8.0526984E-001	-1.5797412E+000	0
3.0823424E+000	1.458799965099752E+002	-1.5824957E+000	-5.134068612165729E+002	8.1246412E-001	-1.5817413E+000	0
3.0198259E+000	1.460799965049227E+002	-1.5845075E+000	-5.247016087486654E+002	8.3139360E-001	-1.5837414E+000	0
3.0230014E+000	1.462799964998703E+002	-1.5865544E+000	-5.248275605113040E+002	8.3266747E-001	-1.5857413E+000	0
3.0320408E+000	1.464799964948179E+002	-1.5885297E+000	-5.239143666074925E+002	8.3225352E-001	-1.5877413E+000	0
3.0370951E+000	1.466799964897655E+002	-1.5905335E+000	-5.237022592107714E+002	8.3296597E-001	-1.5897412E+000	0
3.0408378E+000	1.468799964847130E+002	-1.5925086E+000	-5.237071732674631E+002	8.3400816E-001	-1.5917413E+000	0
2.9972839E+000	1.470799964796606E+002	-1.5945088E+000	-5.319845407879511E+002	8.4825402E-001	-1.5937414E+000	0
2.9357316E+000	1.472799964746082E+002	-1.5965041E+000	-5.438181091057727E+002	8.6820781E-001	-1.5957413E+000	0
2.8834031E+000	1.474799964695558E+002	-1.5985061E+000	-5.543817779169078E+002	8.8618267E-001	-1.5977412E+000	0
2.9151289E+000	1.476799964645033E+002	-1.6004999E+000	-5.490322725032211E+002	8.7872607E-001	-1.5997413E+000	0
2.9252691E+000	1.478799964594509E+002	-1.6024740E+000	-5.478039395598335E+002	8.7784153E-001	-1.6017413E+000	0
2.8512554E+000	1.480799964543985E+002	-1.6045045E+000	-5.627361462435217E+002	9.0291268E-001	-1.6037414E+000	0
2.8638172E+000	1.482799964493461E+002	-1.6065373E+000	-5.609776038345037E+002	9.0123147E-001	-1.6057413E+000	0
2.8736868E+000	1.484799964442936E+002	-1.6085140E+000	-5.597387896946530E+002	9.0034765E-001	-1.6077414E+000	0
2.8403609E+000	1.486799964392412E+002	-1.6104934E+000	-5.670031214906548E+002	9.1315478E-001	-1.6097413E+000	0
2.8364899E+000	1.488799964341888E+002	-1.6125053E+000	-5.684861591148801E+002	9.1668695E-001	-1.6117413E+000	0
2.7638514E+000	1.489899964314100E+002	-1.6136199E+000	-5.838302051777741E+002	9.4208008E-001	-1.6128410E+000	0
2.7540712E+000	1.489911964313796E+002	-1.6139022E+000	-5.860059712727862E+002	9.4575632E-001	-1.6130410E+000	1