EC-Lab ASCII FILE
Nb header lines : 61                          

Linear Sweep Voltammetry

Run on channel : 1 (SN 1340)
User : 
Electrode connection : standard
Potential control : Ewe
Ewe ctrl range : min = -5.00 V, max = 5.00 V
Ewe,I filtering : 50 kHz
Channel : Grounded
Acquisition started on : 02/24/2026 17:22:24.413
Technique started on : 02/24/2026 17:22:27.097
Loaded Setting File :  NONE
Saved on :
	File : Ni40_nomagnet_2_24_02_LSV_C01.mpr
	Directory : C:\Users\volt\Documents\Platalytix\
	Host : 127.0.0.1
Device : SP-200 (SN 0262)
Address : USB
EC-LAB for windows v11.60 (software)
Internet server v11.60 (firmware)
Command interpretor v11.60 (firmware)
Electrode material : Ni40_nomag
Initial state : 
Electrolyte : KOH (1M)
Comments : 
Cable : standard
Reference electrode : Hg/HgO (0.140 V)
Electrode surface area : 1.000 cm˛
Characteristic mass : 0.001 g
Equivalent Weight : 0.000 g/eq.
Density : 0.000 g/cm3
Volume (V) : 0.001 cmł
Cycle Definition : Charge/Discharge alternance
tR (h:m:s)          0:00:5.0000         
dER/dt (mV/h)       0.0                 
dER (mV)            0                   
dtR (s)             0.0000              
dE/dt               10.000              
dE/dt unit          mV/s                
Ei (V)              -0.200              
vs.                 Ref                 
EL (V)              -2.500              
vs.                 Ref                 
record              <I>                 
dI                  0.000               
unit dI             µA                  
tI (s)              0.0000              
step percent        50                  
N                   10                  
E range min (V)     -5.000              
E range max (V)     5.000               
I Range             Auto                
I Range min         Unset               
I Range max         Unset               
I Range init        Unset               
Bandwidth           8                   

Rwe/Ohm	time/s	Ewe/V	<I>/mA	Pwe/W	control/V	error	
0.0000000E+000	2.684400127473054E+000	-1.6286875E-001	0.000000000000000E+000	0.0000000E+000	0.0000000E+000	0
0.0000000E+000	7.684200001167483E+000	-3.1035850E-002	0.000000000000000E+000	0.0000000E+000	-1.9991259E-001	0
7.2022656E+003	7.824199997630785E+000	-2.0114791E-001	-2.792842205255169E-002	5.6177437E-006	-2.0121238E-001	0
1.3296389E+003	7.944199994599330E+000	-2.0232753E-001	-1.521672729201557E-001	3.0787629E-005	-2.0241243E-001	0
1.4053036E+003	8.154199989294284E+000	-2.0441705E-001	-1.454611258853706E-001	2.9734734E-005	-2.0451243E-001	0
1.5541708E+003	8.354199984241859E+000	-2.0643874E-001	-1.328288580358550E-001	2.7421022E-005	-2.0651239E-001	0
1.6886418E+003	8.554199979189434E+000	-2.0844682E-001	-1.234405138572074E-001	2.5730782E-005	-2.0851228E-001	0
1.8108275E+003	8.754199974137009E+000	-2.1043533E-001	-1.162094850338099E-001	2.4454581E-005	-2.1051216E-001	0
1.9192811E+003	8.954199969084584E+000	-2.1243766E-001	-1.106860599704427E-001	2.3513887E-005	-2.1251203E-001	0
2.0210519E+003	9.154199964032159E+000	-2.1443635E-001	-1.061013591013291E-001	2.2751989E-005	-2.1451192E-001	0
2.1147832E+003	9.354199958979734E+000	-2.1643338E-001	-1.023430560616236E-001	2.2150452E-005	-2.1651182E-001	0
2.2043743E+003	9.554199953927309E+000	-2.1844906E-001	-9.909799261348073E-002	2.1647864E-005	-2.1851166E-001	0
2.2896030E+003	9.754199948874884E+000	-2.2045438E-001	-9.628497866613805E-002	2.1226446E-005	-2.2051156E-001	0
2.3696912E+003	9.954199943822459E+000	-2.2244588E-001	-9.387125307218946E-002	2.0881273E-005	-2.2251143E-001	0
2.4472520E+003	1.015419993877003E+001	-2.2443290E-001	-9.170812722020960E-002	2.0582322E-005	-2.2451133E-001	0
2.5227654E+003	1.035419993371761E+001	-2.2644266E-001	-8.975970072306411E-002	2.0325426E-005	-2.2651121E-001	0
2.5979163E+003	1.055419992866518E+001	-2.2843714E-001	-8.793090749637589E-002	2.0086685E-005	-2.2851107E-001	0
2.6673262E+003	1.075419992361276E+001	-2.3043056E-001	-8.639009544138054E-002	1.9906918E-005	-2.3051095E-001	0
2.7364421E+003	1.095419991856033E+001	-2.3245007E-001	-8.494609060207337E-002	1.9745725E-005	-2.3251082E-001	0
2.8042703E+003	1.115419991350791E+001	-2.3444283E-001	-8.360208431575555E-002	1.9599909E-005	-2.3451072E-001	0
2.8723789E+003	1.135409990845801E+001	-2.3644094E-001	-8.231537532870048E-002	1.9462725E-005	-2.3651125E-001	0
2.9356367E+003	1.155399990340811E+001	-2.3844281E-001	-8.122353934917331E-002	1.9367169E-005	-2.3851044E-001	0
3.0036772E+003	1.175399989835569E+001	-2.4043557E-001	-8.004707244252296E-002	1.9246163E-005	-2.4051034E-001	0
3.0665801E+003	1.195399989330326E+001	-2.4243557E-001	-7.905731373466571E-002	1.9166306E-005	-2.4251023E-001	0
3.1308508E+003	1.215399988825084E+001	-2.4442387E-001	-7.806946994692432E-002	1.9082041E-005	-2.4451008E-001	0
3.1939216E+003	1.235399988319841E+001	-2.4644510E-001	-7.716066281199252E-002	1.9015868E-005	-2.4650997E-001	0
3.2574043E+003	1.255399987814599E+001	-2.4844742E-001	-7.627159414988210E-002	1.8949480E-005	-2.4850985E-001	0
3.3181592E+003	1.275399987309356E+001	-2.5045460E-001	-7.547998599192796E-002	1.8904309E-005	-2.5050974E-001	0
3.3808813E+003	1.295399986804114E+001	-2.5244591E-001	-7.466866563194663E-002	1.8849800E-005	-2.5250959E-001	0
3.4402615E+003	1.315399986298871E+001	-2.5444505E-001	-7.396095960248933E-002	1.8819001E-005	-2.5450951E-001	0
3.5015339E+003	1.335399985793629E+001	-2.5643569E-001	-7.323524550864269E-002	1.8780131E-005	-2.5650936E-001	0
3.5602634E+003	1.355399985288386E+001	-2.5842211E-001	-7.258510761662007E-002	1.8757597E-005	-2.5850925E-001	0
3.6196116E+003	1.375399984783144E+001	-2.6042399E-001	-7.194804926265586E-002	1.8736999E-005	-2.6050913E-001	0
3.6818630E+003	1.395399984277901E+001	-2.6240870E-001	-7.127063177143778E-002	1.8702034E-005	-2.6250902E-001	0
3.7422839E+003	1.415399983772659E+001	-2.6442078E-001	-7.065759344362221E-002	1.8683335E-005	-2.6450887E-001	0
3.7985679E+003	1.435399983267416E+001	-2.6642945E-001	-7.013944738920452E-002	1.8687215E-005	-2.6650876E-001	0
3.8596746E+003	1.455389982762426E+001	-2.6841712E-001	-6.954397807311574E-002	1.8666795E-005	-2.6850820E-001	0
3.9149399E+003	1.475379982257437E+001	-2.7042496E-001	-6.907512467405241E-002	1.8679639E-005	-2.7050853E-001	0
3.9778123E+003	1.495379981752194E+001	-2.7242011E-001	-6.848490762665804E-002	1.8656667E-005	-2.7250841E-001	0
4.0332495E+003	1.515379981246952E+001	-2.7443600E-001	-6.804339647295199E-002	1.8673558E-005	-2.7450830E-001	0
4.0919382E+003	1.535379980741709E+001	-2.7641436E-001	-6.755096384148840E-002	1.8672057E-005	-2.7650818E-001	0
4.1489160E+003	1.555379980236467E+001	-2.7841964E-001	-6.710660224252463E-002	1.8683797E-005	-2.7850804E-001	0
4.2103530E+003	1.575379979731224E+001	-2.8041261E-001	-6.660073935508276E-002	1.8675688E-005	-2.8050792E-001	0
4.2652886E+003	1.595379979225982E+001	-2.8240198E-001	-6.620934508823251E-002	1.8697650E-005	-2.8250778E-001	0
4.3240947E+003	1.615379978720739E+001	-2.8442746E-001	-6.577734108391287E-002	1.8708883E-005	-2.8450766E-001	0
4.3777612E+003	1.635379978215497E+001	-2.8641748E-001	-6.542555936305960E-002	1.8739023E-005	-2.8650755E-001	0
4.4355703E+003	1.655379977710254E+001	-2.8840068E-001	-6.501997815330984E-002	1.8751805E-005	-2.8850743E-001	0
4.4911665E+003	1.675379977205012E+001	-2.9042846E-001	-6.466659803266572E-002	1.8781020E-005	-2.9050732E-001	0
4.5521416E+003	1.695379976699769E+001	-2.9241741E-001	-6.423732739463550E-002	1.8784112E-005	-2.9250720E-001	0
4.6099424E+003	1.715379976194527E+001	-2.9441360E-001	-6.386492224547435E-002	1.8802701E-005	-2.9450706E-001	0
4.6670278E+003	1.735379975689284E+001	-2.9641488E-001	-6.351256221342760E-002	1.8826069E-005	-2.9650697E-001	0
4.7222690E+003	1.755379975184042E+001	-2.9842103E-001	-6.319441580711993E-002	1.8858542E-005	-2.9850683E-001	0
4.7777778E+003	1.775379974678799E+001	-3.0041313E-001	-6.287716915714825E-002	1.8889128E-005	-3.0050671E-001	0
4.8351079E+003	1.795369974173809E+001	-3.0241254E-001	-6.254515092751414E-002	1.8914438E-005	-3.0250749E-001	0
4.8913037E+003	1.815359973668819E+001	-3.0443433E-001	-6.223991733623035E-002	1.8947967E-005	-3.0450645E-001	0
4.9450103E+003	1.835359973163577E+001	-3.0641100E-001	-6.196367535518410E-002	1.8986351E-005	-3.0650634E-001	0
5.0012114E+003	1.855359972658334E+001	-3.0843472E-001	-6.167199997951511E-002	1.9021787E-005	-3.0850625E-001	0
5.0555513E+003	1.875359972153092E+001	-3.1043684E-001	-6.140514374383249E-002	1.9062420E-005	-3.1050611E-001	0
5.1097715E+003	1.895359971647849E+001	-3.1241286E-001	-6.114027773023778E-002	1.9101009E-005	-3.1250596E-001	0
5.1621353E+003	1.915359971142607E+001	-3.1441605E-001	-6.090814149685075E-002	1.9150497E-005	-3.1450588E-001	0
5.2222012E+003	1.935359970637364E+001	-3.1640878E-001	-6.058916009386034E-002	1.9170942E-005	-3.1650573E-001	0
5.2748511E+003	1.955359970132122E+001	-3.1842425E-001	-6.036649261286618E-002	1.9222156E-005	-3.1850561E-001	0
5.3282114E+003	1.975359969626879E+001	-3.2041660E-001	-6.013586572075802E-002	1.9268529E-005	-3.2050550E-001	0
5.3806431E+003	1.995359969121637E+001	-3.2240790E-001	-5.991995921981452E-002	1.9318668E-005	-3.2250538E-001	0
5.4314199E+003	2.015359968616394E+001	-3.2440934E-001	-5.972827199261502E-002	1.9376410E-005	-3.2450524E-001	0
5.4856196E+003	2.035359968111152E+001	-3.2641548E-001	-5.950384903773076E-002	1.9422978E-005	-3.2650512E-001	0
5.5466802E+003	2.055359967605909E+001	-3.2842910E-001	-5.921183096492011E-002	1.9446888E-005	-3.2850501E-001	0
5.5951074E+003	2.075359967100667E+001	-3.3043033E-001	-5.905701385867945E-002	1.9514229E-005	-3.3050489E-001	0
5.6542500E+003	2.095359966595424E+001	-3.3240548E-001	-5.878860806642916E-002	1.9541656E-005	-3.3250478E-001	0
5.7041196E+003	2.115349966090434E+001	-3.3441502E-001	-5.862693171682037E-002	1.9605726E-005	-3.3450443E-001	0
5.7540703E+003	2.135339965585445E+001	-3.3641332E-001	-5.846527856489503E-002	1.9668500E-005	-3.3650452E-001	0
5.8079253E+003	2.155339965080202E+001	-3.3842051E-001	-5.826874436808495E-002	1.9719339E-005	-3.3850440E-001	0
5.8659482E+003	2.175339964574960E+001	-3.4041607E-001	-5.803257347107804E-002	1.9755220E-005	-3.4050426E-001	0
5.9126377E+003	2.195339964069717E+001	-3.4240648E-001	-5.791095477980823E-002	1.9829085E-005	-3.4250414E-001	0
5.9643989E+003	2.215339963564475E+001	-3.4441432E-001	-5.774501874428362E-002	1.9888212E-005	-3.4450403E-001	0
6.0120107E+003	2.235339963059232E+001	-3.4639415E-001	-5.761701960376345E-002	1.9958199E-005	-3.4650391E-001	0
6.0667329E+003	2.255339962553990E+001	-3.4842578E-001	-5.743219137198108E-002	2.0010855E-005	-3.4850380E-001	0
6.1127109E+003	2.275339962048747E+001	-3.5043699E-001	-5.732922493205594E-002	2.0090281E-005	-3.5050368E-001	0
6.1618975E+003	2.295339961543505E+001	-3.5241830E-001	-5.719314466543113E-002	2.0155911E-005	-3.5250357E-001	0
6.2088657E+003	2.315339961038262E+001	-3.5442084E-001	-5.708302676259580E-002	2.0231415E-005	-3.5450342E-001	0
6.2604878E+003	2.335339960533020E+001	-3.5640472E-001	-5.692922476100448E-002	2.0289845E-005	-3.5650331E-001	0
6.3010068E+003	2.355339960027777E+001	-3.5842204E-001	-5.688329575036377E-002	2.0388226E-005	-3.5850319E-001	0
6.3515103E+003	2.375339959522535E+001	-3.6041185E-001	-5.674427682998412E-002	2.0451311E-005	-3.6050308E-001	0
6.3944023E+003	2.395339959017292E+001	-3.6240530E-001	-5.667539802749455E-002	2.0539464E-005	-3.6250293E-001	0
6.4444063E+003	2.415339958512050E+001	-3.6440763E-001	-5.654634466466579E-002	2.0605919E-005	-3.6450285E-001	0
6.4921787E+003	2.435339958006807E+001	-3.6641380E-001	-5.643926444252256E-002	2.0680125E-005	-3.6650270E-001	0
6.5366152E+003	2.455329957501817E+001	-3.6841846E-001	-5.636226535605260E-002	2.0764899E-005	-3.6850351E-001	0
6.5791147E+003	2.475319956996827E+001	-3.7039679E-001	-5.629888180296963E-002	2.0852925E-005	-3.7050247E-001	0
6.6292065E+003	2.495319956491585E+001	-3.7240270E-001	-5.617606008104370E-002	2.0920117E-005	-3.7250233E-001	0
6.6660405E+003	2.515319955986342E+001	-3.7441117E-001	-5.616694864766258E-002	2.1029533E-005	-3.7450221E-001	0
6.7088311E+003	2.535319955481100E+001	-3.7641072E-001	-5.610675077152588E-002	2.1119182E-005	-3.7650213E-001	0
6.7559785E+003	2.555319954975857E+001	-3.7840819E-001	-5.601086226912866E-002	2.1194970E-005	-3.7850198E-001	0
6.7956504E+003	2.575319954470615E+001	-3.8040119E-001	-5.597715905198064E-002	2.1293778E-005	-3.8050184E-001	0
6.8420283E+003	2.595319953965372E+001	-3.8240051E-001	-5.588993572264633E-002	2.1372340E-005	-3.8250175E-001	0
6.8887295E+003	2.615319953460130E+001	-3.8440219E-001	-5.580160905060072E-002	2.1450260E-005	-3.8450161E-001	0
6.9172339E+003	2.635319952954887E+001	-3.8639981E-001	-5.586045276787541E-002	2.1584468E-005	-3.8650152E-001	0
6.9634121E+003	2.655319952449645E+001	-3.8842103E-001	-5.578027123135509E-002	2.1666230E-005	-3.8850138E-001	0
7.0007554E+003	2.675319951944402E+001	-3.9040238E-001	-5.576575227301411E-002	2.1771082E-005	-3.9050123E-001	0
7.0308325E+003	2.695319951439160E+001	-3.9240807E-001	-5.581246336759450E-002	2.1901262E-005	-3.9250118E-001	0
7.0649512E+003	2.715319950933917E+001	-3.9441484E-001	-5.582697371489742E-002	2.2018987E-005	-3.9450103E-001	0
7.1092563E+003	2.735319950428675E+001	-3.9641017E-001	-5.575972471160240E-002	2.2103723E-005	-3.9650089E-001	0
7.1477407E+003	2.755319949923432E+001	-3.9841634E-001	-5.574017958008093E-002	2.2207798E-005	-3.9850080E-001	0
7.1830708E+003	2.775309949418443E+001	-4.0042180E-001	-5.574521203797400E-002	2.2321597E-005	-4.0050045E-001	0
7.2180400E+003	2.795299948913453E+001	-4.0240809E-001	-5.575032689125026E-002	2.2434382E-005	-4.0250057E-001	0
7.2584487E+003	2.815299948408210E+001	-4.0440735E-001	-5.571539551093574E-002	2.2531716E-005	-4.0450042E-001	0
7.2988271E+003	2.835299947902968E+001	-4.0640226E-001	-5.568048862060393E-002	2.2628676E-005	-4.0650028E-001	0
7.3290903E+003	2.855299947397725E+001	-4.0840161E-001	-5.572336934593487E-002	2.2757513E-005	-4.0850016E-001	0
7.3642900E+003	2.875299946892483E+001	-4.1040078E-001	-5.572849295266780E-002	2.2871016E-005	-4.1050005E-001	0
7.3934878E+003	2.895299946387240E+001	-4.1243172E-001	-5.578310766981703E-002	2.3006723E-005	-4.1249993E-001	0
7.4276489E+003	2.915299945881998E+001	-4.1444087E-001	-5.579704529122198E-002	2.3124576E-005	-4.1449979E-001	0
7.4596963E+003	2.935299945376755E+001	-4.1645098E-001	-5.582679943139324E-002	2.3249126E-005	-4.1649964E-001	0
7.4869321E+003	2.955299944871513E+001	-4.1844442E-001	-5.588997311862687E-002	2.3386847E-005	-4.1849956E-001	0
7.5159077E+003	2.975299944366270E+001	-4.2045394E-001	-5.594187049361976E-002	2.3520979E-005	-4.2049941E-001	0
7.5463008E+003	2.995299943861028E+001	-4.2244908E-001	-5.598094823449251E-002	2.3649100E-005	-4.2249933E-001	0
7.5719019E+003	3.015299943355785E+001	-4.2445800E-001	-5.605698574826457E-002	2.3793837E-005	-4.2449921E-001	0
7.6031250E+003	3.035299942850543E+001	-4.2644632E-001	-5.608829511266186E-002	2.3918647E-005	-4.2649904E-001	0
7.6382432E+003	3.055299942345300E+001	-4.2844903E-001	-5.609261450492875E-002	2.4032826E-005	-4.2849898E-001	0
7.6618838E+003	3.075299941840058E+001	-4.3044499E-001	-5.618004472144872E-002	2.4182418E-005	-4.3049884E-001	0
7.6990605E+003	3.095299941334815E+001	-4.3243775E-001	-5.616759875886443E-002	2.4288989E-005	-4.3249869E-001	0
7.7251514E+003	3.115289940829825E+001	-4.3445453E-001	-5.623896493419589E-002	2.4433273E-005	-4.3449906E-001	0
7.7494141E+003	3.135279940324835E+001	-4.3643835E-001	-5.631888367693927E-002	2.4579720E-005	-4.3649846E-001	0
7.7641196E+003	3.155279939819593E+001	-4.3844751E-001	-5.647098869159239E-002	2.4759564E-005	-4.3849838E-001	0
7.7936279E+003	3.175279939314350E+001	-4.4042969E-001	-5.651151087787643E-002	2.4889347E-005	-4.4049823E-001	0
7.8181582E+003	3.195279938809108E+001	-4.4243792E-001	-5.659106626944066E-002	2.5038033E-005	-4.4249809E-001	0
7.8416279E+003	3.215279938303865E+001	-4.4445249E-001	-5.667860159447702E-002	2.5190946E-005	-4.4449800E-001	0
7.8632769E+003	3.235279937798623E+001	-4.4645062E-001	-5.677666333282283E-002	2.5347977E-005	-4.4649786E-001	0
7.8950444E+003	3.255279937293381E+001	-4.4844571E-001	-5.680091115128660E-002	2.5472125E-005	-4.4849774E-001	0
7.9204487E+003	3.275279936788138E+001	-4.5044488E-001	-5.687113091098299E-002	2.5617310E-005	-4.5049760E-001	0
7.9453335E+003	3.295279936282896E+001	-4.5243868E-001	-5.694395064507218E-002	2.5763646E-005	-4.5249748E-001	0
7.9704834E+003	3.315279935777653E+001	-4.5443085E-001	-5.701421550897438E-002	2.5909017E-005	-4.5449743E-001	0
7.9969419E+003	3.335279935272411E+001	-4.5643821E-001	-5.707659517402186E-002	2.6051939E-005	-4.5649722E-001	0
8.0216592E+003	3.355279934767168E+001	-4.5844629E-001	-5.715105521477915E-002	2.6200689E-005	-4.5849714E-001	0
8.0396611E+003	3.375279934261926E+001	-4.6044269E-001	-5.727140670969588E-002	2.6370200E-005	-4.6049705E-001	0
8.0574282E+003	3.395279933756683E+001	-4.6245074E-001	-5.739433631721175E-002	2.6542053E-005	-4.6249685E-001	0
8.0888188E+003	3.415279933251441E+001	-4.6443135E-001	-5.741646018221369E-002	2.6666004E-005	-4.6449679E-001	0
8.1024551E+003	3.435269932746451E+001	-4.6644327E-001	-5.756814179653991E-002	2.6852273E-005	-4.6649602E-001	0
8.1231797E+003	3.455259932241461E+001	-4.6842709E-001	-5.766548426524043E-002	2.7012074E-005	-4.6849653E-001	0
8.1431572E+003	3.475259931736218E+001	-4.7043326E-001	-5.777037677369856E-002	2.7177108E-005	-4.7049642E-001	0
8.1722285E+003	3.495259931230976E+001	-4.7243240E-001	-5.780949589982209E-002	2.7311080E-005	-4.7249627E-001	0
8.1978018E+003	3.515259930725733E+001	-4.7442371E-001	-5.787206527432776E-002	2.7455879E-005	-4.7449619E-001	0
8.2219033E+003	3.535259930220491E+001	-4.7641224E-001	-5.794427291354975E-002	2.7605362E-005	-4.7649604E-001	0
8.2375342E+003	3.555259929715248E+001	-4.7841582E-001	-5.807755296826000E-002	2.7785220E-005	-4.7849590E-001	0
8.2626709E+003	3.575259929210006E+001	-4.8041132E-001	-5.814237363294361E-002	2.7932254E-005	-4.8049584E-001	0
8.2902148E+003	3.595259928704763E+001	-4.8243362E-001	-5.819313552509336E-002	2.8074324E-005	-4.8249567E-001	0
8.3095000E+003	3.615259928199521E+001	-4.8441771E-001	-5.829685386967198E-002	2.8240029E-005	-4.8449555E-001	0
8.3323867E+003	3.635259927694278E+001	-4.8643211E-001	-5.837848277545010E-002	2.8397168E-005	-4.8649547E-001	0
8.3482412E+003	3.655259927189036E+001	-4.8843783E-001	-5.850786900004179E-002	2.8577457E-005	-4.8849532E-001	0
8.3754111E+003	3.675259926683793E+001	-4.9044248E-001	-5.855742220021365E-002	2.8719047E-005	-4.9049523E-001	0
8.4052783E+003	3.695259926178551E+001	-4.9244392E-001	-5.858745947247912E-002	2.8851038E-005	-4.9249509E-001	0
8.4280703E+003	3.715259925673308E+001	-4.9444395E-001	-5.866632863347032E-002	2.9007211E-005	-4.9449494E-001	0
8.4602256E+003	3.735259925168066E+001	-4.9644080E-001	-5.867937811789736E-002	2.9130837E-005	-4.9649486E-001	0
8.4737695E+003	3.755259924662823E+001	-4.9842295E-001	-5.881950893131005E-002	2.9316992E-005	-4.9849471E-001	0
8.5054873E+003	3.775249924157833E+001	-5.0042504E-001	-5.883555287562681E-002	2.9442785E-005	-5.0049525E-001	0
8.5229072E+003	3.795239923652844E+001	-5.0241911E-001	-5.894926449182558E-002	2.9617237E-005	-5.0249451E-001	0
8.5555830E+003	3.815239923147601E+001	-5.0443798E-001	-5.896009438852790E-002	2.9741712E-005	-5.0449437E-001	0
8.5764707E+003	3.835239922642359E+001	-5.0642776E-001	-5.904850194097633E-002	2.9903800E-005	-5.0649428E-001	0
8.6010498E+003	3.855239922137116E+001	-5.0842839E-001	-5.911236258472852E-002	3.0054403E-005	-5.0849408E-001	0
8.6376699E+003	3.875239921631874E+001	-5.1041883E-001	-5.909219140592381E-002	3.0161767E-005	-5.1049399E-001	0
8.6708027E+003	3.895239921126631E+001	-5.1243877E-001	-5.909934562584479E-002	3.0284797E-005	-5.1249385E-001	0
8.6874766E+003	3.915239920621389E+001	-5.1442707E-001	-5.921478449871720E-002	3.0461688E-005	-5.1449370E-001	0
8.7199053E+003	3.935239920116146E+001	-5.1642895E-001	-5.922414890232841E-002	3.0585066E-005	-5.1649368E-001	0
8.7565283E+003	3.955239919610904E+001	-5.1842195E-001	-5.920405292676559E-002	3.0692681E-005	-5.1849347E-001	0
8.7946191E+003	3.975239919105661E+001	-5.2040821E-001	-5.917347823491403E-002	3.0794363E-005	-5.2049333E-001	0
8.8199336E+003	3.995239918600419E+001	-5.2241814E-001	-5.923152632553075E-002	3.0943625E-005	-5.2249330E-001	0
8.8538066E+003	4.015239918095176E+001	-5.2443260E-001	-5.923244040807829E-002	3.1063424E-005	-5.2449316E-001	0
8.8849717E+003	4.035239917589934E+001	-5.2642065E-001	-5.924843373030508E-002	3.1189600E-005	-5.2649301E-001	0
8.9267598E+003	4.055239917084691E+001	-5.2840430E-001	-5.919329068135653E-002	3.1277988E-005	-5.2849293E-001	0
8.9563652E+003	4.075239916579449E+001	-5.3042036E-001	-5.922272296985620E-002	3.1412939E-005	-5.3049278E-001	0
8.9791953E+003	4.095229916074459E+001	-5.3242278E-001	-5.929515782588612E-002	3.1570093E-005	-5.3249276E-001	0
9.0057510E+003	4.115219915569469E+001	-5.3441173E-001	-5.934116233756877E-002	3.1712614E-005	-5.3449255E-001	0
9.0370176E+003	4.135219915064226E+001	-5.3641295E-001	-5.935729914524357E-002	3.1840023E-005	-5.3649247E-001	0
9.0771055E+003	4.155219914558984E+001	-5.3840315E-001	-5.931440709938043E-002	3.1935066E-005	-5.3849232E-001	0
9.1132158E+003	4.175219914053741E+001	-5.4041362E-001	-5.929999314818746E-002	3.2046522E-005	-5.4049218E-001	0
9.1469473E+003	4.195219913548499E+001	-5.4242074E-001	-5.930074130115259E-002	3.2165954E-005	-5.4249203E-001	0
9.1877852E+003	4.215219913043256E+001	-5.4442579E-001	-5.925538912711148E-002	3.2260163E-005	-5.4449195E-001	0
9.2216826E+003	4.235219912538014E+001	-5.4641378E-001	-5.925315671363890E-002	3.2376742E-005	-5.4649180E-001	0
9.2594082E+003	4.255219912032771E+001	-5.4844338E-001	-5.923093330957707E-002	3.2484812E-005	-5.4849172E-001	0
9.2930498E+003	4.275219911527529E+001	-5.5040711E-001	-5.922782451997760E-002	3.2599415E-005	-5.5049157E-001	0
9.3439805E+003	4.295219911022286E+001	-5.5243194E-001	-5.912169249931054E-002	3.2660711E-005	-5.5249143E-001	0
9.3909404E+003	4.315219910517044E+001	-5.5441451E-001	-5.903716611067722E-002	3.2731063E-005	-5.5449134E-001	0
9.4251426E+003	4.335219910011801E+001	-5.5641663E-001	-5.903535721878458E-002	3.2848253E-005	-5.5649120E-001	0
9.4755654E+003	4.355219909506559E+001	-5.5841231E-001	-5.893182261454188E-002	3.2908254E-005	-5.5849111E-001	0
9.5117715E+003	4.375219909001316E+001	-5.6041598E-001	-5.891815086250152E-002	3.3018674E-005	-5.6049097E-001	0
9.5537373E+003	4.395219908496074E+001	-5.6241232E-001	-5.886830349797009E-002	3.3108259E-005	-5.6249082E-001	0
9.6062627E+003	4.415219907990831E+001	-5.6443697E-001	-5.875718621526541E-002	3.3164728E-005	-5.6449074E-001	0
9.6526367E+003	4.435199907486094E+001	-5.6639153E-001	-5.867738954559915E-002	3.3234377E-005	-5.6649059E-001	0
9.6813350E+003	4.455199906980852E+001	-5.6839365E-001	-5.871025558250648E-002	3.3370536E-005	-5.6849051E-001	0
9.7495527E+003	4.475199906475609E+001	-5.7039613E-001	-5.850484965911842E-002	3.3370939E-005	-5.7049042E-001	0
9.7960830E+003	4.495199905970367E+001	-5.7241565E-001	-5.843311792256434E-002	3.3448032E-005	-5.7249022E-001	0
9.8576699E+003	4.515199905465124E+001	-5.7439274E-001	-5.826861027822468E-002	3.3469067E-005	-5.7449013E-001	0
9.8939033E+003	4.535199904959882E+001	-5.7640904E-001	-5.825901493618069E-002	3.3581022E-005	-5.7648998E-001	0
9.9420527E+003	4.555199904454639E+001	-5.7840568E-001	-5.817769081310675E-002	3.3650307E-005	-5.7848990E-001	0
9.9926582E+003	4.575199903949397E+001	-5.8040780E-001	-5.808342578440739E-002	3.3712073E-005	-5.8048975E-001	0
1.0023884E+004	4.595199903444154E+001	-5.8240902E-001	-5.810213450114335E-002	3.3839209E-005	-5.8248961E-001	0
1.0051904E+004	4.615199902938912E+001	-5.8440834E-001	-5.813906482123088E-002	3.3976954E-005	-5.8448952E-001	0
1.0135152E+004	4.635199902433669E+001	-5.8641684E-001	-5.785969894193532E-002	3.3929900E-005	-5.8648938E-001	0
1.0175788E+004	4.655199901928427E+001	-5.8842003E-001	-5.782550008114340E-002	3.4025681E-005	-5.8848923E-001	0
1.0209113E+004	4.675199901423184E+001	-5.9043103E-001	-5.783372211783200E-002	3.4146826E-005	-5.9048915E-001	0
1.0281878E+004	4.695199900917942E+001	-5.9241450E-001	-5.761734678678199E-002	3.4133351E-005	-5.9248900E-001	0
1.0322289E+004	4.715199900412699E+001	-5.9442848E-001	-5.758688621731928E-002	3.4231285E-005	-5.9448892E-001	0
1.0381784E+004	4.735199899907457E+001	-5.9641957E-001	-5.744866102399593E-002	3.4263507E-005	-5.9648877E-001	0
1.0447318E+004	4.755189899402467E+001	-5.9842616E-001	-5.728035972382184E-002	3.4278066E-005	-5.9848869E-001	0
1.0519538E+004	4.775179898897477E+001	-6.0041332E-001	-5.707601435026362E-002	3.4269200E-005	-6.0048860E-001	0
1.0564647E+004	4.795179898392234E+001	-6.0242778E-001	-5.702299098146324E-002	3.4352233E-005	-6.0248840E-001	0
1.0586335E+004	4.815179897886992E+001	-6.0441953E-001	-5.709431612655075E-002	3.4508921E-005	-6.0448831E-001	0
1.0607346E+004	4.835179897381749E+001	-6.0642332E-001	-5.717012773282715E-002	3.4669298E-005	-6.0648823E-001	0
1.0666862E+004	4.855179896876507E+001	-6.0842985E-001	-5.703925104682983E-002	3.4704382E-005	-6.0848802E-001	0
1.0609364E+004	4.875179896371264E+001	-6.1042392E-001	-5.753633257766111E-002	3.5121553E-005	-6.1048794E-001	0
1.0382778E+004	4.895179895866022E+001	-6.1243492E-001	-5.898564812133822E-002	3.6124871E-005	-6.1248785E-001	0
9.5407656E+003	4.915179895360779E+001	-6.1442029E-001	-6.439947390130563E-002	3.9568346E-005	-6.1448765E-001	0
1.0198086E+004	4.935179894855537E+001	-6.1643469E-001	-6.044611944595246E-002	3.7261085E-005	-6.1648756E-001	0
1.0476854E+004	4.955179894350294E+001	-6.1843896E-001	-5.902907435461247E-002	3.6505880E-005	-6.1848742E-001	0
1.0308806E+004	4.975179893845052E+001	-6.2041581E-001	-6.018309291745715E-002	3.7338541E-005	-6.2048733E-001	0
1.0805766E+004	4.995179893339810E+001	-6.2242448E-001	-5.760114414663886E-002	3.5852361E-005	-6.2248719E-001	0
1.1140911E+004	5.015179892834567E+001	-6.2442702E-001	-5.604811228733619E-002	3.4997956E-005	-6.2448704E-001	0
1.1222123E+004	5.035179892329325E+001	-6.2642533E-001	-5.582057152317255E-002	3.4967419E-005	-6.2648696E-001	0
1.1270460E+004	5.055179891824082E+001	-6.2843746E-001	-5.575969793713417E-002	3.5041481E-005	-6.2848681E-001	0
1.1333388E+004	5.075179891318840E+001	-6.3042885E-001	-5.562580888427116E-002	3.5068115E-005	-6.3048697E-001	0
1.1365209E+004	5.095159890814102E+001	-6.3243997E-001	-5.564701527408839E-002	3.5193396E-005	-6.3248664E-001	0
1.1390458E+004	5.115159890308860E+001	-6.3443965E-001	-5.569922190862810E-002	3.5337795E-005	-6.3448650E-001	0
1.1445865E+004	5.135159889803617E+001	-6.3642335E-001	-5.560290304386384E-002	3.5386987E-005	-6.3648641E-001	0
1.1513330E+004	5.155159889298375E+001	-6.3842267E-001	-5.545073986484272E-002	3.5401008E-005	-6.3848627E-001	0
1.1578569E+004	5.175159888793132E+001	-6.4041865E-001	-5.531069026550361E-002	3.5421999E-005	-6.4048618E-001	0
1.1638110E+004	5.195159888287890E+001	-6.4244920E-001	-5.520219165650175E-002	3.5464604E-005	-6.4248604E-001	0
1.1662325E+004	5.215159887782647E+001	-6.4445448E-001	-5.525951947100338E-002	3.5612244E-005	-6.4448583E-001	0
1.1719227E+004	5.235159887277405E+001	-6.4644313E-001	-5.516090599689086E-002	3.5658388E-005	-6.4648575E-001	0
1.1786741E+004	5.255159886772162E+001	-6.4845020E-001	-5.501522240915324E-002	3.5674631E-005	-6.4848566E-001	0
1.1824870E+004	5.275159886266920E+001	-6.5043598E-001	-5.500575970296562E-002	3.5777724E-005	-6.5048552E-001	0
1.1887462E+004	5.295159885761677E+001	-6.5244526E-001	-5.488515857611354E-002	3.5809560E-005	-6.5248543E-001	0
1.1932411E+004	5.315159885256435E+001	-6.5444696E-001	-5.484616400012975E-002	3.5893907E-005	-6.5448529E-001	0
1.1982083E+004	5.335159884751192E+001	-6.5644383E-001	-5.478545385275591E-002	3.5963574E-005	-6.5648514E-001	0
1.2048206E+004	5.355159884245950E+001	-6.5842658E-001	-5.464934832954993E-002	3.5982583E-005	-6.5848505E-001	0
1.2089181E+004	5.375159883740707E+001	-6.6044670E-001	-5.463122051365477E-002	3.6081008E-005	-6.6048491E-001	0
1.2153154E+004	5.395159883235465E+001	-6.6245782E-001	-5.450912577294384E-002	3.6109996E-005	-6.6248477E-001	0
1.2187544E+004	5.415149882730475E+001	-6.6444796E-001	-5.451860886710413E-002	3.6224777E-005	-6.6448498E-001	0
1.2234619E+004	5.435139882225485E+001	-6.6644239E-001	-5.447185668743759E-002	3.6302354E-005	-6.6648453E-001	0
1.2282146E+004	5.455139881720243E+001	-6.6841394E-001	-5.442159019554205E-002	3.6376150E-005	-6.6848445E-001	0
1.2324425E+004	5.475139881215000E+001	-6.7041993E-001	-5.439766567852988E-002	3.6469279E-005	-6.7048424E-001	0
1.2377366E+004	5.495139880709758E+001	-6.7240185E-001	-5.432511395151807E-002	3.6528309E-005	-6.7248416E-001	0
1.2399381E+004	5.515139880204515E+001	-6.7442739E-001	-5.439201987648401E-002	3.6683468E-005	-6.7448407E-001	0
1.2452697E+004	5.535139879699273E+001	-6.7643219E-001	-5.432013674721514E-002	3.6743888E-005	-6.7648387E-001	0
1.2484221E+004	5.555139879194030E+001	-6.7842615E-001	-5.434268881205717E-002	3.6867499E-005	-6.7848384E-001	0
1.2524026E+004	5.575139878688788E+001	-6.8042964E-001	-5.432994315736520E-002	3.6967704E-005	-6.8048364E-001	0
1.2571632E+004	5.595139878183545E+001	-6.8243957E-001	-5.428408686643937E-002	3.7045607E-005	-6.8248361E-001	0
1.2610166E+004	5.615139877678303E+001	-6.8443525E-001	-5.427646773229511E-002	3.7148729E-005	-6.8448347E-001	0
1.2644206E+004	5.635139877173060E+001	-6.8643427E-001	-5.428844362564902E-002	3.7265447E-005	-6.8648332E-001	0
1.2664645E+004	5.655139876667818E+001	-6.8841809E-001	-5.435747531392643E-002	3.7420668E-005	-6.8848324E-001	0
1.2712505E+004	5.675139876162575E+001	-6.9042510E-001	-5.431070426202322E-002	3.7497473E-005	-6.9048309E-001	0
1.2750309E+004	5.695139875657333E+001	-6.9242656E-001	-5.430665099254228E-002	3.7603368E-005	-6.9248295E-001	0
1.2788167E+004	5.715139875152090E+001	-6.9442248E-001	-5.430195644305691E-002	3.7708498E-005	-6.9448292E-001	0
1.2801742E+004	5.735129874647100E+001	-6.9641173E-001	-5.439976217608927E-002	3.7884631E-005	-6.9648206E-001	0
1.2845602E+004	5.755119874142110E+001	-6.9841915E-001	-5.437029704035556E-002	3.7973256E-005	-6.9848263E-001	0
1.2862540E+004	5.775119873636868E+001	-7.0043105E-001	-5.445511206560039E-002	3.8142050E-005	-7.0048255E-001	0
1.2896951E+004	5.795119873131625E+001	-7.0242715E-001	-5.446458862389103E-002	3.8257407E-005	-7.0248234E-001	0
1.2934640E+004	5.815119872626383E+001	-7.0441610E-001	-5.445966335454888E-002	3.8362265E-005	-7.0448226E-001	0
1.2947723E+004	5.835119872121140E+001	-7.0642668E-001	-5.455991751334865E-002	3.8542581E-005	-7.0648217E-001	0
1.2969638E+004	5.855119871615898E+001	-7.0841527E-001	-5.462105501635328E-002	3.8694390E-005	-7.0848197E-001	0
1.2981002E+004	5.875119871110655E+001	-7.1041745E-001	-5.472747463460537E-002	3.8879352E-005	-7.1048188E-001	0
1.3007734E+004	5.895119870605413E+001	-7.1241945E-001	-5.476890995416417E-002	3.9018436E-005	-7.1248180E-001	0
1.3014626E+004	5.915119870100170E+001	-7.1442050E-001	-5.489366336159685E-002	3.9217157E-005	-7.1448171E-001	0
1.3032457E+004	5.935119869594928E+001	-7.1640438E-001	-5.497078226283713E-002	3.9381310E-005	-7.1648151E-001	0
1.3044252E+004	5.955119869089685E+001	-7.1841693E-001	-5.507536294612442E-002	3.9567072E-005	-7.1848142E-001	0
1.3064557E+004	5.975119868584443E+001	-7.2041434E-001	-5.514265382936934E-002	3.9725557E-005	-7.2048134E-001	0
1.3087131E+004	5.995119868079200E+001	-7.2242510E-001	-5.520118367932156E-002	3.9878720E-005	-7.2248113E-001	0
1.3063569E+004	6.015119867573958E+001	-7.2441959E-001	-5.545342072122261E-002	4.0171544E-005	-7.2448105E-001	0
1.3089921E+004	6.035119867068715E+001	-7.2639978E-001	-5.549306066468164E-002	4.0310148E-005	-7.2648090E-001	0
1.3109846E+004	6.055119866563473E+001	-7.2841954E-001	-5.556278474483223E-002	4.0473020E-005	-7.2848076E-001	0
1.3123961E+004	6.075109866058483E+001	-7.3042357E-001	-5.565572726927959E-002	4.0652256E-005	-7.3048121E-001	0
1.3145885E+004	6.095099865553493E+001	-7.3241699E-001	-5.571454661516073E-002	4.0806281E-005	-7.3248053E-001	0
1.3148699E+004	6.115099865048251E+001	-7.3441339E-001	-5.585445243867371E-002	4.1020259E-005	-7.3448038E-001	0
1.3145426E+004	6.135099864543008E+001	-7.3642969E-001	-5.602174506326341E-002	4.1256077E-005	-7.3648036E-001	0
1.3210495E+004	6.155099864037766E+001	-7.3842138E-001	-5.589657116263180E-002	4.1275223E-005	-7.3848015E-001	0
1.3221801E+004	6.175099863532523E+001	-7.4041837E-001	-5.599981142617694E-002	4.1463289E-005	-7.4048007E-001	0
1.3228558E+004	6.195099863027281E+001	-7.4240422E-001	-5.612132885934717E-002	4.1664713E-005	-7.4247998E-001	0
1.3234178E+004	6.215099862522038E+001	-7.4442559E-001	-5.625023473373059E-002	4.1874115E-005	-7.4447978E-001	0
1.3234609E+004	6.235099862016796E+001	-7.4641967E-001	-5.639906853433196E-002	4.2097374E-005	-7.4647969E-001	0
1.3222334E+004	6.255099861511553E+001	-7.4842346E-001	-5.660297558906913E-002	4.2362994E-005	-7.4847960E-001	0
1.3127028E+004	6.275099861006311E+001	-7.5041854E-001	-5.716591143649052E-002	4.2898359E-005	-7.5047952E-001	0
1.3146911E+004	6.295099860501068E+001	-7.5241518E-001	-5.723132751301296E-002	4.3061718E-005	-7.5247931E-001	0
1.3192848E+004	6.315099859995826E+001	-7.5440896E-001	-5.718317709529508E-002	4.3139502E-005	-7.5447923E-001	0
1.3180072E+004	6.335099859490583E+001	-7.5642169E-001	-5.739131756866034E-002	4.3412037E-005	-7.5647914E-001	0
1.3177443E+004	6.355099858985341E+001	-7.5842148E-001	-5.755452599952959E-002	4.3650587E-005	-7.5847894E-001	0
1.3186896E+004	6.375099858480098E+001	-7.6042080E-001	-5.766488359332955E-002	4.3849577E-005	-7.6047885E-001	0
1.3156184E+004	6.395089857975108E+001	-7.6244164E-001	-5.795309889512046E-002	4.4185854E-005	-7.6247805E-001	0
1.3152723E+004	6.415079857470118E+001	-7.6441383E-001	-5.811829585423628E-002	4.4426430E-005	-7.6447856E-001	0
1.3119632E+004	6.435079856964876E+001	-7.6643419E-001	-5.841887793862743E-002	4.4774224E-005	-7.6647854E-001	0
1.3094733E+004	6.455079856459633E+001	-7.6841402E-001	-5.868115082811876E-002	4.5091419E-005	-7.6847839E-001	0
1.3086912E+004	6.475079855954391E+001	-7.7041483E-001	-5.886910653613997E-002	4.5353634E-005	-7.7047825E-001	0
1.3066174E+004	6.495079855449148E+001	-7.7239043E-001	-5.911374213955356E-002	4.5658890E-005	-7.7247816E-001	0
1.3055955E+004	6.515079854943906E+001	-7.7440995E-001	-5.931469371865433E-002	4.5933888E-005	-7.7447796E-001	0
1.3033385E+004	6.535079854438663E+001	-7.7640629E-001	-5.957057913860342E-002	4.6250971E-005	-7.7647787E-001	0
1.3021207E+004	6.555079853933421E+001	-7.7839160E-001	-5.977875960551515E-002	4.6531284E-005	-7.7847779E-001	0
1.2986343E+004	6.575079853428178E+001	-7.8038669E-001	-6.009287522818552E-002	4.6895679E-005	-7.8047758E-001	0
1.2955987E+004	6.595079852922936E+001	-7.8240103E-001	-6.038914936702366E-002	4.7248534E-005	-7.8247762E-001	0
1.2918019E+004	6.615079852417693E+001	-7.8439778E-001	-6.072121263162789E-002	4.7629583E-005	-7.8447741E-001	0
1.2876983E+004	6.635079851912451E+001	-7.8640288E-001	-6.107042925252804E-002	4.8025962E-005	-7.8647733E-001	0
1.2833599E+004	6.655079851407208E+001	-7.8840601E-001	-6.143296343040006E-002	4.8434118E-005	-7.8847724E-001	0
1.2766825E+004	6.675079850901966E+001	-7.9039758E-001	-6.191026769544655E-002	4.8933725E-005	-7.9047704E-001	0
1.2778702E+004	6.695079850396723E+001	-7.9240853E-001	-6.201009559730220E-002	4.9137328E-005	-7.9247695E-001	0
1.2728866E+004	6.715079849891481E+001	-7.9440922E-001	-6.241005292857070E-002	4.9579121E-005	-7.9447681E-001	0
1.2647884E+004	6.735059849386744E+001	-7.9640710E-001	-6.296761585837340E-002	5.0147857E-005	-7.9647624E-001	0
1.2629950E+004	6.755059848881501E+001	-7.9840112E-001	-6.321490796487739E-002	5.0470851E-005	-7.9847664E-001	0
1.2547570E+004	6.775059848376259E+001	-8.0039990E-001	-6.378923434354478E-002	5.1056897E-005	-8.0047643E-001	0
1.2393512E+004	6.795059847871016E+001	-8.0240411E-001	-6.474388564478539E-002	5.1950759E-005	-8.0247635E-001	0
1.1992318E+004	6.815059847365774E+001	-8.0440789E-001	-6.707692930164433E-002	5.3957210E-005	-8.0447620E-001	0
1.2373787E+004	6.835059846860531E+001	-8.0640274E-001	-6.517024595520593E-002	5.2553463E-005	-8.0647606E-001	0
1.2171606E+004	6.855059846355289E+001	-8.0840653E-001	-6.641740378946950E-002	5.3692263E-005	-8.0847597E-001	0
1.1435173E+004	6.875059845850046E+001	-8.1040335E-001	-7.086935551053591E-002	5.7432764E-005	-8.1047583E-001	0
1.1098036E+004	6.895059845344804E+001	-8.1240213E-001	-7.320232937838922E-002	5.9469727E-005	-8.1247568E-001	0
1.1698900E+004	6.915059844839561E+001	-8.1441200E-001	-6.961440373277583E-002	5.6694807E-005	-8.1447560E-001	0
1.2041315E+004	6.935059844334319E+001	-8.1642121E-001	-6.780166102545854E-002	5.5354714E-005	-8.1647551E-001	0
1.1941846E+004	6.955059843829076E+001	-8.1842327E-001	-6.853407119821031E-002	5.6089877E-005	-8.1847543E-001	0
1.1890932E+004	6.975059843323834E+001	-8.2041538E-001	-6.899504519918764E-002	5.6604596E-005	-8.2047522E-001	0
1.1812627E+004	6.995059842818591E+001	-8.2240915E-001	-6.962118795998973E-002	5.7257101E-005	-8.2247514E-001	0
1.1682862E+004	7.015059842313349E+001	-8.2442003E-001	-7.056661657967903E-002	5.8176531E-005	-8.2447505E-001	0
1.1373621E+004	7.035059841808106E+001	-8.2641208E-001	-7.266041754466213E-002	6.0047449E-005	-8.2647491E-001	0
1.1463901E+004	7.055059841302864E+001	-8.2841772E-001	-7.226315780348469E-002	5.9864080E-005	-8.2847482E-001	0
1.1290393E+004	7.075049840797874E+001	-8.3041620E-001	-7.355069176767981E-002	6.1077684E-005	-8.3047551E-001	0
1.1328762E+004	7.095039840292884E+001	-8.3241659E-001	-7.347816237789120E-002	6.1164443E-005	-8.3247447E-001	0
1.1294862E+004	7.115039839787642E+001	-8.3442378E-001	-7.387640419397129E-002	6.1644227E-005	-8.3447438E-001	0
1.1188403E+004	7.135039839282399E+001	-8.3641100E-001	-7.475695615716671E-002	6.2527542E-005	-8.3647436E-001	0
1.1109232E+004	7.155039838777157E+001	-8.3842212E-001	-7.547075165670059E-002	6.3276348E-005	-8.3847415E-001	0
1.0999729E+004	7.175039838271914E+001	-8.4041166E-001	-7.640294902250500E-002	6.4209933E-005	-8.4047407E-001	0
1.0892339E+004	7.195039837766672E+001	-8.4241414E-001	-7.734006111797354E-002	6.5152359E-005	-8.4247386E-001	0
1.0801757E+004	7.215039837261429E+001	-8.4441906E-001	-7.817423587629091E-002	6.6011817E-005	-8.4447378E-001	0
1.0651435E+004	7.235039836756187E+001	-8.4641093E-001	-7.946450149116702E-002	6.7259622E-005	-8.4647369E-001	0
1.0539468E+004	7.255039836250944E+001	-8.4840888E-001	-8.049826920159164E-002	6.8295449E-005	-8.4847349E-001	0
1.0362366E+004	7.275039835745702E+001	-8.5043532E-001	-8.206960317190926E-002	6.9794885E-005	-8.5047340E-001	0
1.0206572E+004	7.295039835240459E+001	-8.5240817E-001	-8.351561615967951E-002	7.1189395E-005	-8.5247332E-001	0
1.0043831E+004	7.315039834735217E+001	-8.5442835E-001	-8.506996360767949E-002	7.2686191E-005	-8.5447311E-001	0
9.8433604E+003	7.335039834229974E+001	-8.5642272E-001	-8.700512042913289E-002	7.4513162E-005	-8.5647315E-001	0
9.6250576E+003	7.355039833724732E+001	-8.5842252E-001	-8.918621817122174E-002	7.6559460E-005	-8.5847294E-001	0
9.3985684E+003	7.375039833219489E+001	-8.6042273E-001	-9.154828034801710E-002	7.8770223E-005	-8.6047286E-001	0
9.1294922E+003	7.395029832714499E+001	-8.6241716E-001	-9.446496962621009E-002	8.1468213E-005	-8.6247247E-001	0
8.8327813E+003	7.415019832209509E+001	-8.6441004E-001	-9.786386202594199E-002	8.4594503E-005	-8.6447257E-001	0
8.5477432E+003	7.435019831704267E+001	-8.6640549E-001	-1.013607355721646E-001	8.7819499E-005	-8.6647248E-001	0
8.2268496E+003	7.455019831199024E+001	-8.6842543E-001	-1.055598953979553E-001	9.1670896E-005	-8.6847234E-001	0
7.9199741E+003	7.475019830693782E+001	-8.7040204E-001	-1.098996064997368E-001	9.5656840E-005	-8.7047225E-001	0
7.6129912E+003	7.495019830188539E+001	-8.7240881E-001	-1.145947455891041E-001	9.9973462E-005	-8.7247211E-001	0
7.3592173E+003	7.515019829683297E+001	-8.7439299E-001	-1.188160305116284E-001	1.0389191E-004	-8.7447196E-001	0
7.0370547E+003	7.535019829178054E+001	-8.7640482E-001	-1.245414280267156E-001	1.0914871E-004	-8.7647182E-001	0
6.8358354E+003	7.555019828672812E+001	-8.7838566E-001	-1.284971963878203E-001	1.1287010E-004	-8.7847173E-001	0
6.5992744E+003	7.575019828167569E+001	-8.8039637E-001	-1.334080589859163E-001	1.1745197E-004	-8.8047159E-001	0
6.3135405E+003	7.595019827662327E+001	-8.8239384E-001	-1.397621192865899E-001	1.2332523E-004	-8.8247216E-001	0
6.0576631E+003	7.615019827157084E+001	-8.8438118E-001	-1.459937871036767E-001	1.2911415E-004	-8.8447249E-001	0
5.8831729E+003	7.635019826651842E+001	-8.8640141E-001	-1.506672360038885E-001	1.3355166E-004	-8.8647246E-001	0
5.6957021E+003	7.655019826146599E+001	-8.8840151E-001	-1.559775165142810E-001	1.3857066E-004	-8.8847256E-001	0
5.5028184E+003	7.675019825641357E+001	-8.9038444E-001	-1.618051639475064E-001	1.4406881E-004	-8.9047253E-001	0
5.3007275E+003	7.695019825136114E+001	-8.9240104E-001	-1.683544473365668E-001	1.5023968E-004	-8.9247251E-001	0
5.1261802E+003	7.715019824630872E+001	-8.9441079E-001	-1.744789923541243E-001	1.5605589E-004	-8.9447260E-001	0
4.9482612E+003	7.735019824125629E+001	-8.9640427E-001	-1.811554047401538E-001	1.6238847E-004	-8.9647263E-001	0
4.7693501E+003	7.755019823620387E+001	-8.9841896E-001	-1.883734607089169E-001	1.6923829E-004	-8.9847255E-001	0
4.5894194E+003	7.775019823115144E+001	-9.0041202E-001	-1.961930160022121E-001	1.7665455E-004	-9.0047252E-001	0
4.3904775E+003	7.795019822609902E+001	-9.0239578E-001	-2.055347622593953E-001	1.8547371E-004	-9.0247262E-001	0
4.1713501E+003	7.815019822104659E+001	-9.0440518E-001	-2.168135279050416E-001	1.9608728E-004	-9.0447247E-001	0
3.9707412E+003	7.835019821599417E+001	-9.0640676E-001	-2.282714262401971E-001	2.0690677E-004	-9.0647250E-001	0
3.7630396E+003	7.855019821094174E+001	-9.0841740E-001	-2.414052273926073E-001	2.1929671E-004	-9.0847254E-001	0
3.5334812E+003	7.875019820588932E+001	-9.1040790E-001	-2.576518303560524E-001	2.3456826E-004	-9.1047251E-001	0
3.2943892E+003	7.895019820083689E+001	-9.1241604E-001	-2.769606192205574E-001	2.5270332E-004	-9.1247249E-001	0
3.0681216E+003	7.915019819578447E+001	-9.1443127E-001	-2.980427069741554E-001	2.7253956E-004	-9.1447252E-001	0
2.8588835E+003	7.935019819073204E+001	-9.1642225E-001	-3.205524929619630E-001	2.9376143E-004	-9.1647249E-001	0
2.6523152E+003	7.955019818567962E+001	-9.1841030E-001	-3.462673980983451E-001	3.1801555E-004	-9.1847253E-001	0
2.4512703E+003	7.975019818062719E+001	-9.2042637E-001	-3.754895494389192E-001	3.4561049E-004	-9.2047256E-001	0
2.2460127E+003	7.995019817557477E+001	-9.2242593E-001	-4.106948811459485E-001	3.7883560E-004	-9.2247260E-001	0
2.0524709E+003	8.015019817052234E+001	-9.2442107E-001	-4.503942542284927E-001	4.1635393E-004	-9.2447251E-001	0
1.9022773E+003	8.035019816546992E+001	-9.2642760E-001	-4.870097450743049E-001	4.5117928E-004	-9.2647254E-001	0
1.7586089E+003	8.055019816041749E+001	-9.2841029E-001	-5.279231164055336E-001	4.9012923E-004	-9.2847258E-001	0
1.5955701E+003	8.075019815536507E+001	-9.3042725E-001	-5.831315588467931E-001	5.4256152E-004	-9.3047261E-001	0
1.4835032E+003	8.095019815031264E+001	-9.3241102E-001	-6.285197217262386E-001	5.8603869E-004	-9.3247253E-001	0
1.3657318E+003	8.115019814526022E+001	-9.3440866E-001	-6.841816768649949E-001	6.3930528E-004	-9.3447250E-001	0
1.2591284E+003	8.135019814020779E+001	-9.3639481E-001	-7.436848810985865E-001	6.9638266E-004	-9.3647259E-001	0
1.1716851E+003	8.155019813515537E+001	-9.3839383E-001	-8.008925090427770E-001	7.5155258E-004	-9.3847257E-001	0
1.0778002E+003	8.175019813010294E+001	-9.4039482E-001	-8.725131406298861E-001	8.2050683E-004	-9.4047248E-001	0
1.0075833E+003	8.195019812505052E+001	-9.4238997E-001	-9.352973487709662E-001	8.8141486E-004	-9.4247252E-001	0
9.3164734E+002	8.215019811999809E+001	-9.4439191E-001	-1.013679588437419E+000	9.5731078E-004	-9.4447249E-001	0
8.6461890E+002	8.236019811469305E+001	-9.4645590E-001	-1.094650980534352E+000	1.0360389E-003	-9.4657260E-001	0
8.0851910E+002	8.257019810938800E+001	-9.4856435E-001	-1.173212078862448E+000	1.1128671E-003	-9.4867259E-001	0
7.5515063E+002	8.277019810433558E+001	-9.5056206E-001	-1.258771413502172E+000	1.1965403E-003	-9.5067263E-001	0
7.1159003E+002	8.297019809928315E+001	-9.5256227E-001	-1.338639125185690E+000	1.2751372E-003	-9.5267254E-001	0
6.6812213E+002	8.317019809423073E+001	-9.5455688E-001	-1.428716125393336E+000	1.3637908E-003	-9.5467252E-001	0
6.3100403E+002	8.337019808917830E+001	-9.5656365E-001	-1.515939126074183E+000	1.4500923E-003	-9.5667261E-001	0
5.9754211E+002	8.357019808412588E+001	-9.5856911E-001	-1.604186751658006E+000	1.5377238E-003	-9.5867246E-001	0
5.6390717E+002	8.377019807907345E+001	-9.6058035E-001	-1.703437058259297E+000	1.6362881E-003	-9.6067250E-001	0
5.3480280E+002	8.397019807402103E+001	-9.6255600E-001	-1.799833490802591E+000	1.7324405E-003	-9.6267253E-001	0
5.0078339E+002	8.417019806896860E+001	-9.6456587E-001	-1.926113962856828E+000	1.8578637E-003	-9.6467251E-001	0
4.7822931E+002	8.437019806391618E+001	-9.6657342E-001	-2.021150551820828E+000	1.9535904E-003	-9.6667248E-001	0
4.5642322E+002	8.457019805886375E+001	-9.6856737E-001	-2.122081789215549E+000	2.0553791E-003	-9.6867251E-001	0
4.3670813E+002	8.477019805381133E+001	-9.7057784E-001	-2.222486237397673E+000	2.1570958E-003	-9.7067255E-001	0
4.1849384E+002	8.497019804875890E+001	-9.7255129E-001	-2.323932137196699E+000	2.2601432E-003	-9.7267252E-001	0
4.0148792E+002	8.517019804370648E+001	-9.7456300E-001	-2.427378196142559E+000	2.3656329E-003	-9.7467256E-001	0
3.8483389E+002	8.537019803865405E+001	-9.7656471E-001	-2.537626528449337E+000	2.4781565E-003	-9.7667259E-001	0
3.6965057E+002	8.557019803360163E+001	-9.7856861E-001	-2.647280201738233E+000	2.5905452E-003	-9.7867250E-001	0
3.5564893E+002	8.577019802854920E+001	-9.8056865E-001	-2.757125299466168E+000	2.7035507E-003	-9.8067248E-001	0
3.4252557E+002	8.597019802349678E+001	-9.8256773E-001	-2.868596589095606E+000	2.8185905E-003	-9.8267257E-001	0
3.3021539E+002	8.617019801844435E+001	-9.8456633E-001	-2.981588195037943E+000	2.9355714E-003	-9.8467261E-001	0
3.1867157E+002	8.637019801339193E+001	-9.8659080E-001	-3.095948586827497E+000	3.0544344E-003	-9.8667252E-001	0
3.0754486E+002	8.657019800833950E+001	-9.8857427E-001	-3.214406608521521E+000	3.1776796E-003	-9.8867249E-001	0
2.9722595E+002	8.677019800328708E+001	-9.9058551E-001	-3.332769230447397E+000	3.3013930E-003	-9.9067259E-001	0
2.8774289E+002	8.697019799823465E+001	-9.9258387E-001	-3.449551431128484E+000	3.4239690E-003	-9.9267256E-001	0
2.7869226E+002	8.717019799318223E+001	-9.9459505E-001	-3.568793388045549E+000	3.5495043E-003	-9.9467248E-001	0
2.7015891E+002	8.737019798812980E+001	-9.9658626E-001	-3.688889019072999E+000	3.6762962E-003	-9.9667251E-001	0
2.6225732E+002	8.757019798307738E+001	-9.9858958E-001	-3.807671028943293E+000	3.8023007E-003	-9.9867249E-001	0
2.5460086E+002	8.777019797802495E+001	-1.0005654E+000	-3.929937273061213E+000	3.9321594E-003	-1.0006726E+000	0
2.4722057E+002	8.797019797297253E+001	-1.0025885E+000	-4.055441422561131E+000	4.0659388E-003	-1.0026726E+000	0
2.4028728E+002	8.817019796792010E+001	-1.0045823E+000	-4.180755279637253E+000	4.1999128E-003	-1.0046725E+000	0
2.3363887E+002	8.837019796286768E+001	-1.0065870E+000	-4.308302963503095E+000	4.3366817E-003	-1.0066725E+000	0
2.2744005E+002	8.857019795781525E+001	-1.0085758E+000	-4.434468852588395E+000	4.4724979E-003	-1.0086726E+000	0
2.2122664E+002	8.877019795276283E+001	-1.0105830E+000	-4.568089345617906E+000	4.6164338E-003	-1.0106726E+000	0
2.1547173E+002	8.897019794771040E+001	-1.0125812E+000	-4.699369387764506E+000	4.7584930E-003	-1.0126725E+000	0
2.0998967E+002	8.917019794265798E+001	-1.0145895E+000	-4.831616534025770E+000	4.9021076E-003	-1.0146725E+000	0
2.0483609E+002	8.937019793760555E+001	-1.0165851E+000	-4.962919814921847E+000	5.0452305E-003	-1.0166726E+000	0
1.9974255E+002	8.957019793255313E+001	-1.0185883E+000	-5.099505885421815E+000	5.1942971E-003	-1.0186726E+000	0
1.9487828E+002	8.977019792750070E+001	-1.0206016E+000	-5.237123468768282E+000	5.3450167E-003	-1.0206726E+000	0
1.9026546E+002	8.997019792244828E+001	-1.0226035E+000	-5.374614615728241E+000	5.4960996E-003	-1.0226725E+000	0
1.8577655E+002	9.017019791739585E+001	-1.0246074E+000	-5.515267741078709E+000	5.6509841E-003	-1.0246726E+000	0
1.8112517E+002	9.037019791234343E+001	-1.0265882E+000	-5.667838680568451E+000	5.8185365E-003	-1.0266725E+000	0
1.7672655E+002	9.057019790729100E+001	-1.0286021E+000	-5.820303605966586E+000	5.9867767E-003	-1.0286725E+000	0
1.7261229E+002	9.077019790223858E+001	-1.0306044E+000	-5.970631444974558E+000	6.1533586E-003	-1.0306726E+000	0
1.6877594E+002	9.097019789718615E+001	-1.0325943E+000	-6.118137171344145E+000	6.3175536E-003	-1.0326725E+000	0
1.6510283E+002	9.117019789213373E+001	-1.0346097E+000	-6.266456581770433E+000	6.4833364E-003	-1.0346725E+000	0
1.6153487E+002	9.137019788708130E+001	-1.0366038E+000	-6.417213977937543E+000	6.6521084E-003	-1.0366725E+000	0
1.5815480E+002	9.157019788202888E+001	-1.0386093E+000	-6.567042403750943E+000	6.8205912E-003	-1.0386724E+000	0
1.5476596E+002	9.177019787697645E+001	-1.0406042E+000	-6.723727899073481E+000	6.9967397E-003	-1.0406725E+000	0
1.5150873E+002	9.197019787192403E+001	-1.0426209E+000	-6.881589559876190E+000	7.1748891E-003	-1.0426725E+000	0
1.4838293E+002	9.217019786687160E+001	-1.0446311E+000	-7.040103070589943E+000	7.3543107E-003	-1.0446726E+000	0
1.4523363E+002	9.237019786181918E+001	-1.0466106E+000	-7.206392840801200E+000	7.5422870E-003	-1.0466726E+000	0
1.4224802E+002	9.257019785676675E+001	-1.0486121E+000	-7.371717019010791E+000	7.7300719E-003	-1.0486724E+000	0
1.3941168E+002	9.277019785171433E+001	-1.0506084E+000	-7.536014262375659E+000	7.9173995E-003	-1.0506725E+000	0
1.3661807E+002	9.297019784666190E+001	-1.0526270E+000	-7.704888014633923E+000	8.1103733E-003	-1.0526726E+000	0
1.3391496E+002	9.317019784160948E+001	-1.0546061E+000	-7.875192471777737E+000	8.3052255E-003	-1.0546725E+000	0
1.3116133E+002	9.337019783655705E+001	-1.0566081E+000	-8.055789973527672E+000	8.5118124E-003	-1.0566725E+000	0
1.2857657E+002	9.357019783150463E+001	-1.0586292E+000	-8.233452778081517E+000	8.7161735E-003	-1.0586725E+000	0
1.2606151E+002	9.377019782645220E+001	-1.0606200E+000	-8.413511415863297E+000	8.9235380E-003	-1.0606726E+000	0
1.2355103E+002	9.397019782139978E+001	-1.0626023E+000	-8.600513307821174E+000	9.1389250E-003	-1.0626726E+000	0
1.2119475E+002	9.417019781634735E+001	-1.0646200E+000	-8.784374156438815E+000	9.3520209E-003	-1.0646725E+000	0
1.1873578E+002	9.437019781129493E+001	-1.0666015E+000	-8.982983350550995E+000	9.5812641E-003	-1.0666724E+000	0
1.1643983E+002	9.457019780624250E+001	-1.0686054E+000	-9.177318614694279E+000	9.8069329E-003	-1.0686725E+000	0
1.1420177E+002	9.477019780119008E+001	-1.0705770E+000	-9.374434623115476E+000	1.0036054E-002	-1.0706725E+000	0
1.1201639E+002	9.497019779613765E+001	-1.0725937E+000	-9.575328134557822E+000	1.0270436E-002	-1.0726726E+000	0
1.0985767E+002	9.517019779108523E+001	-1.0745913E+000	-9.781667988586889E+000	1.0511295E-002	-1.0746725E+000	0
1.0772095E+002	9.537019778603280E+001	-1.0765799E+000	-9.994154923491974E+000	1.0759506E-002	-1.0766726E+000	0
1.0566624E+002	9.557019778098038E+001	-1.0785879E+000	-1.020749763735568E+001	1.1009683E-002	-1.0786725E+000	0
1.0359628E+002	9.577019777592795E+001	-1.0805843E+000	-1.043072444423530E+001	1.1271277E-002	-1.0806726E+000	0
1.0149475E+002	9.597019777087553E+001	-1.0825888E+000	-1.066645070065715E+001	1.1547380E-002	-1.0826726E+000	0
9.9352417E+001	9.618019776557048E+001	-1.0846770E+000	-1.091746948306650E+001	1.1841928E-002	-1.0847726E+000	0
9.7029320E+001	9.639019776026544E+001	-1.0867660E+000	-1.120038783083969E+001	1.2172201E-002	-1.0868725E+000	0
9.5215370E+001	9.659019775521301E+001	-1.0887685E+000	-1.143479762305756E+001	1.2449848E-002	-1.0888726E+000	0
9.3638474E+001	9.679019775016059E+001	-1.0907538E+000	-1.164856469239240E+001	1.2705716E-002	-1.0908725E+000	0
9.1703827E+001	9.699019774510816E+001	-1.0927682E+000	-1.191627643302996E+001	1.3021728E-002	-1.0928725E+000	0
9.0121727E+001	9.719019774005574E+001	-1.0947689E+000	-1.214766909935580E+001	1.3298891E-002	-1.0948725E+000	0
8.8423141E+001	9.739019773500331E+001	-1.0967636E+000	-1.240358128704452E+001	1.3603796E-002	-1.0968726E+000	0
8.6667175E+001	9.759019772995089E+001	-1.0987734E+000	-1.267807988325760E+001	1.3930337E-002	-1.0988725E+000	0
8.5128609E+001	9.779019772489846E+001	-1.1007544E+000	-1.293048684356434E+001	1.4233290E-002	-1.1008726E+000	0
8.3478462E+001	9.799019771984604E+001	-1.1027585E+000	-1.321009600216564E+001	1.4567546E-002	-1.1028726E+000	0
8.1616264E+001	9.819019771479361E+001	-1.1047704E+000	-1.353615507152344E+001	1.4954343E-002	-1.1048726E+000	0
8.0132317E+001	9.839019770974119E+001	-1.1067700E+000	-1.381178196555096E+001	1.5286466E-002	-1.1068726E+000	0
7.8716469E+001	9.859019770468876E+001	-1.1087887E+000	-1.408585417203074E+001	1.5618237E-002	-1.1088725E+000	0
7.6991287E+001	9.879019769963634E+001	-1.1107848E+000	-1.442740866548615E+001	1.6025746E-002	-1.1108726E+000	0
7.5521057E+001	9.899019769458391E+001	-1.1127899E+000	-1.473482845943261E+001	1.6396768E-002	-1.1128726E+000	0
7.4074913E+001	9.919019768953149E+001	-1.1147810E+000	-1.504937324786141E+001	1.6776755E-002	-1.1148726E+000	0
7.2623871E+001	9.939019768447906E+001	-1.1167672E+000	-1.537741249299629E+001	1.7172989E-002	-1.1168725E+000	0
7.1162598E+001	9.959019767942664E+001	-1.1187826E+000	-1.572149744487945E+001	1.7588938E-002	-1.1188725E+000	0
6.9725761E+001	9.979019767437421E+001	-1.1207775E+000	-1.607408078362874E+001	1.8015468E-002	-1.1208726E+000	0
6.8513046E+001	9.999019766932179E+001	-1.1227827E+000	-1.638786742611532E+001	1.8400013E-002	-1.1228726E+000	0
6.7447670E+001	1.001901976642694E+002	-1.1247929E+000	-1.667652689113096E+001	1.8757639E-002	-1.1248726E+000	0
6.5748039E+001	1.003901976592169E+002	-1.1267881E+000	-1.713797317746008E+001	1.9310866E-002	-1.1268725E+000	0
6.4406128E+001	1.005901976541645E+002	-1.1287900E+000	-1.752612690820175E+001	1.9783318E-002	-1.1288726E+000	0
6.3176937E+001	1.007901976491121E+002	-1.1307857E+000	-1.789871028788775E+001	2.0239606E-002	-1.1308726E+000	0
6.2307377E+001	1.009901976440597E+002	-1.1327751E+000	-1.818043291717427E+001	2.0594342E-002	-1.1328726E+000	0
6.1086433E+001	1.011901976390072E+002	-1.1348015E+000	-1.857698098156197E+001	2.1081187E-002	-1.1348726E+000	0
5.9737072E+001	1.013901976339548E+002	-1.1368003E+000	-1.903006325476289E+001	2.1633381E-002	-1.1368724E+000	0
5.8171379E+001	1.015901976289024E+002	-1.1387941E+000	-1.957653588543133E+001	2.2293642E-002	-1.1388726E+000	0
5.7044189E+001	1.017901976238500E+002	-1.1408058E+000	-1.999863392628239E+001	2.2814559E-002	-1.1408726E+000	0
5.5930103E+001	1.019901976187975E+002	-1.1427888E+000	-2.043244570277453E+001	2.3349969E-002	-1.1428725E+000	0
5.4794300E+001	1.021901976137451E+002	-1.1447973E+000	-2.089263507149383E+001	2.3917833E-002	-1.1448727E+000	0
5.3689079E+001	1.023901976086927E+002	-1.1467943E+000	-2.135991846987990E+001	2.4495434E-002	-1.1468725E+000	0
5.2644753E+001	1.025901976036403E+002	-1.1487969E+000	-2.182168006342820E+001	2.5068678E-002	-1.1488726E+000	0
5.1606960E+001	1.027901975985878E+002	-1.1507798E+000	-2.229892642562902E+001	2.5661156E-002	-1.1508726E+000	0
5.0585407E+001	1.029901975935354E+002	-1.1527706E+000	-2.278859977562684E+001	2.6270028E-002	-1.1528724E+000	0
4.9529678E+001	1.031901975884830E+002	-1.1547775E+000	-2.331486001631026E+001	2.6923476E-002	-1.1548725E+000	0
4.8477932E+001	1.033901975834306E+002	-1.1567955E+000	-2.386231125806739E+001	2.7603814E-002	-1.1568725E+000	0
4.7716137E+001	1.035901975783781E+002	-1.1587849E+000	-2.428496837534863E+001	2.8141053E-002	-1.1588725E+000	0
4.6771809E+001	1.037901975733257E+002	-1.1608055E+000	-2.481848579685709E+001	2.8809434E-002	-1.1608726E+000	0
4.5795986E+001	1.039901975682733E+002	-1.1628056E+000	-2.539099378272255E+001	2.9524788E-002	-1.1628726E+000	0
4.4830673E+001	1.041901975632209E+002	-1.1648004E+000	-2.598222067648067E+001	3.0264102E-002	-1.1648725E+000	0
4.3923576E+001	1.043901975581684E+002	-1.1668156E+000	-2.656467704248547E+001	3.0996080E-002	-1.1668725E+000	0
4.3044125E+001	1.045901975531160E+002	-1.1688074E+000	-2.715370307920210E+001	3.1737451E-002	-1.1688726E+000	0
4.2175797E+001	1.047901975480636E+002	-1.1708028E+000	-2.776006352658169E+001	3.2501560E-002	-1.1708726E+000	0
4.1281918E+001	1.049901975430112E+002	-1.1728016E+000	-2.840957168765101E+001	3.3318792E-002	-1.1728725E+000	0
4.0390141E+001	1.051901975379587E+002	-1.1747936E+000	-2.908614776491311E+001	3.4170222E-002	-1.1748725E+000	0
3.9589504E+001	1.053901975329063E+002	-1.1768228E+000	-2.972562488595906E+001	3.4981791E-002	-1.1768725E+000	0
3.8734558E+001	1.055901975278539E+002	-1.1788189E+000	-3.043326094874999E+001	3.5875306E-002	-1.1788726E+000	0
3.7867607E+001	1.057901975228015E+002	-1.1807951E+000	-3.118219441648529E+001	3.6819782E-002	-1.1808726E+000	0
3.6986626E+001	1.059901975177490E+002	-1.1828076E+000	-3.197933097464158E+001	3.7825394E-002	-1.1828725E+000	0
3.6110146E+001	1.061901975126966E+002	-1.1848519E+000	-3.281216056600996E+001	3.8877551E-002	-1.1848725E+000	0
3.5369465E+001	1.063901975076442E+002	-1.1868551E+000	-3.355592475807862E+001	3.9826021E-002	-1.1868725E+000	0
3.4662529E+001	1.065901975025918E+002	-1.1888494E+000	-3.429782754926180E+001	4.0774953E-002	-1.1888726E+000	0
3.3921524E+001	1.067901974975393E+002	-1.1908517E+000	-3.510607891558504E+001	4.1806132E-002	-1.1908726E+000	0
3.3228096E+001	1.069901974924869E+002	-1.1928493E+000	-3.589881637577571E+001	4.2821877E-002	-1.1928725E+000	0
3.2515156E+001	1.071901974874345E+002	-1.1948470E+000	-3.674738734947027E+001	4.3907505E-002	-1.1948725E+000	0
3.1809338E+001	1.073901974823821E+002	-1.1968459E+000	-3.762561523373722E+001	4.5032062E-002	-1.1968726E+000	0
3.1059509E+001	1.075901974773296E+002	-1.1988567E+000	-3.859870039281384E+001	4.6274312E-002	-1.1988726E+000	0
3.0387178E+001	1.077901974722772E+002	-1.2008672E+000	-3.951887637930929E+001	4.7456920E-002	-1.2008725E+000	0
2.9695648E+001	1.079901974672248E+002	-1.2028686E+000	-4.050656129416411E+001	4.8724070E-002	-1.2028726E+000	0
2.9039713E+001	1.081901974621724E+002	-1.2048786E+000	-4.149071863584224E+001	4.9991276E-002	-1.2048725E+000	0
2.8275454E+001	1.083901974571199E+002	-1.2068847E+000	-4.268312540778766E+001	5.1513612E-002	-1.2068725E+000	0
2.7717310E+001	1.085901974520675E+002	-1.2088722E+000	-4.361434143308611E+001	5.2724164E-002	-1.2088726E+000	0
2.7029329E+001	1.087901974470151E+002	-1.2108699E+000	-4.479836913950066E+001	5.4244999E-002	-1.2108727E+000	0
2.6372011E+001	1.089901974419627E+002	-1.2128570E+000	-4.599031135473666E+001	5.5779673E-002	-1.2128725E+000	0
2.5772488E+001	1.091901974369102E+002	-1.2148527E+000	-4.713758039961047E+001	5.7265215E-002	-1.2148725E+000	0
2.5213303E+001	1.093901974318578E+002	-1.2168678E+000	-4.826292815419275E+001	5.8729604E-002	-1.2168726E+000	0
2.4682529E+001	1.095901974268054E+002	-1.2188724E+000	-4.938198999563838E+001	6.0190346E-002	-1.2188725E+000	0
2.4223866E+001	1.097901974217530E+002	-1.2208525E+000	-5.039874873410008E+001	6.1529439E-002	-1.2208725E+000	0
2.3704172E+001	1.099901974167005E+002	-1.2228538E+000	-5.158812549108814E+001	6.3084736E-002	-1.2228725E+000	0
2.3184624E+001	1.101901974116481E+002	-1.2248707E+000	-5.283116294142860E+001	6.4711340E-002	-1.2248726E+000	0
2.2632187E+001	1.103901974065957E+002	-1.2268628E+000	-5.420875790492198E+001	6.6506706E-002	-1.2268724E+000	0
2.2107941E+001	1.105901974015433E+002	-1.2288649E+000	-5.558477568896683E+001	6.8306178E-002	-1.2288725E+000	0
2.1601610E+001	1.107901973964908E+002	-1.2308724E+000	-5.698058677206235E+001	7.0135832E-002	-1.2308726E+000	0
2.1146032E+001	1.109901973914384E+002	-1.2328695E+000	-5.830264086031332E+001	7.1879551E-002	-1.2328725E+000	0
2.0721180E+001	1.111901973863860E+002	-1.2348663E+000	-5.959439841635891E+001	7.3591113E-002	-1.2348725E+000	0
2.0153469E+001	1.113901973813336E+002	-1.2368650E+000	-6.137231649292812E+001	7.5909272E-002	-1.2368726E+000	0
1.9626249E+001	1.115901973762811E+002	-1.2388805E+000	-6.312364877919225E+001	7.8202657E-002	-1.2388725E+000	0
1.9149174E+001	1.117901973712287E+002	-1.2408743E+000	-6.480040996739672E+001	8.0409162E-002	-1.2408726E+000	0
1.8779913E+001	1.119901973661763E+002	-1.2428788E+000	-6.618128345342438E+001	8.2255311E-002	-1.2428725E+000	0
1.8404179E+001	1.121901973611239E+002	-1.2448847E+000	-6.764141718059977E+001	8.4205769E-002	-1.2448726E+000	0
1.7967833E+001	1.123901973560714E+002	-1.2468808E+000	-6.939516611326349E+001	8.6527497E-002	-1.2468725E+000	0
1.7589716E+001	1.125901973510190E+002	-1.2488791E+000	-7.100052867454770E+001	8.8671073E-002	-1.2488725E+000	0
1.7227875E+001	1.127901973459666E+002	-1.2508550E+000	-7.260646196990331E+001	9.0820156E-002	-1.2508725E+000	0
1.6744556E+001	1.129901973409142E+002	-1.2528732E+000	-7.482271479316819E+001	9.3743376E-002	-1.2528726E+000	0
1.6367500E+001	1.131901973358617E+002	-1.2548913E+000	-7.666969966888428E+001	9.6212134E-002	-1.2548726E+000	0
1.6075281E+001	1.133901973308093E+002	-1.2568772E+000	-7.818694966558405E+001	9.8271392E-002	-1.2568725E+000	0
1.5775348E+001	1.135901973257569E+002	-1.2588831E+000	-7.980065875583233E+001	1.0045970E-001	-1.2588726E+000	0
1.5520140E+001	1.137901973207045E+002	-1.2608694E+000	-8.124085244732399E+001	1.0243411E-001	-1.2608726E+000	0
1.5151505E+001	1.139901973156520E+002	-1.2628801E+000	-8.335014404190912E+001	1.0526124E-001	-1.2628726E+000	0
1.4836633E+001	1.141901973105996E+002	-1.2648668E+000	-8.525295770303455E+001	1.0783364E-001	-1.2648726E+000	0
1.4482651E+001	1.143901973055472E+002	-1.2668561E+000	-8.747404742781578E+001	1.1081703E-001	-1.2668725E+000	0
1.4187081E+001	1.145901973004948E+002	-1.2688574E+000	-8.943751877019213E+001	1.1348345E-001	-1.2688726E+000	0
1.3949681E+001	1.147901972954423E+002	-1.2708549E+000	-9.110279402873402E+001	1.1577844E-001	-1.2708726E+000	0
1.3602489E+001	1.149901972903899E+002	-1.2728693E+000	-9.357620836385513E+001	1.1911029E-001	-1.2728726E+000	0
1.3282803E+001	1.151901972853375E+002	-1.2748578E+000	-9.597806966331837E+001	1.2235839E-001	-1.2748725E+000	0
1.3033238E+001	1.153901972802851E+002	-1.2768524E+000	-9.796892487435105E+001	1.2509185E-001	-1.2768726E+000	0
1.2848915E+001	1.155901972752326E+002	-1.2788383E+000	-9.952889014263565E+001	1.2728135E-001	-1.2788726E+000	0
1.2586791E+001	1.157901972701802E+002	-1.2808475E+000	-1.017612495735932E+002	1.3034065E-001	-1.2808727E+000	0
1.2309051E+001	1.159901972651278E+002	-1.2828588E+000	-1.042207785615037E+002	1.3370055E-001	-1.2828726E+000	0
1.2019400E+001	1.161901972600754E+002	-1.2848732E+000	-1.068999492457125E+002	1.3735288E-001	-1.2848725E+000	0
1.1731192E+001	1.164001972547703E+002	-1.2869529E+000	-1.097035089395486E+002	1.4118324E-001	-1.2869726E+000	0
1.1420918E+001	1.166101972494653E+002	-1.2890329E+000	-1.128659661827176E+002	1.4548795E-001	-1.2890726E+000	0
1.1136497E+001	1.168101972444128E+002	-1.2910252E+000	-1.159274008971490E+002	1.4966519E-001	-1.2910726E+000	0
1.0871637E+001	1.170101972393604E+002	-1.2930434E+000	-1.189373121748165E+002	1.5379110E-001	-1.2930725E+000	0
1.0651436E+001	1.172101972343080E+002	-1.2950432E+000	-1.215839124980153E+002	1.5745643E-001	-1.2950726E+000	0
1.0467202E+001	1.174101972292556E+002	-1.2970371E+000	-1.239143998736431E+002	1.6072157E-001	-1.2970725E+000	0
1.0302536E+001	1.176101972242031E+002	-1.2990339E+000	-1.260887449701355E+002	1.6379355E-001	-1.2990726E+000	0
1.0110486E+001	1.178101972191507E+002	-1.3010532E+000	-1.286835438626690E+002	1.6742413E-001	-1.3010726E+000	0
9.8698549E+000	1.180101972140983E+002	-1.3030280E+000	-1.320209840625321E+002	1.7202704E-001	-1.3030726E+000	0
9.7307673E+000	1.182101972090459E+002	-1.3050321E+000	-1.341140008697159E+002	1.7502308E-001	-1.3050725E+000	0
9.5367460E+000	1.184101972039934E+002	-1.3070475E+000	-1.370538163379746E+002	1.7913584E-001	-1.3070725E+000	0
9.4390678E+000	1.186101971989410E+002	-1.3090464E+000	-1.386838570019559E+002	1.8154360E-001	-1.3090726E+000	0
9.2615271E+000	1.188101971938886E+002	-1.3110330E+000	-1.415568900638159E+002	1.8558575E-001	-1.3110726E+000	0
9.0894270E+000	1.190101971888362E+002	-1.3130525E+000	-1.444593253319499E+002	1.8968268E-001	-1.3130726E+000	0
8.9758987E+000	1.192101971837837E+002	-1.3150642E+000	-1.465105903035119E+002	1.9267084E-001	-1.3150725E+000	0
8.8047762E+000	1.194101971787313E+002	-1.3170477E+000	-1.495833280816368E+002	1.9700839E-001	-1.3170725E+000	0
8.6403399E+000	1.196101971736789E+002	-1.3190500E+000	-1.526618143079500E+002	2.0136856E-001	-1.3190726E+000	0
8.5111456E+000	1.198101971686265E+002	-1.3210565E+000	-1.552148890397981E+002	2.0504764E-001	-1.3210725E+000	0
8.3050508E+000	1.200101971635740E+002	-1.3230466E+000	-1.593062556984737E+002	2.1076959E-001	-1.3230726E+000	0
8.1949997E+000	1.202101971585216E+002	-1.3250438E+000	-1.616893010042150E+002	2.1424541E-001	-1.3250725E+000	0
8.0697193E+000	1.204101971534692E+002	-1.3270539E+000	-1.644485879106583E+002	2.1823214E-001	-1.3270725E+000	0
7.9945955E+000	1.206101971484168E+002	-1.3290623E+000	-1.662451009847676E+002	2.2095010E-001	-1.3290726E+000	0
7.8645182E+000	1.208101971433643E+002	-1.3310752E+000	-1.692506980593239E+002	2.2528541E-001	-1.3310726E+000	0
7.7118344E+000	1.210101971383119E+002	-1.3330711E+000	-1.728604418350189E+002	2.3043527E-001	-1.3330725E+000	0
7.5932856E+000	1.212101971332595E+002	-1.3350463E+000	-1.758193165569342E+002	2.3472692E-001	-1.3350725E+000	0
7.5664415E+000	1.214101971282071E+002	-1.3370692E+000	-1.767104329197856E+002	2.3627406E-001	-1.3370725E+000	0
7.3509440E+000	1.216101971231546E+002	-1.3390590E+000	-1.821614975280503E+002	2.4392499E-001	-1.3390726E+000	0
7.2629972E+000	1.218101971181022E+002	-1.3410646E+000	-1.846434118947736E+002	2.4761873E-001	-1.3410726E+000	0
7.1687474E+000	1.220101971130498E+002	-1.3430741E+000	-1.873512945932066E+002	2.5162667E-001	-1.3430725E+000	0
6.9637156E+000	1.222101971079974E+002	-1.3450782E+000	-1.931552488744392E+002	2.5980893E-001	-1.3450725E+000	0
6.7967277E+000	1.224101971029449E+002	-1.3470763E+000	-1.981948269965151E+002	2.6698354E-001	-1.3470726E+000	0
6.6808910E+000	1.226101970978925E+002	-1.3490940E+000	-2.019332461908559E+002	2.7242693E-001	-1.3490726E+000	0
6.5569434E+000	1.228102970928376E+002	-1.3510969E+000	-2.060559025319571E+002	2.7840149E-001	-1.3510734E+000	0
6.4543982E+000	1.230104970877801E+002	-1.3530703E+000	-2.096353939859355E+002	2.8365141E-001	-1.3530754E+000	0
6.4115143E+000	1.232103970827302E+002	-1.3550892E+000	-2.113524432467043E+002	2.8640142E-001	-1.3550745E+000	0
6.3365283E+000	1.234104970776752E+002	-1.3571012E+000	-2.141710881916788E+002	2.9065183E-001	-1.3570753E+000	0
6.2137051E+000	1.236105970726203E+002	-1.3591024E+000	-2.187265620653313E+002	2.9727179E-001	-1.3590766E+000	0
6.1371760E+000	1.238106970675653E+002	-1.3611009E+000	-2.217796823340450E+002	3.0186453E-001	-1.3610773E+000	0
6.0858531E+000	1.240108970625079E+002	-1.3630959E+000	-2.239777826989967E+002	3.0530319E-001	-1.3630793E+000	0
5.9475136E+000	1.242112970574453E+002	-1.3650939E+000	-2.295234614072497E+002	3.1332108E-001	-1.3650829E+000	0
5.8157287E+000	1.244116970523828E+002	-1.3670938E+000	-2.350683699741257E+002	3.2136050E-001	-1.3670874E+000	0
5.7510676E+000	1.246120970473203E+002	-1.3691103E+000	-2.380619462079108E+002	3.2593307E-001	-1.3690908E+000	0
5.6446619E+000	1.248123970422603E+002	-1.3711188E+000	-2.429053772344603E+002	3.3305213E-001	-1.3710946E+000	0
5.5842824E+000	1.250123970372078E+002	-1.3731140E+000	-2.458890658852190E+002	3.3763373E-001	-1.3730946E+000	0
5.4549756E+000	1.252123970321554E+002	-1.3751280E+000	-2.520869277967081E+002	3.4665179E-001	-1.3750947E+000	0
5.4117689E+000	1.254123970271030E+002	-1.3771256E+000	-2.544686665307909E+002	3.5043532E-001	-1.3770945E+000	0
5.3471007E+000	1.256124970220480E+002	-1.3791342E+000	-2.579218695319450E+002	3.5570887E-001	-1.3790953E+000	0
5.2074928E+000	1.258126970169906E+002	-1.3811463E+000	-2.652228917003158E+002	3.6631161E-001	-1.3810973E+000	0
5.1483917E+000	1.260127970119356E+002	-1.3831477E+000	-2.686562715625541E+002	3.7159130E-001	-1.3830986E+000	0
5.1685128E+000	1.262127970068832E+002	-1.3851366E+000	-2.679951869852157E+002	3.7120995E-001	-1.3850986E+000	0
5.1524510E+000	1.264128970018282E+002	-1.3871335E+000	-2.692181660673482E+002	3.7344152E-001	-1.3870994E+000	0
5.0380259E+000	1.266129969967733E+002	-1.3891579E+000	-2.757345622077814E+002	3.8303885E-001	-1.3891007E+000	0
4.9797721E+000	1.268129969917209E+002	-1.3911462E+000	-2.793594083007499E+002	3.8862976E-001	-1.3911005E+000	0
4.9131651E+000	1.270129969866684E+002	-1.3931524E+000	-2.835549622966030E+002	3.9503527E-001	-1.3931006E+000	0
4.8936377E+000	1.272130969816135E+002	-1.3951188E+000	-2.850882961295029E+002	3.9773205E-001	-1.3951014E+000	0
4.8069601E+000	1.274132969765560E+002	-1.3971453E+000	-2.906504810475944E+002	4.0608093E-001	-1.3971034E+000	0
4.7088685E+000	1.276135969714960E+002	-1.3991371E+000	-2.971281054746837E+002	4.1572297E-001	-1.3991061E+000	0
4.6520333E+000	1.278137969664385E+002	-1.4011440E+000	-3.011895951857096E+002	4.2201000E-001	-1.4011086E+000	0
4.6346617E+000	1.280137969613861E+002	-1.4031568E+000	-3.027527779840833E+002	4.2480960E-001	-1.4031085E+000	0
4.5867143E+000	1.282139969563286E+002	-1.4051653E+000	-3.063555264138388E+002	4.3048015E-001	-1.4051101E+000	0
4.5150895E+000	1.284141969512712E+002	-1.4071789E+000	-3.116613501421180E+002	4.3856326E-001	-1.4071126E+000	0
4.4626307E+000	1.286142969462162E+002	-1.4092023E+000	-3.157783742344209E+002	4.4499561E-001	-1.4091135E+000	0
4.4595957E+000	1.288144969411587E+002	-1.4111965E+000	-3.164404662921002E+002	4.4655967E-001	-1.4111153E+000	0
4.3717413E+000	1.290146969361012E+002	-1.4131943E+000	-3.232566244556219E+002	4.5682442E-001	-1.4131173E+000	0
4.3173676E+000	1.292147969310463E+002	-1.4152148E+000	-3.277957440893122E+002	4.6390137E-001	-1.4151186E+000	0
4.3601775E+000	1.294148969259913E+002	-1.4171960E+000	-3.250317181469654E+002	4.6063367E-001	-1.4171196E+000	0
4.2587366E+000	1.296149969209364E+002	-1.4191948E+000	-3.332431386160474E+002	4.7293693E-001	-1.4191207E+000	0
4.1012397E+000	1.298149969158840E+002	-1.4211826E+000	-3.465251211417240E+002	4.9247548E-001	-1.4211205E+000	0
4.0834498E+000	1.300150969108290E+002	-1.4231993E+000	-3.485286531651657E+002	4.9602574E-001	-1.4231212E+000	0
4.0623341E+000	1.302152969057715E+002	-1.4252032E+000	-3.508335941084051E+002	5.0000918E-001	-1.4251233E+000	0
3.9917378E+000	1.304153969007166E+002	-1.4272052E+000	-3.575398128557099E+002	5.1028270E-001	-1.4271246E+000	0
3.9514863E+000	1.306153968956642E+002	-1.4292028E+000	-3.616873906215578E+002	5.1692462E-001	-1.4291246E+000	0
3.9236019E+000	1.308154968906092E+002	-1.4312057E+000	-3.647683341789011E+002	5.2205855E-001	-1.4311255E+000	0
3.9023492E+000	1.310155968855543E+002	-1.4332031E+000	-3.672667394322325E+002	5.2636784E-001	-1.4331266E+000	0
3.9287946E+000	1.312155968805018E+002	-1.4351943E+000	-3.653014308470993E+002	5.2427852E-001	-1.4351265E+000	0
3.8410933E+000	1.314155968754494E+002	-1.4372123E+000	-3.741675240328514E+002	5.3775817E-001	-1.4371265E+000	0
3.7878566E+000	1.316155968703970E+002	-1.4392190E+000	-3.799560484507715E+002	5.4683995E-001	-1.4391266E+000	0
3.7813897E+000	1.318155968653446E+002	-1.4411899E+000	-3.811270421324402E+002	5.4927641E-001	-1.4411266E+000	0
3.7214394E+000	1.320155968602921E+002	-1.4431843E+000	-3.878027144884045E+002	5.5967075E-001	-1.4431264E+000	0
3.7559371E+000	1.322155968552397E+002	-1.4451908E+000	-3.847750149162457E+002	5.5607331E-001	-1.4451263E+000	0
3.7159431E+000	1.324155968501873E+002	-1.4471813E+000	-3.894519631673415E+002	5.6360763E-001	-1.4471263E+000	0
3.7104406E+000	1.326155968451349E+002	-1.4492013E+000	-3.905739233985769E+002	5.6602025E-001	-1.4491262E+000	0
3.6354606E+000	1.328155968400824E+002	-1.4511968E+000	-3.991782330796295E+002	5.7928616E-001	-1.4511263E+000	0
3.5299878E+000	1.330155968350300E+002	-1.4532315E+000	-4.116817156517036E+002	5.9826881E-001	-1.4531264E+000	0
3.5023985E+000	1.332155968299776E+002	-1.4552325E+000	-4.154959742747189E+002	6.0464323E-001	-1.4551263E+000	0
3.5571029E+000	1.334155968249252E+002	-1.4572350E+000	-4.096690597620673E+002	5.9698409E-001	-1.4571263E+000	0
3.5688734E+000	1.336155968198727E+002	-1.4592298E+000	-4.088768943777966E+002	5.9664536E-001	-1.4591264E+000	0
3.5163834E+000	1.338155968148203E+002	-1.4612426E+000	-4.155526892387425E+002	6.0722327E-001	-1.4611263E+000	0
3.4938958E+000	1.340155968097679E+002	-1.4632503E+000	-4.188019284791153E+002	6.1281204E-001	-1.4631263E+000	0
3.4460523E+000	1.342155968047155E+002	-1.4652666E+000	-4.252014951727560E+002	6.2303352E-001	-1.4651264E+000	0
3.4280117E+000	1.344155967996630E+002	-1.4672531E+000	-4.280186960086285E+002	6.2801176E-001	-1.4671263E+000	0
3.3348625E+000	1.346155967946106E+002	-1.4692478E+000	-4.405722366341661E+002	6.4730978E-001	-1.4691263E+000	0
3.3056984E+000	1.348155967895582E+002	-1.4712373E+000	-4.450609645973254E+002	6.5479028E-001	-1.4711263E+000	0
3.2804353E+000	1.350155967845058E+002	-1.4732366E+000	-4.490978800196208E+002	6.6162741E-001	-1.4731264E+000	0
3.2440264E+000	1.352155967794533E+002	-1.4752398E+000	-4.547557842012448E+002	6.7087382E-001	-1.4751264E+000	0
3.1922371E+000	1.354155967744009E+002	-1.4772451E+000	-4.627616926266774E+002	6.8361247E-001	-1.4771264E+000	0
3.2419491E+000	1.356155967693485E+002	-1.4792132E+000	-4.562728170278133E+002	6.7492479E-001	-1.4791263E+000	0
3.2313800E+000	1.358155967642961E+002	-1.4812504E+000	-4.583956187976992E+002	6.7899871E-001	-1.4811264E+000	0
3.2187202E+000	1.360155967592436E+002	-1.4832370E+000	-4.608157768163001E+002	6.8349904E-001	-1.4831264E+000	0
3.2001221E+000	1.362155967541912E+002	-1.4852465E+000	-4.641218436926665E+002	6.8933535E-001	-1.4851264E+000	0
3.1635919E+000	1.364155967491388E+002	-1.4872335E+000	-4.701091449287760E+002	6.9916207E-001	-1.4871265E+000	0
3.1598487E+000	1.366155967440864E+002	-1.4892510E+000	-4.713045413218401E+002	7.0189077E-001	-1.4891263E+000	0
3.1886284E+000	1.368155967390339E+002	-1.4912484E+000	-4.676770706782281E+002	6.9742268E-001	-1.4911264E+000	0
3.1193936E+000	1.370155967339815E+002	-1.4934255E+000	-4.787550615539885E+002	7.1498501E-001	-1.4931264E+000	0
3.0957558E+000	1.372155967289291E+002	-1.4958799E+000	-4.832034427443887E+002	7.2281432E-001	-1.4951264E+000	0
3.0459943E+000	1.374155967238767E+002	-1.4978455E+000	-4.917427391692352E+002	7.3655468E-001	-1.4971262E+000	0
3.0586689E+000	1.376155967188242E+002	-1.4998530E+000	-4.903613512294351E+002	7.3546994E-001	-1.4991263E+000	0
3.0808918E+000	1.378155967137718E+002	-1.5018241E+000	-4.874640728827235E+002	7.3208529E-001	-1.5011264E+000	0
3.0193558E+000	1.380155967087194E+002	-1.5038669E+000	-4.980754221745337E+002	7.4903917E-001	-1.5031265E+000	0
2.9941020E+000	1.382155967036670E+002	-1.5058587E+000	-5.029416631711601E+002	7.5735909E-001	-1.5051264E+000	0
3.0105574E+000	1.384155966986145E+002	-1.5078465E+000	-5.008529284124738E+002	7.5520933E-001	-1.5071262E+000	0
2.9019136E+000	1.386155966935621E+002	-1.5098780E+000	-5.203042788429866E+002	7.8559601E-001	-1.5091263E+000	0
2.8153191E+000	1.388155966885097E+002	-1.5118920E+000	-5.370233148068808E+002	8.1192124E-001	-1.5111264E+000	0
2.8840220E+000	1.390155966834573E+002	-1.5138843E+000	-5.249212154163524E+002	7.9466999E-001	-1.5131263E+000	0
2.8883123E+000	1.392155966784048E+002	-1.5158679E+000	-5.248282427106597E+002	7.9557031E-001	-1.5151263E+000	0
2.8734314E+000	1.394155966733524E+002	-1.5178813E+000	-5.282468917137385E+002	8.0181605E-001	-1.5171262E+000	0
2.8443680E+000	1.396155966683000E+002	-1.5198752E+000	-5.343454713410511E+002	8.1213844E-001	-1.5191263E+000	0
2.7721696E+000	1.398155966632476E+002	-1.5218693E+000	-5.489813055094655E+002	8.3547777E-001	-1.5211264E+000	0
2.8201880E+000	1.400155966581951E+002	-1.5238675E+000	-5.403424889700746E+002	8.2341033E-001	-1.5231262E+000	0
2.8149979E+000	1.402155966531427E+002	-1.5258684E+000	-5.420495724580724E+002	8.2709634E-001	-1.5251263E+000	0
2.7676108E+000	1.404155966480903E+002	-1.5278925E+000	-5.520619100713429E+002	8.4349126E-001	-1.5271264E+000	0
2.7963657E+000	1.406155966430379E+002	-1.5298669E+000	-5.470911315390308E+002	8.3697665E-001	-1.5291263E+000	0
2.8218443E+000	1.408155966379854E+002	-1.5318723E+000	-5.428620635917114E+002	8.3159536E-001	-1.5311264E+000	0
2.7545948E+000	1.410155966329330E+002	-1.5338801E+000	-5.568441759312777E+002	8.5413224E-001	-1.5331265E+000	0
2.7835858E+000	1.412155966278806E+002	-1.5358709E+000	-5.517598838892634E+002	8.4743196E-001	-1.5351263E+000	0
2.7727931E+000	1.414155966228282E+002	-1.5378866E+000	-5.546344655398043E+002	8.5296494E-001	-1.5371263E+000	0
2.7227273E+000	1.416155966177757E+002	-1.5398784E+000	-5.655646512167777E+002	8.7090075E-001	-1.5391264E+000	0
2.6691902E+000	1.418155966127233E+002	-1.5418950E+000	-5.776639957514471E+002	8.9069724E-001	-1.5411264E+000	0
2.6683860E+000	1.420155966076709E+002	-1.5439082E+000	-5.785925207765185E+002	8.9329374E-001	-1.5431265E+000	0
2.6578290E+000	1.421855966033763E+002	-1.5455962E+000	-5.815258224967388E+002	8.9880413E-001	-1.5448263E+000	0
2.6655974E+000	1.422651966013655E+002	-1.5464064E+000	-5.801350123628656E+002	8.9712447E-001	-1.5456260E+000	1