EC-Lab ASCII FILE
Nb header lines : 63                          

Linear Sweep Voltammetry

Run on channel : 1 (SN 1340)
User : 
Electrode connection : standard
Potential control : Ewe
Ewe ctrl range : min = -5.00 V, max = 5.00 V
Ewe,I filtering : <None>
Safety Limits :
	Do not start on E overload
Channel : Floating
Acquisition started on : 03/03/2026 15:13:41.240
Technique started on : 03/03/2026 15:13:43.923
Loaded Setting File :  C:\Users\volt\Documents\Platalytix\PtPdCoNi_sqmagnet_2_26_01_ZIR_C01.mpr
Saved on :
	File : Pt40_N52magA_3-3_02_LSV_C01.mpr
	Directory : C:\Users\volt\Documents\Platalytix\
	Host : 127.0.0.1
Device : SP-200 (SN 0262)
Address : USB
EC-LAB for windows v11.60 (software)
Internet server v11.60 (firmware)
Command interpretor v11.60 (firmware)
Electrode material : Ni40
Initial state : 
Electrolyte : KOH (1 M)
Comments : with magnet side A (+), N52 Nd magnet
Cable : standard
Reference electrode : Hg/HgO (0.140 V)
Electrode surface area : 1.000 cm˛
Characteristic mass : 0.001 g
Equivalent Weight : 0.000 g/eq.
Density : 0.000 g/cm3
Volume (V) : 0.001 cmł
Cycle Definition : Charge/Discharge alternance
tR (h:m:s)          0:00:5.0000         
dER/dt (mV/h)       0.0                 
dER (mV)            0                   
dtR (s)             0.0000              
dE/dt               10.000              
dE/dt unit          mV/s                
Ei (V)              -0.200              
vs.                 Ref                 
EL (V)              -2.500              
vs.                 Ref                 
record              <I>                 
dI                  0.000               
unit dI             µA                  
tI (s)              0.0000              
step percent        50                  
N                   10                  
E range min (V)     -5.000              
E range max (V)     5.000               
I Range             Auto                
I Range min         Unset               
I Range max         Unset               
I Range init        Unset               
Bandwidth           8                   

Rwe/Ohm	time/s	Ewe/V	<I>/mA	Pwe/W	control/V	error	
0.0000000E+000	2.683400127425557E+000	-1.4376338E-001	0.000000000000000E+000	0.0000000E+000	0.0000000E+000	0
0.0000000E+000	7.683200001119985E+000	-6.7112826E-002	0.000000000000000E+000	0.0000000E+000	-1.9980595E-001	0
2.0035159E+003	7.883199996067560E+000	-2.0147894E-001	1.005626864545046E-001	-2.0261265E-005	-2.0170572E-001	0
2.7465447E+003	8.003199993036105E+000	-2.0271087E-001	-7.380577874639732E-002	1.4961233E-005	-2.0290579E-001	0
2.1610190E+003	8.213199987731059E+000	-2.0482314E-001	-9.478080525462151E-002	1.9413303E-005	-2.0500576E-001	0
2.2432444E+003	8.413199982678634E+000	-2.0681472E-001	-9.219447219672583E-002	1.9067174E-005	-2.0700577E-001	0
2.3522800E+003	8.613199977626209E+000	-2.0881858E-001	-8.877284348099712E-002	1.8537419E-005	-2.0900577E-001	0
2.4611558E+003	8.813199972573784E+000	-2.1079719E-001	-8.564967729780576E-002	1.8054712E-005	-2.1100578E-001	0
2.5632415E+003	9.013199967521359E+000	-2.1282993E-001	-8.303155546243457E-002	1.7671600E-005	-2.1300577E-001	0
2.6606030E+003	9.213199962468934E+000	-2.1482469E-001	-8.074286032062639E-002	1.7345559E-005	-2.1500579E-001	0
2.7523125E+003	9.413199957416509E+000	-2.1681857E-001	-7.877687419724588E-002	1.7080289E-005	-2.1700577E-001	0
2.8375774E+003	9.613199952364084E+000	-2.1880929E-001	-7.711130280951528E-002	1.6872669E-005	-2.1900576E-001	0
2.9221543E+003	9.813199947311659E+000	-2.2081594E-001	-7.556614520233063E-002	1.6686210E-005	-2.2100578E-001	0
3.0005950E+003	1.001319994225923E+001	-2.2282213E-001	-7.425931749058690E-002	1.6546619E-005	-2.2300579E-001	0
3.0756890E+003	1.021319993720681E+001	-2.2482750E-001	-7.309825664709252E-002	1.6434498E-005	-2.2500578E-001	0
3.1500093E+003	1.041319993215438E+001	-2.2680080E-001	-7.200004030578666E-002	1.6329666E-005	-2.2700578E-001	0
3.2199705E+003	1.061319992710196E+001	-2.2879809E-001	-7.105596231184697E-002	1.6257469E-005	-2.2900580E-001	0
3.2900945E+003	1.081319992204953E+001	-2.3078117E-001	-7.014423540250603E-002	1.6187969E-005	-2.3100577E-001	0
3.3574136E+003	1.101319991699711E+001	-2.3283364E-001	-6.934910901408220E-002	1.6146805E-005	-2.3300578E-001	0
3.4225469E+003	1.121319991194468E+001	-2.3482330E-001	-6.861069169721246E-002	1.6111389E-005	-2.3500580E-001	0
3.4883828E+003	1.141319990689226E+001	-2.3681614E-001	-6.788708302540833E-002	1.6076758E-005	-2.3700576E-001	0
3.5496892E+003	1.161319990183983E+001	-2.3883593E-001	-6.728361678877803E-002	1.6069745E-005	-2.3900579E-001	0
3.6128010E+003	1.181319989678741E+001	-2.4081625E-001	-6.665638227452886E-002	1.6051939E-005	-2.4100576E-001	0
3.6758838E+003	1.201319989173498E+001	-2.4285917E-001	-6.606824137428813E-002	1.6045278E-005	-2.4300578E-001	0
3.7366831E+003	1.221319988668256E+001	-2.4483545E-001	-6.552213348834751E-002	1.6042140E-005	-2.4500579E-001	0
3.7940188E+003	1.241319988163013E+001	-2.4684954E-001	-6.506281448770990E-002	1.6060725E-005	-2.4700576E-001	0
3.8531011E+003	1.261319987657771E+001	-2.4885848E-001	-6.458654234454003E-002	1.6072909E-005	-2.4900579E-001	0
3.9109817E+003	1.281319987152528E+001	-2.5081632E-001	-6.413129199974144E-002	1.6085174E-005	-2.5100577E-001	0
3.9679985E+003	1.301319986647286E+001	-2.5281551E-001	-6.371361004608909E-002	1.6107790E-005	-2.5300577E-001	0
4.0255474E+003	1.321319986142043E+001	-2.5481895E-001	-6.330044777185373E-002	1.6130154E-005	-2.5500578E-001	0
4.0848418E+003	1.341319985636801E+001	-2.5681776E-001	-6.287091770557840E-002	1.6146369E-005	-2.5700578E-001	0
4.1381416E+003	1.361319985131559E+001	-2.5884920E-001	-6.255204020418614E-002	1.6191545E-005	-2.5900576E-001	0
4.1896304E+003	1.381319984626316E+001	-2.6080894E-001	-6.225106196663860E-002	1.6235634E-005	-2.6100576E-001	0
4.2470410E+003	1.401319984121074E+001	-2.6283872E-001	-6.188749353604117E-002	1.6266429E-005	-2.6300576E-001	0
4.2999473E+003	1.421319983615831E+001	-2.6478401E-001	-6.157843340262120E-002	1.6304984E-005	-2.6500577E-001	0
4.3545435E+003	1.441319983110589E+001	-2.6681462E-001	-6.127269366173205E-002	1.6348451E-005	-2.6700577E-001	0
4.4085112E+003	1.461319982605346E+001	-2.6882127E-001	-6.097779072854904E-002	1.6392127E-005	-2.6900578E-001	0
4.4605908E+003	1.481319982100104E+001	-2.7081728E-001	-6.071332238283034E-002	1.6442216E-005	-2.7100578E-001	0
4.5142153E+003	1.501319981594861E+001	-2.7280033E-001	-6.043139613358084E-002	1.6485705E-005	-2.7300578E-001	0
4.5631929E+003	1.521319981089619E+001	-2.7480590E-001	-6.022228254533271E-002	1.6549438E-005	-2.7500579E-001	0
4.6175649E+003	1.541319980584376E+001	-2.7682018E-001	-5.994938476308920E-002	1.6595199E-005	-2.7700579E-001	0
4.6705781E+003	1.561319980079134E+001	-2.7879560E-001	-5.969188223981536E-002	1.6641834E-005	-2.7900577E-001	0
4.7210967E+003	1.581319979573891E+001	-2.8079823E-001	-5.947733254387316E-002	1.6701129E-005	-2.8100580E-001	0
4.7716787E+003	1.601319979068649E+001	-2.8280634E-001	-5.926767991255988E-002	1.6761276E-005	-2.8300577E-001	0
4.8202236E+003	1.621319978563406E+001	-2.8480405E-001	-5.908523328748005E-002	1.6827713E-005	-2.8500578E-001	0
4.8732041E+003	1.641319978058164E+001	-2.8679562E-001	-5.885155117952286E-002	1.6878366E-005	-2.8700578E-001	0
4.9203228E+003	1.661319977552921E+001	-2.8879014E-001	-5.869333303159696E-002	1.6950056E-005	-2.8900579E-001	0
4.9694370E+003	1.681319977047679E+001	-2.9077557E-001	-5.851277572054248E-002	1.7014085E-005	-2.9100579E-001	0
5.0228672E+003	1.701319976542436E+001	-2.9277202E-001	-5.828783114846192E-002	1.7065046E-005	-2.9300576E-001	0
5.0700635E+003	1.721319976037194E+001	-2.9479074E-001	-5.814340126609863E-002	1.7140137E-005	-2.9500577E-001	0
5.1205942E+003	1.741319975531951E+001	-2.9680395E-001	-5.796279168746887E-002	1.7203585E-005	-2.9700577E-001	0
5.1666172E+003	1.761319975026709E+001	-2.9874632E-001	-5.782242370515955E-002	1.7274237E-005	-2.9900578E-001	0
5.2171074E+003	1.781319974521466E+001	-3.0075589E-001	-5.764801631620398E-002	1.7337979E-005	-3.0100578E-001	0
5.2660088E+003	1.801319974016224E+001	-3.0280560E-001	-5.750191729735410E-002	1.7411903E-005	-3.0300575E-001	0
5.3155464E+003	1.821319973510981E+001	-3.0483556E-001	-5.734792802020350E-002	1.7481687E-005	-3.0500576E-001	0
5.3654658E+003	1.841319973005739E+001	-3.0685323E-001	-5.719042061025581E-002	1.7549066E-005	-3.0700576E-001	0
5.4105479E+003	1.861319972500496E+001	-3.0884078E-001	-5.708123900813566E-002	1.7629014E-005	-3.0900577E-001	0
5.4553784E+003	1.881319971995254E+001	-3.1078058E-001	-5.696774058438869E-002	1.7704468E-005	-3.1100580E-001	0
5.5041509E+003	1.901319971490011E+001	-3.1283110E-001	-5.683548874570188E-002	1.7779908E-005	-3.1300578E-001	0
5.5512959E+003	1.921319970984769E+001	-3.1477642E-001	-5.670323366164121E-002	1.7848841E-005	-3.1500578E-001	0
5.5979990E+003	1.941319970479526E+001	-3.1679091E-001	-5.659002581951289E-002	1.7927206E-005	-3.1700578E-001	0
5.6455332E+003	1.961319969974284E+001	-3.1877825E-001	-5.646556872418351E-002	1.7999995E-005	-3.1900576E-001	0
5.6914727E+003	1.981319969469041E+001	-3.2083791E-001	-5.637168786235047E-002	1.8086175E-005	-3.2100576E-001	0
5.7339541E+003	2.001319968963799E+001	-3.2279620E-001	-5.629556436174021E-002	1.8171993E-005	-3.2300577E-001	0
5.7845190E+003	2.021319968458556E+001	-3.2483590E-001	-5.615607912117904E-002	1.8241510E-005	-3.2500577E-001	0
5.8276509E+003	2.041319967953314E+001	-3.2681492E-001	-5.608004226313379E-002	1.8327795E-005	-3.2700577E-001	0
5.8737017E+003	2.061319967448071E+001	-3.2883430E-001	-5.598416784461491E-002	1.8409515E-005	-3.2900578E-001	0
5.9157231E+003	2.081319966942829E+001	-3.3081079E-001	-5.592059768111268E-002	1.8499137E-005	-3.3100575E-001	0
5.9588965E+003	2.101319966437586E+001	-3.3282083E-001	-5.585276440700382E-002	1.8588964E-005	-3.3300579E-001	0
6.0051284E+003	2.121319965932344E+001	-3.3483404E-001	-5.575801495487986E-002	1.8669682E-005	-3.3500576E-001	0
6.0474868E+003	2.141319965427101E+001	-3.3684918E-001	-5.570068883935564E-002	1.8762732E-005	-3.3700579E-001	0
6.0918877E+003	2.161319964921859E+001	-3.3879066E-001	-5.561341242569062E-002	1.8841305E-005	-3.3900577E-001	0
6.1392598E+003	2.181319964416616E+001	-3.4078053E-001	-5.550840718654804E-002	1.8916184E-005	-3.4100580E-001	0
6.1807925E+003	2.201319963911374E+001	-3.4279498E-001	-5.546133078015991E-002	1.9011866E-005	-3.4300578E-001	0
6.2212759E+003	2.221319963406131E+001	-3.4478122E-001	-5.541969496596297E-002	1.9107671E-005	-3.4500578E-001	0
6.2658574E+003	2.241319962900889E+001	-3.4681782E-001	-5.535041720631728E-002	1.9196512E-005	-3.4700578E-001	0
6.3073789E+003	2.261319962395646E+001	-3.4883526E-001	-5.530589670175146E-002	1.9292647E-005	-3.4900579E-001	0
6.3504688E+003	2.281319961890404E+001	-3.5084808E-001	-5.524758819032405E-002	1.9383509E-005	-3.5100579E-001	0
6.3908257E+003	2.301319961385161E+001	-3.5284346E-001	-5.521093509233910E-002	1.9480818E-005	-3.5300580E-001	0
6.4320981E+003	2.321319960879919E+001	-3.5482314E-001	-5.516444863392503E-002	1.9573623E-005	-3.5500580E-001	0
6.4742378E+003	2.341319960374676E+001	-3.5680750E-001	-5.511189426417951E-002	1.9664338E-005	-3.5700577E-001	0
6.5116807E+003	2.361319959869434E+001	-3.5881051E-001	-5.510259572735432E-002	1.9771391E-005	-3.5900581E-001	0
6.5518281E+003	2.381319959364191E+001	-3.6079505E-001	-5.506784230462203E-002	1.9868205E-005	-3.6100578E-001	0
6.5891201E+003	2.401319958858949E+001	-3.6281338E-001	-5.506249390333462E-002	1.9977409E-005	-3.6300576E-001	0
6.6312451E+003	2.421319958353706E+001	-3.6478564E-001	-5.501012803876842E-002	2.0066906E-005	-3.6500579E-001	0
6.6696001E+003	2.441319957848464E+001	-3.6679074E-001	-5.499441157223958E-002	2.0171441E-005	-3.6700580E-001	0
6.7093818E+003	2.461319957343221E+001	-3.6884025E-001	-5.497380590927958E-002	2.0276551E-005	-3.6900577E-001	0
6.7424194E+003	2.481319956837979E+001	-3.7080401E-001	-5.499569074696353E-002	2.0392623E-005	-3.7100580E-001	0
6.7792729E+003	2.501319956332736E+001	-3.7277886E-001	-5.498802991712737E-002	2.0498375E-005	-3.7300578E-001	0
6.8210830E+003	2.521319955827494E+001	-3.7481669E-001	-5.494973387003221E-002	2.0596077E-005	-3.7500581E-001	0
6.8559019E+003	2.541319955322251E+001	-3.7680441E-001	-5.496059024871200E-002	2.0709393E-005	-3.7700579E-001	0
6.8914590E+003	2.561319954817009E+001	-3.7881210E-001	-5.496834625665270E-002	2.0822676E-005	-3.7900582E-001	0
6.9244087E+003	2.581319954311766E+001	-3.8082424E-001	-5.499736468313998E-002	2.0944330E-005	-3.8100579E-001	0
6.9607637E+003	2.601319953806524E+001	-3.8282135E-001	-5.499703321149774E-002	2.1054038E-005	-3.8300577E-001	0
7.0022490E+003	2.621319953301281E+001	-3.8479337E-001	-5.495282429663240E-002	2.1145483E-005	-3.8500577E-001	0
7.0292373E+003	2.641319952796039E+001	-3.8681695E-001	-5.502971914193472E-002	2.1286429E-005	-3.8700578E-001	0
7.0669131E+003	2.661319952290796E+001	-3.8880727E-001	-5.501797888322391E-002	2.1391390E-005	-3.8900578E-001	0
7.1009932E+003	2.681319951785554E+001	-3.9081159E-001	-5.503618931492849E-002	2.1508780E-005	-3.9100581E-001	0
7.1301313E+003	2.701319951280311E+001	-3.9279997E-001	-5.509014592966377E-002	2.1639407E-005	-3.9300582E-001	0
7.1637915E+003	2.721319950775069E+001	-3.9478475E-001	-5.510835340320477E-002	2.1755937E-005	-3.9500576E-001	0
7.1927056E+003	2.741319950269826E+001	-3.9678481E-001	-5.516489058080443E-002	2.1888591E-005	-3.9700580E-001	0
7.2244858E+003	2.761319949764584E+001	-3.9878461E-001	-5.519902893413908E-002	2.2012524E-005	-3.9900583E-001	0
7.2582979E+003	2.781319949259341E+001	-4.0078557E-001	-5.521756890937324E-002	2.2130405E-005	-4.0100580E-001	0
7.2838496E+003	2.801319948754099E+001	-4.0278521E-001	-5.529839609741155E-002	2.2273376E-005	-4.0300578E-001	0
7.3166802E+003	2.821319948248856E+001	-4.0478477E-001	-5.532355746148698E-002	2.2394133E-005	-4.0500581E-001	0
7.3463477E+003	2.841319947743614E+001	-4.0677589E-001	-5.537117528412394E-002	2.2523660E-005	-4.0700579E-001	0
7.3805776E+003	2.861319947238371E+001	-4.0879536E-001	-5.538799017013096E-002	2.2642353E-005	-4.0900579E-001	0
7.4066616E+003	2.881319946733129E+001	-4.1077775E-001	-5.546057850962971E-002	2.2781971E-005	-4.1100580E-001	0
7.4255371E+003	2.901319946227886E+001	-4.1280878E-001	-5.559311883657114E-002	2.2949327E-005	-4.1300583E-001	0
7.4564985E+003	2.921319945722644E+001	-4.1479889E-001	-5.562917647942445E-002	2.3074921E-005	-4.1500577E-001	0
7.4793140E+003	2.941319945217401E+001	-4.1681543E-001	-5.572909879595321E-002	2.3228748E-005	-4.1700581E-001	0
7.5069146E+003	2.961319944712159E+001	-4.1887197E-001	-5.579815296690605E-002	2.3372282E-005	-4.1900584E-001	0
7.5395322E+003	2.981319944206916E+001	-4.2086375E-001	-5.582093559004897E-002	2.3493008E-005	-4.2100579E-001	0
7.5620156E+003	3.001319943701674E+001	-4.2281076E-001	-5.591244380942251E-002	2.3640383E-005	-4.2300579E-001	0
7.5934897E+003	3.021319943196431E+001	-4.2484283E-001	-5.594830039430376E-002	2.3769235E-005	-4.2500582E-001	0
7.6156294E+003	3.041319942691189E+001	-4.2683631E-001	-5.604741120575807E-002	2.3923070E-005	-4.2700580E-001	0
7.6413521E+003	3.061319942185946E+001	-4.2880896E-001	-5.611689698242489E-002	2.4063427E-005	-4.2900580E-001	0
7.6632627E+003	3.081319941680704E+001	-4.3084258E-001	-5.622181877844423E-002	2.4222752E-005	-4.3100581E-001	0
7.6859429E+003	3.101319941175461E+001	-4.3283755E-001	-5.631547842318380E-002	2.4375453E-005	-4.3300581E-001	0
7.7142803E+003	3.121319940670219E+001	-4.3485644E-001	-5.637031988200647E-002	2.4512998E-005	-4.3500578E-001	0
7.7357622E+003	3.141319940164976E+001	-4.3684211E-001	-5.647046718632387E-002	2.4668678E-005	-4.3700582E-001	0
7.7566011E+003	3.161319939659734E+001	-4.3884301E-001	-5.657671618987048E-002	2.4828296E-005	-4.3900579E-001	0
7.7770029E+003	3.181319939154491E+001	-4.4084918E-001	-5.668625684218487E-002	2.4990090E-005	-4.4100583E-001	0
7.8043530E+003	3.201319938649249E+001	-4.4289979E-001	-5.675035221195934E-002	2.5134719E-005	-4.4300580E-001	0
7.8212910E+003	3.221319938144006E+001	-4.4483870E-001	-5.687535558394311E-002	2.5300360E-005	-4.4500577E-001	0
7.8391343E+003	3.241319937638764E+001	-4.4689059E-001	-5.700764455357368E-002	2.5476180E-005	-4.4700581E-001	0
7.8573931E+003	3.261319937133521E+001	-4.4886726E-001	-5.712673991872097E-002	2.5642323E-005	-4.4900581E-001	0
7.8818765E+003	3.281319936628279E+001	-4.5088029E-001	-5.720468749695518E-002	2.5792466E-005	-4.5100582E-001	0
7.9024658E+003	3.301319936123036E+001	-4.5285723E-001	-5.730581165464566E-002	2.5951351E-005	-4.5300582E-001	0
7.9163135E+003	3.321319935617794E+001	-4.5481950E-001	-5.745344839476974E-002	2.6130949E-005	-4.5500582E-001	0
7.9338242E+003	3.341319935112551E+001	-4.5684138E-001	-5.758148562395415E-002	2.6305604E-005	-4.5700577E-001	0
7.9486328E+003	3.361319934607309E+001	-4.5886540E-001	-5.772884738844852E-002	2.6489772E-005	-4.5900580E-001	0
7.9668555E+003	3.381319934102066E+001	-4.6084768E-001	-5.784561767141483E-002	2.6658019E-005	-4.6100584E-001	0
7.9833115E+003	3.401319933596824E+001	-4.6285149E-001	-5.797738075317571E-002	2.6834918E-005	-4.6300581E-001	0
8.0019980E+003	3.421319933091581E+001	-4.6485564E-001	-5.809244556646045E-002	2.7004600E-005	-4.6500579E-001	0
8.0202480E+003	3.441319932586339E+001	-4.6686116E-001	-5.821031350230652E-002	2.7176135E-005	-4.6700582E-001	0
8.0407925E+003	3.461319932081096E+001	-4.6882343E-001	-5.830562352350654E-002	2.7335043E-005	-4.6900579E-001	0
8.0574785E+003	3.481319931575854E+001	-4.7084370E-001	-5.843561392091612E-002	2.7514041E-005	-4.7100580E-001	0
8.0694487E+003	3.501319931070611E+001	-4.7284395E-001	-5.859681037930375E-002	2.7707147E-005	-4.7300583E-001	0
8.0797119E+003	3.521319930565369E+001	-4.7483778E-001	-5.876914614836881E-002	2.7905811E-005	-4.7500584E-001	0
8.0938188E+003	3.541319930060126E+001	-4.7681665E-001	-5.891120848203696E-002	2.8089846E-005	-4.7700578E-001	0
8.1047280E+003	3.561319929554884E+001	-4.7882223E-001	-5.907937085579068E-002	2.8288516E-005	-4.7900581E-001	0
8.1230654E+003	3.581319929049641E+001	-4.8085877E-001	-5.919671320892839E-002	2.8465260E-005	-4.8100585E-001	0
8.1362607E+003	3.601319928544399E+001	-4.8284182E-001	-5.934443843578430E-002	2.8653976E-005	-4.8300579E-001	0
8.1577539E+003	3.621319928039156E+001	-4.8482007E-001	-5.943058252645050E-002	2.8813140E-005	-4.8500580E-001	0
8.1686499E+003	3.641319927533914E+001	-4.8681882E-001	-5.959599480389825E-002	2.9012452E-005	-4.8700583E-001	0
8.1868486E+003	3.661319927028671E+001	-4.8884034E-001	-5.971044099513789E-002	2.9188872E-005	-4.8900586E-001	0
8.2051406E+003	3.681319926523429E+001	-4.9085501E-001	-5.982286584048269E-002	2.9364353E-005	-4.9100581E-001	0
8.2133330E+003	3.701319926018186E+001	-4.9282932E-001	-6.000357424014585E-002	2.9571522E-005	-4.9300578E-001	0
8.2363623E+003	3.721319925512944E+001	-4.9486062E-001	-6.008242813198764E-002	2.9732428E-005	-4.9500582E-001	0
8.2570391E+003	3.741319925007701E+001	-4.9684793E-001	-6.017265238803382E-002	2.9896657E-005	-4.9700579E-001	0
8.2747773E+003	3.761319924502459E+001	-4.9885714E-001	-6.028647636762430E-002	3.0074340E-005	-4.9900576E-001	0
8.2948955E+003	3.781319923997216E+001	-5.0083518E-001	-6.037872147117063E-002	3.0239788E-005	-5.0100589E-001	0
8.3092607E+003	3.801319923491974E+001	-5.0285298E-001	-6.051717170930193E-002	3.0431240E-005	-5.0300580E-001	0
8.3268096E+003	3.821319922986731E+001	-5.0483865E-001	-6.062810379238859E-002	3.0607411E-005	-5.0500578E-001	0
8.3496084E+003	3.841319922481489E+001	-5.0681025E-001	-6.069868253786825E-002	3.0762716E-005	-5.0700581E-001	0
8.3701602E+003	3.861319921976246E+001	-5.0885147E-001	-6.079351883001462E-002	3.0934872E-005	-5.0900578E-001	0
8.3941377E+003	3.881319921471004E+001	-5.1082313E-001	-6.085474944679825E-002	3.1086012E-005	-5.1100576E-001	0
8.4051318E+003	3.901319920965761E+001	-5.1285481E-001	-6.101686752225999E-002	3.1292795E-005	-5.1300579E-001	0
8.4154131E+003	3.921319920460519E+001	-5.1483786E-001	-6.117796549434149E-002	3.1496733E-005	-5.1500583E-001	0
8.4422432E+003	3.941319919955276E+001	-5.1685172E-001	-6.122208784108413E-002	3.1642743E-005	-5.1700580E-001	0
8.4576875E+003	3.961319919450034E+001	-5.1882607E-001	-6.134372984656811E-002	3.1826727E-005	-5.1900578E-001	0
8.4832314E+003	3.981319918944791E+001	-5.2082932E-001	-6.139515588575306E-002	3.1976397E-005	-5.2100581E-001	0
8.5038193E+003	4.001319918439549E+001	-5.2283007E-001	-6.148179505831330E-002	3.2144530E-005	-5.2300584E-001	0
8.4737637E+003	4.021319917934306E+001	-5.2484602E-001	-6.193777162300809E-002	3.2507793E-005	-5.2500582E-001	0
8.4573838E+003	4.041319917429064E+001	-5.2682465E-001	-6.229168317141354E-002	3.2816795E-005	-5.2700585E-001	0
8.4373857E+003	4.061319916923821E+001	-5.2881020E-001	-6.267464802919320E-002	3.3142995E-005	-5.2900583E-001	0
8.4473027E+003	4.081319916418579E+001	-5.3081810E-001	-6.283877112231157E-002	3.3355958E-005	-5.3100586E-001	0
8.4972510E+003	4.101319915913336E+001	-5.3282517E-001	-6.270559235685047E-002	3.3411117E-005	-5.3300577E-001	0
8.5453662E+003	4.121319915408094E+001	-5.3485322E-001	-6.258985658478244E-002	3.3476386E-005	-5.3500581E-001	0
8.5778389E+003	4.141319914902851E+001	-5.3681636E-001	-6.258177537420329E-002	3.3594923E-005	-5.3700584E-001	0
8.6177139E+003	4.161319914397609E+001	-5.3881580E-001	-6.252421509757533E-002	3.3689033E-005	-5.3900576E-001	0
8.6498760E+003	4.181319913892366E+001	-5.4087639E-001	-6.252996055588844E-002	3.3820979E-005	-5.4100585E-001	0
8.6914551E+003	4.201319913387124E+001	-5.4285598E-001	-6.245858446365438E-002	3.3906017E-005	-5.4300588E-001	0
8.7287881E+003	4.221319912881881E+001	-5.4484946E-001	-6.241982651276778E-002	3.4009408E-005	-5.4500586E-001	0
8.7638555E+003	4.241319912376639E+001	-5.4683644E-001	-6.239678858633679E-002	3.4120836E-005	-5.4700577E-001	0
8.7677578E+003	4.261319911871396E+001	-5.4884958E-001	-6.259862170818686E-002	3.4357228E-005	-5.4900581E-001	0
8.7967725E+003	4.281319911366154E+001	-5.5084240E-001	-6.261869554741603E-002	3.4493034E-005	-5.5100590E-001	0
8.8386260E+003	4.301319910860911E+001	-5.5285078E-001	-6.254940258091968E-002	3.4580487E-005	-5.5300575E-001	0
8.9383320E+003	4.321319910355669E+001	-5.5487102E-001	-6.207769501969096E-002	3.4445115E-005	-5.5500579E-001	0
8.9910088E+003	4.341319909850426E+001	-5.5683875E-001	-6.193284620636502E-002	3.4486609E-005	-5.5700588E-001	0
9.0532422E+003	4.361319909345184E+001	-5.5890572E-001	-6.173542164299889E-002	3.4504279E-005	-5.5900580E-001	0
9.0852070E+003	4.381319908839941E+001	-5.6082767E-001	-6.172976077981951E-002	3.4619759E-005	-5.6100583E-001	0
9.1234551E+003	4.401319908334699E+001	-5.6283367E-001	-6.169084331459962E-002	3.4721685E-005	-5.6300581E-001	0
9.1613770E+003	4.421319907829457E+001	-5.6485385E-001	-6.165600069133304E-002	3.4826629E-005	-5.6500590E-001	0
9.1896357E+003	4.441319907324214E+001	-5.6684071E-001	-6.168261225770355E-002	3.4964214E-005	-5.6700581E-001	0
9.2300303E+003	4.461319906818972E+001	-5.6880772E-001	-6.162577237862088E-002	3.5053214E-005	-5.6900579E-001	0
9.1522334E+003	4.481319906313729E+001	-5.7081813E-001	-6.236927260754543E-002	3.5601512E-005	-5.7100588E-001	0
9.2263535E+003	4.501319905808487E+001	-5.7279873E-001	-6.208289178381832E-002	3.5561003E-005	-5.7300574E-001	0
9.2836553E+003	4.521319905303244E+001	-5.7481951E-001	-6.191736947409332E-002	3.5591311E-005	-5.7500583E-001	0
9.3487734E+003	4.541319904798002E+001	-5.7681388E-001	-6.169941511940735E-002	3.5589077E-005	-5.7700586E-001	0
9.4025967E+003	4.561319904292759E+001	-5.7884848E-001	-6.156261763831106E-002	3.5635429E-005	-5.7900584E-001	0
9.4579092E+003	4.581319903787517E+001	-5.8081925E-001	-6.141095508741057E-002	3.5668665E-005	-5.8100581E-001	0
9.5132461E+003	4.601319903282274E+001	-5.8283073E-001	-6.126517733155645E-002	3.5707228E-005	-5.8300579E-001	0
9.5686201E+003	4.621319902777032E+001	-5.8483315E-001	-6.111990435412185E-002	3.5744946E-005	-5.8500588E-001	0
9.6363447E+003	4.641319902271789E+001	-5.8682472E-001	-6.089702578865466E-002	3.5735880E-005	-5.8700573E-001	0
9.6877148E+003	4.661319901766547E+001	-5.8882856E-001	-6.078095525733351E-002	3.5789562E-005	-5.8900577E-001	0
9.7442197E+003	4.681319901261304E+001	-5.9084797E-001	-6.063573844646386E-002	3.5826502E-005	-5.9100586E-001	0
9.7986348E+003	4.701319900756062E+001	-5.9281600E-001	-6.049985576963723E-002	3.5865283E-005	-5.9300578E-001	0
9.8526426E+003	4.721319900250819E+001	-5.9486341E-001	-6.037602803243258E-002	3.5915491E-005	-5.9500581E-001	0
9.9131211E+003	4.741319899745577E+001	-5.9682697E-001	-6.020575951332918E-002	3.5932422E-005	-5.9700578E-001	0
9.9667871E+003	4.761319899240334E+001	-5.9882504E-001	-6.008205587327353E-002	3.5978639E-005	-5.9900582E-001	0
1.0033695E+004	4.781319898735092E+001	-6.0083294E-001	-5.988152014342896E-002	3.5978788E-005	-6.0100579E-001	0
1.0087679E+004	4.801319898229849E+001	-6.0289013E-001	-5.976500227739046E-002	3.6031732E-005	-6.0300583E-001	0
1.0135969E+004	4.821319897724607E+001	-6.0486090E-001	-5.967470014820486E-002	3.6094894E-005	-6.0500586E-001	0
1.0199937E+004	4.841319897219364E+001	-6.0688514E-001	-5.949891121876405E-002	3.6109006E-005	-6.0700577E-001	0
1.0254827E+004	4.861319896714122E+001	-6.0883254E-001	-5.937033533086954E-002	3.6146594E-005	-6.0900581E-001	0
1.0312549E+004	4.881319896208879E+001	-6.1082751E-001	-5.923147590423311E-002	3.6180216E-005	-6.1100584E-001	0
1.0359943E+004	4.901319895703637E+001	-6.1284512E-001	-5.915526029613738E-002	3.6253012E-005	-6.1300582E-001	0
1.0419803E+004	4.921319895198394E+001	-6.1485916E-001	-5.900871215806358E-002	3.6282046E-005	-6.1500585E-001	0
1.0488728E+004	4.941319894693152E+001	-6.1684906E-001	-5.881066466449314E-002	3.6277303E-005	-6.1700583E-001	0
1.0551902E+004	4.961319894187909E+001	-6.1884832E-001	-5.864803314730616E-002	3.6294237E-005	-6.1900586E-001	0
1.0620965E+004	4.981319893682667E+001	-6.2089521E-001	-5.845939885199813E-002	3.6297162E-005	-6.2100577E-001	0
1.0682265E+004	5.001319893177424E+001	-6.2286431E-001	-5.830826464345651E-002	3.6318135E-005	-6.2300575E-001	0
1.0736880E+004	5.021319892672182E+001	-6.2485141E-001	-5.819674181728668E-002	3.6364316E-005	-6.2500584E-001	0
1.0792384E+004	5.041319892166939E+001	-6.2687439E-001	-5.808488411888024E-002	3.6411926E-005	-6.2700588E-001	0
1.0845794E+004	5.061319891661697E+001	-6.2889355E-001	-5.798501964888703E-002	3.6466405E-005	-6.2900579E-001	0
1.0914979E+004	5.081319891156454E+001	-6.3081187E-001	-5.779322378533758E-002	3.6456651E-005	-6.3100582E-001	0
1.0960999E+004	5.101319890651212E+001	-6.3285077E-001	-5.773659564698286E-002	3.6538648E-005	-6.3300592E-001	0
1.1024849E+004	5.121319890145969E+001	-6.3481963E-001	-5.758080086375195E-002	3.6553422E-005	-6.3500583E-001	0
1.1082801E+004	5.141319889640727E+001	-6.3685834E-001	-5.746366374105910E-002	3.6596215E-005	-6.3700581E-001	0
1.1140727E+004	5.161319889135484E+001	-6.3884729E-001	-5.734341189501788E-002	3.6633683E-005	-6.3900584E-001	0
1.1204607E+004	5.181319888630242E+001	-6.4088327E-001	-5.719818954056116E-002	3.6657362E-005	-6.4100581E-001	0
1.1271591E+004	5.201319888124999E+001	-6.4285803E-001	-5.703347812717163E-002	3.6664431E-005	-6.4300579E-001	0
1.1322730E+004	5.221319887619757E+001	-6.4488214E-001	-5.695465134822092E-002	3.6729038E-005	-6.4500582E-001	0
1.1373294E+004	5.241319887114514E+001	-6.4685518E-001	-5.687492121435489E-002	3.6789836E-005	-6.4700586E-001	0
1.1448539E+004	5.261319886609272E+001	-6.4889449E-001	-5.667924148172077E-002	3.6778849E-005	-6.4900577E-001	0
1.1504450E+004	5.281319886104029E+001	-6.5091956E-001	-5.657980706048571E-002	3.6828904E-005	-6.5100580E-001	0
1.1559912E+004	5.301319885598787E+001	-6.5288335E-001	-5.647822660964241E-002	3.6873695E-005	-6.5300584E-001	0
1.1610354E+004	5.321319885093544E+001	-6.5485328E-001	-5.640252268569032E-002	3.6935377E-005	-6.5500587E-001	0
1.1665780E+004	5.341319884588302E+001	-6.5684378E-001	-5.630517257493628E-002	3.6983703E-005	-6.5700579E-001	0
1.1715230E+004	5.361319884083059E+001	-6.5886444E-001	-5.623998978732736E-002	3.7054528E-005	-6.5900582E-001	0
1.1767557E+004	5.381319883577817E+001	-6.6086912E-001	-5.616026544730146E-002	3.7114587E-005	-6.6100585E-001	0
1.1824774E+004	5.401319883072574E+001	-6.6282570E-001	-5.605398322658317E-002	3.7154019E-005	-6.6300577E-001	0
1.1889440E+004	5.421319882567332E+001	-6.6489547E-001	-5.592319212089414E-002	3.7183076E-005	-6.6500580E-001	0
1.1925132E+004	5.441319882062089E+001	-6.6689944E-001	-5.592386421584888E-002	3.7295595E-005	-6.6700590E-001	0
1.1984060E+004	5.461319881556847E+001	-6.6888720E-001	-5.581474148556431E-002	3.7333764E-005	-6.6900581E-001	0
1.2025367E+004	5.481319881051604E+001	-6.7085218E-001	-5.578641905058623E-002	3.7424441E-005	-6.7100579E-001	0
1.2077874E+004	5.501319880546362E+001	-6.7283553E-001	-5.570810782995572E-002	3.7482394E-005	-6.7300582E-001	0
1.2122688E+004	5.521319880041119E+001	-6.7483914E-001	-5.566745035006115E-002	3.7566573E-005	-6.7500585E-001	0
1.2179902E+004	5.541319879535877E+001	-6.7684621E-001	-5.557074015136478E-002	3.7612845E-005	-6.7700577E-001	0
1.2232780E+004	5.561319879030634E+001	-6.7885178E-001	-5.549447990736415E-002	3.7672526E-005	-6.7900580E-001	0
1.2282493E+004	5.581319878525392E+001	-6.8084353E-001	-5.543202822320492E-002	3.7740538E-005	-6.8100590E-001	0
1.2320192E+004	5.601319878020149E+001	-6.8282902E-001	-5.542356716658969E-002	3.7844820E-005	-6.8300581E-001	0
1.2367507E+004	5.621319877514907E+001	-6.8484157E-001	-5.537426396475803E-002	3.7922597E-005	-6.8500584E-001	0
1.2423688E+004	5.641319877009664E+001	-6.8686134E-001	-5.528642680726165E-002	3.7974110E-005	-6.8700582E-001	0
1.2458732E+004	5.661319876504422E+001	-6.8891931E-001	-5.529609865027496E-002	3.8094549E-005	-6.8900585E-001	0
1.2509480E+004	5.681319875999179E+001	-6.9086272E-001	-5.522712949207254E-002	3.8154365E-005	-6.9100577E-001	0
1.2547496E+004	5.701319875493937E+001	-6.9287145E-001	-5.521989819306505E-002	3.8260292E-005	-6.9300580E-001	0
1.2588011E+004	5.721319874988694E+001	-6.9484586E-001	-5.519902141756305E-002	3.8354810E-005	-6.9500595E-001	0
1.2631699E+004	5.741319874483452E+001	-6.9681877E-001	-5.516429496675623E-002	3.8439517E-005	-6.9700575E-001	0
1.2667387E+004	5.761319873978209E+001	-6.9887149E-001	-5.517092900553433E-002	3.8557391E-005	-6.9900584E-001	0
1.2702382E+004	5.781319873472967E+001	-7.0086592E-001	-5.517594493469415E-002	3.8670940E-005	-7.0100588E-001	0
1.2744251E+004	5.801319872967724E+001	-7.0282143E-001	-5.514811589583213E-002	3.8759277E-005	-7.0300579E-001	0
1.2776458E+004	5.821319872462482E+001	-7.0488155E-001	-5.517034299456242E-002	3.8888556E-005	-7.0500588E-001	0
1.2827150E+004	5.841319871957239E+001	-7.0686191E-001	-5.510669825609171E-002	3.8952825E-005	-7.0700586E-001	0
1.2865354E+004	5.861319871451997E+001	-7.0884472E-001	-5.509717970539496E-002	3.9055343E-005	-7.0900595E-001	0
1.2902849E+004	5.881319870946754E+001	-7.1082526E-001	-5.509056644081256E-002	3.9159768E-005	-7.1100581E-001	0
1.2935688E+004	5.901319870441512E+001	-7.1286368E-001	-5.510829099825670E-002	3.9284700E-005	-7.1300578E-001	0
1.2959799E+004	5.921319869936269E+001	-7.1485084E-001	-5.515909906584437E-002	3.9430528E-005	-7.1500587E-001	0
1.2992125E+004	5.941319869431027E+001	-7.1685070E-001	-5.517578429474901E-002	3.9552800E-005	-7.1700585E-001	0
1.3030892E+004	5.961319868925784E+001	-7.1883547E-001	-5.516395240054894E-002	3.9653805E-005	-7.1900582E-001	0
1.3055038E+004	5.981319868420542E+001	-7.2088397E-001	-5.521883401975344E-002	3.9806371E-005	-7.2100586E-001	0
1.3094246E+004	6.001319867915299E+001	-7.2280914E-001	-5.520051564755168E-002	3.9899438E-005	-7.2300589E-001	0
1.3106150E+004	6.021319867410057E+001	-7.2482353E-001	-5.530407443397634E-002	4.0085695E-005	-7.2500581E-001	0
1.3133992E+004	6.041319866904814E+001	-7.2687322E-001	-5.534290062747199E-002	4.0227271E-005	-7.2700578E-001	0
1.3152660E+004	6.061319866399572E+001	-7.2882557E-001	-5.541278771071975E-002	4.0386258E-005	-7.2900593E-001	0
1.3183890E+004	6.081319865894329E+001	-7.3086661E-001	-5.543634058673230E-002	4.0516570E-005	-7.3100585E-001	0
1.3198474E+004	6.101319865389087E+001	-7.3288107E-001	-5.552771509796095E-002	4.0695209E-005	-7.3300582E-001	0
1.3223114E+004	6.121319864883844E+001	-7.3485780E-001	-5.557373050672088E-002	4.0838790E-005	-7.3500586E-001	0
1.3262218E+004	6.141319864378602E+001	-7.3685354E-001	-5.556035410536801E-002	4.0939845E-005	-7.3700589E-001	0
1.3291120E+004	6.161319863873359E+001	-7.3887312E-001	-5.559148602641678E-002	4.1075054E-005	-7.3900586E-001	0
1.3295526E+004	6.181319863368117E+001	-7.4083781E-001	-5.572083346807566E-002	4.1280102E-005	-7.4100584E-001	0
1.3316739E+004	6.201319862862874E+001	-7.4285978E-001	-5.578391167732238E-002	4.1439624E-005	-7.4300593E-001	0
1.3311258E+004	6.221319862357632E+001	-7.4487603E-001	-5.595834949001045E-002	4.1682033E-005	-7.4500591E-001	0
1.3326627E+004	6.241319861852389E+001	-7.4685943E-001	-5.604264687254701E-002	4.1855979E-005	-7.4700576E-001	0
1.3338610E+004	6.261319861347147E+001	-7.4885237E-001	-5.614170652514328E-002	4.2041851E-005	-7.4900585E-001	0
1.3350769E+004	6.281319860841904E+001	-7.5088835E-001	-5.624308076406245E-002	4.2232274E-005	-7.5100583E-001	0
1.3373541E+004	6.301319860336662E+001	-7.5286019E-001	-5.629475113657012E-002	4.2382078E-005	-7.5300580E-001	0
1.3385121E+004	6.321319859831419E+001	-7.5483197E-001	-5.639336115729210E-002	4.2567513E-005	-7.5500584E-001	0
1.3387813E+004	6.341319859326177E+001	-7.5686955E-001	-5.653422110547190E-002	4.2789030E-005	-7.5700587E-001	0
1.3391258E+004	6.361319858820934E+001	-7.5890636E-001	-5.667177687954505E-002	4.3008571E-005	-7.5900584E-001	0
1.3390223E+004	6.381319858315692E+001	-7.6088202E-001	-5.682370182899710E-002	4.3236134E-005	-7.6100582E-001	0
1.3398351E+004	6.401319857810449E+001	-7.6285243E-001	-5.693629219053142E-002	4.3433989E-005	-7.6300591E-001	0
1.3380182E+004	6.421319857305207E+001	-7.6489937E-001	-5.716658992452106E-002	4.3726690E-005	-7.6500583E-001	0
1.3384153E+004	6.441319856799964E+001	-7.6689452E-001	-5.729869624088768E-002	4.3942055E-005	-7.6700580E-001	0
1.3388562E+004	6.461319856294722E+001	-7.6882964E-001	-5.742436448162835E-002	4.4149554E-005	-7.6900589E-001	0
1.3377026E+004	6.481319855789479E+001	-7.7080840E-001	-5.762180361670777E-002	4.4415370E-005	-7.7100587E-001	0
1.3387127E+004	6.501319855284237E+001	-7.7284032E-001	-5.773011061295352E-002	4.4616158E-005	-7.7300584E-001	0
1.3369891E+004	6.521319854778994E+001	-7.7482492E-001	-5.795297253762888E-002	4.4903409E-005	-7.7500582E-001	0
1.3365028E+004	6.541319854273752E+001	-7.7684635E-001	-5.812530438236196E-002	4.5154429E-005	-7.7700591E-001	0
1.3348844E+004	6.561319853768509E+001	-7.7889568E-001	-5.834929941511380E-002	4.5448018E-005	-7.7900589E-001	0
1.3337930E+004	6.581319853263267E+001	-7.8086984E-001	-5.854505662016513E-002	4.5716068E-005	-7.8100580E-001	0
1.3322433E+004	6.601319852758024E+001	-7.8287262E-001	-5.876349050988838E-002	4.6004327E-005	-7.8300589E-001	0
1.3297450E+004	6.621319852252782E+001	-7.8488737E-001	-5.902540371246456E-002	4.6328296E-005	-7.8500593E-001	0
1.3281763E+004	6.641319851747539E+001	-7.8688949E-001	-5.924586353817229E-002	4.6619949E-005	-7.8700578E-001	0
1.3242449E+004	6.661319851242297E+001	-7.8881699E-001	-5.956730280333372E-002	4.6987701E-005	-7.8900588E-001	0
1.3231680E+004	6.681319850737054E+001	-7.9083806E-001	-5.976853022919937E-002	4.7267229E-005	-7.9100597E-001	0
1.3207145E+004	6.701319850231812E+001	-7.9287332E-001	-6.003366656814702E-002	4.7599093E-005	-7.9300582E-001	0
1.3190921E+004	6.721319849726569E+001	-7.9486859E-001	-6.025876459198885E-002	4.7897800E-005	-7.9500592E-001	0
1.3150974E+004	6.741319849221327E+001	-7.9690272E-001	-6.059648185786781E-002	4.8289501E-005	-7.9700589E-001	0
1.3123366E+004	6.761319848716084E+001	-7.9892969E-001	-6.087841096443972E-002	4.8637568E-005	-7.9900587E-001	0
1.3087288E+004	6.781319848210842E+001	-8.0089724E-001	-6.119657949757795E-002	4.9012171E-005	-8.0100584E-001	0
1.3028999E+004	6.801319847705599E+001	-8.0284303E-001	-6.161970084442259E-002	4.9470949E-005	-8.0300587E-001	0
1.3008309E+004	6.821319847200357E+001	-8.0480045E-001	-6.186818336970804E-002	4.9791543E-005	-8.0500591E-001	0
1.2954674E+004	6.841319846695114E+001	-8.0680901E-001	-6.227937804602601E-002	5.0247563E-005	-8.0700588E-001	0
1.2911110E+004	6.861319846189872E+001	-8.0882883E-001	-6.264595611310247E-002	5.0669856E-005	-8.0900580E-001	0
1.2819661E+004	6.881319845684629E+001	-8.1085372E-001	-6.325079345560358E-002	5.1287141E-005	-8.1100595E-001	0
1.2807510E+004	6.901319845179387E+001	-8.1284904E-001	-6.346659504759888E-002	5.1588762E-005	-8.1300592E-001	0
1.2745448E+004	6.921319844674144E+001	-8.1484467E-001	-6.393221151843997E-002	5.2094823E-005	-8.1500584E-001	0
1.2690588E+004	6.941319844168902E+001	-8.1687874E-001	-6.436886631222663E-002	5.2581559E-005	-8.1700587E-001	0
1.2632017E+004	6.961319843663659E+001	-8.1886840E-001	-6.482483668235961E-002	5.3083011E-005	-8.1900591E-001	0
1.2558898E+004	6.981319843158417E+001	-8.2088006E-001	-6.536242446192719E-002	5.3654712E-005	-8.2100588E-001	0
1.2504952E+004	7.001319842653174E+001	-8.2289064E-001	-6.580518194275785E-002	5.4150467E-005	-8.2300586E-001	0
1.2444440E+004	7.021319842147932E+001	-8.2485783E-001	-6.628324093599121E-002	5.4674249E-005	-8.2500595E-001	0
1.2376869E+004	7.041319841642689E+001	-8.2684392E-001	-6.680557911829110E-002	5.5237786E-005	-8.2700580E-001	0
1.2295067E+004	7.061319841137447E+001	-8.2889175E-001	-6.741661071310601E-002	5.5881072E-005	-8.2900590E-001	0
1.2228627E+004	7.081319840632204E+001	-8.3086729E-001	-6.794444654166476E-002	5.6452820E-005	-8.3100587E-001	0
1.2172994E+004	7.101319840126962E+001	-8.3285767E-001	-6.841847180946392E-002	5.6982848E-005	-8.3300585E-001	0
1.2091960E+004	7.121319839621719E+001	-8.3487576E-001	-6.904387537784928E-002	5.7643058E-005	-8.3500594E-001	0
1.2011775E+004	7.141319839116477E+001	-8.3689260E-001	-6.967268381405112E-002	5.8308553E-005	-8.3700585E-001	0
1.1937231E+004	7.161319838611234E+001	-8.3889872E-001	-7.027582012807471E-002	5.8954294E-005	-8.3900601E-001	0
1.1875166E+004	7.181319838105992E+001	-8.4088135E-001	-7.081007370102299E-002	5.9542872E-005	-8.4100586E-001	0
1.1775193E+004	7.201319837600749E+001	-8.4291291E-001	-7.158378697245404E-002	6.0338898E-005	-8.4300578E-001	0
1.1712529E+004	7.221319837095507E+001	-8.4486669E-001	-7.213358043918983E-002	6.0943261E-005	-8.4500593E-001	0
1.1619021E+004	7.241319836590264E+001	-8.4688836E-001	-7.288809870781535E-002	6.1728082E-005	-8.4700590E-001	0
1.1545231E+004	7.261319836085022E+001	-8.4889966E-001	-7.352816449243860E-002	6.2418032E-005	-8.4900588E-001	0
1.1459310E+004	7.281319835579779E+001	-8.5089529E-001	-7.425362458230800E-002	6.3182059E-005	-8.5100591E-001	0
1.1361563E+004	7.301319835074537E+001	-8.5288978E-001	-7.506800197379504E-002	6.4024731E-005	-8.5300589E-001	0
1.1270714E+004	7.321319834569294E+001	-8.5487032E-001	-7.584881651491893E-002	6.4840904E-005	-8.5500586E-001	0
1.1169609E+004	7.341319834064052E+001	-8.5685658E-001	-7.671320973737106E-002	6.5732216E-005	-8.5700583E-001	0
1.1040295E+004	7.361319833558809E+001	-8.5887372E-001	-7.779445375744543E-002	6.6815614E-005	-8.5900593E-001	0
1.0938707E+004	7.381319833053567E+001	-8.6087817E-001	-7.870017596818268E-002	6.7751265E-005	-8.6100590E-001	0
1.0824773E+004	7.401319832548324E+001	-8.6285830E-001	-7.971144240146777E-002	6.8779678E-005	-8.6300588E-001	0
1.0697301E+004	7.421319832043082E+001	-8.6485893E-001	-8.084833078918430E-002	6.9922404E-005	-8.6500585E-001	0
1.0575041E+004	7.441319831537839E+001	-8.6683989E-001	-8.197035886138249E-002	7.1055176E-005	-8.6700583E-001	0
1.0423620E+004	7.461319831032597E+001	-8.6887985E-001	-8.335682013982260E-002	7.2427065E-005	-8.6900592E-001	0
1.0270202E+004	7.481319830527355E+001	-8.7085992E-001	-8.479481730493976E-002	7.3844407E-005	-8.7100583E-001	0
1.0109971E+004	7.501319830022112E+001	-8.7285066E-001	-8.633562939266844E-002	7.5358112E-005	-8.7300599E-001	0
9.8118916E+003	7.521319829516870E+001	-8.7486672E-001	-8.916392241279431E-002	7.8006546E-005	-8.7500596E-001	0
9.6717803E+003	7.541319829011627E+001	-8.7687737E-001	-9.066349106509231E-002	7.9500765E-005	-8.7700576E-001	0
9.4870605E+003	7.561319828506385E+001	-8.7890166E-001	-9.264214465747289E-002	8.1423335E-005	-8.7900591E-001	0
9.2970508E+003	7.581319828001142E+001	-8.8084924E-001	-9.474501448584172E-002	8.3456078E-005	-8.8100588E-001	0
9.0688633E+003	7.601319827495900E+001	-8.8288432E-001	-9.735336429819608E-002	8.5951760E-005	-8.8300586E-001	0
8.8305313E+003	7.621319826990657E+001	-8.8488185E-001	-1.002070942414237E-001	8.8671441E-005	-8.8500589E-001	0
8.5825908E+003	7.641319826485415E+001	-8.8687760E-001	-1.033344817814543E-001	9.1645037E-005	-8.8700593E-001	0
8.3114756E+003	7.661319825980172E+001	-8.8888258E-001	-1.069464279473875E-001	9.5062816E-005	-8.8900590E-001	0
8.0567524E+003	7.681319825474930E+001	-8.9085102E-001	-1.105719747659568E-001	9.8503158E-005	-8.9100587E-001	0
7.7733052E+003	7.701319824969687E+001	-8.9287072E-001	-1.148637176888346E-001	1.0255845E-004	-8.9300591E-001	0
7.4858833E+003	7.721319824464445E+001	-8.9484900E-001	-1.195382020529150E-001	1.0696864E-004	-8.9500588E-001	0
7.1799771E+003	7.741319823959202E+001	-8.9683384E-001	-1.249076230863277E-001	1.1202139E-004	-8.9700586E-001	0
6.8593564E+003	7.761319823453960E+001	-8.9887190E-001	-1.310431847281226E-001	1.1779104E-004	-8.9900589E-001	0
6.5375088E+003	7.781319822948717E+001	-9.0083462E-001	-1.377947803717654E-001	1.2413031E-004	-9.0100592E-001	0
6.2218086E+003	7.801319822443475E+001	-9.0282130E-001	-1.451059312859544E-001	1.3100472E-004	-9.0300590E-001	0
5.8912090E+003	7.821319821938232E+001	-9.0485287E-001	-1.535937442780049E-001	1.3897974E-004	-9.0500587E-001	0
5.5622168E+003	7.841319821432990E+001	-9.0684086E-001	-1.630358669944865E-001	1.4784759E-004	-9.0700597E-001	0
5.2366792E+003	7.861319820927747E+001	-9.0887403E-001	-1.735592291251145E-001	1.5774347E-004	-9.0900594E-001	0
4.9030708E+003	7.881319820422505E+001	-9.1086239E-001	-1.857738599335343E-001	1.6921441E-004	-9.1100591E-001	0
4.5152705E+003	7.901319819917262E+001	-9.1285449E-001	-2.021704971887459E-001	1.8455225E-004	-9.1300589E-001	0
4.2500381E+003	7.921319819412020E+001	-9.1486049E-001	-2.152593575244823E-001	1.9693228E-004	-9.1500598E-001	0
3.9669397E+003	7.941319818906777E+001	-9.1685361E-001	-2.311236628134847E-001	2.1190656E-004	-9.1700584E-001	0
3.6969875E+003	7.961319818401535E+001	-9.1885942E-001	-2.485427500536481E-001	2.2837585E-004	-9.1900587E-001	0
3.4411184E+003	7.981319817896292E+001	-9.2091620E-001	-2.676211937189179E-001	2.4645668E-004	-9.2100590E-001	0
3.1670776E+003	8.001319817391050E+001	-9.2289919E-001	-2.914040408830021E-001	2.6893656E-004	-9.2300588E-001	0
2.9341296E+003	8.021319816885807E+001	-9.2489016E-001	-3.152178810094214E-001	2.9154192E-004	-9.2500585E-001	0
2.7345269E+003	8.041319816380565E+001	-9.2689657E-001	-3.389605048794713E-001	3.1418132E-004	-9.2700589E-001	0
2.5461292E+003	8.061319815875322E+001	-9.2891008E-001	-3.648322757244817E-001	3.3889638E-004	-9.2900586E-001	0
2.3467993E+003	8.081319815370080E+001	-9.3085402E-001	-3.966483268422216E-001	3.6922170E-004	-9.3100584E-001	0
2.1810906E+003	8.101319814864837E+001	-9.3289024E-001	-4.277173068602460E-001	3.9901331E-004	-9.3300593E-001	0
2.0385529E+003	8.121319814359595E+001	-9.3488592E-001	-4.586027426319950E-001	4.2874124E-004	-9.3500596E-001	0
1.8872526E+003	8.141319813854352E+001	-9.3686622E-001	-4.964180317730600E-001	4.6507729E-004	-9.3700588E-001	0
1.7613774E+003	8.161319813349110E+001	-9.3884474E-001	-5.330173472943578E-001	5.0042052E-004	-9.3900591E-001	0
1.6527563E+003	8.181319812843867E+001	-9.4084853E-001	-5.692602898334203E-001	5.3558772E-004	-9.4100595E-001	0
1.5317135E+003	8.201319812338625E+001	-9.4287866E-001	-6.155711588684216E-001	5.8040890E-004	-9.4300598E-001	0
1.4421111E+003	8.221319811833382E+001	-9.4489634E-001	-6.552174504077630E-001	6.1911257E-004	-9.4500589E-001	0
1.3447964E+003	8.241319811328140E+001	-9.4691795E-001	-7.041347819990804E-001	6.6675787E-004	-9.4700587E-001	0
1.2668395E+003	8.261319810822897E+001	-9.4886959E-001	-7.490054107400006E-001	7.1070844E-004	-9.4900596E-001	0
1.1872972E+003	8.281319810317655E+001	-9.5088905E-001	-8.008854614101946E-001	7.6155324E-004	-9.5100582E-001	0
1.1218601E+003	8.301319809812412E+001	-9.5294607E-001	-8.494339993819082E-001	8.0946478E-004	-9.5300585E-001	0
1.0536555E+003	8.321319809307170E+001	-9.5491290E-001	-9.062856826213146E-001	8.6542388E-004	-9.5500588E-001	0
9.9896368E+002	8.341319808801927E+001	-9.5688510E-001	-9.578777659861837E-001	9.1657898E-004	-9.5700586E-001	0
9.4071088E+002	8.361319808296685E+001	-9.5888650E-001	-1.019321174079940E+000	9.7741326E-004	-9.5900583E-001	0
8.8967200E+002	8.382319807766180E+001	-9.6098888E-001	-1.080160837030402E+000	1.0380226E-003	-9.6110594E-001	0
8.4320764E+002	8.403319807235675E+001	-9.6308243E-001	-1.142165197207338E+000	1.0999992E-003	-9.6320599E-001	0
7.9978333E+002	8.423319806730433E+001	-9.6507668E-001	-1.206672674209688E+000	1.1645317E-003	-9.6520591E-001	0
7.6294458E+002	8.443319806225190E+001	-9.6709877E-001	-1.267587146428241E+000	1.2258820E-003	-9.6720588E-001	0
7.2630548E+002	8.463319805719948E+001	-9.6906102E-001	-1.334233371545118E+000	1.2929535E-003	-9.6920598E-001	0
6.9299164E+002	8.483319805214705E+001	-9.7107917E-001	-1.401285566507816E+000	1.3607593E-003	-9.7120583E-001	0
6.6360339E+002	8.503319804709463E+001	-9.7306281E-001	-1.466331885929065E+000	1.4268330E-003	-9.7320586E-001	0
6.3469421E+002	8.523319804204220E+001	-9.7505111E-001	-1.536253265774651E+000	1.4979255E-003	-9.7520590E-001	0
6.0783276E+002	8.543319803698978E+001	-9.7703272E-001	-1.607403834728437E+000	1.5704861E-003	-9.7720587E-001	0
5.8382959E+002	8.563319803193735E+001	-9.7904676E-001	-1.676939200432535E+000	1.6418019E-003	-9.7920591E-001	0
5.6145227E+002	8.583319802688493E+001	-9.8105431E-001	-1.747351165920019E+000	1.7142463E-003	-9.8120588E-001	0
5.3917523E+002	8.603319802183250E+001	-9.8305649E-001	-1.823259643365603E+000	1.7923672E-003	-9.8320585E-001	0
5.1923883E+002	8.623319801678008E+001	-9.8501509E-001	-1.897036744319664E+000	1.8686098E-003	-9.8520583E-001	0
5.0081137E+002	8.643319801172765E+001	-9.8704803E-001	-1.970897782686889E+000	1.9453708E-003	-9.8720592E-001	0
4.8374368E+002	8.663319800667523E+001	-9.8905742E-001	-2.044589815141798E+000	2.0222168E-003	-9.8920596E-001	0
4.6668924E+002	8.683319800162280E+001	-9.9105072E-001	-2.123577366221928E+000	2.1045730E-003	-9.9120587E-001	0
4.5107565E+002	8.703319799657038E+001	-9.9305677E-001	-2.201530476005713E+000	2.1862448E-003	-9.9320585E-001	0
4.3666754E+002	8.723319799151795E+001	-9.9506223E-001	-2.278763938163003E+000	2.2675120E-003	-9.9520594E-001	0
4.2272418E+002	8.743319798646553E+001	-9.9706817E-001	-2.358673091530127E+000	2.3517578E-003	-9.9720579E-001	0
4.0989301E+002	8.763319798141310E+001	-9.9909663E-001	-2.437457123919142E+000	2.4352551E-003	-9.9920583E-001	0
3.9722885E+002	8.783319797636068E+001	-1.0010524E+000	-2.520089850522360E+000	2.5227419E-003	-1.0012059E+000	0
3.8551169E+002	8.803319797130825E+001	-1.0030566E+000	-2.601883932339902E+000	2.6098369E-003	-1.0032059E+000	0
3.7433609E+002	8.823319796625583E+001	-1.0050538E+000	-2.684896769352655E+000	2.6984655E-003	-1.0052059E+000	0
3.6406952E+002	8.843319796120340E+001	-1.0070528E+000	-2.766100223710470E+000	2.7856089E-003	-1.0072058E+000	0
3.5392831E+002	8.863319795615098E+001	-1.0090675E+000	-2.851050688211473E+000	2.8769027E-003	-1.0092059E+000	0
3.4449402E+002	8.883319795109855E+001	-1.0110732E+000	-2.934951388089146E+000	2.9674508E-003	-1.0112058E+000	0
3.3524417E+002	8.903319794604613E+001	-1.0130707E+000	-3.021889126963103E+000	3.0613875E-003	-1.0132060E+000	0
3.2618536E+002	8.923319794099370E+001	-1.0150726E+000	-3.111950151808139E+000	3.1588553E-003	-1.0152059E+000	0
3.1749524E+002	8.943319793594128E+001	-1.0170709E+000	-3.203421020284793E+000	3.2581063E-003	-1.0172060E+000	0
3.0948956E+002	8.963319793088885E+001	-1.0190517E+000	-3.292684938800832E+000	3.3554160E-003	-1.0192059E+000	0
3.0175226E+002	8.983319792583643E+001	-1.0211091E+000	-3.383932063064602E+000	3.4553639E-003	-1.0212058E+000	0
2.9448233E+002	9.003319792078401E+001	-1.0231005E+000	-3.474233990961736E+000	3.5544906E-003	-1.0232058E+000	0
2.8748709E+002	9.023319791573158E+001	-1.0250909E+000	-3.565693797944903E+000	3.6551603E-003	-1.0252059E+000	0
2.8065118E+002	9.043319791067916E+001	-1.0270579E+000	-3.659552970406949E+000	3.7585727E-003	-1.0272058E+000	0
2.7419724E+002	9.063319790562673E+001	-1.0290890E+000	-3.753097372936281E+000	3.8622711E-003	-1.0292059E+000	0
2.6798438E+002	9.083319790057431E+001	-1.0310755E+000	-3.847520844161918E+000	3.9670845E-003	-1.0312059E+000	0
2.6193225E+002	9.103319789552188E+001	-1.0330675E+000	-3.944025528674226E+000	4.0744445E-003	-1.0332059E+000	0
2.5609555E+002	9.123319789046946E+001	-1.0351032E+000	-4.041863504180540E+000	4.1837459E-003	-1.0352058E+000	0
2.5031218E+002	9.143319788541703E+001	-1.0370753E+000	-4.143127449279202E+000	4.2967349E-003	-1.0372059E+000	0
2.4489169E+002	9.163319788036461E+001	-1.0390847E+000	-4.243037634628408E+000	4.4088755E-003	-1.0392059E+000	0
2.3964165E+002	9.183319787531218E+001	-1.0410860E+000	-4.344344959946966E+000	4.5228368E-003	-1.0412059E+000	0
2.3452301E+002	9.203319787025976E+001	-1.0430522E+000	-4.447547381325634E+000	4.6390239E-003	-1.0432059E+000	0
2.2951749E+002	9.223319786520733E+001	-1.0451058E+000	-4.553491018121193E+000	4.7588800E-003	-1.0452058E+000	0
2.2469858E+002	9.243319786015491E+001	-1.0471102E+000	-4.660066126459309E+000	4.8796027E-003	-1.0472059E+000	0
2.2008508E+002	9.263319785510248E+001	-1.0490782E+000	-4.766693919559174E+000	5.0006346E-003	-1.0492059E+000	0
2.1559120E+002	9.283319785005006E+001	-1.0511004E+000	-4.875432517016284E+000	5.1245689E-003	-1.0512059E+000	0
2.1123155E+002	9.303319784499763E+001	-1.0531156E+000	-4.985598074031516E+000	5.2504111E-003	-1.0532058E+000	0
2.0697362E+002	9.323319783994521E+001	-1.0550938E+000	-5.097720942090419E+000	5.3785737E-003	-1.0552058E+000	0
2.0281172E+002	9.343319783489278E+001	-1.0571170E+000	-5.212306942731615E+000	5.5100182E-003	-1.0572059E+000	0
1.9883170E+002	9.363319782984036E+001	-1.0590829E+000	-5.326529451136942E+000	5.6412360E-003	-1.0592059E+000	0
1.9495695E+002	9.383319782478793E+001	-1.0611043E+000	-5.442761755787060E+000	5.7753380E-003	-1.0612059E+000	0
1.9113531E+002	9.403319781973551E+001	-1.0630699E+000	-5.561871041212212E+000	5.9126578E-003	-1.0632060E+000	0
1.8742520E+002	9.423319781468308E+001	-1.0650705E+000	-5.682642867978721E+000	6.0524154E-003	-1.0652059E+000	0
1.8383083E+002	9.443319780963066E+001	-1.0671043E+000	-5.804817000011198E+000	6.1943452E-003	-1.0672059E+000	0
1.8030641E+002	9.463319780457823E+001	-1.0690721E+000	-5.929196581818843E+000	6.3387388E-003	-1.0692060E+000	0
1.7693930E+002	9.483319779952581E+001	-1.0710913E+000	-6.053439048344863E+000	6.4837858E-003	-1.0712060E+000	0
1.7362280E+002	9.503319779447338E+001	-1.0730873E+000	-6.180567014041657E+000	6.6322880E-003	-1.0732058E+000	0
1.7030045E+002	9.523319778942096E+001	-1.0750813E+000	-6.312850784822928E+000	6.7868279E-003	-1.0752059E+000	0
1.6716245E+002	9.543319778436853E+001	-1.0770737E+000	-6.443275255275708E+000	6.9398824E-003	-1.0772059E+000	0
1.6404767E+002	9.563319777931611E+001	-1.0790778E+000	-6.577831194717049E+000	7.0979916E-003	-1.0792060E+000	0
1.6098094E+002	9.583319777426368E+001	-1.0810875E+000	-6.715623677993307E+000	7.2601768E-003	-1.0812060E+000	0
1.5802580E+002	9.603319776921126E+001	-1.0830791E+000	-6.853811776016315E+000	7.4232202E-003	-1.0832058E+000	0
1.5507828E+002	9.623319776415883E+001	-1.0850728E+000	-6.996935672162635E+000	7.5921845E-003	-1.0852059E+000	0
1.5221916E+002	9.643319775910641E+001	-1.0870743E+000	-7.141507274236815E+000	7.7633490E-003	-1.0872060E+000	0
1.4942827E+002	9.663319775405398E+001	-1.0890764E+000	-7.288289069048107E+000	7.9375040E-003	-1.0892059E+000	0
1.4659384E+002	9.683319774900156E+001	-1.0911114E+000	-7.443091522336260E+000	8.1212418E-003	-1.0912060E+000	0
1.4383775E+002	9.703319774394913E+001	-1.0930974E+000	-7.599517271834969E+000	8.3070127E-003	-1.0932059E+000	0
1.4127908E+002	9.723319773889671E+001	-1.0951055E+000	-7.751363905919618E+000	8.4885610E-003	-1.0952058E+000	0
1.3865260E+002	9.743319773384428E+001	-1.0970830E+000	-7.912458826827880E+000	8.6806240E-003	-1.0972059E+000	0
1.3618851E+002	9.763319772879186E+001	-1.0990551E+000	-8.070101582138989E+000	8.8694859E-003	-1.0992060E+000	0
1.3368729E+002	9.783319772373943E+001	-1.1010605E+000	-8.236089881247665E+000	9.0684332E-003	-1.1012058E+000	0
1.3124722E+002	9.803319771868701E+001	-1.1031028E+000	-8.404770546556904E+000	9.2713255E-003	-1.1032059E+000	0
1.2893318E+002	9.823319771363458E+001	-1.1050739E+000	-8.570903838762092E+000	9.4714826E-003	-1.1052059E+000	0
1.2665216E+002	9.843319770858216E+001	-1.1070876E+000	-8.741166264156661E+000	9.6772369E-003	-1.1072060E+000	0
1.2437315E+002	9.863319770352973E+001	-1.1090940E+000	-8.917471985157398E+000	9.8903151E-003	-1.1092060E+000	0
1.2214275E+002	9.883319769847731E+001	-1.1111249E+000	-9.096936377876176E+000	1.0107832E-002	-1.1112058E+000	0
1.1996661E+002	9.903319769342488E+001	-1.1131046E+000	-9.278453799264460E+000	1.0327890E-002	-1.1132058E+000	0
1.1782030E+002	9.923319768837246E+001	-1.1151034E+000	-9.464441595501938E+000	1.0553830E-002	-1.1152059E+000	0
1.1570018E+002	9.943319768332003E+001	-1.1170888E+000	-9.655031001283973E+000	1.0785527E-002	-1.1172059E+000	0
1.1347865E+002	9.963319767826761E+001	-1.1190732E+000	-9.861531075841967E+000	1.1035775E-002	-1.1192060E+000	0
1.1157992E+002	9.983319767321518E+001	-1.1210877E+000	-1.004739656997105E+001	1.1264012E-002	-1.1212059E+000	0
1.0958380E+002	1.000331976681628E+002	-1.1230644E+000	-1.024845289035181E+001	1.1509673E-002	-1.1232059E+000	0
1.0766269E+002	1.002331976631103E+002	-1.1251264E+000	-1.045047647497553E+001	1.1758107E-002	-1.1252059E+000	0
1.0576979E+002	1.004331976580579E+002	-1.1271055E+000	-1.065621388147738E+001	1.2010677E-002	-1.1272060E+000	0
1.0356610E+002	1.006431976527529E+002	-1.1291828E+000	-1.090301545669840E+001	1.2311498E-002	-1.1293060E+000	0
1.0143107E+002	1.008531976474478E+002	-1.1312500E+000	-1.115289445947897E+001	1.2616712E-002	-1.1314058E+000	0
9.9615700E+001	1.010531976423954E+002	-1.1332766E+000	-1.137648525455643E+001	1.2892704E-002	-1.1334058E+000	0
9.7842621E+001	1.012531976373430E+002	-1.1352885E+000	-1.160321031858857E+001	1.3172991E-002	-1.1354059E+000	0
9.6165459E+001	1.014531976322905E+002	-1.1372651E+000	-1.182612819966276E+001	1.3449443E-002	-1.1374059E+000	0
9.4596573E+001	1.016531976272381E+002	-1.1392742E+000	-1.204350427806787E+001	1.3720854E-002	-1.1394058E+000	0
9.2787277E+001	1.018531976221857E+002	-1.1412476E+000	-1.229961321967531E+001	1.4036904E-002	-1.1414059E+000	0
9.1116035E+001	1.020531976171333E+002	-1.1432905E+000	-1.254763257922497E+001	1.4345589E-002	-1.1434059E+000	0
8.9394409E+001	1.022531976120808E+002	-1.1452737E+000	-1.281146872057133E+001	1.4672638E-002	-1.1454059E+000	0
8.7805229E+001	1.024531976070284E+002	-1.1472896E+000	-1.306630233085614E+001	1.4990834E-002	-1.1474060E+000	0
8.6250732E+001	1.026531976019760E+002	-1.1492809E+000	-1.332488320230627E+001	1.5314034E-002	-1.1494060E+000	0
8.4694275E+001	1.028531975969236E+002	-1.1512995E+000	-1.359359298595763E+001	1.5650297E-002	-1.1514059E+000	0
8.3196075E+001	1.030531975918711E+002	-1.1533084E+000	-1.386253316521373E+001	1.5987776E-002	-1.1534059E+000	0
8.1688087E+001	1.032531975868187E+002	-1.1552644E+000	-1.414238550333213E+001	1.6338194E-002	-1.1554059E+000	0
8.0237236E+001	1.034531975817663E+002	-1.1572572E+000	-1.442294473794038E+001	1.6691057E-002	-1.1574060E+000	0
7.8813454E+001	1.036531975767139E+002	-1.1592215E+000	-1.470842159240422E+001	1.7050318E-002	-1.1594059E+000	0
7.7480934E+001	1.038531975716614E+002	-1.1612709E+000	-1.498782682810779E+001	1.7404927E-002	-1.1614059E+000	0
7.6054718E+001	1.040531975666090E+002	-1.1632540E+000	-1.529496175077769E+001	1.7791925E-002	-1.1634059E+000	0
7.4703629E+001	1.042531975615566E+002	-1.1652288E+000	-1.559802196747586E+001	1.8175265E-002	-1.1654059E+000	0
7.3341408E+001	1.044531975565042E+002	-1.1672330E+000	-1.591506052382135E+001	1.8576583E-002	-1.1674060E+000	0
7.2033821E+001	1.046531975514517E+002	-1.1692833E+000	-1.623242014403245E+001	1.8980298E-002	-1.1694059E+000	0
7.0736938E+001	1.048531975463993E+002	-1.1712749E+000	-1.655817832211514E+001	1.9394178E-002	-1.1714059E+000	0
6.9512573E+001	1.050531975413469E+002	-1.1732843E+000	-1.687873399122509E+001	1.9803554E-002	-1.1734059E+000	0
6.8372467E+001	1.052531975362945E+002	-1.1752687E+000	-1.718920948662191E+001	2.0201938E-002	-1.1754060E+000	0
6.7092293E+001	1.054531975312420E+002	-1.1772746E+000	-1.754709091775806E+001	2.0657744E-002	-1.1774060E+000	0
6.5740852E+001	1.056531975261896E+002	-1.1792421E+000	-1.793773628538167E+001	2.1152934E-002	-1.1794059E+000	0
6.4559700E+001	1.058531975211372E+002	-1.1812819E+000	-1.829751199173007E+001	2.1614520E-002	-1.1814059E+000	0
6.3382629E+001	1.060531975160848E+002	-1.1832788E+000	-1.866881890023905E+001	2.2090418E-002	-1.1834058E+000	0
6.2230782E+001	1.062531975110323E+002	-1.1852729E+000	-1.904640929958441E+001	2.2575194E-002	-1.1854059E+000	0
6.1084938E+001	1.064531975059799E+002	-1.1872979E+000	-1.943683585098808E+001	2.3077315E-002	-1.1874059E+000	0
5.9933838E+001	1.066531975009275E+002	-1.1892865E+000	-1.984332288298208E+001	2.3599396E-002	-1.1894059E+000	0
5.8789066E+001	1.068531974958751E+002	-1.1912851E+000	-2.026371911080241E+001	2.4139868E-002	-1.1914059E+000	0
5.7714706E+001	1.070531974908226E+002	-1.1932991E+000	-2.067582281227820E+001	2.4672439E-002	-1.1934059E+000	0
5.6649323E+001	1.072531974857702E+002	-1.1953471E+000	-2.110081889042775E+001	2.5222803E-002	-1.1954060E+000	0
5.5641132E+001	1.074531974807178E+002	-1.1973224E+000	-2.151865546962836E+001	2.5764767E-002	-1.1974059E+000	0
5.4663990E+001	1.076531974756654E+002	-1.1993257E+000	-2.193995807230340E+001	2.6313156E-002	-1.1994058E+000	0
5.3673420E+001	1.078531974706129E+002	-1.2013237E+000	-2.238209796424894E+001	2.6888145E-002	-1.2014059E+000	0
5.2685314E+001	1.080531974655605E+002	-1.2033365E+000	-2.284007480760820E+001	2.7484296E-002	-1.2034059E+000	0
5.1707375E+001	1.082531974605081E+002	-1.2053152E+000	-2.331031516322753E+001	2.8096277E-002	-1.2054058E+000	0
5.0652840E+001	1.084531974554557E+002	-1.2073298E+000	-2.383538201241808E+001	2.8777165E-002	-1.2074059E+000	0
4.9669559E+001	1.086531974504032E+002	-1.2093031E+000	-2.434696740155312E+001	2.9442864E-002	-1.2094059E+000	0
4.8751335E+001	1.088531974453508E+002	-1.2113203E+000	-2.484691434544498E+001	3.0097572E-002	-1.2114059E+000	0
4.7918896E+001	1.090531974402984E+002	-1.2133117E+000	-2.532010963930827E+001	3.0721184E-002	-1.2134058E+000	0
4.7052010E+001	1.092531974352460E+002	-1.2153184E+000	-2.582925601232626E+001	3.1390771E-002	-1.2154059E+000	0
4.6171619E+001	1.094531974301935E+002	-1.2173352E+000	-2.636544378517434E+001	3.2095585E-002	-1.2174059E+000	0
4.5295994E+001	1.096531974251411E+002	-1.2193431E+000	-2.691944615289452E+001	3.2824039E-002	-1.2194059E+000	0
4.4582230E+001	1.098531974200887E+002	-1.2213283E+000	-2.739495681364794E+001	3.3458237E-002	-1.2214059E+000	0
4.3769489E+001	1.100531974150363E+002	-1.2233694E+000	-2.795027667892225E+001	3.4193512E-002	-1.2234058E+000	0
4.3029011E+001	1.102531974099838E+002	-1.2253190E+000	-2.847657870029917E+001	3.4892894E-002	-1.2254059E+000	0
4.2297249E+001	1.104531974049314E+002	-1.2273182E+000	-2.901650127640107E+001	3.5612479E-002	-1.2274059E+000	0
4.1460236E+001	1.106531973998790E+002	-1.2293214E+000	-2.965061222371608E+001	3.6450133E-002	-1.2294059E+000	0
4.0700901E+001	1.108531973948266E+002	-1.2313341E+000	-3.025323982384731E+001	3.7251845E-002	-1.2314060E+000	0
3.9877750E+001	1.110531973897741E+002	-1.2333272E+000	-3.092770074878956E+001	3.8143974E-002	-1.2334058E+000	0
3.9242691E+001	1.112531973847217E+002	-1.2353432E+000	-3.147957351445598E+001	3.8888078E-002	-1.2354059E+000	0
3.8720066E+001	1.114531973796693E+002	-1.2373224E+000	-3.195558635204566E+001	3.9539363E-002	-1.2374059E+000	0
3.7830753E+001	1.116531973746169E+002	-1.2393366E+000	-3.276002929756694E+001	4.0600702E-002	-1.2394059E+000	0
3.7170506E+001	1.118531973695644E+002	-1.2413324E+000	-3.339563047156037E+001	4.1455079E-002	-1.2414058E+000	0
3.6566093E+001	1.120531973645120E+002	-1.2433282E+000	-3.400221579415455E+001	4.2275913E-002	-1.2434059E+000	0
3.5981792E+001	1.122531973594596E+002	-1.2453228E+000	-3.460980478381896E+001	4.3100379E-002	-1.2454059E+000	0
3.5315380E+001	1.124531973544072E+002	-1.2473567E+000	-3.532049253522138E+001	4.4057250E-002	-1.2474060E+000	0
3.4602448E+001	1.126531973493547E+002	-1.2493416E+000	-3.610558336392006E+001	4.5108207E-002	-1.2494060E+000	0
3.4026108E+001	1.128531973443023E+002	-1.2513244E+000	-3.677542163995918E+001	4.6017982E-002	-1.2514058E+000	0
3.3479950E+001	1.130531973392499E+002	-1.2533051E+000	-3.743449811302895E+001	4.6916846E-002	-1.2534058E+000	0
3.2996799E+001	1.132531973341975E+002	-1.2553434E+000	-3.804439999105693E+001	4.7758788E-002	-1.2554060E+000	0
3.2534164E+001	1.134531973291450E+002	-1.2573394E+000	-3.864674057252267E+001	4.8592068E-002	-1.2574060E+000	0
3.1913977E+001	1.136531973240926E+002	-1.2593504E+000	-3.946078010156828E+001	4.9694952E-002	-1.2594060E+000	0
3.1341099E+001	1.138531973190402E+002	-1.2613105E+000	-4.024461481819890E+001	5.0760955E-002	-1.2614059E+000	0
3.0650818E+001	1.140531973139878E+002	-1.2633535E+000	-4.121760918683206E+001	5.2072410E-002	-1.2634059E+000	0
3.0221895E+001	1.142531973089353E+002	-1.2653123E+000	-4.186740585762908E+001	5.2975345E-002	-1.2654060E+000	0
2.9868031E+001	1.144531973038829E+002	-1.2673025E+000	-4.243006538479787E+001	5.3771727E-002	-1.2674060E+000	0
2.9359776E+001	1.146531972988305E+002	-1.2693292E+000	-4.323361250413527E+001	5.4877687E-002	-1.2694060E+000	0
2.8861963E+001	1.148531972937781E+002	-1.2713876E+000	-4.405062615952534E+001	5.6005418E-002	-1.2714059E+000	0
2.8240301E+001	1.150531972887256E+002	-1.2733679E+000	-4.509045108132352E+001	5.7416733E-002	-1.2734059E+000	0
2.7775908E+001	1.152531972836732E+002	-1.2753288E+000	-4.591492774805516E+001	5.8556627E-002	-1.2754059E+000	0
2.7416538E+001	1.154531972786208E+002	-1.2773240E+000	-4.658954353181150E+001	5.9509940E-002	-1.2774060E+000	0
2.6940687E+001	1.156531972735684E+002	-1.2793291E+000	-4.748687730732952E+001	6.0751341E-002	-1.2794058E+000	0
2.6442886E+001	1.158531972685159E+002	-1.2813119E+000	-4.845582352473889E+001	6.2087022E-002	-1.2814058E+000	0
2.5956684E+001	1.160531972634635E+002	-1.2833641E+000	-4.944252715143210E+001	6.3452765E-002	-1.2834059E+000	0
2.5461510E+001	1.162531972584111E+002	-1.2853347E+000	-5.048148171485389E+001	6.4885601E-002	-1.2854059E+000	0
2.5112154E+001	1.164531972533587E+002	-1.2873259E+000	-5.126305899436238E+001	6.5992258E-002	-1.2874060E+000	0
2.4801003E+001	1.166531972483062E+002	-1.2892959E+000	-5.198563521789606E+001	6.7024864E-002	-1.2894059E+000	0
2.4431366E+001	1.168531972432538E+002	-1.2913202E+000	-5.285501479670008E+001	6.8252750E-002	-1.2914059E+000	0
2.3968773E+001	1.170531972382014E+002	-1.2933252E+000	-5.395875595648533E+001	6.9786221E-002	-1.2934059E+000	0
2.3514736E+001	1.172531972331490E+002	-1.2953428E+000	-5.508642518385210E+001	7.1355805E-002	-1.2954059E+000	0
2.3211987E+001	1.174531972280965E+002	-1.2973515E+000	-5.589144750138803E+001	7.2510853E-002	-1.2974060E+000	0
2.2852901E+001	1.176531972230441E+002	-1.2993314E+000	-5.685630246787389E+001	7.3875181E-002	-1.2994059E+000	0
2.2444315E+001	1.178531972179917E+002	-1.3013588E+000	-5.798166787597336E+001	7.5454958E-002	-1.3014059E+000	0
2.2133854E+001	1.180531972129393E+002	-1.3033243E+000	-5.888375049113128E+001	7.6744623E-002	-1.3034059E+000	0
2.1785400E+001	1.182531972078868E+002	-1.3053262E+000	-5.991747620370649E+001	7.8211851E-002	-1.3054060E+000	0
2.1496874E+001	1.184531972028344E+002	-1.3073370E+000	-6.081521558383167E+001	7.9505987E-002	-1.3074059E+000	0
2.1205732E+001	1.186531971977820E+002	-1.3093303E+000	-6.174417165780011E+001	8.0843516E-002	-1.3094059E+000	0
2.0822170E+001	1.188531971927296E+002	-1.3113669E+000	-6.297935718689928E+001	8.2589045E-002	-1.3114059E+000	0
2.0463242E+001	1.190531971876771E+002	-1.3133477E+000	-6.418082273411915E+001	8.4291734E-002	-1.3134059E+000	0
2.0241821E+001	1.192531971826247E+002	-1.3153607E+000	-6.498233068178575E+001	8.5475199E-002	-1.3154060E+000	0
2.0020544E+001	1.194531971775723E+002	-1.3173817E+000	-6.580149612729497E+001	8.6685687E-002	-1.3174059E+000	0
1.9821302E+001	1.196531971725199E+002	-1.3193482E+000	-6.656213476003688E+001	8.7818630E-002	-1.3194059E+000	0
1.9581221E+001	1.198531971674674E+002	-1.3213437E+000	-6.748014901122247E+001	8.9164466E-002	-1.3214059E+000	0
1.9222361E+001	1.200531971624150E+002	-1.3233967E+000	-6.884672733823754E+001	9.1111533E-002	-1.3234060E+000	0
1.8978537E+001	1.202531971573626E+002	-1.3253655E+000	-6.983496857554468E+001	9.2556864E-002	-1.3254060E+000	0
1.8831484E+001	1.204531971523102E+002	-1.3273875E+000	-7.048767085518692E+001	9.3564451E-002	-1.3274060E+000	0
1.8538393E+001	1.206531971472577E+002	-1.3293740E+000	-7.170923065706711E+001	9.5328383E-002	-1.3294059E+000	0
1.8323381E+001	1.208531971422053E+002	-1.3313609E+000	-7.265912803500703E+001	9.6735522E-002	-1.3314059E+000	0
1.8010248E+001	1.210531971371529E+002	-1.3333389E+000	-7.403222796003286E+001	9.8710045E-002	-1.3334059E+000	0
1.7687920E+001	1.212531971321005E+002	-1.3353611E+000	-7.549566126410423E+001	1.0081397E-001	-1.3354059E+000	0
1.7499752E+001	1.214531971270480E+002	-1.3373626E+000	-7.642180777623264E+001	1.0220367E-001	-1.3374059E+000	0
1.7350664E+001	1.216531971219956E+002	-1.3393017E+000	-7.719022894608452E+001	1.0338101E-001	-1.3394059E+000	0
1.7120916E+001	1.218531971169432E+002	-1.3413537E+000	-7.834590377883319E+001	1.0508957E-001	-1.3414059E+000	0
1.6841619E+001	1.220531971118908E+002	-1.3433419E+000	-7.976323145208994E+001	1.0714930E-001	-1.3434058E+000	0
1.6609900E+001	1.222531971068383E+002	-1.3453543E+000	-8.099713802824175E+001	1.0896985E-001	-1.3454059E+000	0
1.6342777E+001	1.224531971017859E+002	-1.3473470E+000	-8.244296224857948E+001	1.1107928E-001	-1.3474059E+000	0
1.6152912E+001	1.226531970967335E+002	-1.3493527E+000	-8.353619316321641E+001	1.1271979E-001	-1.3494059E+000	0
1.6084021E+001	1.228531970916811E+002	-1.3513397E+000	-8.401752650710728E+001	1.1353622E-001	-1.3514060E+000	0
1.5800873E+001	1.230531970866286E+002	-1.3533175E+000	-8.564827667234158E+001	1.1590931E-001	-1.3534058E+000	0
1.5528666E+001	1.232531970815762E+002	-1.3553317E+000	-8.727933313030223E+001	1.1829244E-001	-1.3554059E+000	0
1.5397359E+001	1.234531970765238E+002	-1.3573174E+000	-8.815261734423996E+001	1.1965109E-001	-1.3574059E+000	0
1.5184376E+001	1.236531970714714E+002	-1.3593575E+000	-8.952343454977290E+001	1.2169435E-001	-1.3594059E+000	0
1.4977264E+001	1.238531970664189E+002	-1.3613539E+000	-9.089469609292973E+001	1.2373985E-001	-1.3614058E+000	0
1.4749673E+001	1.240531970613665E+002	-1.3633711E+000	-9.243399364283323E+001	1.2602183E-001	-1.3634058E+000	0
1.4469904E+001	1.242531970563141E+002	-1.3653485E+000	-9.435780844018063E+001	1.2883128E-001	-1.3654059E+000	0
1.4332052E+001	1.244531970512617E+002	-1.3673426E+000	-9.540451891460106E+001	1.3045067E-001	-1.3674059E+000	0
1.4277761E+001	1.246531970462092E+002	-1.3693733E+000	-9.590953378882750E+001	1.3133596E-001	-1.3694059E+000	0
1.4115334E+001	1.248531970411568E+002	-1.3713546E+000	-9.715353494382487E+001	1.3323194E-001	-1.3714058E+000	0
1.3862447E+001	1.250531970361044E+002	-1.3733691E+000	-9.907118778596396E+001	1.3606131E-001	-1.3734059E+000	0
1.3741988E+001	1.252531970310520E+002	-1.3753905E+000	-1.000867172536399E+002	1.3765833E-001	-1.3754059E+000	0
1.3459123E+001	1.254531970259995E+002	-1.3773617E+000	-1.023366624925144E+002	1.4095460E-001	-1.3774059E+000	0
1.3319652E+001	1.256531970209471E+002	-1.3793685E+000	-1.035589049711247E+002	1.4284590E-001	-1.3794060E+000	0
1.3230506E+001	1.258531970158947E+002	-1.3813325E+000	-1.044051148388661E+002	1.4421818E-001	-1.3814059E+000	0
1.2954543E+001	1.260531970108423E+002	-1.3833815E+000	-1.067873634383791E+002	1.4772767E-001	-1.3834059E+000	0
1.2808277E+001	1.262531970057898E+002	-1.3853567E+000	-1.081610468542224E+002	1.4984162E-001	-1.3854059E+000	0
1.2531091E+001	1.264631970004848E+002	-1.3874334E+000	-1.107192889291412E+002	1.5361564E-001	-1.3875060E+000	0
1.2402562E+001	1.266731969951798E+002	-1.3895351E+000	-1.120361333401568E+002	1.5567814E-001	-1.3896059E+000	0
1.2263892E+001	1.268731969901273E+002	-1.3915220E+000	-1.134649646860670E+002	1.5788899E-001	-1.3916059E+000	0
1.2070576E+001	1.270731969850749E+002	-1.3935287E+000	-1.154484036514817E+002	1.6088067E-001	-1.3936059E+000	0
1.1931909E+001	1.272731969800225E+002	-1.3955553E+000	-1.169599355126725E+002	1.6322406E-001	-1.3956059E+000	0
1.1803165E+001	1.274731969749701E+002	-1.3975489E+000	-1.184045845840526E+002	1.6547620E-001	-1.3976059E+000	0
1.1645821E+001	1.276734969699100E+002	-1.3995637E+000	-1.201773309664231E+002	1.6819583E-001	-1.3996081E+000	0
1.1493781E+001	1.278738969648475E+002	-1.4015671E+000	-1.219413428598746E+002	1.7090897E-001	-1.4016128E+000	0
1.1390990E+001	1.280740969597900E+002	-1.4035493E+000	-1.232157392072459E+002	1.7293936E-001	-1.4036148E+000	0
1.1294371E+001	1.282744969547275E+002	-1.4055332E+000	-1.244454682997869E+002	1.7491223E-001	-1.4056182E+000	0
1.1143411E+001	1.284752969496549E+002	-1.4075568E+000	-1.263129194726415E+002	1.7779261E-001	-1.4076260E+000	0
1.1039319E+001	1.286758969445873E+002	-1.4095670E+000	-1.276860453070244E+002	1.7998204E-001	-1.4096322E+000	0
1.0989651E+001	1.288763969395222E+002	-1.4115775E+000	-1.284460764811331E+002	1.8131159E-001	-1.4116374E+000	0
1.0830934E+001	1.290768969344572E+002	-1.4136086E+000	-1.305158560377674E+002	1.8449832E-001	-1.4136423E+000	0
1.0676887E+001	1.292775969293871E+002	-1.4156064E+000	-1.325860634456526E+002	1.8768968E-001	-1.4156493E+000	0
1.0468623E+001	1.294778969243271E+002	-1.4175800E+000	-1.354122631490902E+002	1.9195771E-001	-1.4176527E+000	0
1.0373374E+001	1.296779969192721E+002	-1.4196172E+000	-1.368520254158921E+002	1.9427748E-001	-1.4196540E+000	0
1.0356868E+001	1.298779969142197E+002	-1.4215961E+000	-1.372611987477258E+002	1.9512998E-001	-1.4216539E+000	0
1.0267257E+001	1.300779969091673E+002	-1.4236120E+000	-1.386555362645186E+002	1.9739169E-001	-1.4236540E+000	0
1.0175724E+001	1.302781969041098E+002	-1.4256003E+000	-1.400981710968922E+002	1.9972399E-001	-1.4256555E+000	0
1.0044739E+001	1.304785968990473E+002	-1.4276050E+000	-1.421246512433790E+002	2.0289786E-001	-1.4276599E+000	0
9.8754568E+000	1.306785968939948E+002	-1.4296304E+000	-1.447660046261723E+002	2.0696189E-001	-1.4296600E+000	0
9.7207747E+000	1.308787968889374E+002	-1.4315832E+000	-1.472704885417056E+002	2.1082996E-001	-1.4316615E+000	0
9.5444546E+000	1.310792968838723E+002	-1.4336300E+000	-1.502055375221690E+002	2.1533917E-001	-1.4336661E+000	0
9.4422045E+000	1.312798968788047E+002	-1.4356155E+000	-1.520424084364445E+002	2.1827444E-001	-1.4356723E+000	0
9.3632832E+000	1.314803968737397E+002	-1.4376097E+000	-1.535369238672988E+002	2.2072616E-001	-1.4376775E+000	0
9.3444452E+000	1.316809968686721E+002	-1.4396349E+000	-1.540631726893396E+002	2.2179472E-001	-1.4396833E+000	0
9.3121958E+000	1.318812968636121E+002	-1.4416367E+000	-1.548116774069956E+002	2.2318219E-001	-1.4416869E+000	0
9.1765585E+000	1.320816968585495E+002	-1.4436121E+000	-1.573151893604306E+002	2.2710212E-001	-1.4436902E+000	0
9.1120148E+000	1.322821968534845E+002	-1.4456367E+000	-1.586517187839640E+002	2.2935276E-001	-1.4456954E+000	0
8.9647131E+000	1.324823968484270E+002	-1.4476663E+000	-1.614849501240001E+002	2.3377632E-001	-1.4476980E+000	0
8.8625202E+000	1.326826968433670E+002	-1.4496512E+000	-1.635709962141646E+002	2.3712090E-001	-1.4497005E+000	0
8.7278500E+000	1.328828968383095E+002	-1.4517058E+000	-1.663302930948513E+002	2.4146265E-001	-1.4517027E+000	0
8.7118998E+000	1.330829968332546E+002	-1.4536874E+000	-1.668622741028833E+002	2.4256559E-001	-1.4537039E+000	0
8.6565094E+000	1.332830968281996E+002	-1.4556712E+000	-1.681591484576643E+002	2.4478443E-001	-1.4557047E+000	0
8.5671301E+000	1.334835968231346E+002	-1.4576851E+000	-1.701485933111999E+002	2.4802308E-001	-1.4577093E+000	0
8.3013582E+000	1.336839968180720E+002	-1.4596736E+000	-1.758355128813982E+002	2.5666246E-001	-1.4597133E+000	0
8.2158918E+000	1.338842968130120E+002	-1.4616845E+000	-1.779094035319849E+002	2.6004741E-001	-1.4617168E+000	0
8.1738806E+000	1.340845968079520E+002	-1.4637098E+000	-1.790715969919975E+002	2.6210886E-001	-1.4637195E+000	0
8.0875759E+000	1.342852968028819E+002	-1.4657078E+000	-1.812295474517532E+002	2.6562956E-001	-1.4657263E+000	0
7.9759307E+000	1.344858967978143E+002	-1.4676992E+000	-1.840160354062668E+002	2.7008018E-001	-1.4677321E+000	0
7.9608183E+000	1.346862967927518E+002	-1.4697092E+000	-1.846178502653875E+002	2.7133456E-001	-1.4697369E+000	0
7.9018312E+000	1.348867967876868E+002	-1.4716965E+000	-1.862475238463790E+002	2.7409983E-001	-1.4717413E+000	0
7.7652578E+000	1.350869967826293E+002	-1.4737190E+000	-1.897836503204030E+002	2.7968776E-001	-1.4737440E+000	0
7.6744637E+000	1.352869967775769E+002	-1.4757303E+000	-1.922909940570385E+002	2.8376964E-001	-1.4757439E+000	0
7.6772227E+000	1.354869967725244E+002	-1.4777507E+000	-1.924850534378756E+002	2.8444493E-001	-1.4777439E+000	0
7.5985556E+000	1.356870967674695E+002	-1.4797043E+000	-1.947349381840166E+002	2.8815013E-001	-1.4797447E+000	0
7.5078773E+000	1.358874967624070E+002	-1.4817443E+000	-1.973586127062554E+002	2.9243499E-001	-1.4817486E+000	0
7.4943266E+000	1.360876967573495E+002	-1.4837915E+000	-1.979886353249315E+002	2.9377386E-001	-1.4837507E+000	0
7.4488821E+000	1.362881967522844E+002	-1.4857690E+000	-1.994620098427145E+002	2.9635447E-001	-1.4857556E+000	0
7.2235184E+000	1.364885967472219E+002	-1.4877378E+000	-2.059574960240325E+002	3.0641076E-001	-1.4877594E+000	0
7.1623774E+000	1.366888967421619E+002	-1.4897395E+000	-2.079951154992170E+002	3.0985856E-001	-1.4897627E+000	0
7.1806860E+000	1.368889967371069E+002	-1.4917455E+000	-2.077441495648859E+002	3.0990139E-001	-1.4917638E+000	0
7.0818472E+000	1.370890967320520E+002	-1.4937450E+000	-2.109258903683633E+002	3.1506950E-001	-1.4937646E+000	0
7.0254145E+000	1.372892967269945E+002	-1.4957684E+000	-2.129082133901575E+002	3.1846139E-001	-1.4957668E+000	0
6.8678365E+000	1.374895967219345E+002	-1.4977493E+000	-2.180816835361134E+002	3.2663170E-001	-1.4977695E+000	0
6.7672477E+000	1.376898967168745E+002	-1.4997511E+000	-2.216190574422071E+002	3.3237341E-001	-1.4997728E+000	0
6.7370243E+000	1.378901967118145E+002	-1.5017883E+000	-2.229156677171072E+002	3.3477214E-001	-1.5017754E+000	0
6.7164021E+000	1.380903967067570E+002	-1.5037737E+000	-2.238957196882257E+002	3.3668849E-001	-1.5037780E+000	0
6.6919985E+000	1.382903967017046E+002	-1.5057828E+000	-2.250124255545829E+002	3.3881986E-001	-1.5057778E+000	0
6.6843390E+000	1.384904966966496E+002	-1.5077929E+000	-2.255709897451384E+002	3.4011436E-001	-1.5077786E+000	0
6.5788145E+000	1.386906966915922E+002	-1.5097765E+000	-2.294906522885276E+002	3.4647959E-001	-1.5097806E+000	0
6.5676832E+000	1.388908966865347E+002	-1.5117947E+000	-2.301869141683915E+002	3.4799534E-001	-1.5117828E+000	0
6.5175924E+000	1.390911966814747E+002	-1.5137888E+000	-2.322619558081788E+002	3.5159555E-001	-1.5137852E+000	0
6.5448356E+000	1.392916966764096E+002	-1.5157961E+000	-2.316018549896198E+002	3.5106120E-001	-1.5157906E+000	0
6.4619050E+000	1.394918966713522E+002	-1.5178263E+000	-2.348883657882743E+002	3.5651973E-001	-1.5177927E+000	0
6.3561459E+000	1.396921966662921E+002	-1.5197426E+000	-2.390981390001984E+002	3.6336762E-001	-1.5197958E+000	0
6.2953262E+000	1.398921966612397E+002	-1.5217930E+000	-2.417337831812922E+002	3.6786878E-001	-1.5217956E+000	0
6.2713857E+000	1.400921966561873E+002	-1.5237952E+000	-2.429758544108772E+002	3.7024546E-001	-1.5237957E+000	0
6.1761088E+000	1.402921966511349E+002	-1.5257982E+000	-2.470484663645429E+002	3.7694609E-001	-1.5257957E+000	0
6.1319947E+000	1.404921966460824E+002	-1.5277930E+000	-2.491510689209927E+002	3.8065127E-001	-1.5277957E+000	0
6.1399074E+000	1.406921966410300E+002	-1.5298426E+000	-2.491638015933044E+002	3.8118139E-001	-1.5297958E+000	0
6.0389929E+000	1.408921966359776E+002	-1.5317736E+000	-2.536471904508107E+002	3.8853008E-001	-1.5317957E+000	0
5.9502254E+000	1.410921966309252E+002	-1.5338197E+000	-2.577750589842153E+002	3.9538047E-001	-1.5337957E+000	0
5.9975324E+000	1.412921966258727E+002	-1.5358177E+000	-2.560749457547449E+002	3.9328444E-001	-1.5357958E+000	0
5.9451451E+000	1.414921966208203E+002	-1.5378740E+000	-2.586772721132729E+002	3.9781305E-001	-1.5377957E+000	0
5.7732759E+000	1.416921966157679E+002	-1.5398310E+000	-2.667170345561563E+002	4.1069916E-001	-1.5397958E+000	0
5.6716404E+000	1.418921966107155E+002	-1.5418168E+000	-2.718467146879957E+002	4.1913784E-001	-1.5417956E+000	0
5.6743360E+000	1.420921966056630E+002	-1.5438775E+000	-2.720807395576076E+002	4.2005932E-001	-1.5437957E+000	0
5.7301865E+000	1.422921966006106E+002	-1.5458632E+000	-2.697753694884641E+002	4.1703579E-001	-1.5457958E+000	0
5.7438860E+000	1.424921965955582E+002	-1.5478487E+000	-2.694776065873980E+002	4.1711056E-001	-1.5477957E+000	0
5.6491742E+000	1.426921965905058E+002	-1.5498532E+000	-2.743503968418318E+002	4.2520285E-001	-1.5497957E+000	0
5.5129981E+000	1.428921965854533E+002	-1.5518059E+000	-2.814812888644997E+002	4.3680432E-001	-1.5517956E+000	0
5.5723681E+000	1.430921965804009E+002	-1.5538070E+000	-2.788414097740542E+002	4.3326575E-001	-1.5537957E+000	0
5.5503840E+000	1.432921965753485E+002	-1.5558175E+000	-2.803080695837798E+002	4.3610820E-001	-1.5557956E+000	0
5.5335498E+000	1.434921965702961E+002	-1.5578053E+000	-2.815200770825754E+002	4.3855348E-001	-1.5577956E+000	0
5.5086923E+000	1.436921965652436E+002	-1.5598652E+000	-2.831643342323041E+002	4.4169819E-001	-1.5597957E+000	0
5.4493313E+000	1.438921965601912E+002	-1.5618215E+000	-2.866079183457387E+002	4.4763041E-001	-1.5617956E+000	0
5.3913689E+000	1.440921965551388E+002	-1.5638162E+000	-2.900592046703050E+002	4.5359927E-001	-1.5637957E+000	0
5.3760691E+000	1.442921965500864E+002	-1.5658400E+000	-2.912611422225184E+002	4.5606834E-001	-1.5657958E+000	0
5.1917033E+000	1.444921965450339E+002	-1.5678377E+000	-3.019890723693393E+002	4.7346985E-001	-1.5677959E+000	0
5.1872559E+000	1.446921965399815E+002	-1.5698667E+000	-3.026391367014844E+002	4.7510308E-001	-1.5697957E+000	0
5.2196078E+000	1.448921965349291E+002	-1.5718384E+000	-3.011410770697385E+002	4.7334510E-001	-1.5717957E+000	0
5.1876121E+000	1.450921965298767E+002	-1.5738038E+000	-3.033773180903220E+002	4.7745636E-001	-1.5737957E+000	0
5.1760850E+000	1.452921965248242E+002	-1.5758158E+000	-3.044416400364471E+002	4.7974396E-001	-1.5757958E+000	0
5.1053843E+000	1.454921965197718E+002	-1.5780675E+000	-3.090986705702185E+002	4.8777857E-001	-1.5777959E+000	0
5.0654764E+000	1.456921965147194E+002	-1.5803125E+000	-3.119770554566330E+002	4.9302125E-001	-1.5797957E+000	0
5.0201316E+000	1.458921965096670E+002	-1.5823007E+000	-3.151910735517408E+002	4.9872705E-001	-1.5817957E+000	0
4.9407949E+000	1.460921965046145E+002	-1.5842901E+000	-3.206549025511786E+002	5.0801039E-001	-1.5837957E+000	0
4.8985653E+000	1.462921964995621E+002	-1.5863041E+000	-3.238303445742522E+002	5.1369339E-001	-1.5857958E+000	0
4.9026799E+000	1.464921964945097E+002	-1.5882858E+000	-3.239627687276895E+002	5.1454544E-001	-1.5877959E+000	0
4.9082484E+000	1.466921964894573E+002	-1.5902956E+000	-3.240046937319694E+002	5.1526320E-001	-1.5897957E+000	0
4.8925953E+000	1.468921964844048E+002	-1.5923122E+000	-3.254534926446922E+002	5.1822358E-001	-1.5917958E+000	0
4.7946148E+000	1.470921964793524E+002	-1.5943532E+000	-3.325299957495970E+002	5.3017026E-001	-1.5937958E+000	0
4.8013806E+000	1.472921964743000E+002	-1.5962704E+000	-3.324607186868898E+002	5.3069723E-001	-1.5957958E+000	0
4.7013121E+000	1.474921964692476E+002	-1.5983500E+000	-3.399795813679418E+002	5.4340637E-001	-1.5977958E+000	0
4.6651917E+000	1.476921964641951E+002	-1.6003431E+000	-3.430390973123572E+002	5.4898024E-001	-1.5997957E+000	0
4.6489625E+000	1.478921964591427E+002	-1.6023495E+000	-3.446681827882521E+002	5.5227888E-001	-1.6017957E+000	0
4.5399847E+000	1.480921964540903E+002	-1.6043433E+000	-3.533807710249678E+002	5.6694406E-001	-1.6037958E+000	0
4.5594134E+000	1.482921964490379E+002	-1.6063589E+000	-3.523170140519426E+002	5.6594759E-001	-1.6057957E+000	0
4.5583048E+000	1.484921964439854E+002	-1.6083522E+000	-3.528399734713330E+002	5.6749094E-001	-1.6077958E+000	0
4.6565199E+000	1.486921964389330E+002	-1.6103660E+000	-3.458303835581219E+002	5.5691350E-001	-1.6097958E+000	0
4.6688700E+000	1.488921964338806E+002	-1.6123422E+000	-3.453388762917384E+002	5.5680448E-001	-1.6117957E+000	0
4.4925776E+000	1.490921964288282E+002	-1.6143255E+000	-3.593316798026335E+002	5.8007830E-001	-1.6137958E+000	0
4.4651098E+000	1.492921964237757E+002	-1.6163645E+000	-3.619988209795793E+002	5.8512205E-001	-1.6157959E+000	0
4.4811954E+000	1.494921964187233E+002	-1.6183211E+000	-3.611360301755185E+002	5.8443403E-001	-1.6177957E+000	0
4.5290985E+000	1.496921964136709E+002	-1.6203659E+000	-3.577678435362368E+002	5.7971478E-001	-1.6197958E+000	0
4.4807501E+000	1.498921964086185E+002	-1.6223726E+000	-3.620761323375218E+002	5.8742243E-001	-1.6217957E+000	0
4.3866453E+000	1.500921964035660E+002	-1.6243247E+000	-3.702885703737766E+002	6.0146886E-001	-1.6237957E+000	0
4.3591032E+000	1.502921963985136E+002	-1.6263745E+000	-3.730984303329533E+002	6.0679775E-001	-1.6257958E+000	0
4.4178019E+000	1.504921963934612E+002	-1.6283575E+000	-3.685899906396317E+002	6.0019630E-001	-1.6277957E+000	0
4.3906136E+000	1.506921963884088E+002	-1.6303558E+000	-3.713275645141421E+002	6.0539603E-001	-1.6297956E+000	0
4.2571330E+000	1.508921963833564E+002	-1.6323481E+000	-3.834383514278870E+002	6.2590486E-001	-1.6317959E+000	0
4.1547923E+000	1.510921963783039E+002	-1.6343876E+000	-3.933740715580461E+002	6.4292574E-001	-1.6337957E+000	0
4.2075391E+000	1.512921963732515E+002	-1.6363690E+000	-3.889135638364605E+002	6.3640612E-001	-1.6357958E+000	0
4.2026224E+000	1.514921963681991E+002	-1.6383624E+000	-3.898428637597572E+002	6.3870388E-001	-1.6377957E+000	0
4.0835943E+000	1.516921963631467E+002	-1.6403551E+000	-4.016939357143426E+002	6.5892071E-001	-1.6397957E+000	0
4.0729618E+000	1.518921963580942E+002	-1.6423830E+000	-4.032404708602799E+002	6.6227531E-001	-1.6417956E+000	0
4.1234231E+000	1.520921963530418E+002	-1.6443602E+000	-3.987851980062305E+002	6.5574652E-001	-1.6437957E+000	0
4.0578480E+000	1.522921963479894E+002	-1.6463701E+000	-4.057249047761616E+002	6.6797334E-001	-1.6457958E+000	0
3.9979897E+000	1.524921963429370E+002	-1.6483890E+000	-4.123044748457646E+002	6.7963815E-001	-1.6477957E+000	0
4.0222392E+000	1.526921963378845E+002	-1.6504068E+000	-4.103203994119522E+002	6.7719561E-001	-1.6497957E+000	0
3.9848325E+000	1.528921963328321E+002	-1.6523803E+000	-4.146674501544482E+002	6.8518835E-001	-1.6517956E+000	0
4.0498319E+000	1.530921963277797E+002	-1.6544259E+000	-4.085171534047363E+002	6.7586136E-001	-1.6537957E+000	0
4.1047840E+000	1.532921963227273E+002	-1.6563947E+000	-4.035278598845944E+002	6.6840142E-001	-1.6557958E+000	0
3.9955184E+000	1.534921963176748E+002	-1.6584219E+000	-4.150705040220246E+002	6.8836200E-001	-1.6577959E+000	0
3.9349544E+000	1.536921963126224E+002	-1.6603914E+000	-4.219595120012636E+002	7.0061797E-001	-1.6597958E+000	0
3.9130149E+000	1.538921963075700E+002	-1.6623758E+000	-4.248324862413122E+002	7.0623124E-001	-1.6617957E+000	0
4.0034232E+000	1.540921963025176E+002	-1.6643946E+000	-4.157428762691106E+002	6.9196022E-001	-1.6637957E+000	0
3.9580083E+000	1.542921962974651E+002	-1.6664182E+000	-4.210244298575981E+002	7.0160276E-001	-1.6657958E+000	0
3.8816445E+000	1.544921962924127E+002	-1.6683912E+000	-4.298155648800248E+002	7.1710050E-001	-1.6677958E+000	0
3.8963327E+000	1.546921962873603E+002	-1.6703696E+000	-4.287030302294265E+002	7.1609253E-001	-1.6697958E+000	0
3.8178391E+000	1.548921962823079E+002	-1.6723937E+000	-4.380471728707657E+002	7.3258734E-001	-1.6717957E+000	0
3.8474088E+000	1.550921962772554E+002	-1.6743962E+000	-4.352009981159717E+002	7.2869885E-001	-1.6737957E+000	0
3.8072402E+000	1.552921962722030E+002	-1.6763872E+000	-4.403155870891760E+002	7.3813939E-001	-1.6757958E+000	0
3.7852113E+000	1.554921962671506E+002	-1.6783901E+000	-4.434072516088845E+002	7.4421036E-001	-1.6777958E+000	0
3.7600687E+000	1.556921962620982E+002	-1.6803799E+000	-4.469013838562551E+002	7.5096411E-001	-1.6797957E+000	0
3.7179332E+000	1.558921962570457E+002	-1.6824181E+000	-4.525143579193245E+002	7.6131833E-001	-1.6817957E+000	0
3.7142880E+000	1.560921962519933E+002	-1.6844198E+000	-4.534973416144605E+002	7.6387990E-001	-1.6837958E+000	0
3.6370897E+000	1.562921962469409E+002	-1.6864015E+000	-4.636678376057262E+002	7.8193015E-001	-1.6857958E+000	0
3.6977694E+000	1.564921962418885E+002	-1.6884474E+000	-4.566124095051755E+002	7.7096599E-001	-1.6877959E+000	0
3.7829206E+000	1.566921962368360E+002	-1.6903986E+000	-4.468501411057368E+002	7.5535482E-001	-1.6897959E+000	0
3.7084053E+000	1.568921962317836E+002	-1.6924288E+000	-4.563764508565255E+002	7.7238464E-001	-1.6917957E+000	0
3.5821798E+000	1.570921962267312E+002	-1.6944209E+000	-4.730139295270910E+002	8.0148470E-001	-1.6937958E+000	0
3.6494505E+000	1.572921962216788E+002	-1.6964024E+000	-4.648377665089365E+002	7.8855193E-001	-1.6957957E+000	0
3.5719025E+000	1.574921962166263E+002	-1.6984454E+000	-4.755016354368381E+002	8.0761361E-001	-1.6977957E+000	0
3.6147900E+000	1.576921962115739E+002	-1.7004198E+000	-4.704062424181793E+002	7.9988807E-001	-1.6997958E+000	0
3.6133206E+000	1.578921962065215E+002	-1.7024206E+000	-4.711512568683575E+002	8.0209762E-001	-1.7017957E+000	0
3.6420929E+000	1.580921962014691E+002	-1.7044103E+000	-4.679755157245800E+002	7.9762232E-001	-1.7037958E+000	0
3.5434818E+000	1.582921961964166E+002	-1.7064887E+000	-4.815852950781649E+002	8.2181990E-001	-1.7057956E+000	0
3.5207987E+000	1.584921961913642E+002	-1.7084528E+000	-4.852458030198959E+002	8.2901955E-001	-1.7077957E+000	0
3.5202088E+000	1.586921961863118E+002	-1.7105147E+000	-4.859128367062867E+002	8.3116102E-001	-1.7097958E+000	0
3.5176861E+000	1.588921961812594E+002	-1.7124313E+000	-4.868061582344731E+002	8.3362210E-001	-1.7117957E+000	0
3.4556441E+000	1.590921961762069E+002	-1.7144901E+000	-4.961419594952840E+002	8.5063046E-001	-1.7137958E+000	0
3.4918075E+000	1.592921961711545E+002	-1.7164615E+000	-4.915682025226056E+002	8.4375793E-001	-1.7157959E+000	0
3.5584755E+000	1.594921961661021E+002	-1.7184521E+000	-4.829180504243141E+002	8.2987154E-001	-1.7177957E+000	0
3.5071876E+000	1.596921961610497E+002	-1.7204506E+000	-4.905499463200304E+002	8.4396696E-001	-1.7197956E+000	0
3.5137644E+000	1.598921961559972E+002	-1.7224708E+000	-4.902066615444201E+002	8.4436667E-001	-1.7217957E+000	0
3.4638865E+000	1.600921961509448E+002	-1.7244711E+000	-4.978428556394683E+002	8.5851562E-001	-1.7237958E+000	0
3.3413653E+000	1.602921961458924E+002	-1.7265034E+000	-5.167059734283921E+002	8.9209461E-001	-1.7257959E+000	0
3.3845723E+000	1.604921961408400E+002	-1.7284790E+000	-5.106934746247030E+002	8.8272297E-001	-1.7277957E+000	0
3.4670966E+000	1.606921961357875E+002	-1.7304535E+000	-4.991073872010452E+002	8.6368209E-001	-1.7297957E+000	0
3.4831953E+000	1.608921961307351E+002	-1.7324511E+000	-4.973740902552518E+002	8.6167628E-001	-1.7317957E+000	0
3.4627459E+000	1.610921961256827E+002	-1.7344221E+000	-5.008805587318752E+002	8.6873829E-001	-1.7337958E+000	0
3.4306231E+000	1.612921961206303E+002	-1.7365153E+000	-5.061807391238062E+002	8.7899059E-001	-1.7357959E+000	0
3.4250889E+000	1.614921961155778E+002	-1.7384671E+000	-5.075684609099571E+002	8.8239110E-001	-1.7377957E+000	0
3.4445047E+000	1.616921961105254E+002	-1.7405015E+000	-5.052980607869686E+002	8.7947202E-001	-1.7397957E+000	0
3.3212187E+000	1.618921961054730E+002	-1.7424763E+000	-5.246496762039969E+002	9.1418964E-001	-1.7417955E+000	0
3.2911468E+000	1.620921961004206E+002	-1.7444781E+000	-5.300517442102082E+002	9.2466366E-001	-1.7437958E+000	0
3.2103441E+000	1.622921960953681E+002	-1.7465008E+000	-5.440229638287801E+002	9.5013654E-001	-1.7457958E+000	0
3.2509685E+000	1.624921960903157E+002	-1.7484312E+000	-5.378185528000477E+002	9.4033873E-001	-1.7477957E+000	0
3.3323977E+000	1.626921960852633E+002	-1.7505007E+000	-5.252976605984077E+002	9.1953391E-001	-1.7497957E+000	0
3.3129683E+000	1.628921960802109E+002	-1.7524709E+000	-5.289730301422323E+002	9.2700982E-001	-1.7517958E+000	0
3.2253296E+000	1.630921960751584E+002	-1.7545067E+000	-5.439774898909627E+002	9.5441216E-001	-1.7537957E+000	0
3.2461383E+000	1.632921960701060E+002	-1.7564992E+000	-5.411042315986942E+002	9.5044911E-001	-1.7557958E+000	0
3.2012012E+000	1.634221960668219E+002	-1.7577558E+000	-5.490925495381252E+002	9.6517056E-001	-1.7570955E+000	0
3.1544220E+000	1.634531960660388E+002	-1.7582216E+000	-5.573831329345703E+002	9.8000306E-001	-1.7574954E+000	0