EC-Lab ASCII FILE
Nb header lines : 61                          

Linear Sweep Voltammetry

Run on channel : 1 (SN 1340)
User : 
Electrode connection : standard
Potential control : Ewe
Ewe ctrl range : min = -5.00 V, max = 5.00 V
Ewe,I filtering : <None>
Channel : Grounded
Acquisition started on : 01/29/2026 18:09:06.761
Technique started on : 01/29/2026 18:09:09.598
Loaded Setting File :  NONE
Saved on :
	File : PtPdCoNiCrFe_oxidized_IR_02_LSV_C01.mpr
	Directory : C:\Users\volt\Documents\Platalytix\
	Host : 127.0.0.1
Device : SP-200 (SN 0262)
Address : USB
EC-LAB for windows v11.60 (software)
Internet server v11.60 (firmware)
Command interpretor v11.60 (firmware)
Electrode material : PtPdNiCoCrFe
Initial state : 
Electrolyte : KOH (1 M)
Comments : 
Cable : standard
Reference electrode : Hg/HgO (0.140 V)
Electrode surface area : 1.000 cm˛
Characteristic mass : 0.001 g
Equivalent Weight : 0.000 g/eq.
Density : 0.000 g/cm3
Volume (V) : 0.001 cmł
Cycle Definition : Charge/Discharge alternance
tR (h:m:s)          0:00:5.0000         
dER/dt (mV/h)       0.0                 
dER (mV)            0                   
dtR (s)             0.0000              
dE/dt               10.000              
dE/dt unit          mV/s                
Ei (V)              -0.200              
vs.                 Ref                 
EL (V)              -2.000              
vs.                 Ref                 
record              <I>                 
dI                  0.000               
unit dI             µA                  
tI (s)              0.0000              
step percent        50                  
N                   10                  
E range min (V)     -5.000              
E range max (V)     5.000               
I Range             Auto                
I Range min         Unset               
I Range max         Unset               
I Range init        Unset               
Bandwidth           8                   

Rwe/Ohm	time/s	Ewe/V	<I>/mA	Pwe/W	control/V	error	
0.0000000E+000	2.837400134740165E+000	-1.5678450E-001	0.000000000000000E+000	0.0000000E+000	0.0000000E+000	0
0.0000000E+000	7.837200008434593E+000	-2.4516974E-002	0.000000000000000E+000	0.0000000E+000	-1.9984457E-001	0
3.1937095E+003	8.037200003382168E+000	-2.0167834E-001	-6.314861861057580E-002	1.2735708E-005	-2.0174435E-001	0
1.1964420E+003	8.157200000350713E+000	-2.0296606E-001	-1.696413699547015E-001	3.4431439E-005	-2.0294440E-001	0
1.2477267E+003	8.367199995045667E+000	-2.0510742E-001	-1.643848978722144E-001	3.3716562E-005	-2.0504440E-001	0
1.3521844E+003	8.567199989993242E+000	-2.0712960E-001	-1.531814661947695E-001	3.1728414E-005	-2.0704441E-001	0
1.4459340E+003	8.767199984940817E+000	-2.0907363E-001	-1.445941788803311E-001	3.0230831E-005	-2.0904440E-001	0
1.5310054E+003	8.967199979888392E+000	-2.1110174E-001	-1.378843888678407E-001	2.9107634E-005	-2.1104440E-001	0
1.6077286E+003	9.167199974835967E+000	-2.1309057E-001	-1.325413740066864E-001	2.8243318E-005	-2.1304442E-001	0
1.6772400E+003	9.367199969783542E+000	-2.1508770E-001	-1.282390704876883E-001	2.7582646E-005	-2.1504439E-001	0
1.7431163E+003	9.567199964731117E+000	-2.1710306E-001	-1.245488077497156E-001	2.7039929E-005	-2.1704440E-001	0
1.8040051E+003	9.767199959678692E+000	-2.1907704E-001	-1.214392528575663E-001	2.6604552E-005	-2.1904442E-001	0
1.8631150E+003	9.967199954626267E+000	-2.2110558E-001	-1.186752199995711E-001	2.6239753E-005	-2.2104438E-001	0
1.9189141E+003	1.016719994957384E+001	-2.2308826E-001	-1.162575618564544E-001	2.5935698E-005	-2.2304441E-001	0
1.9727040E+003	1.036719994452142E+001	-2.2509854E-001	-1.141065979933964E-001	2.5685227E-005	-2.2504441E-001	0
2.0249180E+003	1.056719993946899E+001	-2.2714595E-001	-1.121753864634418E-001	2.5480185E-005	-2.2704440E-001	0
2.0749175E+003	1.076719993441657E+001	-2.2914593E-001	-1.104361646715767E-001	2.5305997E-005	-2.2904430E-001	0
2.1236160E+003	1.096719992936414E+001	-2.3111027E-001	-1.088286578632014E-001	2.5151421E-005	-2.3104420E-001	0
2.1720193E+003	1.116719992431172E+001	-2.3310240E-001	-1.073205876618184E-001	2.5016687E-005	-2.3304412E-001	0
2.2184404E+003	1.136719991925929E+001	-2.3508690E-001	-1.059694404432934E-001	2.4912028E-005	-2.3504402E-001	0
2.2648030E+003	1.156719991420687E+001	-2.3707928E-001	-1.046798725785636E-001	2.4817429E-005	-2.3704392E-001	0
2.3101316E+003	1.176719990915444E+001	-2.3913017E-001	-1.035136578767189E-001	2.4753239E-005	-2.3904383E-001	0
2.3554163E+003	1.196719990410202E+001	-2.4109915E-001	-1.023594613351739E-001	2.4678779E-005	-2.4104370E-001	0
2.3992388E+003	1.216719989904959E+001	-2.4314013E-001	-1.013405335963600E-001	2.4639950E-005	-2.4304360E-001	0
2.4426504E+003	1.236719989399717E+001	-2.4506477E-001	-1.003273965013711E-001	2.4586710E-005	-2.4504352E-001	0
2.4858347E+003	1.256719988894474E+001	-2.4708153E-001	-9.939580392979404E-002	2.4558867E-005	-2.4704342E-001	0
2.5288508E+003	1.276719988389232E+001	-2.4912310E-001	-9.851237369570334E-002	2.4541707E-005	-2.4904332E-001	0
2.5716956E+003	1.296719987883989E+001	-2.5108320E-001	-9.763332394209340E-002	2.4514087E-005	-2.5104323E-001	0
2.6144746E+003	1.316719987378747E+001	-2.5316447E-001	-9.683186811861710E-002	2.4514389E-005	-2.5304312E-001	0
2.6563447E+003	1.336719986873504E+001	-2.5508913E-001	-9.603013580373543E-002	2.4496245E-005	-2.5504303E-001	0
2.6985034E+003	1.356719986368262E+001	-2.5715536E-001	-9.529554624165382E-002	2.4505760E-005	-2.5704291E-001	0
2.7406863E+003	1.376719985863019E+001	-2.5911519E-001	-9.454390846505367E-002	2.4497762E-005	-2.5904280E-001	0
2.7824824E+003	1.396719985357777E+001	-2.6110333E-001	-9.383826785142219E-002	2.4501485E-005	-2.6104274E-001	0
2.8244290E+003	1.416709984852787E+001	-2.6311052E-001	-9.315529884361284E-002	2.4510138E-005	-2.6304284E-001	0
2.8662393E+003	1.436699984347797E+001	-2.6509333E-001	-9.248820267186897E-002	2.4518005E-005	-2.6504254E-001	0
2.9077231E+003	1.456699983842555E+001	-2.6708394E-001	-9.185329069491130E-002	2.4532539E-005	-2.6704240E-001	0
2.9497710E+003	1.476699983337312E+001	-2.6908121E-001	-9.122105218499676E-002	2.4545870E-005	-2.6904231E-001	0
2.9912429E+003	1.496699982832070E+001	-2.7106038E-001	-9.061797536104954E-002	2.4562942E-005	-2.7104223E-001	0
3.0319158E+003	1.516699982326827E+001	-2.7309433E-001	-9.007318934548192E-002	2.4598477E-005	-2.7304214E-001	0
3.0749143E+003	1.536699981821585E+001	-2.7508241E-001	-8.946018948857515E-002	2.4608924E-005	-2.7504203E-001	0
3.1171592E+003	1.556699981316342E+001	-2.7712590E-001	-8.890334966955793E-002	2.4637420E-005	-2.7704191E-001	0
3.1594634E+003	1.576699980811100E+001	-2.7905461E-001	-8.832342297582108E-002	2.4647059E-005	-2.7904183E-001	0
3.2026194E+003	1.596699980305857E+001	-2.8105587E-001	-8.775812632651370E-002	2.4664936E-005	-2.8104171E-001	0
3.2457817E+003	1.616699979800615E+001	-2.8309131E-001	-8.721822319824757E-002	2.4690720E-005	-2.8304163E-001	0
3.2873584E+003	1.636699979295372E+001	-2.8508279E-001	-8.672093588102808E-002	2.4722645E-005	-2.8504151E-001	0
3.3305410E+003	1.656699978790130E+001	-2.8712693E-001	-8.621029339703234E-002	2.4753297E-005	-2.8704143E-001	0
3.3734583E+003	1.676699978284887E+001	-2.8910995E-001	-8.570135434267973E-002	2.4777113E-005	-2.8904131E-001	0
3.4153628E+003	1.696699977779645E+001	-2.9107663E-001	-8.522568505400985E-002	2.4807205E-005	-2.9104120E-001	0
3.4594116E+003	1.716699977274402E+001	-2.9307383E-001	-8.471782656825744E-002	2.4828578E-005	-2.9304111E-001	0
3.5037493E+003	1.736699976769160E+001	-2.9507658E-001	-8.421737725673317E-002	2.4850575E-005	-2.9504102E-001	0
3.5479658E+003	1.756699976263917E+001	-2.9709971E-001	-8.373804444124078E-002	2.4878549E-005	-2.9704091E-001	0
3.5902590E+003	1.776699975758675E+001	-2.9909080E-001	-8.330619289083588E-002	2.4916117E-005	-2.9904082E-001	0
3.6354683E+003	1.796699975253432E+001	-3.0109587E-001	-8.282175695612284E-002	2.4937290E-005	-3.0104071E-001	0
3.6779868E+003	1.816689974748442E+001	-3.0308929E-001	-8.240630344287414E-002	2.4976469E-005	-3.0304107E-001	0
3.7232581E+003	1.836679974243452E+001	-3.0510688E-001	-8.194621032433336E-002	2.5002353E-005	-3.0504051E-001	0
3.7690740E+003	1.856679973738210E+001	-3.0712152E-001	-8.148460656028567E-002	2.5025676E-005	-3.0704039E-001	0
3.8145925E+003	1.876679973232967E+001	-3.0911231E-001	-8.103416115520719E-002	2.5048657E-005	-3.0904034E-001	0
3.8581797E+003	1.896679972727725E+001	-3.1105527E-001	-8.062228612451794E-002	2.5077987E-005	-3.1104019E-001	0
3.9054846E+003	1.916679972222482E+001	-3.1309560E-001	-8.016818087831012E-002	2.5100304E-005	-3.1304011E-001	0
3.9507495E+003	1.936679971717240E+001	-3.1507584E-001	-7.975090306797057E-002	2.5127583E-005	-3.1504002E-001	0
3.9967537E+003	1.956679971211997E+001	-3.1708425E-001	-7.933545023912447E-002	2.5156021E-005	-3.1703991E-001	0
4.0430840E+003	1.976679970706755E+001	-3.1905138E-001	-7.891287576447292E-002	2.5177262E-005	-3.1903982E-001	0
4.0904524E+003	1.996679970201512E+001	-3.2112247E-001	-7.850536813984832E-002	2.5209838E-005	-3.2103974E-001	0
4.1378574E+003	2.016679969696270E+001	-3.2309976E-001	-7.808382948649351E-002	2.5228866E-005	-3.2303959E-001	0
4.1842114E+003	2.036679969191027E+001	-3.2507131E-001	-7.768998328858220E-002	2.5254783E-005	-3.2503951E-001	0
4.2322510E+003	2.056679968685785E+001	-3.2710710E-001	-7.728915587606144E-002	2.5281832E-005	-3.2703939E-001	0
4.2808906E+003	2.076679968180542E+001	-3.2908124E-001	-7.687214557810074E-002	2.5297180E-005	-3.2903931E-001	0
4.3285640E+003	2.096679967675300E+001	-3.3112726E-001	-7.649817420042981E-002	2.5330630E-005	-3.3103919E-001	0
4.3793057E+003	2.116679967170057E+001	-3.3312705E-001	-7.606846089538215E-002	2.5340461E-005	-3.3303910E-001	0
4.4280366E+003	2.136679966664815E+001	-3.3512065E-001	-7.568154522521919E-002	2.5362449E-005	-3.3503899E-001	0
4.4748252E+003	2.156679966159572E+001	-3.3706507E-001	-7.532474595542316E-002	2.5389341E-005	-3.3703893E-001	0
4.5240786E+003	2.176679965654330E+001	-3.3907923E-001	-7.494989536066932E-002	2.5413952E-005	-3.3903882E-001	0
4.5744780E+003	2.196679965149087E+001	-3.4108201E-001	-7.456195220412432E-002	2.5431740E-005	-3.4103870E-001	0
4.6241582E+003	2.216669964644097E+001	-3.4307975E-001	-7.419290532110512E-002	2.5454083E-005	-3.4303924E-001	0
4.6726382E+003	2.236659964139108E+001	-3.4506691E-001	-7.384841204905951E-002	2.5482643E-005	-3.4503847E-001	0
4.7263027E+003	2.256659963633865E+001	-3.4712762E-001	-7.344590882768594E-002	2.5495103E-005	-3.4703842E-001	0
4.7756113E+003	2.276659963128623E+001	-3.4907624E-001	-7.309561137842768E-002	2.5515941E-005	-3.4903830E-001	0
4.8275747E+003	2.296659962623380E+001	-3.5106137E-001	-7.272002696853708E-002	2.5529192E-005	-3.5103819E-001	0
4.8785347E+003	2.316659962118138E+001	-3.5314858E-001	-7.238824613172734E-002	2.5563806E-005	-3.5303810E-001	0
4.9300225E+003	2.336659961612895E+001	-3.5510254E-001	-7.202858435488430E-002	2.5577534E-005	-3.5503805E-001	0
4.9822104E+003	2.356659961107653E+001	-3.5708404E-001	-7.167181185850025E-002	2.5592859E-005	-3.5703790E-001	0
5.0346582E+003	2.376659960602410E+001	-3.5910439E-001	-7.132647226325955E-002	2.5613650E-005	-3.5903779E-001	0
5.0867856E+003	2.396659960097168E+001	-3.6109486E-001	-7.098684585051374E-002	2.5632986E-005	-3.6103770E-001	0
5.1397412E+003	2.416659959591925E+001	-3.6306363E-001	-7.063850131236415E-002	2.5646272E-005	-3.6303762E-001	0
5.1926689E+003	2.436659959086683E+001	-3.6508149E-001	-7.030709666282342E-002	2.5667820E-005	-3.6503750E-001	0
5.2458291E+003	2.456659958581440E+001	-3.6707950E-001	-6.997549552903348E-002	2.5686570E-005	-3.6703742E-001	0
5.3011367E+003	2.476659958076198E+001	-3.6906612E-001	-6.962018589385710E-002	2.5694451E-005	-3.6903730E-001	0
5.3546445E+003	2.496659957570955E+001	-3.7109113E-001	-6.930266502904625E-002	2.5717603E-005	-3.7103721E-001	0
5.4122266E+003	2.516659957065713E+001	-3.7309286E-001	-6.893518715495006E-002	2.5719226E-005	-3.7303710E-001	0
5.4632910E+003	2.536659956560470E+001	-3.7508479E-001	-6.865546707794601E-002	2.5751622E-005	-3.7503701E-001	0
5.5126226E+003	2.556659956055228E+001	-3.7703279E-001	-6.839445169514596E-002	2.5786951E-005	-3.7703690E-001	0
5.5695591E+003	2.576659955549985E+001	-3.7905544E-001	-6.805843156245014E-002	2.5797919E-005	-3.7903681E-001	0
5.6268770E+003	2.596649955044995E+001	-3.8104984E-001	-6.771959482099132E-002	2.5804540E-005	-3.8103583E-001	0
5.6799277E+003	2.616649954539753E+001	-3.8306367E-001	-6.744164827668020E-002	2.5834446E-005	-3.8303730E-001	0
5.7321191E+003	2.636639954034763E+001	-3.8502210E-001	-6.716924022815618E-002	2.5861642E-005	-3.8503653E-001	0
5.7877734E+003	2.656639953529520E+001	-3.8710612E-001	-6.688342876880182E-002	2.5890984E-005	-3.8703638E-001	0
5.8426636E+003	2.676639953024278E+001	-3.8907388E-001	-6.659186743527190E-002	2.5909156E-005	-3.8903627E-001	0
5.8989292E+003	2.696639952519035E+001	-3.9108214E-001	-6.629713848043162E-002	2.5927626E-005	-3.9103618E-001	0
5.9530137E+003	2.716639952013793E+001	-3.9306682E-001	-6.602820761653831E-002	2.5953497E-005	-3.9303613E-001	0
6.0114487E+003	2.736639951508550E+001	-3.9506218E-001	-6.571829968127862E-002	2.5962814E-005	-3.9503598E-001	0
6.0663569E+003	2.756639951003308E+001	-3.9710885E-001	-6.546084674618002E-002	2.5995081E-005	-3.9703593E-001	0
6.1214497E+003	2.776639950498065E+001	-3.9912835E-001	-6.520160278326534E-002	2.6023808E-005	-3.9903578E-001	0
6.1765518E+003	2.796639949992823E+001	-4.0103775E-001	-6.492906755159550E-002	2.6039008E-005	-4.0103573E-001	0
6.2325044E+003	2.816639949487580E+001	-4.0303600E-001	-6.466678355275601E-002	2.6063042E-005	-4.0303558E-001	0
6.2919424E+003	2.836639948982338E+001	-4.0504622E-001	-6.437538782675278E-002	2.6075008E-005	-4.0503550E-001	0
6.3447676E+003	2.856639948477095E+001	-4.0704766E-001	-6.415485746233540E-002	2.6114085E-005	-4.0703538E-001	0
6.4053120E+003	2.876639947971853E+001	-4.0909302E-001	-6.386777639912800E-002	2.6127862E-005	-4.0903530E-001	0
6.4612139E+003	2.896639947466610E+001	-4.1104209E-001	-6.361685180297472E-002	2.6149204E-005	-4.1103521E-001	0
6.5139897E+003	2.916639946961368E+001	-4.1310576E-001	-6.341823731768703E-002	2.6198439E-005	-4.1303509E-001	0
6.5687520E+003	2.936639946456125E+001	-4.1511422E-001	-6.319529424229320E-002	2.6233265E-005	-4.1503501E-001	0
6.6246221E+003	2.956639945950883E+001	-4.1708454E-001	-6.295974766455448E-002	2.6259539E-005	-4.1703489E-001	0
6.6784023E+003	2.976639945445640E+001	-4.1909361E-001	-6.275357209650745E-002	2.6299622E-005	-4.1903481E-001	0
6.7349468E+003	2.996639944940398E+001	-4.2109469E-001	-6.252383298658704E-002	2.6328455E-005	-4.2103469E-001	0
6.7920078E+003	3.016629944435408E+001	-4.2308366E-001	-6.229139694585883E-002	2.6354472E-005	-4.2303526E-001	0
6.8463965E+003	3.036619943930418E+001	-4.2510802E-001	-6.209222784175039E-002	2.6395905E-005	-4.2503449E-001	0
6.9057441E+003	3.056619943425176E+001	-4.2711458E-001	-6.184917330623624E-002	2.6416683E-005	-4.2703438E-001	0
6.9557188E+003	3.076619942919933E+001	-4.2912731E-001	-6.169417301454772E-002	2.6474654E-005	-4.2903432E-001	0
7.0084268E+003	3.096619942414691E+001	-4.3110821E-001	-6.151283575462640E-002	2.6518688E-005	-4.3103418E-001	0
7.0693213E+003	3.116619941909448E+001	-4.3311068E-001	-6.126623440062928E-002	2.6535061E-005	-4.3303412E-001	0
7.1271172E+003	3.136619941404206E+001	-4.3511960E-001	-6.105127438370705E-002	2.6564607E-005	-4.3503398E-001	0
7.1814224E+003	3.156619940898963E+001	-4.3712044E-001	-6.086822665537250E-002	2.6606745E-005	-4.3703386E-001	0
7.2352036E+003	3.176619940393721E+001	-4.3907437E-001	-6.068583570321482E-002	2.6645595E-005	-4.3903381E-001	0
7.2880601E+003	3.196619939888478E+001	-4.4108453E-001	-6.052152989770110E-002	2.6695110E-005	-4.4103369E-001	0
7.3433389E+003	3.216619939383236E+001	-4.4308501E-001	-6.033835716623681E-002	2.6735022E-005	-4.4303358E-001	0
7.3990996E+003	3.236619938877993E+001	-4.4510111E-001	-6.015612011671900E-002	2.6775557E-005	-4.4503349E-001	0
7.4540806E+003	3.256619938372751E+001	-4.4711021E-001	-5.998193793993439E-002	2.6818536E-005	-4.4703344E-001	0
7.5077856E+003	3.276619937867508E+001	-4.4907075E-001	-5.981400631401940E-002	2.6860720E-005	-4.4903329E-001	0
7.5567061E+003	3.296619937362266E+001	-4.5109513E-001	-5.969467833944409E-002	2.6927979E-005	-4.5103323E-001	0
7.6096968E+003	3.316619936857023E+001	-4.5311314E-001	-5.954417680989943E-002	2.6980249E-005	-4.5303309E-001	0
7.6639727E+003	3.336619936351781E+001	-4.5508638E-001	-5.937995887287539E-002	2.7023010E-005	-4.5503297E-001	0
7.7170347E+003	3.356619935846538E+001	-4.5713070E-001	-5.923657364564627E-002	2.7078857E-005	-4.5703289E-001	0
7.7666416E+003	3.376619935341296E+001	-4.5909998E-001	-5.911177640797716E-002	2.7138216E-005	-4.5903274E-001	0
7.8186045E+003	3.396619934836053E+001	-4.6110973E-001	-5.897596362099700E-002	2.7194390E-005	-4.6103269E-001	0
7.8704053E+003	3.416599934331316E+001	-4.6306702E-001	-5.883648981236759E-002	2.7245238E-005	-4.6303254E-001	0
7.9214961E+003	3.436599933826074E+001	-4.6510050E-001	-5.871371917696899E-002	2.7307780E-005	-4.6503255E-001	0
7.9664849E+003	3.456599933320831E+001	-4.6705425E-001	-5.862739554061502E-002	2.7382173E-005	-4.6703234E-001	0
8.0213755E+003	3.476599932815589E+001	-4.6907398E-001	-5.847799693035755E-002	2.7430508E-005	-4.6903229E-001	0
8.0638901E+003	3.496599932310346E+001	-4.7109327E-001	-5.842010009993720E-002	2.7521315E-005	-4.7103220E-001	0
8.1140835E+003	3.516599931805104E+001	-4.7305018E-001	-5.829989096591154E-002	2.7578773E-005	-4.7303209E-001	0
8.1585376E+003	3.536599931299861E+001	-4.7513631E-001	-5.823792748537537E-002	2.7670954E-005	-4.7503200E-001	0
8.2067881E+003	3.556599930794619E+001	-4.7707716E-001	-5.813202130937711E-002	2.7733460E-005	-4.7703186E-001	0
8.2581416E+003	3.576599930289376E+001	-4.7911215E-001	-5.801694309856331E-002	2.7796623E-005	-4.7903180E-001	0
8.3026113E+003	3.596599929784134E+001	-4.8108262E-001	-5.794352929840640E-002	2.7875625E-005	-4.8103166E-001	0
8.3480049E+003	3.616599929278891E+001	-4.8309514E-001	-5.786953389522154E-002	2.7956490E-005	-4.8303160E-001	0
8.3946758E+003	3.636599928773649E+001	-4.8509276E-001	-5.778576666594848E-002	2.8031456E-005	-4.8503146E-001	0
8.4369551E+003	3.656599928268406E+001	-4.8705927E-001	-5.772926815301838E-002	2.8117574E-005	-4.8703140E-001	0
8.4855742E+003	3.676599927763164E+001	-4.8909062E-001	-5.763789447860757E-002	2.8190154E-005	-4.8903129E-001	0
8.5237324E+003	3.696599927257921E+001	-4.9108446E-001	-5.761378340881390E-002	2.8293234E-005	-4.9103117E-001	0
8.5708301E+003	3.716599926752679E+001	-4.9308765E-001	-5.753091206909278E-002	2.8367782E-005	-4.9303111E-001	0
8.6108096E+003	3.736599926247436E+001	-4.9507973E-001	-5.749514533677735E-002	2.8464681E-005	-4.9503097E-001	0
8.6575498E+003	3.756599925742194E+001	-4.9710459E-001	-5.741862068903081E-002	2.8543060E-005	-4.9703091E-001	0
8.6909365E+003	3.776599925236951E+001	-4.9908680E-001	-5.742612360636612E-002	2.8660621E-005	-4.9903077E-001	0
8.7307061E+003	3.796589924731961E+001	-5.0109828E-001	-5.739493165807352E-002	2.8760502E-005	-5.0103074E-001	0
8.7697432E+003	3.816579924226971E+001	-5.0306952E-001	-5.736422678350106E-002	2.8858194E-005	-5.0303060E-001	0
8.8152148E+003	3.836579923721729E+001	-5.0508738E-001	-5.729722738521525E-002	2.8940107E-005	-5.0503051E-001	0
8.8511523E+003	3.856579923216486E+001	-5.0711113E-001	-5.729323081870696E-002	2.9054036E-005	-5.0703043E-001	0
8.8834043E+003	3.876579922711244E+001	-5.0908351E-001	-5.730725677320692E-002	2.9174180E-005	-5.0903028E-001	0
8.9190127E+003	3.896579922206001E+001	-5.1110834E-001	-5.730548133131724E-002	2.9289309E-005	-5.1103020E-001	0
8.9545381E+003	3.916579921700759E+001	-5.1308328E-001	-5.729868851207143E-002	2.9399000E-005	-5.1303005E-001	0
8.9751670E+003	3.936579921195516E+001	-5.1508355E-001	-5.738985634043547E-002	2.9560571E-005	-5.1503003E-001	0
9.0187178E+003	3.956579920690274E+001	-5.1708812E-001	-5.733499476472792E-002	2.9647244E-005	-5.1702988E-001	0
9.0519336E+003	3.976579920185031E+001	-5.1907706E-001	-5.734432712640802E-002	2.9766124E-005	-5.1902980E-001	0
9.0798379E+003	3.996579919679789E+001	-5.2104235E-001	-5.738454505847657E-002	2.9899778E-005	-5.2102965E-001	0
9.1109756E+003	4.016579919174546E+001	-5.2309167E-001	-5.741335445320215E-002	3.0032448E-005	-5.2302957E-001	0
9.1441904E+003	4.036579918669304E+001	-5.2514964E-001	-5.742986727708677E-002	3.0159274E-005	-5.2502954E-001	0
9.1731494E+003	4.056579918164061E+001	-5.2711207E-001	-5.746249787355279E-002	3.0289177E-005	-5.2702940E-001	0
9.2033252E+003	4.076579917658819E+001	-5.2907872E-001	-5.748777576435005E-002	3.0415558E-005	-5.2902931E-001	0
9.2255557E+003	4.096579917153576E+001	-5.3107613E-001	-5.756576247661094E-002	3.0571802E-005	-5.3102916E-001	0
9.2579150E+003	4.116579916648334E+001	-5.3308952E-001	-5.758202718327965E-002	3.0696374E-005	-5.3302914E-001	0
9.2765645E+003	4.136579916143091E+001	-5.3509659E-001	-5.768262485861619E-002	3.0865776E-005	-5.3502899E-001	0
9.2974111E+003	4.156579915637849E+001	-5.3708613E-001	-5.776727785960345E-002	3.1026004E-005	-5.3702891E-001	0
9.3239639E+003	4.176579915132606E+001	-5.3905791E-001	-5.781424169422278E-002	3.1165226E-005	-5.3902876E-001	0
9.3431426E+003	4.196569914627617E+001	-5.4112232E-001	-5.791652178860227E-002	3.1339921E-005	-5.4102892E-001	0
9.3648174E+003	4.216559914122627E+001	-5.4311574E-001	-5.799533387903721E-002	3.1498177E-005	-5.4302859E-001	0
9.3857109E+003	4.236559913617384E+001	-5.4506445E-001	-5.807385674377896E-002	3.1653995E-005	-5.4502845E-001	0
9.4022051E+003	4.256559913112142E+001	-5.4706210E-001	-5.818444544971096E-002	3.1830506E-005	-5.4702842E-001	0
9.4222510E+003	4.276559912606899E+001	-5.4911172E-001	-5.827819001111201E-002	3.2001237E-005	-5.4902828E-001	0
9.4396533E+003	4.296559912101657E+001	-5.5108476E-001	-5.837976952429758E-002	3.2172200E-005	-5.5102819E-001	0
9.4559053E+003	4.316559911596414E+001	-5.5307728E-001	-5.849014553706028E-002	3.2349570E-005	-5.5302811E-001	0
9.4721729E+003	4.336559911091172E+001	-5.5508536E-001	-5.860169423435713E-002	3.2528944E-005	-5.5502802E-001	0
9.4914531E+003	4.356559910585929E+001	-5.5708385E-001	-5.869320651374843E-002	3.2697037E-005	-5.5702788E-001	0
9.4949990E+003	4.376559910080687E+001	-5.5908489E-001	-5.888203701031869E-002	3.2920056E-005	-5.5902779E-001	0
9.5100938E+003	4.396559909575444E+001	-5.6110382E-001	-5.900086971240581E-002	3.3105614E-005	-5.6102771E-001	0
9.5239404E+003	4.416559909070202E+001	-5.6308597E-001	-5.912321684206245E-002	3.3291453E-005	-5.6302756E-001	0
9.5359355E+003	4.436559908564959E+001	-5.6512713E-001	-5.926289567470444E-002	3.3491069E-005	-5.6502748E-001	0
9.5411738E+003	4.456559908059717E+001	-5.6704009E-001	-5.943085289562344E-002	3.3699675E-005	-5.6702739E-001	0
9.5565508E+003	4.476559907554474E+001	-5.6912434E-001	-5.955331911789052E-002	3.3893244E-005	-5.6902730E-001	0
9.5543320E+003	4.496559907049232E+001	-5.7107276E-001	-5.977107835152218E-002	3.4133634E-005	-5.7102722E-001	0
9.5593477E+003	4.516559906543989E+001	-5.7309669E-001	-5.995144096811345E-002	3.4357974E-005	-5.7302707E-001	0
9.5699463E+003	4.536559906038747E+001	-5.7509816E-001	-6.009419121179727E-002	3.4560060E-005	-5.7502699E-001	0
9.5805107E+003	4.556559905533504E+001	-5.7706100E-001	-6.023279825740757E-002	3.4757999E-005	-5.7702684E-001	0
9.5808818E+003	4.576559905028262E+001	-5.7907420E-001	-6.044059423909309E-002	3.4999590E-005	-5.7902682E-001	0
9.5831475E+003	4.596549904523272E+001	-5.8108842E-001	-6.063648873993932E-002	3.5235160E-005	-5.8102715E-001	0
9.5904258E+003	4.616539904018282E+001	-5.8307880E-001	-6.079801019015052E-002	3.5450030E-005	-5.8302659E-001	0
9.5900957E+003	4.636539903513039E+001	-5.8505648E-001	-6.100632506581083E-002	3.5692145E-005	-5.8502650E-001	0
9.5878730E+003	4.656539903007797E+001	-5.8711725E-001	-6.123540193146583E-002	3.5952362E-005	-5.8702636E-001	0
9.5901582E+003	4.676539902502554E+001	-5.8906245E-001	-6.142364257931843E-002	3.6182362E-005	-5.8902627E-001	0
9.5813936E+003	4.696539901997312E+001	-5.9113950E-001	-6.169661221964495E-002	3.6471305E-005	-5.9102619E-001	0
9.5806465E+003	4.716539901492069E+001	-5.9307474E-001	-6.190341466968097E-002	3.6713351E-005	-5.9302610E-001	0
9.5696924E+003	4.736539900986827E+001	-5.9506392E-001	-6.218213806522255E-002	3.7002348E-005	-5.9502596E-001	0
9.5723643E+003	4.756539900481584E+001	-5.9709424E-001	-6.237688527364393E-002	3.7244878E-005	-5.9702587E-001	0
9.5622695E+003	4.776539899976342E+001	-5.9908932E-001	-6.265137603299498E-002	3.7533770E-005	-5.9902573E-001	0
9.5626748E+003	4.796539899471099E+001	-6.0103780E-001	-6.285247432443919E-002	3.7776714E-005	-6.0102570E-001	0
9.5602363E+003	4.816539898965857E+001	-6.0308045E-001	-6.308216719503801E-002	3.8043621E-005	-6.0302562E-001	0
9.5416416E+003	4.836539898460615E+001	-6.0501951E-001	-6.340832516494022E-002	3.8363272E-005	-6.0502547E-001	0
9.5381943E+003	4.856539897955372E+001	-6.0705876E-001	-6.364504157886547E-002	3.8636281E-005	-6.0702538E-001	0
9.5354336E+003	4.876539897450130E+001	-6.0904729E-001	-6.387201154893885E-002	3.8901075E-005	-6.0902524E-001	0
9.5194307E+003	4.896539896944887E+001	-6.1112261E-001	-6.419739375670219E-002	3.9232480E-005	-6.1102521E-001	0
9.5100205E+003	4.916539896439645E+001	-6.1308032E-001	-6.446677375037890E-002	3.9523311E-005	-6.1302507E-001	0
9.4958203E+003	4.936539895934402E+001	-6.1506122E-001	-6.477178391829441E-002	3.9838611E-005	-6.1502498E-001	0
9.4847393E+003	4.956539895429160E+001	-6.1706138E-001	-6.505833636829944E-002	4.0144987E-005	-6.1702484E-001	0
9.4740059E+003	4.976529894924170E+001	-6.1909360E-001	-6.534655231609254E-002	4.0455630E-005	-6.1902392E-001	0
9.4606943E+003	4.996529894418927E+001	-6.2113482E-001	-6.565425411582959E-002	4.0780142E-005	-6.2102509E-001	0
9.4407549E+003	5.016519893913937E+001	-6.2306714E-001	-6.599759414967377E-002	4.1120933E-005	-6.2302452E-001	0
9.4261318E+003	5.036519893408695E+001	-6.2507689E-001	-6.631319273829150E-002	4.1450843E-005	-6.2502450E-001	0
9.4180645E+003	5.056519892903452E+001	-6.2706351E-001	-6.658092999773824E-002	4.1750471E-005	-6.2702435E-001	0
9.3989902E+003	5.076519892398210E+001	-6.2912607E-001	-6.693549360710316E-002	4.2110863E-005	-6.2902433E-001	0
9.3873018E+003	5.096519891892967E+001	-6.3110226E-001	-6.722935918843176E-002	4.2428601E-005	-6.3102412E-001	0
9.3728760E+003	5.116519891387725E+001	-6.3307703E-001	-6.754352211848730E-002	4.2760254E-005	-6.3302410E-001	0
9.3512480E+003	5.136519890882482E+001	-6.3511711E-001	-6.791789899844158E-002	4.3135820E-005	-6.3502395E-001	0
9.3384697E+003	5.156519890377240E+001	-6.3712871E-001	-6.822624553075207E-002	4.3468899E-005	-6.3702387E-001	0
9.3257412E+003	5.176519889871997E+001	-6.3909692E-001	-6.853041283273131E-002	4.3797576E-005	-6.3902378E-001	0
9.3055996E+003	5.196519889366755E+001	-6.4111310E-001	-6.889541376943858E-002	4.4169752E-005	-6.4102364E-001	0
9.2829912E+003	5.216519888861512E+001	-6.4309561E-001	-6.927676506122984E-002	4.4551583E-005	-6.4302355E-001	0
9.2720361E+003	5.236519888356270E+001	-6.4506418E-001	-6.957093079557497E-002	4.4877714E-005	-6.4502347E-001	0
9.2550313E+003	5.256519887851027E+001	-6.4710402E-001	-6.991916248319285E-002	4.5244971E-005	-6.4702338E-001	0
9.2373613E+003	5.276519887345785E+001	-6.4911067E-001	-7.027013842417706E-002	4.5613098E-005	-6.4902323E-001	0
9.2164150E+003	5.296519886840542E+001	-6.5109640E-001	-7.064530027284799E-002	4.5996901E-005	-6.5102315E-001	0
9.1982207E+003	5.316519886335300E+001	-6.5311885E-001	-7.100491127254804E-002	4.6374647E-005	-6.5302306E-001	0
9.1789121E+003	5.336519885830057E+001	-6.5510786E-001	-7.137096580223523E-002	4.6755682E-005	-6.5502292E-001	0
9.1612520E+003	5.356519885324815E+001	-6.5711969E-001	-7.172815259144749E-002	4.7133981E-005	-6.5702283E-001	0
9.1474219E+003	5.376509884819825E+001	-6.5913415E-001	-7.205682138309655E-002	4.7495112E-005	-6.5902185E-001	0
9.1293896E+003	5.396509884314582E+001	-6.6111302E-001	-7.241590951995613E-002	4.7875103E-005	-6.6102356E-001	0
9.1045879E+003	5.416499883809593E+001	-6.6309953E-001	-7.283136277309629E-002	4.8294442E-005	-6.6302252E-001	0
9.0886133E+003	5.436499883304350E+001	-6.6516531E-001	-7.318666387537309E-002	4.8681231E-005	-6.6502249E-001	0
9.0690049E+003	5.456499882799108E+001	-6.6712260E-001	-7.356072938261901E-002	4.9074024E-005	-6.6702235E-001	0
9.0454434E+003	5.476499882293865E+001	-6.6907543E-001	-7.396823219699428E-002	4.9490325E-005	-6.6902226E-001	0
9.0296787E+003	5.496499881788623E+001	-6.7110902E-001	-7.432258025586791E-002	4.9878556E-005	-6.7102218E-001	0
9.0161279E+003	5.516499881283380E+001	-6.7311555E-001	-7.465683078486263E-002	5.0252675E-005	-6.7302203E-001	0
8.9918340E+003	5.536499880778138E+001	-6.7509055E-001	-7.507818341022876E-002	5.0684572E-005	-6.7502195E-001	0
8.9769580E+003	5.556499880272895E+001	-6.7709666E-001	-7.542607181097334E-002	5.1070743E-005	-6.7702180E-001	0
8.9487930E+003	5.576499879767653E+001	-6.7904699E-001	-7.588140490568340E-002	5.1527040E-005	-6.7902178E-001	0
8.9283418E+003	5.596499879262410E+001	-6.8111241E-001	-7.628654847618488E-002	5.1959716E-005	-6.8102163E-001	0
8.9048301E+003	5.616499878757168E+001	-6.8311489E-001	-7.671284887468754E-002	5.2403688E-005	-6.8302155E-001	0
8.8827920E+003	5.636499878251925E+001	-6.8509847E-001	-7.712648019760537E-002	5.2839234E-005	-6.8502140E-001	0
8.8677090E+003	5.656499877746683E+001	-6.8707705E-001	-7.748078454239382E-002	5.3235268E-005	-6.8702132E-001	0
8.8352832E+003	5.676499877241440E+001	-6.8908751E-001	-7.799268748121291E-002	5.3743788E-005	-6.8902129E-001	0
8.8074180E+003	5.696499876736198E+001	-6.9113982E-001	-7.847246570753405E-002	5.4235446E-005	-6.9102114E-001	0
8.7810830E+003	5.716499876230955E+001	-6.9309807E-001	-7.893081540041202E-002	5.4706794E-005	-6.9302106E-001	0
8.7481816E+003	5.736499875725713E+001	-6.9505876E-001	-7.945179891120008E-002	5.5223671E-005	-6.9502091E-001	0
8.7242539E+003	5.756499875220470E+001	-6.9714451E-001	-7.990878275775115E-002	5.5707969E-005	-6.9702095E-001	0
8.6914375E+003	5.776489874715480E+001	-6.9906950E-001	-8.043197456076384E-002	5.6227542E-005	-6.9901985E-001	0
8.6648145E+003	5.796489874210238E+001	-7.0111465E-001	-8.091513807423034E-002	5.6730791E-005	-7.0102155E-001	0
8.6262861E+003	5.816479873705248E+001	-7.0310688E-001	-8.150748012517706E-002	5.7308469E-005	-7.0302051E-001	0
8.5966797E+003	5.836479873200005E+001	-7.0511323E-001	-8.202158102750912E-002	5.7834503E-005	-7.0502043E-001	0
8.5608408E+003	5.856479872694763E+001	-7.0711386E-001	-8.259864989087373E-002	5.8406651E-005	-7.0702034E-001	0
8.5192998E+003	5.876479872189520E+001	-7.0910627E-001	-8.323527285681387E-002	5.9022652E-005	-7.0902026E-001	0
8.4838213E+003	5.896479871684278E+001	-7.1109778E-001	-8.381810127240041E-002	5.9602866E-005	-7.1102023E-001	0
8.4376025E+003	5.916479871179035E+001	-7.1302408E-001	-8.450552817410849E-002	6.0254475E-005	-7.1302003E-001	0
8.3976709E+003	5.936479870673793E+001	-7.1512890E-001	-8.515800413086383E-002	6.0898950E-005	-7.1501994E-001	0
8.3525527E+003	5.956479870168550E+001	-7.1710241E-001	-8.585428510731336E-002	6.1566316E-005	-7.1701986E-001	0
8.3046074E+003	5.976479869663308E+001	-7.1908903E-001	-8.658917076292283E-002	6.2265324E-005	-7.1901977E-001	0
8.2587344E+003	5.996479869158065E+001	-7.2111213E-001	-8.731508548551004E-002	6.2963969E-005	-7.2101963E-001	0
8.2117168E+003	6.016479868652823E+001	-7.2307342E-001	-8.805387130043085E-002	6.3669417E-005	-7.2301954E-001	0
8.1634180E+003	6.036479868147580E+001	-7.2507393E-001	-8.881989715181615E-002	6.4400992E-005	-7.2501945E-001	0
8.1159043E+003	6.056479867642338E+001	-7.2708219E-001	-8.958733054310863E-002	6.5137356E-005	-7.2701937E-001	0
8.0635117E+003	6.076479867137095E+001	-7.2907495E-001	-9.041655362243706E-002	6.5920445E-005	-7.2901928E-001	0
8.0111602E+003	6.096479866631853E+001	-7.3110169E-001	-9.126040341159376E-002	6.6720633E-005	-7.3101914E-001	0
7.9564941E+003	6.116479866126610E+001	-7.3306954E-001	-9.213474242791675E-002	6.7541172E-005	-7.3301905E-001	0
7.8983975E+003	6.136479865621368E+001	-7.3506600E-001	-9.306520462730949E-002	6.8409070E-005	-7.3501897E-001	0
7.8386089E+003	6.156479865116125E+001	-7.3708129E-001	-9.403215790465280E-002	6.9309346E-005	-7.3701888E-001	0
7.7766729E+003	6.176469864611136E+001	-7.3910064E-001	-9.504072515219608E-002	7.0244663E-005	-7.3901814E-001	0
7.7190942E+003	6.196459864106146E+001	-7.4110031E-001	-9.600871547902434E-002	7.1152092E-005	-7.4101865E-001	0
7.6675371E+003	6.216459863600903E+001	-7.4310791E-001	-9.691611797941646E-002	7.2019131E-005	-7.4301857E-001	0
7.6055469E+003	6.236459863095661E+001	-7.4511302E-001	-9.796968219979207E-002	7.2998482E-005	-7.4501848E-001	0
7.5504971E+003	6.256459862590418E+001	-7.4710596E-001	-9.894791592858643E-002	7.3924581E-005	-7.4701840E-001	0
7.4893003E+003	6.276459862085176E+001	-7.4911171E-001	-1.000242604284872E-001	7.4929347E-005	-7.4901825E-001	0
7.4328794E+003	6.296459861579933E+001	-7.5109583E-001	-1.010504538233470E-001	7.5898577E-005	-7.5101817E-001	0
7.3729775E+003	6.316459861074691E+001	-7.5308645E-001	-1.021414301020269E-001	7.6921329E-005	-7.5301808E-001	0
7.3185474E+003	6.336459860569448E+001	-7.5508195E-001	-1.031737467548606E-001	7.7904631E-005	-7.5501800E-001	0
7.2599751E+003	6.356459860064206E+001	-7.5711381E-001	-1.042860051788090E-001	7.8956378E-005	-7.5701785E-001	0
7.2051621E+003	6.376459859558963E+001	-7.5911504E-001	-1.053571064318712E-001	7.9978163E-005	-7.5901771E-001	0
7.1520313E+003	6.396459859053721E+001	-7.6116896E-001	-1.064269641137634E-001	8.1008904E-005	-7.6101768E-001	0
7.0937349E+003	6.416459858548478E+001	-7.6309490E-001	-1.075730796527468E-001	8.2088467E-005	-7.6301748E-001	0
7.0395425E+003	6.436459858043236E+001	-7.6509058E-001	-1.086847066516032E-001	8.3153645E-005	-7.6501751E-001	0
6.9861001E+003	6.456459857537993E+001	-7.6713222E-001	-1.098083671881418E-001	8.4237538E-005	-7.6701730E-001	0
6.9281582E+003	6.476459857032751E+001	-7.6909351E-001	-1.110098087640639E-001	8.5376923E-005	-7.6901728E-001	0
6.8818574E+003	6.496459856527508E+001	-7.7109849E-001	-1.120480168589693E-001	8.6400054E-005	-7.7101809E-001	0
6.8263188E+003	6.516459856022266E+001	-7.7313036E-001	-1.132572882897440E-001	8.7562650E-005	-7.7301842E-001	0
6.7753843E+003	6.536459855517023E+001	-7.7512550E-001	-1.144031765849629E-001	8.8676818E-005	-7.7501851E-001	0
6.7275293E+003	6.556459855011781E+001	-7.7710980E-001	-1.155119134163873E-001	8.9765439E-005	-7.7701849E-001	0
6.6802363E+003	6.576459854506538E+001	-7.7908379E-001	-1.166251812736313E-001	9.0860791E-005	-7.7901834E-001	0
6.6372139E+003	6.596459854001296E+001	-7.8109616E-001	-1.176843446470339E-001	9.1922790E-005	-7.8101844E-001	0
6.5888184E+003	6.616459853496053E+001	-7.8312850E-001	-1.188571980474374E-001	9.3080460E-005	-7.8301853E-001	0
6.5398823E+003	6.636459852990811E+001	-7.8514922E-001	-1.200555529373610E-001	9.4261522E-005	-7.8501856E-001	0
6.5017822E+003	6.656459852485568E+001	-7.8707540E-001	-1.210553333534946E-001	9.5279676E-005	-7.8701848E-001	0
6.4613511E+003	6.676459851980326E+001	-7.8912556E-001	-1.221301208657808E-001	9.6376003E-005	-7.8901851E-001	0
6.4237925E+003	6.696459851475083E+001	-7.9106498E-001	-1.231460998873823E-001	9.7416567E-005	-7.9101855E-001	0
6.3818291E+003	6.716459850969841E+001	-7.9307491E-001	-1.242707859008845E-001	9.8556040E-005	-7.9301840E-001	0
6.3357798E+003	6.736459850464598E+001	-7.9510146E-001	-1.254938576759059E-001	9.9780351E-005	-7.9501849E-001	0
6.2969629E+003	6.756459849959356E+001	-7.9709715E-001	-1.265843799781232E-001	1.0090005E-004	-7.9701859E-001	0
6.2563950E+003	6.776459849454113E+001	-7.9911542E-001	-1.277277744977039E-001	1.0206924E-004	-7.9901844E-001	0
6.2171768E+003	6.796459848948871E+001	-8.0109555E-001	-1.288519772001946E-001	1.0322274E-004	-8.0101854E-001	0
6.1714058E+003	6.816459848443628E+001	-8.0314469E-001	-1.301396634005207E-001	1.0452098E-004	-8.0301851E-001	0
6.1392749E+003	6.836459847938386E+001	-8.0511016E-001	-1.311409188426038E-001	1.0558288E-004	-8.0501848E-001	0
6.1037095E+003	6.856459847433143E+001	-8.0708331E-001	-1.322283271379143E-001	1.0671928E-004	-8.0701846E-001	0
6.0749063E+003	6.876459846927901E+001	-8.0911708E-001	-1.331900547970251E-001	1.0776635E-004	-8.0901849E-001	0
6.0480498E+003	6.896459846422658E+001	-8.1110603E-001	-1.341103422371015E-001	1.0877771E-004	-8.1101859E-001	0
6.0135991E+003	6.916459845917416E+001	-8.1311059E-001	-1.352119723265215E-001	1.0994229E-004	-8.1301850E-001	0
5.9799712E+003	6.936459845412173E+001	-8.1506521E-001	-1.362991900481030E-001	1.1109273E-004	-8.1501842E-001	0
5.9472178E+003	6.956459844906931E+001	-8.1709307E-001	-1.373908107122512E-001	1.1226108E-004	-8.1701857E-001	0
5.9251572E+003	6.976459844401688E+001	-8.1908214E-001	-1.382380435317162E-001	1.1322831E-004	-8.1901854E-001	0
5.9026934E+003	6.996459843896446E+001	-8.2109857E-001	-1.391057489205427E-001	1.1421953E-004	-8.2101846E-001	0
5.8799487E+003	7.016459843391203E+001	-8.2309502E-001	-1.399833677049362E-001	1.1521961E-004	-8.2301849E-001	0
5.8432773E+003	7.036459842885961E+001	-8.2508773E-001	-1.412029008754869E-001	1.1650478E-004	-8.2501853E-001	0
5.8153535E+003	7.056459842380718E+001	-8.2710242E-001	-1.422273700902663E-001	1.1763661E-004	-8.2701850E-001	0
5.7846699E+003	7.076459841875476E+001	-8.2910383E-001	-1.433277735370471E-001	1.1883360E-004	-8.2901847E-001	0
5.7586006E+003	7.096459841370233E+001	-8.3108550E-001	-1.443207373287176E-001	1.1994287E-004	-8.3101857E-001	0
5.7317314E+003	7.116459840864991E+001	-8.3304840E-001	-1.453397425996082E-001	1.2107504E-004	-8.3301842E-001	0
5.7208335E+003	7.136459840359748E+001	-8.3511430E-001	-1.459777364676269E-001	1.2190810E-004	-8.3501852E-001	0
5.6841074E+003	7.156459839854506E+001	-8.3709872E-001	-1.472700434322989E-001	1.2327956E-004	-8.3701849E-001	0
5.6634907E+003	7.176459839349263E+001	-8.3915567E-001	-1.481693341035628E-001	1.2433714E-004	-8.3901846E-001	0
5.6181963E+003	7.196459838844021E+001	-8.4114146E-001	-1.497173458506729E-001	1.2593347E-004	-8.4101856E-001	0
5.5942998E+003	7.216459838338778E+001	-8.4312391E-001	-1.507112531840396E-001	1.2706826E-004	-8.4301847E-001	0
5.5761729E+003	7.236459837833536E+001	-8.4509087E-001	-1.515539166635820E-001	1.2807683E-004	-8.4501863E-001	0
5.5596777E+003	7.256459837328293E+001	-8.4714025E-001	-1.523721912799747E-001	1.2908061E-004	-8.4701848E-001	0
5.5321997E+003	7.276459836823051E+001	-8.4913629E-001	-1.534898105033093E-001	1.3033376E-004	-8.4901839E-001	0
5.4853311E+003	7.296459836317808E+001	-8.5114461E-001	-1.551674164645790E-001	1.3206991E-004	-8.5101855E-001	0
5.4559692E+003	7.316459835812566E+001	-8.5310733E-001	-1.563621933863431E-001	1.3339374E-004	-8.5301852E-001	0
5.4282744E+003	7.336459835307323E+001	-8.5509449E-001	-1.575260296740620E-001	1.3469964E-004	-8.5501850E-001	0
5.3887451E+003	7.356459834802081E+001	-8.5713935E-001	-1.590610306610748E-001	1.3633746E-004	-8.5701853E-001	0
5.3513677E+003	7.376459834296838E+001	-8.5910916E-001	-1.605401051118799E-001	1.3792148E-004	-8.5901850E-001	0
5.3131748E+003	7.396459833791596E+001	-8.6111045E-001	-1.620707926551577E-001	1.3956086E-004	-8.6101848E-001	0
5.2845381E+003	7.416459833286353E+001	-8.6311358E-001	-1.633281077568731E-001	1.4097070E-004	-8.6301845E-001	0
5.2595562E+003	7.436459832781111E+001	-8.6512786E-001	-1.644868510933657E-001	1.4230216E-004	-8.6501855E-001	0
5.2187529E+003	7.456459832275868E+001	-8.6713815E-001	-1.661581137764556E-001	1.4408203E-004	-8.6701852E-001	0
5.1811636E+003	7.476459831770626E+001	-8.6910510E-001	-1.677432248829245E-001	1.4578649E-004	-8.6901850E-001	0
5.1408984E+003	7.496459831265383E+001	-8.7110960E-001	-1.694469553494482E-001	1.4760687E-004	-8.7101847E-001	0
5.1075972E+003	7.516459830760141E+001	-8.7313908E-001	-1.709490968748639E-001	1.4926234E-004	-8.7301844E-001	0
5.0647803E+003	7.536459830254898E+001	-8.7515783E-001	-1.727928551707982E-001	1.5122101E-004	-8.7501854E-001	0
5.0111333E+003	7.556459829749656E+001	-8.7709105E-001	-1.750284772653501E-001	1.5351591E-004	-8.7701845E-001	0
4.9475698E+003	7.576459829244413E+001	-8.7910384E-001	-1.776839662733956E-001	1.5620266E-004	-8.7901860E-001	0
4.8976396E+003	7.596459828739171E+001	-8.8112265E-001	-1.799076189880436E-001	1.5852068E-004	-8.8101858E-001	0
4.8464155E+003	7.616459828233928E+001	-8.8314360E-001	-1.822261453306320E-001	1.6093186E-004	-8.8301843E-001	0
4.7897222E+003	7.636459827728686E+001	-8.8505810E-001	-1.847827565210053E-001	1.6354347E-004	-8.8501853E-001	0
4.7146519E+003	7.656459827223443E+001	-8.8712597E-001	-1.881636138720326E-001	1.6692483E-004	-8.8701850E-001	0
4.6465645E+003	7.676459826718201E+001	-8.8913232E-001	-1.913526286339380E-001	1.7013781E-004	-8.8901848E-001	0
4.5722627E+003	7.696459826212958E+001	-8.9109612E-001	-1.948917243331925E-001	1.7366726E-004	-8.9101851E-001	0
4.4835972E+003	7.716459825707716E+001	-8.9307010E-001	-1.991860711790805E-001	1.7788712E-004	-8.9301854E-001	0
4.3900801E+003	7.736459825202473E+001	-8.9513028E-001	-2.038983869241743E-001	1.8251562E-004	-8.9501852E-001	0
4.2940288E+003	7.756459824697231E+001	-8.9708698E-001	-2.089149771308920E-001	1.8741490E-004	-8.9701849E-001	0
4.1868726E+003	7.776459824191988E+001	-8.9913654E-001	-2.147513481190684E-001	1.9309079E-004	-8.9901853E-001	0
4.0857471E+003	7.796459823686746E+001	-9.0111673E-001	-2.205512754876762E-001	1.9874245E-004	-9.0101850E-001	0
3.9725603E+003	7.816459823181503E+001	-9.0310472E-001	-2.273356874289663E-001	2.0530794E-004	-9.0301847E-001	0
3.8809622E+003	7.836459822676261E+001	-9.0510213E-001	-2.332159137002732E-001	2.1108422E-004	-9.0501857E-001	0
3.7716472E+003	7.856459822171018E+001	-9.0708780E-001	-2.405017656453650E-001	2.1815622E-004	-9.0701854E-001	0
3.6717048E+003	7.876459821665776E+001	-9.0910411E-001	-2.475972723959186E-001	2.2509170E-004	-9.0901852E-001	0
3.5743018E+003	7.896459821160533E+001	-9.1110158E-001	-2.549033767085451E-001	2.3224286E-004	-9.1101849E-001	0
3.4738308E+003	7.916459820655291E+001	-9.1310227E-001	-2.628516837164691E-001	2.4001047E-004	-9.1301858E-001	0
3.3718545E+003	7.936459820150048E+001	-9.1506827E-001	-2.713842729229041E-001	2.4833513E-004	-9.1501862E-001	0
3.2663499E+003	7.956459819644806E+001	-9.1709965E-001	-2.807720281192159E-001	2.5749594E-004	-9.1701853E-001	0
3.1588633E+003	7.976459819139563E+001	-9.1909707E-001	-2.909581763500908E-001	2.6741880E-004	-9.1901851E-001	0
3.0548936E+003	7.996459818634321E+001	-9.2107719E-001	-3.015087642844207E-001	2.7771285E-004	-9.2101860E-001	0
2.9550154E+003	8.016459818129078E+001	-9.2310828E-001	-3.123869642218300E-001	2.8836698E-004	-9.2301846E-001	0
2.8480913E+003	8.036459817623836E+001	-9.2507946E-001	-3.248068016981218E-001	3.0047211E-004	-9.2501849E-001	0
2.7136333E+003	8.056459817118593E+001	-9.2710513E-001	-3.416471808215358E-001	3.1674287E-004	-9.2701852E-001	0
2.5973789E+003	8.076459816613351E+001	-9.2911679E-001	-3.577132386867135E-001	3.3235736E-004	-9.2901850E-001	0
2.4888408E+003	8.096459816108109E+001	-9.3113697E-001	-3.741247381808031E-001	3.4836138E-004	-9.3101847E-001	0
2.3806934E+003	8.116459815602866E+001	-9.3311626E-001	-3.919514859741451E-001	3.6573631E-004	-9.3301851E-001	0
2.2759348E+003	8.136459815097624E+001	-9.3513650E-001	-4.108801618378948E-001	3.8422903E-004	-9.3501848E-001	0
2.1618569E+003	8.156459814592381E+001	-9.3712360E-001	-4.334808647877564E-001	4.0622515E-004	-9.3701845E-001	0
2.0405178E+003	8.176459814087139E+001	-9.3910456E-001	-4.602285365145362E-001	4.3220271E-004	-9.3901855E-001	0
1.9341132E+003	8.196459813581896E+001	-9.4108421E-001	-4.865714378545123E-001	4.5790471E-004	-9.4101858E-001	0
1.8355239E+003	8.216459813076654E+001	-9.4312418E-001	-5.138174228817891E-001	4.8459362E-004	-9.4301850E-001	0
1.7360865E+003	8.236459812571411E+001	-9.4512874E-001	-5.444018683246341E-001	5.1452988E-004	-9.4501853E-001	0
1.6286365E+003	8.256459812066169E+001	-9.4713247E-001	-5.815493537539669E-001	5.5080425E-004	-9.4701856E-001	0
1.5399766E+003	8.276459811560926E+001	-9.4909060E-001	-6.163019979047402E-001	5.8492646E-004	-9.4901860E-001	0
1.4525083E+003	8.296459811055684E+001	-9.5115352E-001	-6.548351472214087E-001	6.2284875E-004	-9.5101851E-001	0
1.3607274E+003	8.316459810550441E+001	-9.5312548E-001	-7.004529163410331E-001	6.6761952E-004	-9.5301849E-001	0
1.2860708E+003	8.336459810045199E+001	-9.5517319E-001	-7.427065493813538E-001	7.0941338E-004	-9.5501858E-001	0
1.2079135E+003	8.356459809539956E+001	-9.5714313E-001	-7.923938242249733E-001	7.5843430E-004	-9.5701844E-001	0
1.1366093E+003	8.376459809034714E+001	-9.5913064E-001	-8.438526156385926E-001	8.0936489E-004	-9.5901847E-001	0
1.0698414E+003	8.396459808529471E+001	-9.6111250E-001	-8.983691423337339E-001	8.6343382E-004	-9.6101850E-001	0
1.0051858E+003	8.416459808024229E+001	-9.6315002E-001	-9.581810914554429E-001	9.2287216E-004	-9.6301848E-001	0
9.4514081E+002	8.436459807518986E+001	-9.6514714E-001	-1.021167595395628E+000	9.8557700E-004	-9.6501845E-001	0
8.8698108E+002	8.457459806988481E+001	-9.6717876E-001	-1.090416439482157E+000	1.0546276E-003	-9.6711862E-001	0
8.3177283E+002	8.478459806457977E+001	-9.6935052E-001	-1.165402994269415E+000	1.1296840E-003	-9.6921861E-001	0
7.8492712E+002	8.498459805952734E+001	-9.7134459E-001	-1.237496485439489E+000	1.2020355E-003	-9.7121853E-001	0
7.3996613E+002	8.518459805447492E+001	-9.7330612E-001	-1.315338746448159E+000	1.2802272E-003	-9.7321850E-001	0
6.9707245E+002	8.538459804942249E+001	-9.7526354E-001	-1.399084898467910E+000	1.3644765E-003	-9.7521859E-001	0
6.5875189E+002	8.558459804437007E+001	-9.7729856E-001	-1.483560864895985E+000	1.4498819E-003	-9.7721845E-001	0
6.2187396E+002	8.578459803931764E+001	-9.7930944E-001	-1.574771546199077E+000	1.5421887E-003	-9.7921848E-001	0
5.8831879E+002	8.598459803426522E+001	-9.8127592E-001	-1.667932316187827E+000	1.6367019E-003	-9.8121852E-001	0
5.5689185E+002	8.618459802921279E+001	-9.8330045E-001	-1.765693681732735E+000	1.7362074E-003	-9.8321849E-001	0
5.2658649E+002	8.638459802416037E+001	-9.8527586E-001	-1.871061727218752E+000	1.8435119E-003	-9.8521852E-001	0
4.9881049E+002	8.658459801910794E+001	-9.8727542E-001	-1.979259613149557E+000	1.9540745E-003	-9.8721850E-001	0
4.7324341E+002	8.678459801405552E+001	-9.8930806E-001	-2.090484665128109E+000	2.0681333E-003	-9.8921847E-001	0
4.4889014E+002	8.698459800900309E+001	-9.9128997E-001	-2.208313048984060E+000	2.1890786E-003	-9.9121851E-001	0
4.2582147E+002	8.718459800395067E+001	-9.9327159E-001	-2.332600989275512E+000	2.3169063E-003	-9.9321854E-001	0
4.0468875E+002	8.738459799889824E+001	-9.9527138E-001	-2.459350185937623E+000	2.4477208E-003	-9.9521852E-001	0
3.8421567E+002	8.758459799384582E+001	-9.9728626E-001	-2.595641910539879E+000	2.5885981E-003	-9.9721849E-001	0
3.6531696E+002	8.778459798879339E+001	-9.9928111E-001	-2.735381134935642E+000	2.7334148E-003	-9.9921846E-001	0
3.4770935E+002	8.798459798374097E+001	-1.0012621E+000	-2.879594921085840E+000	2.8832292E-003	-1.0012186E+000	0
3.3099011E+002	8.818459797868854E+001	-1.0032905E+000	-3.031179814702931E+000	3.0411540E-003	-1.0032185E+000	0
3.1525922E+002	8.838459797363612E+001	-1.0052696E+000	-3.188708231613333E+000	3.2055115E-003	-1.0052185E+000	0
3.0032684E+002	8.858459796858369E+001	-1.0073122E+000	-3.354053147458160E+000	3.3785787E-003	-1.0072185E+000	0
2.8605334E+002	8.878459796353127E+001	-1.0092676E+000	-3.528249634231315E+000	3.5609480E-003	-1.0092186E+000	0
2.7326349E+002	8.898459795847884E+001	-1.0112809E+000	-3.700753767879633E+000	3.7425016E-003	-1.0112184E+000	0
2.6137433E+002	8.918459795342642E+001	-1.0133091E+000	-3.876850432042630E+000	3.9284481E-003	-1.0132185E+000	0
2.4992909E+002	8.938459794837399E+001	-1.0152743E+000	-4.062249198826272E+000	4.1242973E-003	-1.0152185E+000	0
2.3922646E+002	8.958459794332157E+001	-1.0172631E+000	-4.252301790884573E+000	4.3257093E-003	-1.0172185E+000	0
2.2885971E+002	8.978459793826914E+001	-1.0193210E+000	-4.453911910420672E+000	4.5399657E-003	-1.0192186E+000	0
2.1958537E+002	8.998459793321672E+001	-1.0212963E+000	-4.651021358242360E+000	4.7500706E-003	-1.0212185E+000	0
2.0998441E+002	9.018459792816429E+001	-1.0232993E+000	-4.873215987163334E+000	4.9867588E-003	-1.0232185E+000	0
2.0148264E+002	9.038459792311187E+001	-1.0253044E+000	-5.088798187656224E+000	5.2175676E-003	-1.0252185E+000	0
1.9332925E+002	9.058459791805944E+001	-1.0272821E+000	-5.313640281287718E+000	5.4586078E-003	-1.0272186E+000	0
1.8555835E+002	9.078459791300702E+001	-1.0293216E+000	-5.547158165448366E+000	5.7098093E-003	-1.0292186E+000	0
1.7813559E+002	9.098459790795459E+001	-1.0313146E+000	-5.789492285170496E+000	5.9707882E-003	-1.0312185E+000	0
1.7134529E+002	9.118459790290217E+001	-1.0333203E+000	-6.030631373697659E+000	6.2315739E-003	-1.0332185E+000	0
1.6467918E+002	9.138459789784974E+001	-1.0353069E+000	-6.286810980902764E+000	6.5087788E-003	-1.0352185E+000	0
1.5833060E+002	9.158459789279732E+001	-1.0373033E+000	-6.551502946620630E+000	6.7958958E-003	-1.0372186E+000	0
1.5247954E+002	9.178459788774489E+001	-1.0393448E+000	-6.816290072167533E+000	7.0844754E-003	-1.0392185E+000	0
1.4682370E+002	9.198459788269247E+001	-1.0413415E+000	-7.092462230634240E+000	7.3856758E-003	-1.0412185E+000	0
1.4152295E+002	9.218459787764004E+001	-1.0433183E+000	-7.372078418191045E+000	7.6914243E-003	-1.0432186E+000	0
1.3637798E+002	9.238459787258762E+001	-1.0453672E+000	-7.665220434973833E+000	8.0129700E-003	-1.0452185E+000	0
1.3134796E+002	9.258459786753519E+001	-1.0473443E+000	-7.973814510163786E+000	8.3513297E-003	-1.0472186E+000	0
1.2671696E+002	9.278459786248277E+001	-1.0493237E+000	-8.280846584478493E+000	8.6892880E-003	-1.0492185E+000	0
1.2235960E+002	9.298459785743034E+001	-1.0513278E+000	-8.592115719302200E+000	9.0331305E-003	-1.0512186E+000	0
1.1808205E+002	9.318459785237792E+001	-1.0533253E+000	-8.920282678674425E+000	9.3959598E-003	-1.0532185E+000	0
1.1416576E+002	9.338459784732549E+001	-1.0553484E+000	-9.244000705326528E+000	9.7556412E-003	-1.0552185E+000	0
1.1040561E+002	9.358459784227307E+001	-1.0573517E+000	-9.576974601431999E+000	1.0126230E-002	-1.0572186E+000	0
1.0675628E+002	9.378459783722064E+001	-1.0593638E+000	-9.923199394460170E+000	1.0512278E-002	-1.0592186E+000	0
1.0319672E+002	9.398459783216822E+001	-1.0613068E+000	-1.028430832756890E+001	1.0914806E-002	-1.0612185E+000	0
9.9771988E+001	9.418459782711579E+001	-1.0633352E+000	-1.065765272827649E+001	1.1332657E-002	-1.0632185E+000	0
9.6154121E+001	9.439459782181075E+001	-1.0654479E+000	-1.108062639558802E+001	1.1805831E-002	-1.0653185E+000	0
9.3056923E+001	9.460459781650570E+001	-1.0675117E+000	-1.147159895787436E+001	1.2246066E-002	-1.0674186E+000	0
9.0154076E+001	9.480459781145328E+001	-1.0694778E+000	-1.186277863072430E+001	1.2686978E-002	-1.0694185E+000	0
8.7399780E+001	9.500459780640085E+001	-1.0714823E+000	-1.225955356708198E+001	1.3135894E-002	-1.0714186E+000	0
8.4723381E+001	9.520459780134843E+001	-1.0734582E+000	-1.267015312737081E+001	1.3600879E-002	-1.0734185E+000	0
8.2138458E+001	9.540459779629600E+001	-1.0754577E+000	-1.309323000934931E+001	1.4081215E-002	-1.0754185E+000	0
7.9715561E+001	9.560459779124358E+001	-1.0774891E+000	-1.351667275126016E+001	1.4564068E-002	-1.0774186E+000	0
7.7296417E+001	9.580459778619115E+001	-1.0795028E+000	-1.396575516043345E+001	1.5076072E-002	-1.0794187E+000	0
7.4949486E+001	9.600459778113873E+001	-1.0815151E+000	-1.442991972591329E+001	1.5606176E-002	-1.0814184E+000	0
7.2856026E+001	9.620459777608630E+001	-1.0835249E+000	-1.487213907328321E+001	1.6114334E-002	-1.0834185E+000	0
7.0791565E+001	9.640459777103388E+001	-1.0855052E+000	-1.533382225793495E+001	1.6644945E-002	-1.0854185E+000	0
6.8787415E+001	9.660459776598145E+001	-1.0874823E+000	-1.580932206942651E+001	1.7192358E-002	-1.0874184E+000	0
6.6774879E+001	9.680459776092903E+001	-1.0894984E+000	-1.631599211287335E+001	1.7776247E-002	-1.0894185E+000	0
6.4973244E+001	9.700459775587660E+001	-1.0915309E+000	-1.679969937433734E+001	1.8337391E-002	-1.0914185E+000	0
6.3204231E+001	9.720459775082418E+001	-1.0935094E+000	-1.730120606054794E+001	1.8919032E-002	-1.0934185E+000	0
6.1376881E+001	9.740459774577175E+001	-1.0954804E+000	-1.784842146537736E+001	1.9552596E-002	-1.0954185E+000	0
5.9720730E+001	9.760459774071933E+001	-1.0975040E+000	-1.837727016278140E+001	2.0169128E-002	-1.0974185E+000	0
5.8211388E+001	9.780459773566690E+001	-1.0994848E+000	-1.888779628858005E+001	2.0766845E-002	-1.0994186E+000	0
5.6583500E+001	9.800459773061448E+001	-1.1014996E+000	-1.946679845486099E+001	2.1442670E-002	-1.1014185E+000	0
5.5099251E+001	9.820459772556205E+001	-1.1035206E+000	-2.002787034041211E+001	2.2101168E-002	-1.1034185E+000	0
5.3609474E+001	9.840459772050963E+001	-1.1055518E+000	-2.062232253043288E+001	2.2799047E-002	-1.1054184E+000	0
5.2230553E+001	9.860459771545720E+001	-1.1074950E+000	-2.120396759031576E+001	2.3483288E-002	-1.1074185E+000	0
5.0848431E+001	9.880459771040478E+001	-1.1095047E+000	-2.181984087088210E+001	2.4209216E-002	-1.1094185E+000	0
4.9594498E+001	9.900459770535235E+001	-1.1114913E+000	-2.241158560655003E+001	2.4910282E-002	-1.1114185E+000	0
4.8324348E+001	9.920459770029993E+001	-1.1135290E+000	-2.304281376021783E+001	2.5658840E-002	-1.1134186E+000	0
4.7046463E+001	9.940459769524750E+001	-1.1155274E+000	-2.371118564278630E+001	2.6450478E-002	-1.1154184E+000	0
4.5896614E+001	9.960459769019508E+001	-1.1175599E+000	-2.434950701787636E+001	2.7212033E-002	-1.1174185E+000	0
4.4739105E+001	9.980459768514265E+001	-1.1195240E+000	-2.502338723463259E+001	2.8014282E-002	-1.1194185E+000	0
4.3615635E+001	1.000045976800902E+002	-1.1215210E+000	-2.571373759375685E+001	2.8838497E-002	-1.1214186E+000	0
4.2597752E+001	1.002045976750378E+002	-1.1235315E+000	-2.637536911385951E+001	2.9633557E-002	-1.1234186E+000	0
4.1564941E+001	1.004045976699854E+002	-1.1255505E+000	-2.707932397351505E+001	3.0479146E-002	-1.1254185E+000	0
4.0552433E+001	1.006045976649330E+002	-1.1275408E+000	-2.780451770055874E+001	3.1350728E-002	-1.1274185E+000	0
3.9537266E+001	1.008045976598805E+002	-1.1295863E+000	-2.857016759340456E+001	3.2272469E-002	-1.1294186E+000	0
3.8565029E+001	1.010045976548281E+002	-1.1315205E+000	-2.934058584918232E+001	3.3199474E-002	-1.1314186E+000	0
3.7649849E+001	1.012045976497757E+002	-1.1335285E+000	-3.010711851547090E+001	3.4127276E-002	-1.1334186E+000	0
3.6756611E+001	1.014045976447233E+002	-1.1355357E+000	-3.089337360615633E+001	3.5080530E-002	-1.1354185E+000	0
3.5876976E+001	1.016045976396708E+002	-1.1374891E+000	-3.170526491946912E+001	3.6064394E-002	-1.1374185E+000	0
3.5022293E+001	1.018045976346184E+002	-1.1395321E+000	-3.253733394908267E+001	3.7077338E-002	-1.1394186E+000	0
3.4227764E+001	1.020045976295660E+002	-1.1415305E+000	-3.335101203448096E+001	3.8071197E-002	-1.1414186E+000	0
3.3434639E+001	1.022045976245136E+002	-1.1435394E+000	-3.420223492884031E+001	3.9111603E-002	-1.1434184E+000	0
3.2611584E+001	1.024045976194611E+002	-1.1455451E+000	-3.512694124407781E+001	4.0239498E-002	-1.1454185E+000	0
3.1890917E+001	1.026045976144087E+002	-1.1475132E+000	-3.598244414659325E+001	4.1290328E-002	-1.1474185E+000	0
3.1170746E+001	1.028045976093563E+002	-1.1495252E+000	-3.687833451494859E+001	4.2392574E-002	-1.1494186E+000	0
3.0476177E+001	1.030045976043039E+002	-1.1515583E+000	-3.778552243498714E+001	4.3512233E-002	-1.1514186E+000	0
2.9749527E+001	1.032045975992514E+002	-1.1535710E+000	-3.877611213963047E+001	4.4730999E-002	-1.1534185E+000	0
2.9076618E+001	1.034045975941990E+002	-1.1555209E+000	-3.974055450195078E+001	4.5921043E-002	-1.1554184E+000	0
2.8371927E+001	1.036045975891466E+002	-1.1575409E+000	-4.079881241775678E+001	4.7226295E-002	-1.1574186E+000	0
2.7715082E+001	1.038045975840942E+002	-1.1596181E+000	-4.184068991727025E+001	4.8519224E-002	-1.1594186E+000	0
2.7083277E+001	1.040045975790417E+002	-1.1615778E+000	-4.288911765394835E+001	4.9819048E-002	-1.1614184E+000	0
2.6507305E+001	1.042045975739893E+002	-1.1635721E+000	-4.389627899172081E+001	5.1076483E-002	-1.1634185E+000	0
2.5937695E+001	1.044045975689369E+002	-1.1656271E+000	-4.493950218732658E+001	5.2382704E-002	-1.1654185E+000	0
2.5353992E+001	1.046045975638845E+002	-1.1675590E+000	-4.605030293259222E+001	5.3766448E-002	-1.1674186E+000	0
2.4772779E+001	1.048045975588320E+002	-1.1695685E+000	-4.721184297267541E+001	5.5217486E-002	-1.1694186E+000	0
2.4236210E+001	1.050045975537796E+002	-1.1715919E+000	-4.834055487450030E+001	5.6635402E-002	-1.1714184E+000	0
2.3671892E+001	1.052045975487272E+002	-1.1735780E+000	-4.957685611415627E+001	5.8182310E-002	-1.1734185E+000	0
2.3159801E+001	1.054045975436748E+002	-1.1755970E+000	-5.076023284594226E+001	5.9673574E-002	-1.1754185E+000	0
2.2652702E+001	1.056045975386223E+002	-1.1775504E+000	-5.198277905738814E+001	6.1212342E-002	-1.1774185E+000	0
2.2210981E+001	1.058045975335699E+002	-1.1795868E+000	-5.310826733971942E+001	6.2645808E-002	-1.1794186E+000	0
2.1768749E+001	1.060045975285175E+002	-1.1816022E+000	-5.427974903610505E+001	6.4137071E-002	-1.1814185E+000	0
2.1296902E+001	1.062045975234651E+002	-1.1835893E+000	-5.557565923829202E+001	6.5778755E-002	-1.1834185E+000	0
2.0844440E+001	1.064045975184126E+002	-1.1856203E+000	-5.687945088615788E+001	6.7437433E-002	-1.1854185E+000	0
2.0425570E+001	1.066045975133602E+002	-1.1875668E+000	-5.814118033579939E+001	6.9046535E-002	-1.1874186E+000	0
1.9954252E+001	1.068045975083078E+002	-1.1895998E+000	-5.961635362209938E+001	7.0919603E-002	-1.1894186E+000	0
1.9536421E+001	1.070045975032554E+002	-1.1915773E+000	-6.099261155474466E+001	7.2677411E-002	-1.1914185E+000	0
1.9108486E+001	1.072045974982029E+002	-1.1935759E+000	-6.246312920576838E+001	7.4554481E-002	-1.1934185E+000	0
1.8720604E+001	1.074045974931505E+002	-1.1955813E+000	-6.386445992171349E+001	7.6355152E-002	-1.1954185E+000	0
1.8357098E+001	1.076045974880981E+002	-1.1975949E+000	-6.523879336716095E+001	7.8129642E-002	-1.1974186E+000	0
1.7977455E+001	1.078045974830457E+002	-1.1995763E+000	-6.672669921386250E+001	8.0043763E-002	-1.1994185E+000	0
1.7606037E+001	1.080045974779932E+002	-1.2015988E+000	-6.824924594907225E+001	8.2008213E-002	-1.2014185E+000	0
1.7254759E+001	1.082045974729408E+002	-1.2035781E+000	-6.975340122106093E+001	8.3953664E-002	-1.2034185E+000	0
1.6918558E+001	1.084045974678884E+002	-1.2055801E+000	-7.125785273381121E+001	8.5907049E-002	-1.2054185E+000	0
1.6600517E+001	1.086045974628360E+002	-1.2076213E+000	-7.274600253840401E+001	8.7849624E-002	-1.2074186E+000	0
1.6278126E+001	1.088045974577835E+002	-1.2095898E+000	-7.430768660082549E+001	8.9881822E-002	-1.2094185E+000	0
1.5981050E+001	1.090045974527311E+002	-1.2116418E+000	-7.581740743286753E+001	9.1863543E-002	-1.2114185E+000	0
1.5706124E+001	1.092045974476787E+002	-1.2135648E+000	-7.726697662249717E+001	9.3768477E-002	-1.2134185E+000	0
1.5434164E+001	1.094045974426263E+002	-1.2155865E+000	-7.875946569875282E+001	9.5738947E-002	-1.2154186E+000	0
1.5171880E+001	1.096045974375738E+002	-1.2176175E+000	-8.025488916546283E+001	9.7719759E-002	-1.2174186E+000	0
1.4868429E+001	1.098045974325214E+002	-1.2195905E+000	-8.202551493298711E+001	1.0003754E-001	-1.2194185E+000	0
1.4592374E+001	1.100045974274690E+002	-1.2216072E+000	-8.371545571534807E+001	1.0226741E-001	-1.2214186E+000	0
1.4307316E+001	1.102045974224166E+002	-1.2236147E+000	-8.552370962912801E+001	1.0464807E-001	-1.2234185E+000	0
1.4030623E+001	1.104045974173641E+002	-1.2256161E+000	-8.735293498169000E+001	1.0706116E-001	-1.2254184E+000	0
1.3711769E+001	1.106045974123117E+002	-1.2276061E+000	-8.952937112535756E+001	1.0990680E-001	-1.2274185E+000	0
1.3461881E+001	1.108045974072593E+002	-1.2296351E+000	-9.134200372501323E+001	1.1231734E-001	-1.2294186E+000	0
1.3240915E+001	1.110045974022069E+002	-1.2315736E+000	-9.301272303879659E+001	1.1455201E-001	-1.2314185E+000	0
1.3009345E+001	1.112045973971544E+002	-1.2336110E+000	-9.482498476078172E+001	1.1697714E-001	-1.2334185E+000	0
1.2787565E+001	1.114045973921020E+002	-1.2355790E+000	-9.662347693562265E+001	1.1938594E-001	-1.2354186E+000	0
1.2597328E+001	1.116045973870496E+002	-1.2376169E+000	-9.824439905830525E+001	1.2158893E-001	-1.2374185E+000	0
1.2400458E+001	1.118045973819972E+002	-1.2396219E+000	-9.996580912088302E+001	1.2391981E-001	-1.2394185E+000	0
1.2150723E+001	1.120045973769447E+002	-1.2416484E+000	-1.021872060671953E+002	1.2688059E-001	-1.2414185E+000	0
1.1844975E+001	1.122045973718923E+002	-1.2435766E+000	-1.049877024464596E+002	1.3056025E-001	-1.2434185E+000	0
1.1576488E+001	1.124045973668399E+002	-1.2456172E+000	-1.075988774807817E+002	1.3402700E-001	-1.2454184E+000	0
1.1386415E+001	1.126145973615348E+002	-1.2477448E+000	-1.095818827619364E+002	1.3673022E-001	-1.2475185E+000	0
1.1127579E+001	1.128245973562298E+002	-1.2497587E+000	-1.123118332454137E+002	1.4036269E-001	-1.2496186E+000	0
1.0896364E+001	1.130245973511774E+002	-1.2517556E+000	-1.148782810213343E+002	1.4379953E-001	-1.2516185E+000	0
1.0719817E+001	1.132245973461249E+002	-1.2537208E+000	-1.169535546118982E+002	1.4662710E-001	-1.2536186E+000	0
1.0578328E+001	1.134245973410725E+002	-1.2557915E+000	-1.187136109302376E+002	1.4907955E-001	-1.2556186E+000	0
1.0409338E+001	1.136245973360201E+002	-1.2577771E+000	-1.208316092934474E+002	1.5197924E-001	-1.2576187E+000	0
1.0254273E+001	1.138245973309677E+002	-1.2597744E+000	-1.228536008728873E+002	1.5476783E-001	-1.2596185E+000	0
1.0076351E+001	1.140245973259152E+002	-1.2617691E+000	-1.252208275751732E+002	1.5799977E-001	-1.2616185E+000	0
9.8673878E+000	1.142245973208628E+002	-1.2637726E+000	-1.280756958217571E+002	1.6185856E-001	-1.2636185E+000	0
9.6888590E+000	1.144245973158104E+002	-1.2657551E+000	-1.306402543829136E+002	1.6535856E-001	-1.2656184E+000	0
9.5539722E+000	1.146245973107580E+002	-1.2677904E+000	-1.326977352620247E+002	1.6823292E-001	-1.2676185E+000	0
9.4172850E+000	1.148245973057055E+002	-1.2697749E+000	-1.348345009918385E+002	1.7120947E-001	-1.2696185E+000	0
9.2738791E+000	1.150245973006531E+002	-1.2717466E+000	-1.371321113050118E+002	1.7439730E-001	-1.2716185E+000	0
9.1301851E+000	1.152245972956007E+002	-1.2737880E+000	-1.395139260475871E+002	1.7771116E-001	-1.2736185E+000	0
9.0201654E+000	1.154245972905483E+002	-1.2757491E+000	-1.414329972980786E+002	1.8043302E-001	-1.2756186E+000	0
8.8899422E+000	1.156245972854958E+002	-1.2777553E+000	-1.437304417292276E+002	1.8365233E-001	-1.2776185E+000	0
8.7183046E+000	1.158245972804434E+002	-1.2797714E+000	-1.467913228000366E+002	1.8785934E-001	-1.2796185E+000	0
8.5479078E+000	1.160245972753910E+002	-1.2817899E+000	-1.499536460056870E+002	1.9220906E-001	-1.2816186E+000	0
8.4084034E+000	1.162245972703386E+002	-1.2837811E+000	-1.526783325320739E+002	1.9600555E-001	-1.2836186E+000	0
8.2384624E+000	1.164245972652861E+002	-1.2857757E+000	-1.560698663750468E+002	2.0067084E-001	-1.2856185E+000	0
8.0499315E+000	1.166245972602337E+002	-1.2877898E+000	-1.599752512918849E+002	2.0601450E-001	-1.2876185E+000	0
7.8748918E+000	1.168245972551813E+002	-1.2897701E+000	-1.637825893631323E+002	2.1124189E-001	-1.2896185E+000	0
7.7769008E+000	1.170245972501289E+002	-1.2917985E+000	-1.661071038051530E+002	2.1457690E-001	-1.2916186E+000	0
7.6556864E+000	1.172245972450764E+002	-1.2937422E+000	-1.689910084417338E+002	2.1863079E-001	-1.2936186E+000	0
7.5053782E+000	1.174245972400240E+002	-1.2957906E+000	-1.726482722656524E+002	2.2371601E-001	-1.2956185E+000	0
7.3981905E+000	1.176245972349716E+002	-1.2977505E+000	-1.754145776787584E+002	2.2764435E-001	-1.2976186E+000	0
7.3109856E+000	1.178245972299192E+002	-1.2998085E+000	-1.777884131948431E+002	2.3109089E-001	-1.2996186E+000	0
7.2363558E+000	1.180245972248667E+002	-1.3018049E+000	-1.798978629890744E+002	2.3419192E-001	-1.3016186E+000	0
7.1299238E+000	1.182245972198143E+002	-1.3037684E+000	-1.828586672190363E+002	2.3840535E-001	-1.3036186E+000	0
7.0061145E+000	1.184245972147619E+002	-1.3057768E+000	-1.863767542168666E+002	2.4336645E-001	-1.3056185E+000	0
6.9178009E+000	1.186245972097095E+002	-1.3078313E+000	-1.890530421133758E+002	2.4724948E-001	-1.3076185E+000	0
6.8287759E+000	1.188248972046495E+002	-1.3098042E+000	-1.918065893144521E+002	2.5122908E-001	-1.3096212E+000	0
6.7592316E+000	1.190252971995869E+002	-1.3118248E+000	-1.940789876149179E+002	2.5459763E-001	-1.3116248E+000	0
6.6847172E+000	1.192257971945219E+002	-1.3138009E+000	-1.965380031533141E+002	2.5821182E-001	-1.3136300E+000	0
6.5611401E+000	1.194064971899570E+002	-1.3156223E+000	-2.005173307901371E+002	2.6380509E-001	-1.3154368E+000	0
6.4349971E+000	1.195868971853997E+002	-1.3174114E+000	-2.047260378480696E+002	2.6970842E-001	-1.3172413E+000	0
6.3406973E+000	1.197869971803448E+002	-1.3194369E+000	-2.080901838051764E+002	2.7456188E-001	-1.3192426E+000	0
6.2557697E+000	1.199772971755374E+002	-1.3213375E+000	-2.112189986595604E+002	2.7909157E-001	-1.3211449E+000	0
6.1901917E+000	1.201477971712302E+002	-1.3230215E+000	-2.137286819422455E+002	2.8276765E-001	-1.3228501E+000	0
6.1134224E+000	1.203281971666729E+002	-1.3248726E+000	-2.167153654236045E+002	2.8712025E-001	-1.3246541E+000	0
6.0376482E+000	1.205187971618579E+002	-1.3267007E+000	-2.197379944685383E+002	2.9152656E-001	-1.3265597E+000	0
5.9855275E+000	1.206894971575457E+002	-1.3284471E+000	-2.219431883671957E+002	2.9483980E-001	-1.3282667E+000	0
5.8993425E+000	1.208700971529834E+002	-1.3302823E+000	-2.254967131275198E+002	2.9997429E-001	-1.3300728E+000	0
5.8024855E+000	1.210705971479183E+002	-1.3322617E+000	-2.296018928878420E+002	3.0588982E-001	-1.3320780E+000	0
5.6950517E+000	1.212709971428558E+002	-1.3342640E+000	-2.342848025362002E+002	3.1259778E-001	-1.3340821E+000	0
5.6136537E+000	1.214716971377857E+002	-1.3362770E+000	-2.380405202205429E+002	3.1808808E-001	-1.3360887E+000	0
5.5637407E+000	1.216621971329732E+002	-1.3381698E+000	-2.405162024960205E+002	3.2185152E-001	-1.3379939E+000	0
5.5009766E+000	1.218326971286660E+002	-1.3399189E+000	-2.435783677809061E+002	3.2637525E-001	-1.3396989E+000	0
5.4152679E+000	1.220131971241062E+002	-1.3416969E+000	-2.477618527814857E+002	3.3242130E-001	-1.3415040E+000	0
5.3667808E+000	1.221736971200517E+002	-1.3433448E+000	-2.503073671214211E+002	3.3624911E-001	-1.3431088E+000	0
5.3093815E+000	1.223541971154918E+002	-1.3451359E+000	-2.533507883635907E+002	3.4079126E-001	-1.3449140E+000	0
5.2535510E+000	1.225444971106845E+002	-1.3469989E+000	-2.563978011198856E+002	3.4536755E-001	-1.3468171E+000	0
5.2166238E+000	1.227046971066375E+002	-1.3486158E+000	-2.585227094326028E+002	3.4864780E-001	-1.3484192E+000	0
5.1631083E+000	1.228849971020827E+002	-1.3504179E+000	-2.615513282601837E+002	3.5320359E-001	-1.3502218E+000	0
5.1036558E+000	1.230653970975254E+002	-1.3522409E+000	-2.649553528349077E+002	3.5828346E-001	-1.3520259E+000	0
5.0619917E+000	1.232258970934708E+002	-1.3538089E+000	-2.674458980648515E+002	3.6207062E-001	-1.3536307E+000	0
5.0191360E+000	1.233964970891611E+002	-1.3555168E+000	-2.700697403433069E+002	3.6608407E-001	-1.3553368E+000	0
4.9665360E+000	1.235971970840910E+002	-1.3575482E+000	-2.733390601168367E+002	3.7107095E-001	-1.3573438E+000	0
4.8816633E+000	1.237976970790260E+002	-1.3595290E+000	-2.784970915070289E+002	3.7862489E-001	-1.3593493E+000	0
4.8296499E+000	1.239980970739634E+002	-1.3615721E+000	-2.819194313407895E+002	3.8385364E-001	-1.3613527E+000	0
4.7827654E+000	1.241887970691459E+002	-1.3634958E+000	-2.850852554580415E+002	3.8871256E-001	-1.3632600E+000	0
4.7342362E+000	1.243791970643360E+002	-1.3653725E+000	-2.884039825324953E+002	3.9377889E-001	-1.3651640E+000	0
4.6948004E+000	1.245694970595287E+002	-1.3673029E+000	-2.912377021207880E+002	3.9821017E-001	-1.3670671E+000	0
4.6507239E+000	1.247497970549739E+002	-1.3691332E+000	-2.943914198639328E+002	4.0306106E-001	-1.3688699E+000	0
4.5809522E+000	1.249302970504141E+002	-1.3708721E+000	-2.992548413851264E+002	4.1024011E-001	-1.3706750E+000	0
4.5359583E+000	1.251007970461069E+002	-1.3726320E+000	-3.026112438225596E+002	4.1537389E-001	-1.3723798E+000	0
4.4832568E+000	1.252910970412995E+002	-1.3744965E+000	-3.065843751574448E+002	4.2139915E-001	-1.3742832E+000	0
4.4456267E+000	1.254811970364972E+002	-1.3764477E+000	-3.096183789506244E+002	4.2617351E-001	-1.3761845E+000	0
4.3924108E+000	1.256813970314397E+002	-1.3784252E+000	-3.138197406733307E+002	4.3257704E-001	-1.3781861E+000	0
4.3422542E+000	1.258716970266323E+002	-1.3803226E+000	-3.178815700211871E+002	4.3877912E-001	-1.3800890E+000	0
4.3109541E+000	1.260619970218249E+002	-1.3822137E+000	-3.206282427493516E+002	4.4317675E-001	-1.3819921E+000	0
4.2698088E+000	1.262424970172651E+002	-1.3840251E+000	-3.241421601074171E+002	4.4862089E-001	-1.3837969E+000	0
4.2317600E+000	1.264229970127053E+002	-1.3858610E+000	-3.274904490475715E+002	4.5385626E-001	-1.3856021E+000	0
4.1940174E+000	1.265935970083956E+002	-1.3875417E+000	-3.308382967895413E+002	4.5905191E-001	-1.3873078E+000	0
4.1555510E+000	1.267739970038383E+002	-1.3893653E+000	-3.343396005257059E+002	4.6451986E-001	-1.3891120E+000	0
4.1306047E+000	1.269440969995412E+002	-1.3910668E+000	-3.367707278892094E+002	4.6847057E-001	-1.3908130E+000	0
4.0930109E+000	1.271045969954866E+002	-1.3926668E+000	-3.402548486479236E+002	4.7386163E-001	-1.3924179E+000	0
4.0474076E+000	1.272847969909344E+002	-1.3944857E+000	-3.445379901786509E+002	4.8045331E-001	-1.3942204E+000	0
4.0143209E+000	1.274648969863847E+002	-1.3962877E+000	-3.478266199703703E+002	4.8566604E-001	-1.3960212E+000	0
3.9815197E+000	1.276347969820927E+002	-1.3979226E+000	-3.511027812742607E+002	4.9081454E-001	-1.3977201E+000	0
3.9342635E+000	1.278247969772929E+002	-1.3998690E+000	-3.558147387601903E+002	4.9809402E-001	-1.3996203E+000	0
3.8926828E+000	1.280247969722404E+002	-1.4018829E+000	-3.601328368392392E+002	5.0486404E-001	-1.4016204E+000	0
3.8614039E+000	1.282247969671880E+002	-1.4038401E+000	-3.635568978921638E+002	5.1037574E-001	-1.4036205E+000	0
3.8258998E+000	1.284247969621356E+002	-1.4058974E+000	-3.674684197626966E+002	5.1662290E-001	-1.4056203E+000	0
3.7963846E+000	1.286247969570832E+002	-1.4079119E+000	-3.708559803930252E+002	5.2213258E-001	-1.4076203E+000	0
3.7640531E+000	1.288247969520307E+002	-1.4099109E+000	-3.745725263954546E+002	5.2811390E-001	-1.4096203E+000	0
3.7334502E+000	1.290247969469783E+002	-1.4119054E+000	-3.781771050559164E+002	5.3395033E-001	-1.4116204E+000	0
3.6904783E+000	1.292247969419259E+002	-1.4139028E+000	-3.831218053489029E+002	5.4169697E-001	-1.4136204E+000	0
3.6583507E+000	1.294247969368735E+002	-1.4158829E+000	-3.870276663968343E+002	5.4798585E-001	-1.4156203E+000	0
3.6304471E+000	1.296048969323238E+002	-1.4176706E+000	-3.904947710375309E+002	5.5359298E-001	-1.4174210E+000	0
3.6021669E+000	1.297849969277740E+002	-1.4195147E+000	-3.940724233186161E+002	5.5939156E-001	-1.4192224E+000	0
3.5656741E+000	1.299849969227216E+002	-1.4214308E+000	-3.986429543246486E+002	5.6664336E-001	-1.4212223E+000	0
3.5406370E+000	1.301849969176692E+002	-1.4234982E+000	-4.020457653512749E+002	5.7231140E-001	-1.4232223E+000	0
3.5002460E+000	1.303849969126168E+002	-1.4255043E+000	-4.072583170996750E+002	5.8054847E-001	-1.4252224E+000	0
3.4710956E+000	1.305749969078170E+002	-1.4273722E+000	-4.112166424851458E+002	5.8695918E-001	-1.4271221E+000	0
3.4408617E+000	1.307649969030172E+002	-1.4292877E+000	-4.153865391737727E+002	5.9370685E-001	-1.4290223E+000	0
3.4172399E+000	1.309649968979647E+002	-1.4313209E+000	-4.188529117480412E+002	5.9951293E-001	-1.4310224E+000	0
3.3976510E+000	1.311549968931649E+002	-1.4332274E+000	-4.218289147787843E+002	6.0457677E-001	-1.4329221E+000	0
3.3722374E+000	1.313349968886178E+002	-1.4349636E+000	-4.255227134843972E+002	6.1060959E-001	-1.4347221E+000	0
3.3460138E+000	1.315249968838179E+002	-1.4368918E+000	-4.294339095697378E+002	6.1705005E-001	-1.4366223E+000	0
3.3250835E+000	1.317249968787655E+002	-1.4392148E+000	-4.328356990078946E+002	6.2294358E-001	-1.4386224E+000	0
3.2926066E+000	1.319249968737131E+002	-1.4414259E+000	-4.377765378973645E+002	6.3102245E-001	-1.4406223E+000	0
3.2597911E+000	1.321149968689133E+002	-1.4433218E+000	-4.427651223569355E+002	6.3905257E-001	-1.4425220E+000	0
3.2405550E+000	1.322849968646187E+002	-1.4450219E+000	-4.459180063645977E+002	6.4436126E-001	-1.4442220E+000	0
3.2155237E+000	1.324549968603242E+002	-1.4467561E+000	-4.499285974954964E+002	6.5093696E-001	-1.4459220E+000	0
3.1949401E+000	1.326449968555244E+002	-1.4486364E+000	-4.534158199768754E+002	6.5683466E-001	-1.4478223E+000	0
3.1805353E+000	1.328349968507246E+002	-1.4505602E+000	-4.560742358023872E+002	6.6156316E-001	-1.4497221E+000	0
3.1569705E+000	1.330249968459248E+002	-1.4524552E+000	-4.600787960061116E+002	6.6824383E-001	-1.4516224E+000	0
3.1313729E+000	1.332149968411250E+002	-1.4543262E+000	-4.644372403830839E+002	6.7544323E-001	-1.4535221E+000	0
3.1107111E+000	1.333949968365778E+002	-1.4562036E+000	-4.681256342170868E+002	6.8168622E-001	-1.4553220E+000	0
3.0923986E+000	1.335849968317780E+002	-1.4580693E+000	-4.715010733442255E+002	6.8748122E-001	-1.4572222E+000	0
3.0726831E+000	1.337750968269756E+002	-1.4600072E+000	-4.751570920800496E+002	6.9373280E-001	-1.4591231E+000	0
3.0529988E+000	1.339550968224285E+002	-1.4618106E+000	-4.788113725630687E+002	6.9993156E-001	-1.4609232E+000	0
3.0308247E+000	1.341451968176261E+002	-1.4636760E+000	-4.829299418261262E+002	7.0685297E-001	-1.4628242E+000	0
3.0119395E+000	1.343451968125737E+002	-1.4656358E+000	-4.866086298321907E+002	7.1319103E-001	-1.4648243E+000	0
2.9917505E+000	1.345451968075213E+002	-1.4676802E+000	-4.905757352478659E+002	7.2000831E-001	-1.4668243E+000	0
2.9725490E+000	1.347451968024689E+002	-1.4697045E+000	-4.944256744817285E+002	7.2665966E-001	-1.4688243E+000	0
2.9545960E+000	1.349253967979166E+002	-1.4714879E+000	-4.980335144772162E+002	7.3285025E-001	-1.4706262E+000	0
2.9347727E+000	1.350955967936170E+002	-1.4731698E+000	-5.019706697882357E+002	7.3948801E-001	-1.4723281E+000	0
2.9185805E+000	1.352855967888172E+002	-1.4750614E+000	-5.054036938630538E+002	7.4550152E-001	-1.4742283E+000	0
2.8983924E+000	1.354855967837648E+002	-1.4770925E+000	-5.096247400945549E+002	7.5276285E-001	-1.4762284E+000	0
2.8824041E+000	1.356756967789624E+002	-1.4789866E+000	-5.131086901161980E+002	7.5888091E-001	-1.4781291E+000	0
2.8622696E+000	1.358555967744178E+002	-1.4807755E+000	-5.173431305404611E+002	7.6606899E-001	-1.4799281E+000	0
2.8489950E+000	1.360455967696180E+002	-1.4826869E+000	-5.204245467369783E+002	7.7162665E-001	-1.4818283E+000	0
2.8343866E+000	1.362455967645656E+002	-1.4846940E+000	-5.238149406753143E+002	7.7770489E-001	-1.4838283E+000	0
2.8120375E+000	1.364455967595131E+002	-1.4867097E+000	-5.286948404593277E+002	7.8601575E-001	-1.4858284E+000	0
2.7957358E+000	1.366356967547108E+002	-1.4885844E+000	-5.324481766434078E+002	7.9259408E-001	-1.4877291E+000	0
2.7788427E+000	1.368157967501611E+002	-1.4903806E+000	-5.363314082556844E+002	7.9933792E-001	-1.4895300E+000	0
2.7639778E+000	1.370057967453613E+002	-1.4923238E+000	-5.399188738496387E+002	8.0573374E-001	-1.4914302E+000	0
2.7439597E+000	1.371957967405615E+002	-1.4941987E+000	-5.445410629495436E+002	8.1365252E-001	-1.4933301E+000	0
2.7247148E+000	1.373857967357617E+002	-1.4961388E+000	-5.490992481767994E+002	8.2152867E-001	-1.4952303E+000	0
2.7172859E+000	1.375757967309619E+002	-1.4980108E+000	-5.512893478385504E+002	8.2583737E-001	-1.4971300E+000	0
2.7011724E+000	1.377657967261621E+002	-1.4999255E+000	-5.552868716008538E+002	8.3288896E-001	-1.4990302E+000	0
2.6855960E+000	1.379557967213623E+002	-1.5018781E+000	-5.592346028127504E+002	8.3990222E-001	-1.5009302E+000	0
2.6764820E+000	1.381159967173153E+002	-1.5034856E+000	-5.617394804041105E+002	8.4456718E-001	-1.5025321E+000	0
2.6646719E+000	1.383057967125205E+002	-1.5053039E+000	-5.649115390229745E+002	8.5036349E-001	-1.5044303E+000	0
2.6547050E+000	1.384557967087312E+002	-1.5068150E+000	-5.676016620421906E+002	8.5527068E-001	-1.5059302E+000	0
2.6484032E+000	1.385131967072812E+002	-1.5073805E+000	-5.691657748752170E+002	8.5794938E-001	-1.5065300E+000	1