EC-Lab ASCII FILE
Nb header lines : 63                          

Linear Sweep Voltammetry

Run on channel : 1 (SN 1340)
User : 
Electrode connection : standard
Potential control : Ewe
Ewe ctrl range : min = -5.00 V, max = 5.00 V
Ewe,I filtering : <None>
Safety Limits :
	Do not start on E overload
Channel : Floating
Acquisition started on : 02/10/2026 14:55:40.895
Technique started on : 02/10/2026 14:55:43.733
Loaded Setting File :  NONE
Saved on :
	File : X18_02_LSV_C01.mpr
	Directory : C:\Users\volt\Documents\Platalytix\
	Host : 127.0.0.1
Device : SP-200 (SN 0262)
Address : USB
EC-LAB for windows v11.60 (software)
Internet server v11.60 (firmware)
Command interpretor v11.60 (firmware)
Electrode material : Pt18.75Pd18.75Ni18.75o18.75Cr25
Initial state : 
Electrolyte : KOH (1 M)
Comments : After polishing
Cable : standard
Reference electrode : Hg/HgO (0.140 V)
Electrode surface area : 1.000 cm˛
Characteristic mass : 0.001 g
Equivalent Weight : 0.000 g/eq.
Density : 0.000 g/cm3
Volume (V) : 0.001 cmł
Cycle Definition : Charge/Discharge alternance
tR (h:m:s)          0:00:5.0000         
dER/dt (mV/h)       0.0                 
dER (mV)            0                   
dtR (s)             0.0000              
dE/dt               10.000              
dE/dt unit          mV/s                
Ei (V)              -0.200              
vs.                 Ref                 
EL (V)              -2.500              
vs.                 Ref                 
record              <I>                 
dI                  0.000               
unit dI             µA                  
tI (s)              0.0000              
step percent        50                  
N                   10                  
E range min (V)     -5.000              
E range max (V)     5.000               
I Range             Auto                
I Range min         Unset               
I Range max         Unset               
I Range init        Unset               
Bandwidth           8                   

Rwe/Ohm	time/s	Ewe/V	<I>/mA	Pwe/W	control/V	error	
0.0000000E+000	2.838400134787662E+000	-1.1671042E-001	0.000000000000000E+000	0.0000000E+000	0.0000000E+000	0
0.0000000E+000	7.838200008482090E+000	-4.1388445E-002	0.000000000000000E+000	0.0000000E+000	-1.9998202E-001	0
3.8909111E+003	8.038200003429665E+000	-2.0168030E-001	5.183369489968748E-002	-1.0453835E-005	-2.0188180E-001	0
2.3932983E+003	8.158200000398210E+000	-2.0293640E-001	-8.479360458940000E-002	1.7207709E-005	-2.0308185E-001	0
2.1158447E+003	8.368199995093164E+000	-2.0502356E-001	-9.689915533148019E-002	1.9866609E-005	-2.0518187E-001	0
2.2405444E+003	8.568199990040739E+000	-2.0703724E-001	-9.240487777013473E-002	1.9131250E-005	-2.0718183E-001	0
2.3818618E+003	8.768199984988314E+000	-2.0905857E-001	-8.777106957733993E-002	1.8349294E-005	-2.0918186E-001	0
2.5188547E+003	8.968199979935889E+000	-2.1102302E-001	-8.377736973124339E-002	1.7678953E-005	-2.1118186E-001	0
2.6477222E+003	9.168199974883464E+000	-2.1304686E-001	-8.046420424323419E-002	1.7142645E-005	-2.1318182E-001	0
2.7704307E+003	9.368199969831039E+000	-2.1504526E-001	-7.762160083667580E-002	1.6692156E-005	-2.1518186E-001	0
2.8858608E+003	9.568199964778614E+000	-2.1703133E-001	-7.520505565254521E-002	1.6321854E-005	-2.1718186E-001	0
2.9973567E+003	9.768199959726189E+000	-2.1902551E-001	-7.307288552583713E-002	1.6004826E-005	-2.1918184E-001	0
3.1046970E+003	9.968199954673764E+000	-2.2106315E-001	-7.120280967320025E-002	1.5740317E-005	-2.2118184E-001	0
3.2085625E+003	1.016819994962134E+001	-2.2308235E-001	-6.952719231476145E-002	1.5510290E-005	-2.2318184E-001	0
3.3075117E+003	1.036819994456891E+001	-2.2503638E-001	-6.803796969432252E-002	1.5311018E-005	-2.2518183E-001	0
3.4076094E+003	1.056819993951649E+001	-2.2708277E-001	-6.663990957776522E-002	1.5132776E-005	-2.2718184E-001	0
3.4999573E+003	1.076819993446406E+001	-2.2906224E-001	-6.544715365291509E-002	1.4991472E-005	-2.2918187E-001	0
3.5927808E+003	1.096819992941164E+001	-2.3104665E-001	-6.430858528334460E-002	1.4858283E-005	-2.3118183E-001	0
3.6830710E+003	1.116819992435921E+001	-2.3308516E-001	-6.328554317469182E-002	1.4750921E-005	-2.3318185E-001	0
3.7746455E+003	1.136819991930679E+001	-2.3505871E-001	-6.227305557741417E-002	1.4637824E-005	-2.3518185E-001	0
3.8638853E+003	1.156819991425436E+001	-2.3709680E-001	-6.136227813454326E-002	1.4548800E-005	-2.3718184E-001	0
3.9481504E+003	1.176819990920194E+001	-2.3908015E-001	-6.055497580742186E-002	1.4477492E-005	-2.3918185E-001	0
4.0369670E+003	1.196819990414951E+001	-2.4109423E-001	-5.972162371949052E-002	1.4398539E-005	-2.4118185E-001	0
4.1222715E+003	1.216819989909709E+001	-2.4307312E-001	-5.896582216755109E-002	1.4333006E-005	-2.4318185E-001	0
4.2086543E+003	1.236819989404466E+001	-2.4502482E-001	-5.821927948939326E-002	1.4265168E-005	-2.4518184E-001	0
4.2947046E+003	1.256819988899224E+001	-2.4710086E-001	-5.753617186063398E-002	1.4217238E-005	-2.4718186E-001	0
4.3772026E+003	1.276819988393981E+001	-2.4905387E-001	-5.689795487855975E-002	1.4170656E-005	-2.4918184E-001	0
4.4562646E+003	1.296819987888739E+001	-2.5107813E-001	-5.634273301077225E-002	1.4146428E-005	-2.5118184E-001	0
4.5421411E+003	1.316819987383496E+001	-2.5306952E-001	-5.571590989031960E-002	1.4099998E-005	-2.5318184E-001	0
4.6254233E+003	1.336819986878254E+001	-2.5509804E-001	-5.515128522879054E-002	1.4068985E-005	-2.5518182E-001	0
4.7074697E+003	1.356819986373011E+001	-2.5709304E-001	-5.461384771685285E-002	1.4040840E-005	-2.5718185E-001	0
4.7861289E+003	1.376819985867769E+001	-2.5902462E-001	-5.411985692095067E-002	1.4018376E-005	-2.5918186E-001	0
4.8639614E+003	1.396819985362527E+001	-2.6103976E-001	-5.366814266383413E-002	1.4009519E-005	-2.6118186E-001	0
4.9452451E+003	1.416819984857284E+001	-2.6300675E-001	-5.318376531849811E-002	1.3987689E-005	-2.6318184E-001	0
5.0268984E+003	1.436819984352042E+001	-2.6500133E-001	-5.271666706803646E-002	1.3969987E-005	-2.6518184E-001	0
5.1064131E+003	1.456819983846799E+001	-2.6703751E-001	-5.229453556081243E-002	1.3964603E-005	-2.6718187E-001	0
5.1877197E+003	1.476819983341557E+001	-2.6904631E-001	-5.186215099295743E-002	1.3953320E-005	-2.6918185E-001	0
5.2741987E+003	1.496819982836314E+001	-2.7108946E-001	-5.139917644034298E-002	1.3933775E-005	-2.7118185E-001	0
5.3516523E+003	1.516819982331072E+001	-2.7306899E-001	-5.102517550110053E-002	1.3933393E-005	-2.7318183E-001	0
5.4290449E+003	1.536819981825829E+001	-2.7502897E-001	-5.065881209331802E-002	1.3932641E-005	-2.7518183E-001	0
5.5071182E+003	1.556819981320587E+001	-2.7703246E-001	-5.030443287156794E-002	1.3935961E-005	-2.7718186E-001	0
5.5896387E+003	1.576819980815344E+001	-2.7905783E-001	-4.992412899297705E-002	1.3931719E-005	-2.7918184E-001	0
5.6701914E+003	1.596819980310102E+001	-2.8105640E-001	-4.956735944630941E-002	1.3931224E-005	-2.8118184E-001	0
5.7493359E+003	1.616819979804859E+001	-2.8303912E-001	-4.922988039204879E-002	1.3933982E-005	-2.8318182E-001	0
5.8269517E+003	1.636819979299617E+001	-2.8502521E-001	-4.891497596793176E-002	1.3942001E-005	-2.8518185E-001	0
5.9113203E+003	1.656819978794374E+001	-2.8707770E-001	-4.856405744002823E-002	1.3941658E-005	-2.8718185E-001	0
5.9901040E+003	1.676819978289132E+001	-2.8906381E-001	-4.825689498537877E-002	1.3949322E-005	-2.8918186E-001	0
6.0681187E+003	1.696819977783889E+001	-2.9104838E-001	-4.796352936245296E-002	1.3959708E-005	-2.9118183E-001	0
6.1487305E+003	1.716819977278647E+001	-2.9307482E-001	-4.766428220859797E-002	1.3969201E-005	-2.9318184E-001	0
6.2288218E+003	1.736819976773404E+001	-2.9508701E-001	-4.737445094692394E-002	1.3979585E-005	-2.9518184E-001	0
6.3076294E+003	1.756819976268162E+001	-2.9705226E-001	-4.709412290449644E-002	1.3989415E-005	-2.9718184E-001	0
6.3886260E+003	1.776819975762919E+001	-2.9904199E-001	-4.680849753041461E-002	1.3997706E-005	-2.9918185E-001	0
6.4718540E+003	1.796819975257677E+001	-3.0106691E-001	-4.651942162625616E-002	1.4005458E-005	-3.0118185E-001	0
6.5529351E+003	1.816819974752434E+001	-3.0302539E-001	-4.624269691865057E-002	1.4012711E-005	-3.0318183E-001	0
6.6271094E+003	1.836819974247192E+001	-3.0507579E-001	-4.603451967124295E-002	1.4044018E-005	-3.0518186E-001	0
6.7069204E+003	1.856819973741949E+001	-3.0703685E-001	-4.577911093349563E-002	1.4055874E-005	-3.0718184E-001	0
6.7945000E+003	1.876819973236707E+001	-3.0907810E-001	-4.548945402026483E-002	1.4059794E-005	-3.0918184E-001	0
6.8717207E+003	1.896819972731464E+001	-3.1103724E-001	-4.526336979233947E-002	1.4078594E-005	-3.1118184E-001	0
6.9471089E+003	1.916819972226222E+001	-3.1303754E-001	-4.506011834698609E-002	1.4105509E-005	-3.1318185E-001	0
7.0351802E+003	1.936819971720979E+001	-3.1504124E-001	-4.478083672915334E-002	1.4107811E-005	-3.1518185E-001	0
7.1487559E+003	1.960819971114688E+001	-3.1747681E-001	-4.441007729098501E-002	1.4099170E-005	-3.1758186E-001	0
7.2247837E+003	1.980819970609446E+001	-3.1948218E-001	-4.422031129951121E-002	1.4127601E-005	-3.1958187E-001	0
7.3079741E+003	2.000819970104203E+001	-3.2144046E-001	-4.398489372631584E-002	1.4138524E-005	-3.2158184E-001	0
7.3862598E+003	2.020819969598961E+001	-3.2344142E-001	-4.378960774804941E-002	1.4163373E-005	-3.2358187E-001	0
7.4680381E+003	2.040819969093718E+001	-3.2544827E-001	-4.357881749380399E-002	1.4182651E-005	-3.2558185E-001	0
7.5520527E+003	2.060819968588476E+001	-3.2744861E-001	-4.335888831658682E-002	1.4197807E-005	-3.2758185E-001	0
7.6333882E+003	2.080819968083233E+001	-3.2949939E-001	-4.316554958942663E-002	1.4223023E-005	-3.2958186E-001	0
7.7104614E+003	2.100819967577991E+001	-3.3146259E-001	-4.298868460940786E-002	1.4249141E-005	-3.3158186E-001	0
7.7953838E+003	2.120819967072748E+001	-3.3346123E-001	-4.277675646640233E-002	1.4264389E-005	-3.3358186E-001	0
7.8756729E+003	2.140819966567506E+001	-3.3540443E-001	-4.258739848303350E-002	1.4284002E-005	-3.3558187E-001	0
7.9579014E+003	2.160819966062263E+001	-3.3746395E-001	-4.240614835483325E-002	1.4310546E-005	-3.3758184E-001	0
8.0432905E+003	2.180819965557021E+001	-3.3942243E-001	-4.219945084410270E-002	1.4323440E-005	-3.3958185E-001	0
8.1266753E+003	2.200819965051778E+001	-3.4144461E-001	-4.201528902483431E-002	1.4345894E-005	-3.4158185E-001	0
8.1985186E+003	2.220819964546536E+001	-3.4340754E-001	-4.188653737541004E-002	1.4384153E-005	-3.4358186E-001	0
8.2915420E+003	2.240819964041293E+001	-3.4544942E-001	-4.166286790906071E-002	1.4392414E-005	-3.4558183E-001	0
8.3723242E+003	2.260819963536051E+001	-3.4753782E-001	-4.151031636324654E-002	1.4426405E-005	-3.4758186E-001	0
8.4566924E+003	2.280819963030808E+001	-3.4951249E-001	-4.132969281873757E-002	1.4445243E-005	-3.4958187E-001	0
8.5305703E+003	2.300819962525566E+001	-3.5141009E-001	-4.119420721767947E-002	1.4476060E-005	-3.5158184E-001	0
8.6207344E+003	2.320819962020323E+001	-3.5347784E-001	-4.100321621059655E-002	1.4493728E-005	-3.5358188E-001	0
8.7048604E+003	2.340819961515081E+001	-3.5548198E-001	-4.083718323516250E-002	1.4516882E-005	-3.5558185E-001	0
8.7833545E+003	2.360819961009838E+001	-3.5746342E-001	-4.069782452723289E-002	1.4547983E-005	-3.5758188E-001	0
8.8664854E+003	2.380819960504596E+001	-3.5947561E-001	-4.054319064814987E-002	1.4574288E-005	-3.5958186E-001	0
8.9456406E+003	2.400819959999353E+001	-3.6142665E-001	-4.040254321231254E-002	1.4602556E-005	-3.6158189E-001	0
9.0346924E+003	2.420819959494111E+001	-3.6344522E-001	-4.022773812116337E-002	1.4620579E-005	-3.6358187E-001	0
9.1182979E+003	2.440819958988868E+001	-3.6544529E-001	-4.007823495252394E-002	1.4646402E-005	-3.6558184E-001	0
9.2052393E+003	2.460819958483626E+001	-3.6746046E-001	-3.991862039278168E-002	1.4668514E-005	-3.6758184E-001	0
9.2862031E+003	2.480819957978383E+001	-3.6957642E-001	-3.979844190211979E-002	1.4708566E-005	-3.6958185E-001	0
9.3673457E+003	2.500819957473141E+001	-3.7141925E-001	-3.965042816721059E-002	1.4726932E-005	-3.7158185E-001	0
9.4494219E+003	2.520819956967898E+001	-3.7341896E-001	-3.951765166050714E-002	1.4756641E-005	-3.7358186E-001	0
9.5296396E+003	2.540819956462656E+001	-3.7541479E-001	-3.939443782221125E-002	1.4789254E-005	-3.7558186E-001	0
9.6210605E+003	2.560819955957413E+001	-3.7750423E-001	-3.923727998134097E-002	1.4812239E-005	-3.7758189E-001	0
9.7001885E+003	2.580819955452171E+001	-3.7947440E-001	-3.912031197526561E-002	1.4845157E-005	-3.7958187E-001	0
9.7874658E+003	2.600819954946928E+001	-3.8146687E-001	-3.897503769772790E-002	1.4867685E-005	-3.8158184E-001	0
9.8648965E+003	2.620819954441686E+001	-3.8340479E-001	-3.886556666388738E-002	1.4901245E-005	-3.8358188E-001	0
9.9483809E+003	2.640819953936443E+001	-3.8539216E-001	-3.873918320251890E-002	1.4929778E-005	-3.8558185E-001	0
1.0037742E+004	2.660819953431201E+001	-3.8744780E-001	-3.859909714116189E-002	1.4955135E-005	-3.8758186E-001	0
1.0122890E+004	2.680819952925958E+001	-3.8950774E-001	-3.847791986854619E-002	1.4987448E-005	-3.8958183E-001	0
1.0204362E+004	2.700819952420716E+001	-3.9147282E-001	-3.836328061424255E-002	1.5018181E-005	-3.9158186E-001	0
1.0284431E+004	2.720819951915473E+001	-3.9341632E-001	-3.825358172288373E-002	1.5049583E-005	-3.9358187E-001	0
1.0365164E+004	2.740819951410231E+001	-3.9539775E-001	-3.814679297778012E-002	1.5083157E-005	-3.9558190E-001	0
1.0457461E+004	2.760819950904988E+001	-3.9743707E-001	-3.800512086167129E-002	1.5104643E-005	-3.9758185E-001	0
1.0544105E+004	2.780819950399746E+001	-3.9951590E-001	-3.788997627881334E-002	1.5137648E-005	-3.9958188E-001	0
1.0631386E+004	2.800819949894503E+001	-4.0149051E-001	-3.776464662213685E-002	1.5162147E-005	-4.0158191E-001	0
1.0708481E+004	2.820819949389261E+001	-4.0348464E-001	-3.767897999716630E-002	1.5202890E-005	-4.0358189E-001	0
1.0796522E+004	2.840819948884018E+001	-4.0539262E-001	-3.754844525623046E-002	1.5221863E-005	-4.0558186E-001	0
1.0875960E+004	2.860819948378776E+001	-4.0741691E-001	-3.746031703376751E-002	1.5261967E-005	-4.0758190E-001	0
1.0961911E+004	2.880819947873533E+001	-4.0942848E-001	-3.735010024205560E-002	1.5292195E-005	-4.0958187E-001	0
1.1049871E+004	2.900819947368291E+001	-4.1153553E-001	-3.724346989438421E-002	1.5327012E-005	-4.1158187E-001	0
1.1137541E+004	2.920819946863048E+001	-4.1354302E-001	-3.713054891544776E-002	1.5355079E-005	-4.1358188E-001	0
1.1212026E+004	2.940819946357806E+001	-4.1550434E-001	-3.705880755654700E-002	1.5398095E-005	-4.1558188E-001	0
1.1298027E+004	2.960819945852563E+001	-4.1746262E-001	-3.695004403827687E-002	1.5425263E-005	-4.1758186E-001	0
1.1383114E+004	2.980819945347321E+001	-4.1950345E-001	-3.685313591294326E-002	1.5460018E-005	-4.1958189E-001	0
1.1479335E+004	3.000819944842078E+001	-4.2152077E-001	-3.671996304928998E-002	1.5478226E-005	-4.2158186E-001	0
1.1558924E+004	3.020819944336836E+001	-4.2352507E-001	-3.664052859608666E-002	1.5518182E-005	-4.2358190E-001	0
1.1645509E+004	3.040819943831593E+001	-4.2550817E-001	-3.653839335152820E-002	1.5547384E-005	-4.2558187E-001	0
1.1734465E+004	3.060819943326351E+001	-4.2746985E-001	-3.642857549532574E-002	1.5572117E-005	-4.2758185E-001	0
1.1816077E+004	3.080819942821108E+001	-4.2945895E-001	-3.634530580956319E-002	1.5608817E-005	-4.2958188E-001	0
1.1898110E+004	3.100819942315866E+001	-4.3146923E-001	-3.626367845572530E-002	1.5646661E-005	-4.3158188E-001	0
1.1978498E+004	3.120819941810623E+001	-4.3346968E-001	-3.618731374863982E-002	1.5686104E-005	-4.3358189E-001	0
1.2077744E+004	3.140819941305381E+001	-4.3548766E-001	-3.605703648777418E-002	1.5702395E-005	-4.3558189E-001	0
1.2170256E+004	3.160819940800138E+001	-4.3753293E-001	-3.595100463285650E-002	1.5729749E-005	-4.3758190E-001	0
1.2250152E+004	3.180819940294896E+001	-4.3952265E-001	-3.587895362134264E-002	1.5769612E-005	-4.3958184E-001	0
1.2336319E+004	3.200819939789653E+001	-4.4154206E-001	-3.579204118744059E-002	1.5803691E-005	-4.4158188E-001	0
1.2421059E+004	3.220819939284411E+001	-4.4352031E-001	-3.570712653602232E-002	1.5836837E-005	-4.4358191E-001	0
1.2497860E+004	3.240819938779168E+001	-4.4539285E-001	-3.563752769763923E-002	1.5872700E-005	-4.4558188E-001	0
1.2590210E+004	3.260819938273926E+001	-4.4748294E-001	-3.554213517466931E-002	1.5904499E-005	-4.4758186E-001	0
1.2665646E+004	3.280819937768683E+001	-4.4946137E-001	-3.548665035778942E-002	1.5949878E-005	-4.4958189E-001	0
1.2758511E+004	3.300819937263441E+001	-4.5151895E-001	-3.538962927131639E-002	1.5979089E-005	-4.5158187E-001	0
1.2852398E+004	3.320819936758198E+001	-4.5353433E-001	-3.528791390277042E-002	1.6004280E-005	-4.5358187E-001	0
1.2930992E+004	3.340819936252956E+001	-4.5550850E-001	-3.522610680417670E-002	1.6045791E-005	-4.5558190E-001	0
1.3022757E+004	3.360819935747713E+001	-4.5743039E-001	-3.512546420097343E-002	1.6067455E-005	-4.5758191E-001	0
1.3100929E+004	3.380819935242471E+001	-4.5940962E-001	-3.506695064573484E-002	1.6110094E-005	-4.5958185E-001	0
1.3185680E+004	3.400819934737228E+001	-4.6144810E-001	-3.499615528143502E-002	1.6148910E-005	-4.6158189E-001	0
1.3296181E+004	3.420819934231986E+001	-4.6348134E-001	-3.485823031609932E-002	1.6156138E-005	-4.6358192E-001	0
1.3362748E+004	3.440819933726743E+001	-4.6553642E-001	-3.483837510114909E-002	1.6218532E-005	-4.6558186E-001	0
1.3450556E+004	3.460819933221501E+001	-4.6749890E-001	-3.475684648043897E-002	1.6248787E-005	-4.6758187E-001	0
1.3538521E+004	3.480819932716258E+001	-4.6948206E-001	-3.467750165198653E-002	1.6280464E-005	-4.6958190E-001	0
1.3618605E+004	3.500819932211016E+001	-4.7144562E-001	-3.461776042405662E-002	1.6320391E-005	-4.7158194E-001	0
1.3711853E+004	3.520819931705773E+001	-4.7343108E-001	-3.452714168954463E-002	1.6346223E-005	-4.7358188E-001	0
1.3799879E+004	3.540819931200531E+001	-4.7545105E-001	-3.445327694658737E-002	1.6380847E-005	-4.7558188E-001	0
1.3880769E+004	3.560819930695288E+001	-4.7748664E-001	-3.439915066298793E-002	1.6425134E-005	-4.7758189E-001	0
1.3976176E+004	3.580819930190046E+001	-4.7952881E-001	-3.431044530404348E-002	1.6452846E-005	-4.7958186E-001	0
1.4064438E+004	3.600819929684803E+001	-4.8153520E-001	-3.423778607104555E-002	1.6486700E-005	-4.8158184E-001	0
1.4132017E+004	3.620819929179561E+001	-4.8341522E-001	-3.420709401671077E-002	1.6536229E-005	-4.8358193E-001	0
1.4218517E+004	3.640819928674318E+001	-4.8544842E-001	-3.414198838210247E-002	1.6574175E-005	-4.8558190E-001	0
1.4314569E+004	3.660819928169076E+001	-4.8749965E-001	-3.405618676709857E-002	1.6602380E-005	-4.8758185E-001	0
1.4399282E+004	3.680819927663833E+001	-4.8951504E-001	-3.399579540315301E-002	1.6641454E-005	-4.8958188E-001	0
1.4486902E+004	3.700819927158591E+001	-4.9154142E-001	-3.393005638656815E-002	1.6678028E-005	-4.9158189E-001	0
1.4582672E+004	3.720819926653348E+001	-4.9357295E-001	-3.384653829796275E-002	1.6705735E-005	-4.9358183E-001	0
1.4657172E+004	3.740819926148106E+001	-4.9561501E-001	-3.381382254118098E-002	1.6758639E-005	-4.9558187E-001	0
1.4739611E+004	3.760819925642863E+001	-4.9751306E-001	-3.375347077613178E-002	1.6792792E-005	-4.9758190E-001	0
1.4820770E+004	3.780819925137621E+001	-4.9950257E-001	-3.370287693834212E-002	1.6834674E-005	-4.9958187E-001	0
1.4906792E+004	3.800819924632378E+001	-5.0147295E-001	-3.364056846218788E-002	1.6869835E-005	-5.0158185E-001	0
1.4995538E+004	3.820819924127136E+001	-5.0345880E-001	-3.357390649674774E-002	1.6903079E-005	-5.0358188E-001	0
1.5087881E+004	3.840819923621893E+001	-5.0545233E-001	-3.350055143722824E-002	1.6932932E-005	-5.0558186E-001	0
1.5176474E+004	3.860819923116651E+001	-5.0750589E-001	-3.344030420548261E-002	1.6971151E-005	-5.0758189E-001	0
1.5249792E+004	3.880819922611408E+001	-5.0952810E-001	-3.341213537009463E-002	1.7024422E-005	-5.0958186E-001	0
1.5335126E+004	3.900819922106166E+001	-5.1152015E-001	-3.335611075463824E-002	1.7062323E-005	-5.1158190E-001	0
1.5414085E+004	3.920819921600923E+001	-5.1349258E-001	-3.331320609579524E-002	1.7106084E-005	-5.1358193E-001	0
1.5503504E+004	3.940819921095681E+001	-5.1542562E-001	-3.324575008678757E-002	1.7135711E-005	-5.1558185E-001	0
1.5582426E+004	3.960819920590438E+001	-5.1744676E-001	-3.320707254773825E-002	1.7182892E-005	-5.1758188E-001	0
1.5683186E+004	3.980819920085196E+001	-5.1939040E-001	-3.311765933057711E-002	1.7200995E-005	-5.1958191E-001	0
1.5760490E+004	4.000819919579953E+001	-5.2152014E-001	-3.309034908801740E-002	1.7257284E-005	-5.2158183E-001	0
1.5845521E+004	4.020819919074711E+001	-5.2351856E-001	-3.303890039932089E-002	1.7296477E-005	-5.2358192E-001	0
1.5941008E+004	4.040819918569468E+001	-5.2558869E-001	-3.297085640556019E-002	1.7329110E-005	-5.2558196E-001	0
1.6027359E+004	4.060819918064226E+001	-5.2751487E-001	-3.291339846037525E-002	1.7362307E-005	-5.2758193E-001	0
1.6097417E+004	4.080819917558983E+001	-5.2949870E-001	-3.289339584039730E-002	1.7417011E-005	-5.2958184E-001	0
1.6194229E+004	4.100819917053741E+001	-5.3149557E-001	-3.282006081540027E-002	1.7443717E-005	-5.3158188E-001	0
1.6273027E+004	4.120819916548498E+001	-5.3342825E-001	-3.277990233803531E-002	1.7485727E-005	-5.3358197E-001	0
1.6353095E+004	4.140819916043256E+001	-5.3545779E-001	-3.274351341228554E-002	1.7532770E-005	-5.3558183E-001	0
1.6447514E+004	4.160819915538013E+001	-5.3749144E-001	-3.267919177362655E-002	1.7564786E-005	-5.3758186E-001	0
1.6525420E+004	4.180819915032771E+001	-5.3949463E-001	-3.264635082074527E-002	1.7612530E-005	-5.3958195E-001	0
1.6613225E+004	4.200819914527528E+001	-5.4149991E-001	-3.259450975909003E-002	1.7649923E-005	-5.4158187E-001	0
1.6703426E+004	4.220819914022286E+001	-5.4351693E-001	-3.253924818086493E-002	1.7685632E-005	-5.4358190E-001	0
1.6781813E+004	4.240819913517043E+001	-5.4547888E-001	-3.250417046543513E-002	1.7730339E-005	-5.4558188E-001	0
1.6857125E+004	4.260819913011801E+001	-5.4745984E-001	-3.247646661976850E-002	1.7779561E-005	-5.4758197E-001	0
1.6952389E+004	4.280819912506558E+001	-5.4944927E-001	-3.241131937763797E-002	1.7808376E-005	-5.4958189E-001	0
1.7025943E+004	4.300819912001316E+001	-5.5146664E-001	-3.238978648327018E-002	1.7861887E-005	-5.5158186E-001	0
1.7108639E+004	4.320819911496073E+001	-5.5349535E-001	-3.235180562894258E-002	1.7906574E-005	-5.5358195E-001	0
1.7193088E+004	4.340819910990831E+001	-5.5547762E-001	-3.230819476466357E-002	1.7946479E-005	-5.5558181E-001	0
1.7285416E+004	4.360819910485588E+001	-5.5747545E-001	-3.225120216161398E-002	1.7979253E-005	-5.5758190E-001	0
1.7362752E+004	4.380819909980346E+001	-5.5956078E-001	-3.222765450185278E-002	1.8033332E-005	-5.5958194E-001	0
1.7437971E+004	4.400819909475103E+001	-5.6150675E-001	-3.220023574331858E-002	1.8080649E-005	-5.6158191E-001	0
1.7528016E+004	4.420819908969861E+001	-5.6351346E-001	-3.214929968724750E-002	1.8116563E-005	-5.6358188E-001	0
1.7607893E+004	4.440819908464618E+001	-5.6551665E-001	-3.211722536225807E-002	1.8162826E-005	-5.6558192E-001	0
1.7675227E+004	4.460819907959376E+001	-5.6748456E-001	-3.210620973850528E-002	1.8219778E-005	-5.6758195E-001	0
1.7767609E+004	4.480819907454134E+001	-5.6947339E-001	-3.205120861620064E-002	1.8252311E-005	-5.6958181E-001	0
1.7840555E+004	4.500819906948891E+001	-5.7147032E-001	-3.203209236849203E-002	1.8305391E-005	-5.7158184E-001	0
1.7927027E+004	4.520819906443649E+001	-5.7349443E-001	-3.199049380746233E-002	1.8346371E-005	-5.7358193E-001	0
1.8018178E+004	4.540819905938406E+001	-5.7548809E-001	-3.193930491922270E-002	1.8380690E-005	-5.7558185E-001	0
1.8107898E+004	4.560819905433164E+001	-5.7750094E-001	-3.189221380781088E-002	1.8417784E-005	-5.7758188E-001	0
1.8173779E+004	4.580819904927921E+001	-5.7952279E-001	-3.188785114415338E-002	1.8479737E-005	-5.7958186E-001	0
1.8245223E+004	4.600819904422679E+001	-5.8144724E-001	-3.186846583212621E-002	1.8529832E-005	-5.8158189E-001	0
1.8336016E+004	4.620819903917436E+001	-5.8349741E-001	-3.182247584678294E-002	1.8568333E-005	-5.8358186E-001	0
1.8389082E+004	4.640819903412194E+001	-5.8547813E-001	-3.183835365729241E-002	1.8640660E-005	-5.8558190E-001	0
1.8490861E+004	4.660819902906951E+001	-5.8746254E-001	-3.177042708910641E-002	1.8663935E-005	-5.8758193E-001	0
1.8560855E+004	4.680819902401709E+001	-5.8953476E-001	-3.176226167725255E-002	1.8724957E-005	-5.8958185E-001	0
1.8628760E+004	4.700819901896466E+001	-5.9151894E-001	-3.175299548118465E-002	1.8782499E-005	-5.9158188E-001	0
1.8704102E+004	4.720819901391224E+001	-5.9347939E-001	-3.172990764478584E-002	1.8831046E-005	-5.9358191E-001	0
1.8786268E+004	4.740819900885981E+001	-5.9550947E-001	-3.169918878140193E-002	1.8877166E-005	-5.9558189E-001	0
1.8859791E+004	4.760819900380739E+001	-5.9750396E-001	-3.168136718848724E-002	1.8929743E-005	-5.9758192E-001	0
1.8949066E+004	4.780819899875496E+001	-5.9946799E-001	-3.163575482752212E-002	1.8964622E-005	-5.9958190E-001	0
1.9002488E+004	4.800819899370254E+001	-6.0148168E-001	-3.165278612961256E-002	1.9038571E-005	-6.0158193E-001	0
1.9098801E+004	4.820819898865011E+001	-6.0349256E-001	-3.159845329065075E-002	1.9069432E-005	-6.0358185E-001	0
1.9158117E+004	4.840819898359769E+001	-6.0551816E-001	-3.160635009460802E-002	1.9138219E-005	-6.0558182E-001	0
1.9237768E+004	4.860819897854526E+001	-6.0750461E-001	-3.157874827311191E-002	1.9184235E-005	-6.0758191E-001	0
1.9300689E+004	4.880819897349284E+001	-6.0953319E-001	-3.158090223849672E-002	1.9249608E-005	-6.0958189E-001	0
1.9379273E+004	4.900819896844041E+001	-6.1154497E-001	-3.155665218623160E-002	1.9298312E-005	-6.1158186E-001	0
1.9446801E+004	4.920819896338799E+001	-6.1346078E-001	-3.154558817752540E-002	1.9351981E-005	-6.1358190E-001	0
1.9534676E+004	4.940819895833556E+001	-6.1548364E-001	-3.150723562253827E-002	1.9392188E-005	-6.1558193E-001	0
1.9593359E+004	4.960819895328314E+001	-6.1753243E-001	-3.151743592168554E-002	1.9463039E-005	-6.1758184E-001	0
1.9660316E+004	4.980819894823071E+001	-6.1951709E-001	-3.151104252842457E-002	1.9521629E-005	-6.1958188E-001	0
1.9726080E+004	5.000819894317829E+001	-6.2152970E-001	-3.150801854223950E-002	1.9583169E-005	-6.2158191E-001	0
1.9807488E+004	5.020819893812586E+001	-6.2352109E-001	-3.147905807843954E-002	1.9627856E-005	-6.2358189E-001	0
1.9864195E+004	5.040819893307344E+001	-6.2551659E-001	-3.148965210872415E-002	1.9697300E-005	-6.2558186E-001	0
1.9943766E+004	5.060819892802101E+001	-6.2748593E-001	-3.146275982779179E-002	1.9742440E-005	-6.2758189E-001	0
2.0014238E+004	5.080819892296859E+001	-6.2949359E-001	-3.145228704789233E-002	1.9799014E-005	-6.2958193E-001	0
2.0058689E+004	5.100819891791616E+001	-6.3147825E-001	-3.148152966969875E-002	1.9879901E-005	-6.3158190E-001	0
2.0152607E+004	5.120819891286374E+001	-6.3353962E-001	-3.143710549656809E-002	1.9916652E-005	-6.3358188E-001	0
2.0209760E+004	5.140819890781131E+001	-6.3551950E-001	-3.144616758357954E-002	1.9984653E-005	-6.3558191E-001	0
2.0283229E+004	5.160819890275889E+001	-6.3750714E-001	-3.143025895600710E-002	2.0037014E-005	-6.3758194E-001	0
2.0340736E+004	5.180819889770646E+001	-6.3949126E-001	-3.143894202825592E-002	2.0104928E-005	-6.3958186E-001	0
2.0411559E+004	5.200819889265404E+001	-6.4154673E-001	-3.143056114193667E-002	2.0164174E-005	-6.4158189E-001	0
2.0469480E+004	5.220819888760161E+001	-6.4350885E-001	-3.143747908627093E-002	2.0230296E-005	-6.4358193E-001	0
2.0554127E+004	5.240819888254919E+001	-6.4549512E-001	-3.140464872454440E-002	2.0271547E-005	-6.4558184E-001	0
2.0612559E+004	5.260819887749676E+001	-6.4758438E-001	-3.141698275472068E-002	2.0345147E-005	-6.4758188E-001	0
2.0683309E+004	5.280819887244434E+001	-6.4951599E-001	-3.140290491673647E-002	2.0396688E-005	-6.4958197E-001	0
2.0756168E+004	5.300819886739191E+001	-6.5157694E-001	-3.139196649825204E-002	2.0454281E-005	-6.5158188E-001	0
2.0792637E+004	5.320819886233949E+001	-6.5351909E-001	-3.143031435544524E-002	2.0540310E-005	-6.5358186E-001	0
2.0872162E+004	5.340819885728706E+001	-6.5556544E-001	-3.140860134413653E-002	2.0590394E-005	-6.5558189E-001	0
2.0942959E+004	5.360819885223464E+001	-6.5752995E-001	-3.139622949455517E-002	2.0643962E-005	-6.5758193E-001	0
2.1007830E+004	5.380819884718221E+001	-6.5955222E-001	-3.139554244273962E-002	2.0706999E-005	-6.5958184E-001	0
2.1070127E+004	5.400819884212979E+001	-6.6154027E-001	-3.139707006175119E-002	2.0770427E-005	-6.6158187E-001	0
2.1129424E+004	5.420819883707736E+001	-6.6355270E-001	-3.140420197876681E-002	2.0838343E-005	-6.6358197E-001	0
2.1194232E+004	5.440819883202494E+001	-6.6558611E-001	-3.140411616694783E-002	2.0902144E-005	-6.6558188E-001	0
2.1249408E+004	5.460819882697251E+001	-6.6754669E-001	-3.141483608073647E-002	2.0970871E-005	-6.6758192E-001	0
2.1326236E+004	5.480819882192009E+001	-6.6953701E-001	-3.139499221166042E-002	2.1020109E-005	-6.6958189E-001	0
2.1379168E+004	5.500819881686766E+001	-6.7155689E-001	-3.141174159068699E-002	2.1094771E-005	-6.7158192E-001	0
2.1451627E+004	5.520819881181524E+001	-6.7352128E-001	-3.139721345929380E-002	2.1146692E-005	-6.7358184E-001	0
2.1516809E+004	5.540819880676281E+001	-6.7551714E-001	-3.139485754289115E-002	2.1207765E-005	-6.7558187E-001	0
2.1554143E+004	5.560819880171039E+001	-6.7754525E-001	-3.143457302167937E-002	2.1298345E-005	-6.7758197E-001	0
2.1639855E+004	5.580819879665796E+001	-6.7945135E-001	-3.139814735990014E-002	2.1333513E-005	-6.7958188E-001	0
2.1673816E+004	5.600819879160554E+001	-6.8152994E-001	-3.144485070296238E-002	2.1430607E-005	-6.8158185E-001	0
2.1739986E+004	5.620819878655311E+001	-6.8355280E-001	-3.144219219568462E-002	2.1492398E-005	-6.8358195E-001	0
2.1836576E+004	5.640819878150069E+001	-6.8550873E-001	-3.139268281096658E-002	2.1519958E-005	-6.8558186E-001	0
2.1872559E+004	5.660819877644826E+001	-6.8750840E-001	-3.143246361300489E-002	2.1610083E-005	-6.8758190E-001	0
2.1930912E+004	5.680819877139584E+001	-6.8947035E-001	-3.143828785017372E-002	2.1675767E-005	-6.8958187E-001	0
2.2001217E+004	5.700819876634341E+001	-6.9151396E-001	-3.143071404224286E-002	2.1734777E-005	-6.9158196E-001	0
2.2055254E+004	5.720819876129099E+001	-6.9346964E-001	-3.144237825983837E-002	2.1804335E-005	-6.9358188E-001	0
2.2136967E+004	5.740819875623856E+001	-6.9551855E-001	-3.141887441394708E-002	2.1852409E-005	-6.9558185E-001	0
2.2189027E+004	5.760819875118614E+001	-6.9749296E-001	-3.143413809034135E-002	2.1925091E-005	-6.9758195E-001	0
2.2245369E+004	5.780819874613371E+001	-6.9949436E-001	-3.144449282748008E-002	2.1995245E-005	-6.9958192E-001	0
2.2308330E+004	5.800819874108129E+001	-7.0148718E-001	-3.144507729231916E-002	2.2058319E-005	-7.0158190E-001	0
2.2368064E+004	5.820819873602886E+001	-7.0354861E-001	-3.145326378854540E-002	2.2128899E-005	-7.0358193E-001	0
2.2421762E+004	5.840819873097644E+001	-7.0555210E-001	-3.146729181344293E-002	2.2201813E-005	-7.0558196E-001	0
2.2505893E+004	5.860819872592401E+001	-7.0754564E-001	-3.143823818386005E-002	2.2243988E-005	-7.0758188E-001	0
2.2530467E+004	5.880819872087159E+001	-7.0953900E-001	-3.149242398287910E-002	2.2345102E-005	-7.0958185E-001	0
2.2624287E+004	5.900819871581916E+001	-7.1153456E-001	-3.145003304848454E-002	2.2377786E-005	-7.1158201E-001	0
2.2661191E+004	5.920819871076674E+001	-7.1353954E-001	-3.148729102939485E-002	2.2467428E-005	-7.1358192E-001	0
2.2741432E+004	5.940819870571431E+001	-7.1547383E-001	-3.146124893378111E-002	2.2509701E-005	-7.1558189E-001	0
2.2762047E+004	5.960819870066189E+001	-7.1752292E-001	-3.152277759517080E-002	2.2618315E-005	-7.1758193E-001	0
2.2811486E+004	5.980819869560946E+001	-7.1952456E-001	-3.154220449888147E-002	2.2695391E-005	-7.1958196E-001	0
2.2894357E+004	6.000819869055704E+001	-7.2154105E-001	-3.151610782480829E-002	2.2740165E-005	-7.2158194E-001	0
2.2943652E+004	6.020819868550461E+001	-7.2351545E-001	-3.153444897191277E-002	2.2815660E-005	-7.2358191E-001	0
2.3011170E+004	6.040819868045219E+001	-7.2555351E-001	-3.153049187283856E-002	2.2877059E-005	-7.2558200E-001	0
2.3058299E+004	6.060819867539976E+001	-7.2747403E-001	-3.154933724717113E-002	2.2951324E-005	-7.2758198E-001	0
2.3134611E+004	6.080819867034734E+001	-7.2949642E-001	-3.153268543421556E-002	2.3002982E-005	-7.2958183E-001	0
2.3176967E+004	6.100819866529491E+001	-7.3153549E-001	-3.156303928329768E-002	2.3089484E-005	-7.3158193E-001	0
2.3245844E+004	6.120819866024249E+001	-7.3354268E-001	-3.155586516981954E-002	2.3147573E-005	-7.3358190E-001	0
2.3290377E+004	6.140819865519006E+001	-7.3550874E-001	-3.157994154916745E-002	2.3227323E-005	-7.3558187E-001	0
2.3325799E+004	6.160819865013764E+001	-7.3754430E-001	-3.161925166399732E-002	2.3320599E-005	-7.3758191E-001	0
2.3389582E+004	6.180819864508521E+001	-7.3953104E-001	-3.161796603733014E-002	2.3382467E-005	-7.3958194E-001	0
2.3449980E+004	6.200819864003279E+001	-7.4151754E-001	-3.162124276012313E-002	2.3447707E-005	-7.4158192E-001	0
2.3501887E+004	6.220819863498036E+001	-7.4349880E-001	-3.163570666668813E-002	2.3521110E-005	-7.4358189E-001	0
2.3543396E+004	6.240819862992794E+001	-7.4552900E-001	-3.166616041569120E-002	2.3608041E-005	-7.4558198E-001	0
2.3603539E+004	6.260819862487551E+001	-7.4748570E-001	-3.166837361456443E-002	2.3671657E-005	-7.4758190E-001	0
2.3633229E+004	6.280819861982309E+001	-7.4951392E-001	-3.171441049205226E-002	2.3770392E-005	-7.4958187E-001	0
2.3717670E+004	6.300819861477066E+001	-7.5154692E-001	-3.168721513135270E-002	2.3814429E-005	-7.5158191E-001	0
2.3748453E+004	6.320819860971824E+001	-7.5353736E-001	-3.172995518605794E-002	2.3909706E-005	-7.5358194E-001	0
2.3799869E+004	6.340819860466581E+001	-7.5555193E-001	-3.174605327547497E-002	2.3985793E-005	-7.5558192E-001	0
2.3839055E+004	6.360819859961339E+001	-7.5749433E-001	-3.177535123758807E-002	2.4069648E-005	-7.5758189E-001	0
2.3917734E+004	6.380819859456096E+001	-7.5954390E-001	-3.175651576647720E-002	2.4120467E-005	-7.5958198E-001	0
2.3962279E+004	6.400819858950854E+001	-7.6156116E-001	-3.178166642720665E-002	2.4203682E-005	-7.6158196E-001	0
2.3995273E+004	6.420819858445611E+001	-7.6356816E-001	-3.182160598199490E-002	2.4297966E-005	-7.6358181E-001	0
2.4086721E+004	6.440819857940369E+001	-7.6559460E-001	-3.178492453542692E-002	2.4334367E-005	-7.6558191E-001	0
2.4089695E+004	6.460819857435126E+001	-7.6752716E-001	-3.186122368220803E-002	2.4454355E-005	-7.6758200E-001	0
2.4146818E+004	6.480819856929884E+001	-7.6950479E-001	-3.186774947743887E-002	2.4522386E-005	-7.6958185E-001	0
2.4221627E+004	6.500819856424641E+001	-7.7146465E-001	-3.185024052618657E-002	2.4571335E-005	-7.7158195E-001	0
2.4263516E+004	6.520819855919399E+001	-7.7349818E-001	-3.187906457023593E-002	2.4658399E-005	-7.7358192E-001	0
2.4303908E+004	6.540819855414156E+001	-7.7547711E-001	-3.190750554795307E-002	2.4743540E-005	-7.7558184E-001	0
2.4348887E+004	6.560819854908914E+001	-7.7749413E-001	-3.193140383007299E-002	2.4826479E-005	-7.7758187E-001	0
2.4350160E+004	6.580819854403671E+001	-7.7948660E-001	-3.201155812751993E-002	2.4952580E-005	-7.7958196E-001	0
2.4452895E+004	6.600819853898429E+001	-7.8151786E-001	-3.196013616735860E-002	2.4977417E-005	-7.8158194E-001	0
2.4461592E+004	6.620819853393186E+001	-7.8349644E-001	-3.202965950921743E-002	2.5095123E-005	-7.8358191E-001	0
2.4486537E+004	6.640819852887944E+001	-7.8548306E-001	-3.207816116991191E-002	2.5196852E-005	-7.8558195E-001	0
2.4564133E+004	6.660819852382701E+001	-7.8749740E-001	-3.205883139960872E-002	2.5246247E-005	-7.8758198E-001	0
2.4574439E+004	6.680819851877459E+001	-7.8954679E-001	-3.212878217338866E-002	2.5367177E-005	-7.8958195E-001	0
2.4632775E+004	6.700819851372216E+001	-7.9153353E-001	-3.213334709454474E-002	2.5434621E-005	-7.9158187E-001	0
2.4668563E+004	6.720819850866974E+001	-7.9353696E-001	-3.216794553099850E-002	2.5526453E-005	-7.9358202E-001	0
2.4732473E+004	6.740819850361731E+001	-7.9556733E-001	-3.216691573980401E-002	2.5590947E-005	-7.9558200E-001	0
2.4804084E+004	6.760819849856489E+001	-7.9754704E-001	-3.215386079336013E-002	2.5644216E-005	-7.9758191E-001	0
2.4793922E+004	6.780819849351246E+001	-7.9957551E-001	-3.224885118032370E-002	2.5785392E-005	-7.9958194E-001	0
2.4824008E+004	6.800819848846004E+001	-8.0152750E-001	-3.228840150087953E-002	2.5880041E-005	-8.0158198E-001	0
2.4883342E+004	6.820819848340761E+001	-8.0353236E-001	-3.229197874388613E-002	2.5947649E-005	-8.0358195E-001	0
2.4917262E+004	6.840819847835519E+001	-8.0553013E-001	-3.232819652116203E-002	2.6041336E-005	-8.0558193E-001	0
2.4871973E+004	6.860819847330276E+001	-8.0751252E-001	-3.246676614228211E-002	2.6217320E-005	-8.0758202E-001	0
2.4985637E+004	6.880819846825034E+001	-8.0955380E-001	-3.240076818475990E-002	2.6230166E-005	-8.0958188E-001	0
2.4994107E+004	6.900819846319791E+001	-8.1150264E-001	-3.246775888806197E-002	2.6347672E-005	-8.1158197E-001	0
2.5060607E+004	6.920819845814549E+001	-8.1350046E-001	-3.246132379673350E-002	2.6407302E-005	-8.1358194E-001	0
2.5061088E+004	6.940819845309306E+001	-8.1551445E-001	-3.254106286659737E-002	2.6537708E-005	-8.1558192E-001	0
2.5145648E+004	6.960819844804064E+001	-8.1753677E-001	-3.251205803958446E-002	2.6579803E-005	-8.1758201E-001	0
2.5105189E+004	6.980819844298821E+001	-8.1948960E-001	-3.264224035781549E-002	2.6749976E-005	-8.1958193E-001	0
2.5144275E+004	7.000819843793579E+001	-8.2155871E-001	-3.267378696185569E-002	2.6843434E-005	-8.2158202E-001	0
2.5118502E+004	7.020819843288336E+001	-8.2350713E-001	-3.278488218689285E-002	2.6998585E-005	-8.2358193E-001	0
2.5129178E+004	7.040819842783094E+001	-8.2552600E-001	-3.285129413472213E-002	2.7119597E-005	-8.2558185E-001	0
2.5181301E+004	7.060819842277851E+001	-8.2750714E-001	-3.286196982388773E-002	2.7193515E-005	-8.2758200E-001	0
2.5222945E+004	7.080819841772609E+001	-8.2955086E-001	-3.288874011977763E-002	2.7282882E-005	-8.2958198E-001	0
2.5215564E+004	7.100819841267366E+001	-8.3154619E-001	-3.297749585963050E-002	2.7422311E-005	-8.3158195E-001	0
2.5226428E+004	7.120819840762124E+001	-8.3352268E-001	-3.304164467433297E-002	2.7540960E-005	-8.3358198E-001	0
2.5138217E+004	7.140819840256881E+001	-8.3554649E-001	-3.323809783552016E-002	2.7771976E-005	-8.3558196E-001	0
2.5169521E+004	7.160819839751639E+001	-8.3755809E-001	-3.327668035194881E-002	2.7871152E-005	-8.3758193E-001	0
2.5164988E+004	7.180819839246396E+001	-8.3947968E-001	-3.335903248910171E-002	2.8004230E-005	-8.3958191E-001	0
2.5055346E+004	7.200819838741154E+001	-8.4152144E-001	-3.358650223754324E-002	2.8263761E-005	-8.4158200E-001	0
2.5087410E+004	7.220819838235911E+001	-8.4356302E-001	-3.362495522753939E-002	2.8364770E-005	-8.4358197E-001	0
2.4964176E+004	7.240819837730669E+001	-8.4550589E-001	-3.386876848737486E-002	2.8636243E-005	-8.4558195E-001	0
2.4896455E+004	7.260819837225426E+001	-8.4758240E-001	-3.404430050271934E-002	2.8855349E-005	-8.4758192E-001	0
2.4810516E+004	7.280819836720184E+001	-8.4958285E-001	-3.424285472525912E-002	2.9092142E-005	-8.4958190E-001	0
2.4673279E+004	7.300819836214941E+001	-8.5153419E-001	-3.451240383898468E-002	2.9388491E-005	-8.5158199E-001	0
2.4488355E+004	7.320819835709699E+001	-8.5352683E-001	-3.485439596866624E-002	2.9749162E-005	-8.5358191E-001	0
2.4362262E+004	7.340819835204456E+001	-8.5551655E-001	-3.511646798444390E-002	3.0042720E-005	-8.5558206E-001	0
2.4093008E+004	7.360819834699214E+001	-8.5749263E-001	-3.559093288269510E-002	3.0518964E-005	-8.5758203E-001	0
2.3864326E+004	7.380819834193971E+001	-8.5952556E-001	-3.601717235955521E-002	3.0957679E-005	-8.5958183E-001	0
2.3552137E+004	7.400819833688729E+001	-8.6153209E-001	-3.657978459534850E-002	3.1514657E-005	-8.6158198E-001	0
2.3123555E+004	7.420819833183486E+001	-8.6357147E-001	-3.734596389691114E-002	3.2250908E-005	-8.6358196E-001	0
2.2547596E+004	7.440819832678244E+001	-8.6554796E-001	-3.838759380743295E-002	3.3226304E-005	-8.6558193E-001	0
2.1919727E+004	7.460819832173001E+001	-8.6750585E-001	-3.957649042735900E-002	3.4332836E-005	-8.6758196E-001	0
2.1344912E+004	7.480819831667759E+001	-8.6952734E-001	-4.073698490133729E-002	3.5421923E-005	-8.6958200E-001	0
2.0626404E+004	7.500819831162516E+001	-8.7146270E-001	-4.224986153868060E-002	3.6819180E-005	-8.7158197E-001	0
1.9805611E+004	7.520819830657274E+001	-8.7356979E-001	-4.410718614209119E-002	3.8530707E-005	-8.7358189E-001	0
1.8897686E+004	7.540819830152032E+001	-8.7552398E-001	-4.632969533015141E-002	4.0562758E-005	-8.7558198E-001	0
1.7940531E+004	7.560819829646789E+001	-8.7747151E-001	-4.891000498353382E-002	4.2917134E-005	-8.7758195E-001	0
1.6954150E+004	7.580819829141547E+001	-8.7951511E-001	-5.187609551955963E-002	4.5625809E-005	-8.7958193E-001	0
1.5942191E+004	7.600819828636304E+001	-8.8150060E-001	-5.529356658217982E-002	4.8741313E-005	-8.8158190E-001	0
1.4946729E+004	7.620819828131062E+001	-8.8354689E-001	-5.911305709478054E-002	5.2229159E-005	-8.8358200E-001	0
1.3985438E+004	7.640819827625819E+001	-8.8549966E-001	-6.331583064275442E-002	5.6066146E-005	-8.8558197E-001	0
1.3069487E+004	7.660819827120577E+001	-8.8748151E-001	-6.790484446987818E-002	6.0264294E-005	-8.8758188E-001	0
1.2268897E+004	7.680819826615334E+001	-8.8951212E-001	-7.250139074159287E-002	6.4490865E-005	-8.8958204E-001	0
1.1551101E+004	7.700819826110092E+001	-8.9148760E-001	-7.717772051026817E-002	6.8802983E-005	-8.9158201E-001	0
1.0789897E+004	7.721819825579587E+001	-8.9357358E-001	-8.281576265422608E-002	7.4001975E-005	-8.9368206E-001	0
1.0049479E+004	7.742819825049082E+001	-8.9571166E-001	-8.913016329411763E-002	7.9834928E-005	-8.9578199E-001	0
9.5505303E+003	7.762819824543840E+001	-8.9770520E-001	-9.399532968476221E-002	8.4380095E-005	-8.9778197E-001	0
9.0810225E+003	7.782819824038597E+001	-8.9976197E-001	-9.908157171123966E-002	8.9149828E-005	-8.9978194E-001	0
8.6106484E+003	7.802819823533355E+001	-9.0175867E-001	-1.047259836896939E-001	9.4437564E-005	-9.0178198E-001	0
8.0420854E+003	7.822819823028112E+001	-9.0374058E-001	-1.123763970278899E-001	1.0155911E-004	-9.0378189E-001	0
7.4736113E+003	7.842819822522870E+001	-9.0574729E-001	-1.211927251028672E-001	1.0976999E-004	-9.0578198E-001	0
6.9874102E+003	7.862819822017627E+001	-9.0774447E-001	-1.299114324925408E-001	1.1792639E-004	-9.0778196E-001	0
6.4839028E+003	7.882819821512385E+001	-9.0973037E-001	-1.403059836175042E-001	1.2764061E-004	-9.0978205E-001	0
5.9574038E+003	7.902819821007142E+001	-9.1172558E-001	-1.530407530597736E-001	1.3953117E-004	-9.1178203E-001	0
5.4345879E+003	7.922819820501900E+001	-9.1372412E-001	-1.681312604663709E-001	1.5362559E-004	-9.1378194E-001	0
4.9366650E+003	7.942819819996657E+001	-9.1575521E-001	-1.855007878033748E-001	1.6987331E-004	-9.1578197E-001	0
4.4529492E+003	7.962819819491415E+001	-9.1774929E-001	-2.060992064212113E-001	1.8914739E-004	-9.1778207E-001	0
4.0034170E+003	7.982819818986172E+001	-9.1973382E-001	-2.297372099966681E-001	2.1129708E-004	-9.1978192E-001	0
3.5175854E+003	8.002819818480930E+001	-9.2174864E-001	-2.620401607758773E-001	2.4153516E-004	-9.2178196E-001	0
3.1381873E+003	8.022819817975687E+001	-9.2375278E-001	-2.943587272370956E-001	2.7191470E-004	-9.2378199E-001	0
2.8129390E+003	8.042819817470445E+001	-9.2574257E-001	-3.291015356458102E-001	3.0466329E-004	-9.2578197E-001	0
2.5109419E+003	8.062819816965202E+001	-9.2772830E-001	-3.694742068737042E-001	3.4277167E-004	-9.2778194E-001	0
2.1822229E+003	8.082819816459960E+001	-9.2976540E-001	-4.260634375638990E-001	3.9613905E-004	-9.2978197E-001	0
1.9595347E+003	8.102819815954717E+001	-9.3175745E-001	-4.754993363817865E-001	4.4305006E-004	-9.3178195E-001	0
1.7266279E+003	8.122819815449475E+001	-9.3376130E-001	-5.408005113935177E-001	5.0497858E-004	-9.3378192E-001	0
1.5343472E+003	8.142819814944232E+001	-9.3574762E-001	-6.098669613806553E-001	5.7068159E-004	-9.3578202E-001	0
1.3568810E+003	8.162819814438990E+001	-9.3775028E-001	-6.911072625806067E-001	6.4808602E-004	-9.3778199E-001	0
1.2144971E+003	8.182819813933747E+001	-9.3974560E-001	-7.737734959483991E-001	7.2715024E-004	-9.3978196E-001	0
1.0704115E+003	8.202819813428505E+001	-9.4177186E-001	-8.798222916703402E-001	8.2859187E-004	-9.4178194E-001	0
9.5406049E+002	8.222819812923262E+001	-9.4376493E-001	-9.892087185041571E-001	9.3358051E-004	-9.4378203E-001	0
8.4613904E+002	8.243819812392758E+001	-9.4580865E-001	-1.117793424592737E+000	1.0572186E-003	-9.4588208E-001	0
7.5499011E+002	8.264819811862253E+001	-9.4794214E-001	-1.255568953851860E+000	1.1902067E-003	-9.4798189E-001	0
6.7702679E+002	8.284819811357011E+001	-9.4992238E-001	-1.403079403171534E+000	1.3328166E-003	-9.4998199E-001	0
6.0784888E+002	8.304819810851768E+001	-9.5194054E-001	-1.566080940013027E+000	1.4908159E-003	-9.5198196E-001	0
5.4631268E+002	8.324819810346526E+001	-9.5395899E-001	-1.746177662662370E+000	1.6657818E-003	-9.5398194E-001	0
4.9361078E+002	8.344819809841283E+001	-9.5594358E-001	-1.936634376594405E+000	1.8513132E-003	-9.5598203E-001	0
4.4678314E+002	8.364819809336041E+001	-9.5792800E-001	-2.144055827945266E+000	2.0538510E-003	-9.5798188E-001	0
4.0531192E+002	8.384819808830798E+001	-9.5993054E-001	-2.368374768230645E+000	2.2734753E-003	-9.5998198E-001	0
3.6862817E+002	8.404819808325556E+001	-9.6194917E-001	-2.609537861278277E+000	2.5102429E-003	-9.6198195E-001	0
3.3636069E+002	8.424819807820313E+001	-9.6393424E-001	-2.865775466049747E+000	2.7624192E-003	-9.6398205E-001	0
3.0755380E+002	8.444819807315071E+001	-9.6591246E-001	-3.140629142218728E+000	3.0335728E-003	-9.6598202E-001	0
2.8204553E+002	8.464819806809828E+001	-9.6792936E-001	-3.431819367739891E+000	3.3217587E-003	-9.6798193E-001	0
2.5943057E+002	8.484819806304586E+001	-9.6993452E-001	-3.738705586109827E+000	3.6262996E-003	-9.6998197E-001	0
2.3943828E+002	8.504819805799343E+001	-9.7194302E-001	-4.059263353276151E+000	3.9453725E-003	-9.7198206E-001	0
2.2138876E+002	8.524819805294101E+001	-9.7394615E-001	-4.399257509177218E+000	4.2846398E-003	-9.7398192E-001	0
2.0478558E+002	8.544819804788858E+001	-9.7592002E-001	-4.765570087970772E+000	4.6508154E-003	-9.7598195E-001	0
1.9024599E+002	8.564819804283616E+001	-9.7794795E-001	-5.140439111663369E+000	5.0270818E-003	-9.7798198E-001	0
1.7718628E+002	8.584819803778373E+001	-9.7993314E-001	-5.530524826982408E+000	5.4195444E-003	-9.7998196E-001	0
1.6530162E+002	8.604819803273131E+001	-9.8193115E-001	-5.940238898810065E+000	5.8329054E-003	-9.8198199E-001	0
1.5469186E+002	8.624819802767888E+001	-9.8393661E-001	-6.360622838984270E+000	6.2584495E-003	-9.8398197E-001	0
1.4483746E+002	8.644819802262646E+001	-9.8595244E-001	-6.807302431116831E+000	6.7116763E-003	-9.8598194E-001	0
1.3620166E+002	8.664819801757403E+001	-9.8794281E-001	-7.253529759221067E+000	7.1660727E-003	-9.8798192E-001	0
1.2801416E+002	8.684819801252161E+001	-9.8999190E-001	-7.733456328477430E+000	7.6560592E-003	-9.8998189E-001	0
1.2077553E+002	8.704819800746918E+001	-9.9194157E-001	-8.213100538367343E+000	8.1469156E-003	-9.9198186E-001	0
1.1402067E+002	8.724819800241676E+001	-9.9398685E-001	-8.717602589706161E+000	8.6651826E-003	-9.9398190E-001	0
1.0790255E+002	8.744819799736433E+001	-9.9593431E-001	-9.229942269268491E+000	9.1924164E-003	-9.9598193E-001	0
1.0219842E+002	8.764819799231191E+001	-9.9797064E-001	-9.765030169162628E+000	9.7452132E-003	-9.9798191E-001	0
9.6966301E+001	8.784819798725948E+001	-9.9996835E-001	-1.031253516052317E+001	1.0312209E-002	-9.9998188E-001	0
9.1880798E+001	8.805819798195444E+001	-1.0020611E+000	-1.090609906188078E+001	1.0928578E-002	-1.0020820E+000	0
8.7109764E+001	8.826819797664939E+001	-1.0041423E+000	-1.152732210722905E+001	1.1575071E-002	-1.0041820E+000	0
8.3052574E+001	8.846819797159696E+001	-1.0061488E+000	-1.211460089663257E+001	1.2189091E-002	-1.0061820E+000	0
7.9227776E+001	8.866819796654454E+001	-1.0081570E+000	-1.272479249513335E+001	1.2828588E-002	-1.0081819E+000	0
7.5695457E+001	8.886819796149211E+001	-1.0101240E+000	-1.334457844184908E+001	1.3479679E-002	-1.0101819E+000	0
7.2391739E+001	8.906819795643969E+001	-1.0121444E+000	-1.398149062419418E+001	1.4151288E-002	-1.0121819E+000	0
6.9306519E+001	8.926819795138726E+001	-1.0141736E+000	-1.463316297896057E+001	1.4840568E-002	-1.0141820E+000	0
6.6388329E+001	8.946819794633484E+001	-1.0161421E+000	-1.530603600197101E+001	1.5553108E-002	-1.0161819E+000	0
6.3715122E+001	8.966819794128241E+001	-1.0181762E+000	-1.598013454526998E+001	1.6270593E-002	-1.0181819E+000	0
6.1158680E+001	8.986819793622999E+001	-1.0201367E+000	-1.668016241129287E+001	1.7016046E-002	-1.0201819E+000	0
5.8821320E+001	9.006819793117756E+001	-1.0221304E+000	-1.737686891931526E+001	1.7761426E-002	-1.0221820E+000	0
5.6640995E+001	9.026819792612514E+001	-1.0241616E+000	-1.808163050756434E+001	1.8518511E-002	-1.0241820E+000	0
5.4508682E+001	9.046819792107272E+001	-1.0261865E+000	-1.882611079443071E+001	1.9319100E-002	-1.0261821E+000	0
5.2564415E+001	9.066819791602029E+001	-1.0281477E+000	-1.955976632582082E+001	2.0110330E-002	-1.0281819E+000	0
5.0721718E+001	9.086819791096787E+001	-1.0301906E+000	-2.031064028872389E+001	2.0923831E-002	-1.0301820E+000	0
4.8964355E+001	9.106819790591544E+001	-1.0321311E+000	-2.107923363936467E+001	2.1756532E-002	-1.0321820E+000	0
4.7335426E+001	9.126819790086302E+001	-1.0341264E+000	-2.184677559610407E+001	2.2592327E-002	-1.0341820E+000	0
4.5771252E+001	9.146819789581059E+001	-1.0361277E+000	-2.263708401983286E+001	2.3454910E-002	-1.0361820E+000	0
4.4298046E+001	9.166819789075817E+001	-1.0381342E+000	-2.343521429770658E+001	2.4328899E-002	-1.0381820E+000	0
4.2897732E+001	9.186819788570574E+001	-1.0401349E+000	-2.424685192865036E+001	2.5219997E-002	-1.0401820E+000	0
4.1586601E+001	9.206819788065332E+001	-1.0421413E+000	-2.505954481360578E+001	2.6115587E-002	-1.0421820E+000	0
4.0341106E+001	9.226819787560089E+001	-1.0441207E+000	-2.588230232830222E+001	2.7024247E-002	-1.0441819E+000	0
3.9138573E+001	9.246819787054847E+001	-1.0461679E+000	-2.672984129528342E+001	2.7963901E-002	-1.0461820E+000	0
3.8007805E+001	9.266819786549604E+001	-1.0481246E+000	-2.757656191346877E+001	2.8903672E-002	-1.0481820E+000	0
3.6930550E+001	9.286819786044362E+001	-1.0501567E+000	-2.843598809128719E+001	2.9862244E-002	-1.0501820E+000	0
3.5928535E+001	9.306819785539119E+001	-1.0521774E+000	-2.928528706908492E+001	3.0813318E-002	-1.0521820E+000	0
3.4953835E+001	9.326819785033877E+001	-1.0541716E+000	-3.015896921660624E+001	3.1792726E-002	-1.0541821E+000	0
3.4026756E+001	9.346819784528634E+001	-1.0561556E+000	-3.103897160737699E+001	3.2781981E-002	-1.0561820E+000	0
3.3144653E+001	9.366819784023392E+001	-1.0581266E+000	-3.192450204052358E+001	3.3780165E-002	-1.0581820E+000	0
3.2307789E+001	9.386819783518149E+001	-1.0601591E+000	-3.281435034388569E+001	3.4788433E-002	-1.0601820E+000	0
3.1493387E+001	9.406819783012907E+001	-1.0621482E+000	-3.372607014022432E+001	3.5822086E-002	-1.0621818E+000	0
3.0708742E+001	9.426819782507664E+001	-1.0641392E+000	-3.465264942992036E+001	3.6875244E-002	-1.0641820E+000	0
2.9997972E+001	9.446819782002422E+001	-1.0661339E+000	-3.554019615763724E+001	3.7890606E-002	-1.0661820E+000	0
2.9307072E+001	9.466819781497179E+001	-1.0681189E+000	-3.644577395240199E+001	3.8928419E-002	-1.0681820E+000	0
2.8667522E+001	9.486819780991937E+001	-1.0701649E+000	-3.733021908903876E+001	3.9949492E-002	-1.0701820E+000	0
2.8046396E+001	9.506819780486694E+001	-1.0721179E+000	-3.822658464562602E+001	4.0983405E-002	-1.0721819E+000	0
2.7388094E+001	9.526819779981452E+001	-1.0741622E+000	-3.922004417145877E+001	4.2128690E-002	-1.0741820E+000	0
2.6709856E+001	9.546819779476209E+001	-1.0760993E+000	-4.028847044476572E+001	4.3354392E-002	-1.0761820E+000	0
2.6022894E+001	9.566819778970967E+001	-1.0781442E+000	-4.143060244724592E+001	4.4668164E-002	-1.0781819E+000	0
2.5474085E+001	9.586819778465724E+001	-1.0802004E+000	-4.240389654560680E+001	4.5804709E-002	-1.0801820E+000	0
2.4858179E+001	9.606819777960482E+001	-1.0821810E+000	-4.353420145252107E+001	4.7111884E-002	-1.0821819E+000	0
2.4265432E+001	9.626819777455239E+001	-1.0841334E+000	-4.467810049511137E+001	4.8437022E-002	-1.0841819E+000	0
2.3703247E+001	9.646819776949997E+001	-1.0861812E+000	-4.582415095829907E+001	4.9773328E-002	-1.0861820E+000	0
2.3236561E+001	9.666819776444754E+001	-1.0881661E+000	-4.682991151690760E+001	5.0958723E-002	-1.0881820E+000	0
2.2759346E+001	9.686819775939512E+001	-1.0901895E+000	-4.790073711747749E+001	5.2220877E-002	-1.0901819E+000	0
2.2201324E+001	9.706819775434269E+001	-1.0921649E+000	-4.919367954763419E+001	5.3727608E-002	-1.0921819E+000	0
2.1750546E+001	9.726819774929027E+001	-1.0941780E+000	-5.030576931916698E+001	5.5043463E-002	-1.0941820E+000	0
2.1262325E+001	9.746819774423784E+001	-1.0961716E+000	-5.155464326443314E+001	5.6512736E-002	-1.0961820E+000	0
2.0805189E+001	9.766819773918542E+001	-1.0981963E+000	-5.278473027330938E+001	5.7967994E-002	-1.0981820E+000	0
2.0372648E+001	9.786819773413299E+001	-1.1001726E+000	-5.400243821490113E+001	5.9412006E-002	-1.1001819E+000	0
1.9953720E+001	9.806819772908057E+001	-1.1021492E+000	-5.523527410835925E+001	6.0877517E-002	-1.1021819E+000	0
1.9623358E+001	9.826819772402814E+001	-1.1041481E+000	-5.626703365806031E+001	6.2127139E-002	-1.1041820E+000	0
1.9320564E+001	9.846819771897572E+001	-1.1061716E+000	-5.725358956957624E+001	6.3332297E-002	-1.1061820E+000	0
1.8917088E+001	9.866819771392329E+001	-1.1081679E+000	-5.858026119154317E+001	6.4916767E-002	-1.1081820E+000	0
1.8613119E+001	9.886819770887087E+001	-1.1101521E+000	-5.964352902857922E+001	6.6213392E-002	-1.1101819E+000	0
1.8174103E+001	9.906819770381844E+001	-1.1121407E+000	-6.119370460294022E+001	6.8056010E-002	-1.1121819E+000	0
1.7803246E+001	9.926819769876602E+001	-1.1141356E+000	-6.258047592666958E+001	6.9723137E-002	-1.1141820E+000	0
1.7483055E+001	9.946819769371359E+001	-1.1161753E+000	-6.384326288543343E+001	7.1260273E-002	-1.1161820E+000	0
1.7143738E+001	9.966819768866117E+001	-1.1181599E+000	-6.522264119016292E+001	7.2929338E-002	-1.1181819E+000	0
1.6773094E+001	9.986819768360874E+001	-1.1201743E+000	-6.678399515368210E+001	7.4809715E-002	-1.1201819E+000	0
1.6379198E+001	1.000681976785563E+002	-1.1221598E+000	-6.851128418483395E+001	7.6880611E-002	-1.1221820E+000	0
1.6054483E+001	1.002681976735039E+002	-1.1241798E+000	-7.002279592911930E+001	7.8718215E-002	-1.1241820E+000	0
1.5817059E+001	1.004681976684515E+002	-1.1261796E+000	-7.120031613016863E+001	8.0184340E-002	-1.1261821E+000	0
1.5545961E+001	1.006681976633990E+002	-1.1282293E+000	-7.257378396209417E+001	8.1879869E-002	-1.1281821E+000	0
1.5332865E+001	1.008681976583466E+002	-1.1302187E+000	-7.371217263042240E+001	8.3310880E-002	-1.1301819E+000	0
1.5032168E+001	1.010681976532942E+002	-1.1322064E+000	-7.531890223085759E+001	8.5276544E-002	-1.1321820E+000	0
1.4671342E+001	1.012681976482418E+002	-1.1342021E+000	-7.730731752832457E+001	8.7682121E-002	-1.1341820E+000	0
1.4425076E+001	1.014681976431893E+002	-1.1362621E+000	-7.876991332901844E+001	8.9503266E-002	-1.1361821E+000	0
1.4110065E+001	1.016681976381369E+002	-1.1382012E+000	-8.066590916326510E+001	9.1814041E-002	-1.1381820E+000	0
1.3839165E+001	1.018681976330845E+002	-1.1402607E+000	-8.239375222134777E+001	9.3950354E-002	-1.1401819E+000	0
1.3623848E+001	1.020681976280321E+002	-1.1422559E+000	-8.384238693557359E+001	9.5769465E-002	-1.1421820E+000	0
1.3290914E+001	1.022681976229796E+002	-1.1442341E+000	-8.609145437022170E+001	9.8508775E-002	-1.1441820E+000	0
1.3091216E+001	1.024681976179272E+002	-1.1462595E+000	-8.755944159512057E+001	1.0036585E-001	-1.1461819E+000	0
1.2920894E+001	1.026681976128748E+002	-1.1482303E+000	-8.886616685385070E+001	1.0203882E-001	-1.1481820E+000	0
1.2729036E+001	1.028681976078224E+002	-1.1502370E+000	-9.036324111512454E+001	1.0393914E-001	-1.1501820E+000	0
1.2462647E+001	1.030681976027699E+002	-1.1522498E+000	-9.245626442502703E+001	1.0653272E-001	-1.1521819E+000	0
1.2243793E+001	1.032681975977175E+002	-1.1542225E+000	-9.427000788550254E+001	1.0880856E-001	-1.1541820E+000	0
1.2050715E+001	1.034681975926651E+002	-1.1562128E+000	-9.594557583305050E+001	1.1093350E-001	-1.1561821E+000	0
1.1861037E+001	1.036681975876127E+002	-1.1582183E+000	-9.764898982394038E+001	1.1309884E-001	-1.1581819E+000	0
1.1693930E+001	1.038681975825602E+002	-1.1602291E+000	-9.921635866868019E+001	1.1511371E-001	-1.1601819E+000	0
1.1589664E+001	1.040681975775078E+002	-1.1622092E+000	-1.002797961364799E+002	1.1654609E-001	-1.1621820E+000	0
1.1314826E+001	1.042681975724554E+002	-1.1642377E+000	-1.028948852599610E+002	1.1979411E-001	-1.1641821E+000	0
1.1127472E+001	1.044681975674030E+002	-1.1662185E+000	-1.048053398024194E+002	1.2222593E-001	-1.1661820E+000	0
1.1025191E+001	1.046681975623505E+002	-1.1682556E+000	-1.059623842001502E+002	1.2379114E-001	-1.1681819E+000	0
1.0922658E+001	1.048681975572981E+002	-1.1702586E+000	-1.071404638225531E+002	1.2538205E-001	-1.1701819E+000	0
1.0685534E+001	1.050781975519931E+002	-1.1723638E+000	-1.097150336421260E+002	1.2862593E-001	-1.1722820E+000	0
1.0460637E+001	1.052881975466880E+002	-1.1744083E+000	-1.122692903326215E+002	1.3184999E-001	-1.1743820E+000	0
1.0347249E+001	1.054881975416356E+002	-1.1764024E+000	-1.136922873693800E+002	1.3374789E-001	-1.1763821E+000	0
1.0073693E+001	1.056881975365832E+002	-1.1783900E+000	-1.169769562755846E+002	1.3784447E-001	-1.1783819E+000	0
9.9020290E+000	1.058881975315308E+002	-1.1803976E+000	-1.192076570074031E+002	1.4071244E-001	-1.1803819E+000	0
9.7827082E+000	1.060881975264783E+002	-1.1824147E+000	-1.208678258389850E+002	1.4291589E-001	-1.1823820E+000	0
9.5947886E+000	1.062881975214259E+002	-1.1844041E+000	-1.234424389560199E+002	1.4620574E-001	-1.1843821E+000	0
9.4586782E+000	1.064881975163735E+002	-1.1864363E+000	-1.254336186114892E+002	1.4881900E-001	-1.1863819E+000	0
9.4370785E+000	1.066881975113211E+002	-1.1884121E+000	-1.259300827904352E+002	1.4965683E-001	-1.1883819E+000	0
9.2974091E+000	1.068881975062686E+002	-1.1903950E+000	-1.280351366002001E+002	1.5241238E-001	-1.1903820E+000	0
9.0346136E+000	1.070881975012162E+002	-1.1923729E+000	-1.319782904648732E+002	1.5736733E-001	-1.1923820E+000	0
8.9640608E+000	1.072881974961638E+002	-1.1943907E+000	-1.332421383381966E+002	1.5914316E-001	-1.1943820E+000	0
8.7577066E+000	1.074881974911114E+002	-1.1964085E+000	-1.366120858008626E+002	1.6344386E-001	-1.1963819E+000	0
8.5780573E+000	1.076881974860589E+002	-1.1984161E+000	-1.397071674048500E+002	1.6742732E-001	-1.1983820E+000	0
8.3949261E+000	1.078881974810065E+002	-1.2004021E+000	-1.429913969764368E+002	1.7164718E-001	-1.2003820E+000	0
8.2139683E+000	1.080881974759541E+002	-1.2024069E+000	-1.463856322349066E+002	1.7601509E-001	-1.2023820E+000	0
7.9977627E+000	1.082881974709017E+002	-1.2043977E+000	-1.505918226998951E+002	1.8137245E-001	-1.2043821E+000	0
7.7146511E+000	1.084881974658492E+002	-1.2064365E+000	-1.563825084930644E+002	1.8866557E-001	-1.2063820E+000	0
7.5462117E+000	1.086881974607968E+002	-1.2084465E+000	-1.601394927312458E+002	1.9352001E-001	-1.2083820E+000	0
7.4228358E+000	1.088881974557444E+002	-1.2104062E+000	-1.630652019226093E+002	1.9737513E-001	-1.2103820E+000	0
7.3634028E+000	1.090881974506920E+002	-1.2124280E+000	-1.646559340505096E+002	1.9963346E-001	-1.2123820E+000	0
7.2621932E+000	1.092881974456395E+002	-1.2144088E+000	-1.672234175016005E+002	2.0307758E-001	-1.2143821E+000	0
7.1801925E+000	1.094881974405871E+002	-1.2164166E+000	-1.694128092800413E+002	2.0607655E-001	-1.2163820E+000	0
7.0625877E+000	1.096881974355347E+002	-1.2184271E+000	-1.725185078536571E+002	2.1020122E-001	-1.2183819E+000	0
7.0111980E+000	1.098881974304823E+002	-1.2204370E+000	-1.740696860322061E+002	2.1244109E-001	-1.2203820E+000	0
6.9386392E+000	1.100881974254298E+002	-1.2224307E+000	-1.761772958188917E+002	2.1536453E-001	-1.2223819E+000	0
6.8755145E+000	1.102881974203774E+002	-1.2244087E+000	-1.780824901652175E+002	2.1804576E-001	-1.2243820E+000	0
6.7723398E+000	1.104881974153250E+002	-1.2264179E+000	-1.810922036808906E+002	2.2209471E-001	-1.2263820E+000	0
6.7227654E+000	1.106881974102726E+002	-1.2284070E+000	-1.827234729963634E+002	2.2445880E-001	-1.2283820E+000	0
6.6942334E+000	1.108881974052201E+002	-1.2304267E+000	-1.838039651154932E+002	2.2615731E-001	-1.2303820E+000	0
6.6059461E+000	1.110881974001677E+002	-1.2324187E+000	-1.865620233499001E+002	2.2992252E-001	-1.2323819E+000	0
6.5494576E+000	1.112881973951153E+002	-1.2344066E+000	-1.884746292918717E+002	2.3265432E-001	-1.2343820E+000	0
6.3813615E+000	1.114881973900629E+002	-1.2364328E+000	-1.937568922507789E+002	2.3956737E-001	-1.2363820E+000	0
6.2928114E+000	1.116881973850104E+002	-1.2384168E+000	-1.967986509026859E+002	2.4371876E-001	-1.2383820E+000	0
6.2204437E+000	1.118881973799580E+002	-1.2404040E+000	-1.994076396321490E+002	2.4734603E-001	-1.2403818E+000	0
6.2028842E+000	1.120881973749056E+002	-1.2424252E+000	-2.002979884861280E+002	2.4885526E-001	-1.2423819E+000	0
6.1352015E+000	1.122881973698532E+002	-1.2444119E+000	-2.028314788844291E+002	2.5240591E-001	-1.2443820E+000	0
6.0275073E+000	1.124881973648007E+002	-1.2464420E+000	-2.067922797300378E+002	2.5775456E-001	-1.2463819E+000	0
5.8765597E+000	1.126881973597483E+002	-1.2484380E+000	-2.124436883969647E+002	2.6522279E-001	-1.2483820E+000	0
5.7567730E+000	1.128881973546959E+002	-1.2504209E+000	-2.172086613605350E+002	2.7160224E-001	-1.2503819E+000	0
5.6614590E+000	1.130881973496435E+002	-1.2524329E+000	-2.212208815723861E+002	2.7706432E-001	-1.2523820E+000	0
5.5715361E+000	1.132881973445910E+002	-1.2544191E+000	-2.251478001644284E+002	2.8242970E-001	-1.2543821E+000	0
5.5437679E+000	1.134881973395386E+002	-1.2564299E+000	-2.266382675214145E+002	2.8475511E-001	-1.2563820E+000	0
5.5204015E+000	1.136881973344862E+002	-1.2584566E+000	-2.279646845318021E+002	2.8688365E-001	-1.2583820E+000	0
5.4537134E+000	1.138881973294338E+002	-1.2604254E+000	-2.311132620965000E+002	2.9130104E-001	-1.2603819E+000	0
5.4184356E+000	1.140881973243813E+002	-1.2624213E+000	-2.329863048259358E+002	2.9412687E-001	-1.2623819E+000	0
5.3767686E+000	1.142881973193289E+002	-1.2644430E+000	-2.351678377808894E+002	2.9735634E-001	-1.2643820E+000	0
5.3497739E+000	1.144881973142765E+002	-1.2664657E+000	-2.367325494338065E+002	2.9981366E-001	-1.2663820E+000	0
5.3055754E+000	1.146881973092241E+002	-1.2684737E+000	-2.390831629110844E+002	3.0327073E-001	-1.2683820E+000	0
5.1838655E+000	1.148881973041716E+002	-1.2704667E+000	-2.450809551312550E+002	3.1136718E-001	-1.2703819E+000	0
5.1320252E+000	1.150881972991192E+002	-1.2724898E+000	-2.479508108087139E+002	3.1551486E-001	-1.2723820E+000	0
5.0875907E+000	1.152881972940668E+002	-1.2744589E+000	-2.505034253451290E+002	3.1925631E-001	-1.2743820E+000	0
5.0649471E+000	1.154881972890144E+002	-1.2765204E+000	-2.520303429778742E+002	3.2172188E-001	-1.2763820E+000	0
4.9864240E+000	1.156883972839569E+002	-1.2784721E+000	-2.563905719862178E+002	3.2778817E-001	-1.2783836E+000	0
4.8777404E+000	1.158887972788943E+002	-1.2804747E+000	-2.625139129853483E+002	3.3614242E-001	-1.2803874E+000	0
4.8501401E+000	1.160890972738343E+002	-1.2825199E+000	-2.644294686078306E+002	3.3913606E-001	-1.2823907E+000	0
4.7824855E+000	1.162891972687794E+002	-1.2845150E+000	-2.685873444226315E+002	3.4500447E-001	-1.2843920E+000	0
4.7375827E+000	1.164894972637194E+002	-1.2864965E+000	-2.715512635683599E+002	3.4934977E-001	-1.2863944E+000	0
4.6694283E+000	1.166899972586543E+002	-1.2884986E+000	-2.759435521600772E+002	3.5555288E-001	-1.2883996E+000	0
4.6338873E+000	1.168901972535969E+002	-1.2905030E+000	-2.784925229360188E+002	3.5939544E-001	-1.2904021E+000	0
4.6245542E+000	1.170903972485394E+002	-1.2925023E+000	-2.794869058565769E+002	3.6123747E-001	-1.2924039E+000	0
4.6259723E+000	1.172904972434844E+002	-1.2945508E+000	-2.798440321255412E+002	3.6227232E-001	-1.2944047E+000	0
4.6120892E+000	1.174907972384244E+002	-1.2965250E+000	-2.811144806540524E+002	3.6447194E-001	-1.2964078E+000	0
4.5054884E+000	1.176911972333619E+002	-1.2985216E+000	-2.882088402662148E+002	3.7424541E-001	-1.2984114E+000	0
4.4563661E+000	1.178913972283044E+002	-1.3005633E+000	-2.918439094820264E+002	3.7956148E-001	-1.3004141E+000	0
4.4140387E+000	1.180914972232495E+002	-1.3025477E+000	-2.950920449357463E+002	3.8437146E-001	-1.3024148E+000	0
4.3395681E+000	1.182915972181945E+002	-1.3045387E+000	-3.006148786566428E+002	3.9216375E-001	-1.3044159E+000	0
4.2971244E+000	1.184917972131370E+002	-1.3065420E+000	-3.040503313934787E+002	3.9725453E-001	-1.3064178E+000	0
4.3038034E+000	1.186918972080821E+002	-1.3085682E+000	-3.040492491382147E+002	3.9786920E-001	-1.3084186E+000	0
4.2846117E+000	1.188921972030221E+002	-1.3105586E+000	-3.058756751859321E+002	4.0086797E-001	-1.3104218E+000	0
4.2466693E+000	1.190924971979621E+002	-1.3126013E+000	-3.090895921859687E+002	4.0571141E-001	-1.3124247E+000	0
4.2229047E+000	1.192925971929071E+002	-1.3145539E+000	-3.112913815439952E+002	4.0920928E-001	-1.3144259E+000	0
4.2091012E+000	1.194927971878496E+002	-1.3166102E+000	-3.128007877703653E+002	4.1183671E-001	-1.3164279E+000	0
4.1805825E+000	1.196931971827871E+002	-1.3185930E+000	-3.154089135521999E+002	4.1589600E-001	-1.3184315E+000	0
4.0913434E+000	1.198933971777296E+002	-1.3206105E+000	-3.227816261845119E+002	4.2626882E-001	-1.3204339E+000	0
4.0271735E+000	1.200933971726772E+002	-1.3225642E+000	-3.284100545701522E+002	4.3434340E-001	-1.3224339E+000	0
4.0080204E+000	1.202934971676223E+002	-1.3246009E+000	-3.304875579110894E+002	4.3776414E-001	-1.3244349E+000	0
3.9939013E+000	1.204935971625673E+002	-1.3265760E+000	-3.321504171786669E+002	4.4062278E-001	-1.3264360E+000	0
3.9881365E+000	1.206936971575124E+002	-1.3285850E+000	-3.331342990214653E+002	4.4259724E-001	-1.3284367E+000	0
3.9754229E+000	1.208937971524574E+002	-1.3305914E+000	-3.347043722567901E+002	4.4535476E-001	-1.3304380E+000	0
3.9390445E+000	1.210939971473999E+002	-1.3325611E+000	-3.382955324232224E+002	4.5079947E-001	-1.3324395E+000	0
3.8903229E+000	1.212943971423374E+002	-1.3345921E+000	-3.430543186252994E+002	4.5783758E-001	-1.3344434E+000	0
3.8684385E+000	1.214947971372749E+002	-1.3366424E+000	-3.455250561036423E+002	4.6184343E-001	-1.3364480E+000	0
3.8531511E+000	1.216947971322224E+002	-1.3386359E+000	-3.474132913559197E+002	4.6505991E-001	-1.3384480E+000	0
3.7849491E+000	1.218948971271675E+002	-1.3406408E+000	-3.542031207273349E+002	4.7485915E-001	-1.3404487E+000	0
3.7668045E+000	1.220950971221100E+002	-1.3426378E+000	-3.564394646147421E+002	4.7856909E-001	-1.3424505E+000	0
3.7760768E+000	1.222955971170450E+002	-1.3446285E+000	-3.560913920099356E+002	4.7881061E-001	-1.3444552E+000	0
3.7661874E+000	1.224959971119824E+002	-1.3466259E+000	-3.575568031324019E+002	4.8149526E-001	-1.3464600E+000	0
3.7444532E+000	1.226959971069300E+002	-1.3486840E+000	-3.601818072347160E+002	4.8577142E-001	-1.3484600E+000	0
3.7059677E+000	1.228960971018751E+002	-1.3506523E+000	-3.644533579726158E+002	4.9224979E-001	-1.3504608E+000	0
3.6899145E+000	1.230962970968176E+002	-1.3526646E+000	-3.665842564973909E+002	4.9586555E-001	-1.3524628E+000	0
3.6352103E+000	1.232967970917525E+002	-1.3546883E+000	-3.726574853029215E+002	5.0483471E-001	-1.3544673E+000	0
3.6348686E+000	1.234970970866925E+002	-1.3566781E+000	-3.732399268145382E+002	5.0636643E-001	-1.3564708E+000	0
3.6159277E+000	1.236973970816325E+002	-1.3586586E+000	-3.757427259979013E+002	5.1050609E-001	-1.3584735E+000	0
3.5790963E+000	1.238975970765750E+002	-1.3606946E+000	-3.801782771543253E+002	5.1730657E-001	-1.3604758E+000	0
3.5776017E+000	1.240977970715176E+002	-1.3626992E+000	-3.808973925708983E+002	5.1904857E-001	-1.3624774E+000	0
3.5141780E+000	1.242982970664525E+002	-1.3647056E+000	-3.883427491373768E+002	5.2997351E-001	-1.3644823E+000	0
3.4613032E+000	1.244985970613925E+002	-1.3667309E+000	-3.948602135976162E+002	5.3966767E-001	-1.3664860E+000	0
3.4592619E+000	1.246986970563376E+002	-1.3687127E+000	-3.956660950806172E+002	5.4155320E-001	-1.3684868E+000	0
3.4383624E+000	1.248987970512826E+002	-1.3707044E+000	-3.986503658705551E+002	5.4643184E-001	-1.3704879E+000	0
3.4013193E+000	1.250989970462251E+002	-1.3727084E+000	-4.035811662128435E+002	5.5399925E-001	-1.3724893E+000	0
3.4007664E+000	1.252993970411626E+002	-1.3747077E+000	-4.042346741662063E+002	5.5570453E-001	-1.3744938E+000	0
3.3814723E+000	1.254998970360975E+002	-1.3767000E+000	-4.071303527423506E+002	5.6049639E-001	-1.3764982E+000	0
3.3531740E+000	1.257002970310350E+002	-1.3787704E+000	-4.111836736601899E+002	5.6692785E-001	-1.3785027E+000	0
3.3568895E+000	1.259004970259775E+002	-1.3807101E+000	-4.113064070553237E+002	5.6789494E-001	-1.3805047E+000	0
3.3402843E+000	1.261007970209175E+002	-1.3827556E+000	-4.139634539323315E+002	5.7241029E-001	-1.3825074E+000	0
3.3295870E+000	1.263011970158550E+002	-1.3847492E+000	-4.158921853672296E+002	5.7590634E-001	-1.3845118E+000	0
3.2987492E+000	1.265013970107975E+002	-1.3867320E+000	-4.203811561840521E+002	5.8295602E-001	-1.3865137E+000	0
3.2970557E+000	1.267013970057451E+002	-1.3887275E+000	-4.212023188662342E+002	5.8493525E-001	-1.3885138E+000	0
3.2856061E+000	1.269013970006927E+002	-1.3907046E+000	-4.232718653732964E+002	5.8864617E-001	-1.3905138E+000	0
3.2829788E+000	1.271013969956402E+002	-1.3926861E+000	-4.242141847026596E+002	5.9079719E-001	-1.3925138E+000	0
3.2484879E+000	1.273013969905878E+002	-1.3947216E+000	-4.293448593632711E+002	5.9881657E-001	-1.3945138E+000	0
3.2383497E+000	1.275013969855354E+002	-1.3967565E+000	-4.313173836083105E+002	6.0244536E-001	-1.3965138E+000	0
3.2263944E+000	1.277013969804830E+002	-1.3987499E+000	-4.335334575938523E+002	6.0640490E-001	-1.3985138E+000	0
3.1860309E+000	1.279013969754305E+002	-1.4007179E+000	-4.396435370196559E+002	6.1581653E-001	-1.4005138E+000	0
3.1690438E+000	1.281013969703781E+002	-1.4027302E+000	-4.426351524015699E+002	6.2089771E-001	-1.4025139E+000	0
3.1106915E+000	1.283013969653257E+002	-1.4047731E+000	-4.515951085642082E+002	6.3438869E-001	-1.4045137E+000	0
3.1100788E+000	1.285013969602733E+002	-1.4067740E+000	-4.523274518097350E+002	6.3632250E-001	-1.4065138E+000	0
3.1139402E+000	1.287013969552208E+002	-1.4087474E+000	-4.524002818282770E+002	6.3731772E-001	-1.4085137E+000	0
3.1159682E+000	1.289013969501684E+002	-1.4107687E+000	-4.527545291139431E+002	6.3873196E-001	-1.4105138E+000	0
3.0986838E+000	1.291013969451160E+002	-1.4127593E+000	-4.559223926916137E+002	6.4410859E-001	-1.4125139E+000	0
3.1078868E+000	1.293013969400636E+002	-1.4148201E+000	-4.552353942680802E+002	6.4407617E-001	-1.4145137E+000	0
3.1052921E+000	1.295013969350111E+002	-1.4168357E+000	-4.562648655941157E+002	6.4645231E-001	-1.4165138E+000	0
3.0416002E+000	1.297013969299587E+002	-1.4188377E+000	-4.664773610476195E+002	6.6185564E-001	-1.4185137E+000	0
3.0315857E+000	1.299013969249063E+002	-1.4207810E+000	-4.686593766807164E+002	6.6586232E-001	-1.4205137E+000	0
3.0321801E+000	1.301013969198539E+002	-1.4227575E+000	-4.692193295225803E+002	6.6758531E-001	-1.4225138E+000	0
3.0369720E+000	1.303013969148014E+002	-1.4246957E+000	-4.691171806101866E+002	6.6834927E-001	-1.4245137E+000	0
3.0264990E+000	1.305013969097490E+002	-1.4267610E+000	-4.714229218100227E+002	6.7260784E-001	-1.4265138E+000	0
3.0077140E+000	1.307013969046966E+002	-1.4287324E+000	-4.750226904680958E+002	6.7868030E-001	-1.4285139E+000	0
3.0081151E+000	1.309013968996442E+002	-1.4307629E+000	-4.756343737102679E+002	6.8052000E-001	-1.4305137E+000	0
2.9695561E+000	1.311013968945917E+002	-1.4327984E+000	-4.824958204412105E+002	6.9131923E-001	-1.4325138E+000	0
2.9696686E+000	1.313013968895393E+002	-1.4347800E+000	-4.831448252671435E+002	6.9320655E-001	-1.4345139E+000	0
2.9698405E+000	1.315013968844869E+002	-1.4367905E+000	-4.837938021791779E+002	6.9511032E-001	-1.4365138E+000	0
2.9649963E+000	1.317013968794345E+002	-1.4387792E+000	-4.852549876604498E+002	6.9817477E-001	-1.4385136E+000	0
2.9558873E+000	1.319013968743820E+002	-1.4407674E+000	-4.874229815952358E+002	7.0226312E-001	-1.4405137E+000	0
2.9055228E+000	1.321013968693296E+002	-1.4427948E+000	-4.965697804665106E+002	7.1644831E-001	-1.4425138E+000	0
2.8729503E+000	1.323013968642772E+002	-1.4447715E+000	-5.028877722422294E+002	7.2655791E-001	-1.4445137E+000	0
2.8755922E+000	1.325013968592248E+002	-1.4468112E+000	-5.031350264214070E+002	7.2794139E-001	-1.4465138E+000	0
2.8609290E+000	1.327013968541723E+002	-1.4487963E+000	-5.064076212798661E+002	7.3368150E-001	-1.4485137E+000	0
2.8618445E+000	1.329013968491199E+002	-1.4507549E+000	-5.069300151574098E+002	7.3543119E-001	-1.4505137E+000	0
2.8438067E+000	1.331013968440675E+002	-1.4527168E+000	-5.108352775530457E+002	7.4209899E-001	-1.4525138E+000	0
2.8480003E+000	1.333013968390151E+002	-1.4547884E+000	-5.108105057956418E+002	7.4312121E-001	-1.4545138E+000	0
2.8460841E+000	1.335013968339626E+002	-1.4572468E+000	-5.120181795107255E+002	7.4613684E-001	-1.4565136E+000	0
2.8402936E+000	1.337013968289102E+002	-1.4592947E+000	-5.137830254863966E+002	7.4976081E-001	-1.4585137E+000	0
2.8070657E+000	1.339013968238578E+002	-1.4612978E+000	-5.205783775528553E+002	7.6072001E-001	-1.4605137E+000	0
2.8116498E+000	1.341013968188054E+002	-1.4632485E+000	-5.204234606295213E+002	7.6150882E-001	-1.4625138E+000	0
2.8168375E+000	1.343013968137529E+002	-1.4652146E+000	-5.201629657356117E+002	7.6215035E-001	-1.4645138E+000	0
2.8131185E+000	1.345013968087005E+002	-1.4672312E+000	-5.215675099820537E+002	7.6526010E-001	-1.4665138E+000	0
2.8029239E+000	1.347013968036481E+002	-1.4692298E+000	-5.241775494616572E+002	7.7013731E-001	-1.4685137E+000	0
2.7917984E+000	1.349013967985957E+002	-1.4712466E+000	-5.269888332263135E+002	7.7533054E-001	-1.4705138E+000	0
2.7845337E+000	1.351013967935432E+002	-1.4732618E+000	-5.290874478692640E+002	7.7948433E-001	-1.4725138E+000	0
2.7581177E+000	1.353013967884908E+002	-1.4753044E+000	-5.348953787139735E+002	7.8913349E-001	-1.4745138E+000	0
2.7494864E+000	1.355013967834384E+002	-1.4773380E+000	-5.373141596917385E+002	7.9379463E-001	-1.4765139E+000	0
2.7091897E+000	1.357013967783860E+002	-1.4793346E+000	-5.460431958888385E+002	8.0778056E-001	-1.4785138E+000	0
2.6988349E+000	1.359013967733335E+002	-1.4812577E+000	-5.488508116231205E+002	8.1298947E-001	-1.4805138E+000	0
2.6978304E+000	1.361013967682811E+002	-1.4832681E+000	-5.498003351726220E+002	8.1550133E-001	-1.4825138E+000	0
2.6976371E+000	1.363013967632287E+002	-1.4852618E+000	-5.505788099976626E+002	8.1775367E-001	-1.4845138E+000	0
2.6559844E+000	1.365013967581763E+002	-1.4873726E+000	-5.600080523112470E+002	8.3294064E-001	-1.4865139E+000	0
2.6524081E+000	1.367013967531238E+002	-1.4893081E+000	-5.614927965367465E+002	8.3623576E-001	-1.4885137E+000	0
2.6766479E+000	1.369013967480714E+002	-1.4913033E+000	-5.571533667376243E+002	8.3088470E-001	-1.4905138E+000	0
2.6780071E+000	1.371013967430190E+002	-1.4932868E+000	-5.576112103148675E+002	8.3267349E-001	-1.4925139E+000	0
2.6740882E+000	1.372513967392297E+002	-1.4947720E+000	-5.589838023769607E+002	8.3555329E-001	-1.4940135E+000	0
2.6655812E+000	1.373019967379514E+002	-1.4954211E+000	-5.610112609863281E+002	8.3894807E-001	-1.4946135E+000	1