EC-Lab ASCII FILE
Nb header lines : 61                          

Linear Sweep Voltammetry

Run on channel : 1 (SN 1340)
User : 
Electrode connection : standard
Potential control : Ewe
Ewe ctrl range : min = -5.00 V, max = 5.00 V
Ewe,I filtering : <None>
Channel : Grounded
Acquisition started on : 02/17/2026 15:02:51.055
Technique started on : 02/17/2026 15:02:53.739
Loaded Setting File :  NONE
Saved on :
	File : X18_75_2-17_02_LSV_C01.mpr
	Directory : C:\Users\volt\Documents\Platalytix\
	Host : 127.0.0.1
Device : SP-200 (SN 0262)
Address : USB
EC-LAB for windows v11.60 (software)
Internet server v11.60 (firmware)
Command interpretor v11.60 (firmware)
Electrode material : Pt18.75Pd18.75Ni18.75CCo18.75Cr25
Initial state : 
Electrolyte : KOH (1M)
Comments : 
Cable : standard
Reference electrode : Hg/HgO (0.140 V)
Electrode surface area : 1.000 cm˛
Characteristic mass : 0.001 g
Equivalent Weight : 0.000 g/eq.
Density : 0.000 g/cm3
Volume (V) : 0.001 cmł
Cycle Definition : Charge/Discharge alternance
tR (h:m:s)          0:00:5.0000         
dER/dt (mV/h)       0.0                 
dER (mV)            0                   
dtR (s)             0.0000              
dE/dt               10.000              
dE/dt unit          mV/s                
Ei (V)              -0.200              
vs.                 Ref                 
EL (V)              -2.500              
vs.                 Ref                 
record              <I>                 
dI                  0.000               
unit dI             µA                  
tI (s)              0.0000              
step percent        50                  
N                   10                  
E range min (V)     -5.000              
E range max (V)     5.000               
I Range             Auto                
I Range min         Unset               
I Range max         Unset               
I Range init        Unset               
Bandwidth           8                   

Rwe/Ohm	time/s	Ewe/V	<I>/mA	Pwe/W	control/V	error	
0.0000000E+000	2.684400127473054E+000	-1.4959654E-001	0.000000000000000E+000	0.0000000E+000	0.0000000E+000	0
0.0000000E+000	7.684200001167483E+000	-4.6933584E-002	0.000000000000000E+000	0.0000000E+000	-1.9983605E-001	0
3.3458564E+003	7.884199996115058E+000	-2.0153941E-001	6.023552466183890E-002	-1.2139833E-005	-2.0173582E-001	0
2.4514475E+003	8.004199993083603E+000	-2.0270285E-001	-8.268700451970262E-002	1.6760892E-005	-2.0293587E-001	0
2.1741853E+003	8.214199987778557E+000	-2.0483357E-001	-9.421164157289308E-002	1.9297706E-005	-2.0503588E-001	0
2.3027236E+003	8.414199982726132E+000	-2.0681839E-001	-8.981467791053710E-002	1.8575327E-005	-2.0703590E-001	0
2.4464285E+003	8.614199977673707E+000	-2.0879196E-001	-8.534561726475842E-002	1.7819479E-005	-2.0903587E-001	0
2.5854714E+003	8.814199972621282E+000	-2.1081051E-001	-8.153658161043276E-002	1.7188768E-005	-2.1103588E-001	0
2.7158855E+003	9.014199967568857E+000	-2.1282057E-001	-7.836139135647646E-002	1.6676917E-005	-2.1303590E-001	0
2.8392649E+003	9.214199962516432E+000	-2.1484146E-001	-7.566798557031068E-002	1.6256619E-005	-2.1503586E-001	0
2.9549905E+003	9.414199957464007E+000	-2.1682607E-001	-7.337622975037261E-002	1.5909880E-005	-2.1703589E-001	0
3.0675269E+003	9.614199952411582E+000	-2.1888258E-001	-7.135473999781888E-002	1.5618309E-005	-2.1903586E-001	0
3.1722207E+003	9.814199947359157E+000	-2.2085404E-001	-6.962127309469929E-002	1.5376139E-005	-2.2103585E-001	0
3.2764915E+003	1.001419994230673E+001	-2.2284225E-001	-6.801246159843044E-002	1.5156050E-005	-2.2303589E-001	0
3.3752917E+003	1.021419993725431E+001	-2.2482876E-001	-6.661017048077622E-002	1.4975883E-005	-2.2503586E-001	0
3.4712219E+003	1.041419993220188E+001	-2.2683947E-001	-6.534859414746719E-002	1.4823640E-005	-2.2703589E-001	0
3.5655374E+003	1.061419992714946E+001	-2.2880772E-001	-6.417201638650460E-002	1.4683053E-005	-2.2903587E-001	0
3.6577932E+003	1.081419992209703E+001	-2.3080356E-001	-6.309913023208152E-002	1.4563504E-005	-2.3103587E-001	0
3.7475525E+003	1.101419991704461E+001	-2.3284803E-001	-6.213336031146915E-002	1.4467631E-005	-2.3303586E-001	0
3.8343369E+003	1.121419991199218E+001	-2.3481819E-001	-6.124088669601224E-002	1.4380475E-005	-2.3503587E-001	0
3.9228987E+003	1.141419990693976E+001	-2.3682486E-001	-6.036986180268578E-002	1.4297084E-005	-2.3703590E-001	0
4.0084314E+003	1.161419990188733E+001	-2.3885551E-001	-5.958827459749605E-002	1.4232988E-005	-2.3903586E-001	0
4.0937981E+003	1.181419989683491E+001	-2.4083990E-001	-5.883042891921629E-002	1.4168714E-005	-2.4103588E-001	0
4.1784155E+003	1.201419989178248E+001	-2.4284656E-001	-5.811929175062125E-002	1.4114070E-005	-2.4303588E-001	0
4.2626626E+003	1.221419988673006E+001	-2.4483243E-001	-5.743650273449463E-002	1.4062319E-005	-2.4503586E-001	0
4.3421450E+003	1.241419988167763E+001	-2.4682300E-001	-5.684356333512613E-002	1.4030299E-005	-2.4703588E-001	0
4.4216147E+003	1.261419987662521E+001	-2.4881054E-001	-5.627141863344201E-002	1.4000922E-005	-2.4903588E-001	0
4.5044116E+003	1.281419987157278E+001	-2.5084671E-001	-5.568912098936052E-002	1.3969433E-005	-2.5103587E-001	0
4.5847173E+003	1.301419986652036E+001	-2.5281945E-001	-5.514395828443330E-002	1.3941465E-005	-2.5303587E-001	0
4.6662715E+003	1.321419986146793E+001	-2.5483882E-001	-5.461294505514969E-002	1.3917499E-005	-2.5503588E-001	0
4.7449116E+003	1.341419985641551E+001	-2.5680581E-001	-5.412236089098044E-002	1.3898936E-005	-2.5703588E-001	0
4.8212939E+003	1.361419985136308E+001	-2.5883669E-001	-5.368614777322911E-002	1.3895945E-005	-2.5903589E-001	0
4.9008667E+003	1.381419984631066E+001	-2.6085585E-001	-5.322647621103316E-002	1.3884438E-005	-2.6103589E-001	0
4.9820103E+003	1.401419984125823E+001	-2.6285660E-001	-5.276115057734410E-002	1.3868616E-005	-2.6303586E-001	0
5.0573569E+003	1.421419983620581E+001	-2.6482296E-001	-5.236390747167941E-002	1.3867165E-005	-2.6503590E-001	0
5.1357451E+003	1.441419983115338E+001	-2.6683980E-001	-5.195737050480864E-002	1.3864294E-005	-2.6703587E-001	0
5.2143125E+003	1.461419982610096E+001	-2.6883882E-001	-5.155786337455526E-002	1.3860756E-005	-2.6903588E-001	0
5.2900303E+003	1.481419982104853E+001	-2.7083153E-001	-5.119659079770988E-002	1.3865651E-005	-2.7103588E-001	0
5.3663530E+003	1.501419981599611E+001	-2.7285665E-001	-5.084582400041512E-002	1.3873621E-005	-2.7303588E-001	0
5.4454170E+003	1.521419981094368E+001	-2.7480367E-001	-5.046512733758446E-002	1.3868002E-005	-2.7503586E-001	0
5.5192427E+003	1.541419980589126E+001	-2.7681142E-001	-5.015387922755621E-002	1.3883167E-005	-2.7703586E-001	0
5.5962603E+003	1.561419980083883E+001	-2.7879772E-001	-4.981857406233159E-002	1.3889305E-005	-2.7903590E-001	0
5.6711948E+003	1.581419979578641E+001	-2.8081945E-001	-4.951680400049790E-002	1.3905282E-005	-2.8103587E-001	0
5.7511445E+003	1.601419979073398E+001	-2.8280255E-001	-4.917326278650902E-002	1.3906324E-005	-2.8303590E-001	0
5.8225649E+003	1.621419978568156E+001	-2.8478780E-001	-4.891105601432066E-002	1.3929272E-005	-2.8503588E-001	0
5.9002627E+003	1.641419978062913E+001	-2.8678471E-001	-4.860541243354277E-002	1.3939289E-005	-2.8703585E-001	0
5.9755811E+003	1.661419977557671E+001	-2.8883317E-001	-4.833558089809420E-002	1.3960919E-005	-2.8903586E-001	0
6.0517920E+003	1.681419977052428E+001	-2.9081184E-001	-4.805383909083988E-002	1.3974625E-005	-2.9103586E-001	0
6.1282642E+003	1.701419976547186E+001	-2.9279983E-001	-4.777859180084429E-002	1.3989564E-005	-2.9303586E-001	0
6.2046567E+003	1.721419976041943E+001	-2.9481009E-001	-4.751432821410129E-002	1.4007704E-005	-2.9503587E-001	0
6.2784180E+003	1.741419975536701E+001	-2.9683545E-001	-4.727870299873654E-002	1.4033995E-005	-2.9703587E-001	0
6.3537710E+003	1.761419975031458E+001	-2.9880330E-001	-4.702770835038939E-002	1.4052034E-005	-2.9903588E-001	0
6.4306108E+003	1.781419974526216E+001	-3.0080721E-001	-4.677739202006881E-002	1.4070976E-005	-3.0103588E-001	0
6.5000439E+003	1.801419974020973E+001	-3.0283338E-001	-4.658943599104770E-002	1.4108837E-005	-3.0303589E-001	0
6.5773896E+003	1.821419973515731E+001	-3.0483413E-001	-4.634576151173875E-002	1.4127770E-005	-3.0503586E-001	0
6.6533696E+003	1.841419973010488E+001	-3.0681002E-001	-4.611348006884894E-002	1.4148078E-005	-3.0703586E-001	0
6.7285884E+003	1.861419972505246E+001	-3.0881581E-001	-4.589607764844317E-002	1.4173434E-005	-3.0903587E-001	0
6.8006069E+003	1.881419972000003E+001	-3.1084925E-001	-4.570904513530616E-002	1.4208623E-005	-3.1103587E-001	0
6.8714956E+003	1.901419971494761E+001	-3.1281069E-001	-4.552294243319283E-002	1.4240063E-005	-3.1303588E-001	0
6.9534189E+003	1.921419970989518E+001	-3.1482694E-001	-4.527656587744633E-002	1.4254282E-005	-3.1503588E-001	0
7.0253789E+003	1.941419970484276E+001	-3.1678799E-001	-4.509194255906818E-002	1.4284586E-005	-3.1703588E-001	0
7.1366133E+003	1.963419969928509E+001	-3.1899598E-001	-4.469851128786539E-002	1.4258646E-005	-3.1923589E-001	0
7.2299282E+003	1.985419969372742E+001	-3.2120538E-001	-4.442718661022785E-002	1.4270251E-005	-3.2143587E-001	0
7.3106611E+003	2.005419968867500E+001	-3.2320312E-001	-4.420983349210655E-002	1.4288756E-005	-3.2343587E-001	0
7.3839609E+003	2.025419968362257E+001	-3.2520789E-001	-4.404247200138675E-002	1.4322959E-005	-3.2543588E-001	0
7.4561733E+003	2.045419967857015E+001	-3.2726824E-001	-4.389225287535034E-002	1.4364540E-005	-3.2743588E-001	0
7.5360303E+003	2.065419967351772E+001	-3.2924649E-001	-4.368964620325247E-002	1.4384663E-005	-3.2943588E-001	0
7.6105923E+003	2.085419966846530E+001	-3.3123043E-001	-4.352229497080806E-002	1.4415908E-005	-3.3143589E-001	0
7.6796372E+003	2.105419966341287E+001	-3.3321014E-001	-4.338878750021781E-002	1.4457584E-005	-3.3343589E-001	0
7.7571484E+003	2.125419965836045E+001	-3.3520046E-001	-4.321181481121256E-002	1.4484620E-005	-3.3543587E-001	0
7.8323320E+003	2.145419965330802E+001	-3.3726233E-001	-4.306027027456272E-002	1.4522607E-005	-3.3743590E-001	0
7.9092461E+003	2.165419964825560E+001	-3.3924988E-001	-4.289282168643943E-002	1.4551385E-005	-3.3943585E-001	0
7.9807056E+003	2.185419964320317E+001	-3.4127313E-001	-4.276227597289783E-002	1.4593616E-005	-3.4143588E-001	0
8.0586416E+003	2.205419963815075E+001	-3.4325090E-001	-4.259413893650291E-002	1.4620477E-005	-3.4343588E-001	0
8.1308882E+003	2.225419963309832E+001	-3.4520221E-001	-4.245565857610481E-002	1.4655787E-005	-3.4543589E-001	0
8.2106338E+003	2.245419962804590E+001	-3.4722376E-001	-4.228951804373680E-002	1.4683926E-005	-3.4743589E-001	0
8.2815439E+003	2.265419962299347E+001	-3.4921831E-001	-4.216826254477635E-002	1.4725930E-005	-3.4943590E-001	0
8.3609951E+003	2.285419961794105E+001	-3.5125574E-001	-4.201123444178689E-002	1.4756687E-005	-3.5143590E-001	0
8.4321748E+003	2.305419961288862E+001	-3.5319683E-001	-4.188679914304860E-002	1.4794285E-005	-3.5343587E-001	0
8.5085195E+003	2.325419960783620E+001	-3.5518849E-001	-4.174504181330041E-002	1.4827358E-005	-3.5543591E-001	0
8.5774102E+003	2.345419960278377E+001	-3.5724646E-001	-4.164968804844884E-002	1.4879203E-005	-3.5743588E-001	0
8.6563701E+003	2.365419959773135E+001	-3.5925764E-001	-4.150211094491091E-002	1.4909951E-005	-3.5943586E-001	0
8.7322988E+003	2.385419959267892E+001	-3.6123163E-001	-4.136729964066722E-002	1.4943177E-005	-3.6143589E-001	0
8.8035762E+003	2.405419958762650E+001	-3.6320880E-001	-4.125696135623619E-002	1.4984891E-005	-3.6343586E-001	0
8.8776436E+003	2.425419958257407E+001	-3.6516577E-001	-4.113318708798142E-002	1.5020432E-005	-3.6543590E-001	0
8.9561826E+003	2.445419957752165E+001	-3.6720049E-001	-4.099966646509995E-002	1.5055098E-005	-3.6743587E-001	0
9.0281533E+003	2.465419957246922E+001	-3.6919141E-001	-4.089334894229318E-002	1.5097473E-005	-3.6943588E-001	0
9.1031133E+003	2.485419956741680E+001	-3.7115949E-001	-4.077281002266775E-002	1.5133215E-005	-3.7143591E-001	0
9.1809648E+003	2.505419956236437E+001	-3.7319055E-001	-4.064829229158626E-002	1.5169559E-005	-3.7343588E-001	0
9.2528369E+003	2.525419955731195E+001	-3.7520275E-001	-4.055002304939703E-002	1.5214480E-005	-3.7543592E-001	0
9.3283340E+003	2.545419955225952E+001	-3.7721428E-001	-4.043747518711047E-002	1.5253593E-005	-3.7743589E-001	0
9.4064570E+003	2.565419954720710E+001	-3.7921968E-001	-4.031482731945636E-002	1.5288177E-005	-3.7943593E-001	0
9.4780234E+003	2.585419954215467E+001	-3.8120046E-001	-4.021940394932962E-002	1.5331656E-005	-3.8143587E-001	0
9.5519346E+003	2.605419953710225E+001	-3.8320732E-001	-4.011829214063917E-002	1.5373624E-005	-3.8343588E-001	0
9.6233145E+003	2.625419953204982E+001	-3.8522357E-001	-4.003023640400477E-002	1.5420590E-005	-3.8543591E-001	0
9.6993340E+003	2.645419952699740E+001	-3.8718569E-001	-3.991879072925159E-002	1.5455984E-005	-3.8743585E-001	0
9.7774033E+003	2.665419952194497E+001	-3.8920972E-001	-3.980706300815595E-002	1.5493295E-005	-3.8943589E-001	0
9.8456914E+003	2.685419951689255E+001	-3.9121321E-001	-3.973445695293801E-002	1.5544645E-005	-3.9143586E-001	0
9.9194512E+003	2.705419951184012E+001	-3.9320824E-001	-3.964011854668492E-002	1.5586822E-005	-3.9343590E-001	0
1.0002169E+004	2.725419950678770E+001	-3.9522085E-001	-3.951351592462937E-002	1.5616566E-005	-3.9543593E-001	0
1.0075220E+004	2.745419950173527E+001	-3.9719230E-001	-3.942269406333154E-002	1.5658390E-005	-3.9743593E-001	0
1.0144124E+004	2.765419949668285E+001	-3.9920384E-001	-3.935321113844398E-002	1.5709953E-005	-3.9943588E-001	0
1.0219475E+004	2.785419949163042E+001	-4.0121517E-001	-3.925986233871648E-002	1.5751652E-005	-4.0143591E-001	0
1.0296337E+004	2.805419948657800E+001	-4.0322441E-001	-3.916192849698868E-002	1.5791045E-005	-4.0343595E-001	0
1.0364272E+004	2.825419948152557E+001	-4.0523911E-001	-3.909961785197202E-002	1.5844695E-005	-4.0543589E-001	0
1.0441898E+004	2.845419947647315E+001	-4.0724117E-001	-3.900068171524029E-002	1.5882682E-005	-4.0743589E-001	0
1.0515244E+004	2.865419947142072E+001	-4.0918943E-001	-3.891392485154138E-002	1.5923168E-005	-4.0943593E-001	0
1.0587039E+004	2.885419946636830E+001	-4.1124299E-001	-3.884400496900287E-002	1.5974325E-005	-4.1143587E-001	0
1.0661622E+004	2.905419946131587E+001	-4.1328895E-001	-3.876417073951249E-002	1.6020804E-005	-4.1343591E-001	0
1.0742740E+004	2.925419945626345E+001	-4.1524911E-001	-3.865392949424756E-002	1.6051010E-005	-4.1543591E-001	0
1.0810996E+004	2.945419945121103E+001	-4.1727087E-001	-3.859689522982329E-002	1.6105359E-005	-4.1743594E-001	0
1.0894371E+004	2.965419944615860E+001	-4.1923404E-001	-3.848171152455326E-002	1.6132843E-005	-4.1943589E-001	0
1.0965908E+004	2.985419944110618E+001	-4.2121902E-001	-3.841168464867856E-002	1.6179732E-005	-4.2143592E-001	0
1.1034034E+004	3.005419943605375E+001	-4.2322299E-001	-3.835614145466282E-002	1.6233202E-005	-4.2343590E-001	0
1.1115645E+004	3.025419943100133E+001	-4.2527610E-001	-3.825923739594583E-002	1.6270740E-005	-4.2543590E-001	0
1.1185660E+004	3.045419942594890E+001	-4.2726794E-001	-3.819782940180882E-002	1.6320708E-005	-4.2743590E-001	0
1.1261828E+004	3.065419942089648E+001	-4.2925510E-001	-3.811593390969545E-002	1.6361459E-005	-4.2943591E-001	0
1.1341514E+004	3.085419941584405E+001	-4.3123332E-001	-3.802255500354046E-002	1.6396592E-005	-4.3143591E-001	0
1.1411658E+004	3.105419941079163E+001	-4.3327990E-001	-3.796818104225193E-002	1.6450849E-005	-4.3343592E-001	0
1.1482975E+004	3.125419940573920E+001	-4.3523714E-001	-3.790282035460840E-002	1.6496715E-005	-4.3543592E-001	0
1.1563391E+004	3.145419940068678E+001	-4.3721893E-001	-3.781061578735218E-002	1.6531518E-005	-4.3743593E-001	0
1.1633680E+004	3.165419939563435E+001	-4.3930605E-001	-3.776157394478152E-002	1.6588889E-005	-4.3943590E-001	0
1.1712131E+004	3.185419939058193E+001	-4.4124842E-001	-3.767447911895591E-002	1.6623804E-005	-4.4143587E-001	0
1.1773802E+004	3.205419938552950E+001	-4.4328415E-001	-3.765004489949908E-002	1.6689668E-005	-4.4343591E-001	0
1.1852069E+004	3.225419938047708E+001	-4.4527301E-001	-3.756922061973245E-002	1.6728560E-005	-4.4543594E-001	0
1.1924776E+004	3.245419937542465E+001	-4.4725317E-001	-3.750621139514319E-002	1.6774771E-005	-4.4743592E-001	0
1.2004038E+004	3.265419937037223E+001	-4.4925520E-001	-3.742533956829647E-002	1.6813528E-005	-4.4943589E-001	0
1.2081041E+004	3.285419936531980E+001	-4.5124590E-001	-3.735157449533344E-002	1.6854745E-005	-4.5143592E-001	0
1.2147417E+004	3.305419936026738E+001	-4.5323434E-001	-3.731117142726559E-002	1.6910704E-005	-4.5343587E-001	0
1.2219167E+004	3.325419935521495E+001	-4.5523933E-001	-3.725616656699951E-002	1.6960472E-005	-4.5543590E-001	0
1.2293132E+004	3.345419935016253E+001	-4.5730603E-001	-3.720012348796742E-002	1.7011840E-005	-4.5743594E-001	0
1.2363589E+004	3.365419934511010E+001	-4.5925984E-001	-3.714615902324914E-002	1.7059740E-005	-4.5943591E-001	0
1.2441595E+004	3.385419934005768E+001	-4.6126398E-001	-3.707434520966951E-002	1.7101060E-005	-4.6143588E-001	0
1.2518036E+004	3.405419933500525E+001	-4.6329886E-001	-3.701050566216865E-002	1.7146926E-005	-4.6343592E-001	0
1.2578291E+004	3.425419932995283E+001	-4.6527156E-001	-3.699004707135711E-002	1.7210417E-005	-4.6543595E-001	0
1.2652845E+004	3.445419932490040E+001	-4.6728465E-001	-3.693119313909998E-002	1.7257380E-005	-4.6743590E-001	0
1.2730858E+004	3.465419931984798E+001	-4.6925098E-001	-3.685933479837566E-002	1.7296279E-005	-4.6943590E-001	0
1.2795676E+004	3.485419931479555E+001	-4.7126523E-001	-3.683003685130937E-002	1.7356715E-005	-4.7143593E-001	0
1.2871346E+004	3.505419930974313E+001	-4.7325629E-001	-3.676820547048577E-002	1.7400784E-005	-4.7343588E-001	0
1.2945295E+004	3.525419930469070E+001	-4.7522560E-001	-3.671029566332071E-002	1.7445673E-005	-4.7543591E-001	0
1.3016814E+004	3.545419929963828E+001	-4.7726324E-001	-3.666513299468110E-002	1.7498920E-005	-4.7743595E-001	0
1.3092011E+004	3.565419929458585E+001	-4.7924295E-001	-3.660575724143511E-002	1.7543050E-005	-4.7943592E-001	0
1.3149001E+004	3.585419928953343E+001	-4.8125747E-001	-3.660030741389214E-002	1.7614171E-005	-4.8143589E-001	0
1.3226783E+004	3.605419928448100E+001	-4.8324040E-001	-3.653498994009130E-002	1.7655182E-005	-4.8343590E-001	0
1.3299910E+004	3.625419927942858E+001	-4.8528904E-001	-3.648814294448166E-002	1.7707296E-005	-4.8543590E-001	0
1.3367131E+004	3.645419927437615E+001	-4.8723400E-001	-3.645015557459197E-002	1.7759756E-005	-4.8743591E-001	0
1.3439322E+004	3.665419926932373E+001	-4.8923090E-001	-3.640294474388034E-002	1.7809445E-005	-4.8943588E-001	0
1.3502814E+004	3.685419926427130E+001	-4.9121991E-001	-3.637907610912622E-002	1.7870127E-005	-4.9143592E-001	0
1.3581752E+004	3.705419925921888E+001	-4.9324420E-001	-3.631668479277900E-002	1.7912995E-005	-4.9343592E-001	0
1.3647064E+004	3.725419925416645E+001	-4.9522436E-001	-3.628797727069955E-002	1.7970689E-005	-4.9543586E-001	0
1.3720246E+004	3.745419924911403E+001	-4.9726412E-001	-3.624309140839338E-002	1.8022389E-005	-4.9743590E-001	0
1.3783480E+004	3.765419924406160E+001	-4.9922794E-001	-3.621929403855906E-002	1.8081684E-005	-4.9943593E-001	0
1.3863013E+004	3.785419923900918E+001	-5.0129682E-001	-3.616074183264167E-002	1.8127264E-005	-5.0143588E-001	0
1.3925199E+004	3.805419923395675E+001	-5.0322264E-001	-3.613755420877746E-002	1.8185236E-005	-5.0343591E-001	0
1.4002778E+004	3.825419922890433E+001	-5.0524306E-001	-3.608163048079233E-002	1.8229994E-005	-5.0543594E-001	0
1.4071294E+004	3.845419922385190E+001	-5.0724274E-001	-3.604805175834841E-002	1.8285113E-005	-5.0743586E-001	0
1.4147279E+004	3.865419921879948E+001	-5.0923586E-001	-3.599531972034278E-002	1.8330107E-005	-5.0943589E-001	0
1.4208191E+004	3.885419921374705E+001	-5.1127034E-001	-3.598419555157731E-002	1.8397652E-005	-5.1143593E-001	0
1.4277712E+004	3.905419920869463E+001	-5.1324493E-001	-3.594728099850636E-002	1.8449760E-005	-5.1343590E-001	0
1.4351053E+004	3.925419920364220E+001	-5.1523417E-001	-3.590218747370447E-002	1.8498034E-005	-5.1543587E-001	0
1.4419808E+004	3.945419919858978E+001	-5.1723260E-001	-3.586959110571877E-002	1.8552922E-005	-5.1743591E-001	0
1.4491408E+004	3.965419919353735E+001	-5.1925772E-001	-3.583211030007522E-002	1.8606101E-005	-5.1943594E-001	0
1.4564729E+004	3.985419918848493E+001	-5.2127928E-001	-3.579052274649674E-002	1.8656858E-005	-5.2143592E-001	0
1.4623745E+004	4.005419918343250E+001	-5.2328634E-001	-3.578333275460249E-002	1.8724930E-005	-5.2343589E-001	0
1.4700568E+004	4.025419917838008E+001	-5.2526754E-001	-3.573110327546974E-002	1.8768389E-005	-5.2543592E-001	0
1.4775431E+004	4.045419917332765E+001	-5.2721184E-001	-3.568165625029496E-002	1.8811792E-005	-5.2743590E-001	0
1.4843651E+004	4.065419916827523E+001	-5.2924055E-001	-3.565433660924419E-002	1.8869721E-005	-5.2943593E-001	0
1.4917219E+004	4.085419916322280E+001	-5.3122324E-001	-3.561141380597779E-002	1.8917610E-005	-5.3143591E-001	0
1.4981464E+004	4.105419915817038E+001	-5.3325433E-001	-3.559427307982010E-002	1.8980800E-005	-5.3343594E-001	0
1.5047950E+004	4.125419915311795E+001	-5.3519922E-001	-3.556625439617533E-002	1.9035031E-005	-5.3543597E-001	0
1.5120917E+004	4.145419914806553E+001	-5.3723538E-001	-3.552928451520476E-002	1.9087589E-005	-5.3743589E-001	0
1.5207034E+004	4.165419914301310E+001	-5.3924376E-001	-3.546015299960137E-002	1.9121666E-005	-5.3943592E-001	0
1.5257717E+004	4.185419913796068E+001	-5.4124540E-001	-3.547355150217890E-002	1.9199897E-005	-5.4143596E-001	0
1.5330414E+004	4.205419913290825E+001	-5.4324102E-001	-3.543550904170756E-002	1.9250023E-005	-5.4343587E-001	0
1.5403733E+004	4.225419912785583E+001	-5.4526126E-001	-3.539799496530430E-002	1.9301155E-005	-5.4543591E-001	0
1.5477777E+004	4.245419912280340E+001	-5.4723507E-001	-3.535617952464187E-002	1.9348141E-005	-5.4743594E-001	0
1.5528339E+004	4.265419911775098E+001	-5.4926634E-001	-3.537186718906982E-002	1.9428577E-005	-5.4943597E-001	0
1.5622049E+004	4.285419911269855E+001	-5.5124968E-001	-3.528664505310863E-002	1.9451752E-005	-5.5143589E-001	0
1.5687959E+004	4.305419910764613E+001	-5.5327863E-001	-3.526772571597758E-002	1.9512880E-005	-5.5343592E-001	0
1.5756712E+004	4.325419910259370E+001	-5.5522865E-001	-3.523759518500807E-002	1.9564923E-005	-5.5543596E-001	0
1.5832107E+004	4.345419909754128E+001	-5.5726480E-001	-3.519839799779199E-002	1.9614828E-005	-5.5743587E-001	0
1.5897072E+004	4.365419909248885E+001	-5.5924594E-001	-3.517917951103308E-002	1.9673813E-005	-5.5943590E-001	0
1.5965788E+004	4.385419908743643E+001	-5.6127518E-001	-3.515486795293639E-002	1.9731555E-005	-5.6143594E-001	0
1.6033251E+004	4.405419908238400E+001	-5.6323242E-001	-3.512902257651473E-002	1.9785804E-005	-5.6343591E-001	0
1.6093654E+004	4.425419907733158E+001	-5.6526238E-001	-3.512330749916878E-002	1.9853884E-005	-5.6543595E-001	0
1.6156857E+004	4.445419907227915E+001	-5.6721455E-001	-3.510673683904342E-002	1.9913052E-005	-5.6743592E-001	0
1.6230363E+004	4.465419906722673E+001	-5.6920630E-001	-3.507046002969605E-002	1.9962326E-005	-5.6943595E-001	0
1.6295375E+004	4.485419906217430E+001	-5.7122910E-001	-3.505467745035151E-002	2.0024252E-005	-5.7143587E-001	0
1.6364341E+004	4.505419905712188E+001	-5.7323343E-001	-3.502942312349394E-002	2.0080037E-005	-5.7343590E-001	0
1.6439270E+004	4.525419905206945E+001	-5.7521868E-001	-3.499052660907202E-002	2.0127205E-005	-5.7543594E-001	0
1.6499031E+004	4.545419904701703E+001	-5.7722348E-001	-3.498529533558903E-002	2.0194333E-005	-5.7743585E-001	0
1.6565119E+004	4.565419904196460E+001	-5.7917941E-001	-3.496379410988468E-002	2.0250309E-005	-5.7943594E-001	0
1.6634268E+004	4.585419903691218E+001	-5.8124888E-001	-3.494285877298797E-002	2.0310497E-005	-5.8143598E-001	0
1.6695686E+004	4.605419903185975E+001	-5.8318365E-001	-3.493020051478901E-002	2.0370722E-005	-5.8343589E-001	0
1.6767912E+004	4.625419902680733E+001	-5.8526200E-001	-3.490368777261987E-002	2.0427802E-005	-5.8543587E-001	0
1.6833762E+004	4.645419902175490E+001	-5.8721548E-001	-3.488319847086574E-002	2.0483954E-005	-5.8743590E-001	0
1.6893242E+004	4.665419901670248E+001	-5.8926541E-001	-3.488172249933982E-002	2.0554593E-005	-5.8943599E-001	0
1.6965172E+004	4.685419901165005E+001	-5.9127694E-001	-3.485240059764323E-002	2.0607420E-005	-5.9143591E-001	0
1.7025629E+004	4.705419900659763E+001	-5.9323716E-001	-3.484377188290222E-002	2.0670621E-005	-5.9343588E-001	0
1.7096951E+004	4.725419900154520E+001	-5.9527564E-001	-3.481764996940662E-002	2.0726098E-005	-5.9543598E-001	0
1.7162264E+004	4.745419899649278E+001	-5.9725577E-001	-3.480052476529183E-002	2.0784813E-005	-5.9743589E-001	0
1.7218705E+004	4.765419899144035E+001	-5.9924477E-001	-3.480196341211197E-002	2.0854895E-005	-5.9943593E-001	0
1.7280299E+004	4.785419898638793E+001	-6.0125488E-001	-3.479424174985890E-002	2.0920208E-005	-6.0143590E-001	0
1.7341297E+004	4.805419898133550E+001	-6.0325646E-001	-3.478727450139199E-002	2.0985648E-005	-6.0343593E-001	0
1.7400451E+004	4.825419897628308E+001	-6.0519844E-001	-3.478061744379390E-002	2.1049176E-005	-6.0543591E-001	0
1.7464332E+004	4.845419897123065E+001	-6.0725427E-001	-3.477111155755369E-002	2.1114905E-005	-6.0743588E-001	0
1.7526150E+004	4.865419896617823E+001	-6.0930640E-001	-3.476555751348354E-002	2.1182877E-005	-6.0943598E-001	0
1.7590012E+004	4.885419896112580E+001	-6.1123902E-001	-3.474920913746016E-002	2.1240072E-005	-6.1143589E-001	0
1.7646670E+004	4.905419895607338E+001	-6.1323977E-001	-3.475101981201162E-002	2.1310707E-005	-6.1343592E-001	0
1.7701742E+004	4.925419895102095E+001	-6.1528182E-001	-3.475826326414505E-002	2.1386128E-005	-6.1543596E-001	0
1.7775672E+004	4.945419894596853E+001	-6.1724019E-001	-3.472387298752588E-002	2.1432970E-005	-6.1743593E-001	0
1.7836191E+004	4.965419894091610E+001	-6.1924744E-001	-3.471859290355361E-002	2.1499400E-005	-6.1943591E-001	0
1.7894170E+004	4.985419893586368E+001	-6.2122697E-001	-3.471672277772997E-002	2.1566964E-005	-6.2143588E-001	0
1.7942541E+004	5.005419893081125E+001	-6.2327033E-001	-3.473701579480426E-002	2.1650552E-005	-6.2343597E-001	0
1.8006932E+004	5.025419892575883E+001	-6.2529331E-001	-3.472514472750823E-002	2.1713400E-005	-6.2543595E-001	0
1.8064941E+004	5.045419892070640E+001	-6.2724596E-001	-3.472172822000760E-002	2.1779064E-005	-6.2743586E-001	0
1.8122518E+004	5.065419891565398E+001	-6.2929183E-001	-3.472430361308110E-002	2.1851720E-005	-6.2943596E-001	0
1.8170926E+004	5.085419891060155E+001	-6.3126957E-001	-3.474064077073247E-002	2.1930709E-005	-6.3143593E-001	0
1.8233023E+004	5.105419890554913E+001	-6.3326997E-001	-3.473203384809531E-002	2.1994754E-005	-6.3343590E-001	0
1.8295479E+004	5.125419890049670E+001	-6.3525629E-001	-3.472203873979585E-002	2.2057393E-005	-6.3543588E-001	0
1.8347324E+004	5.145419889544428E+001	-6.3727885E-001	-3.473415657695239E-002	2.2135344E-005	-6.3743597E-001	0
1.8400416E+004	5.165419889039185E+001	-6.3926661E-001	-3.474196414473783E-002	2.2209377E-005	-6.3943595E-001	0
1.8469348E+004	5.185419888533943E+001	-6.4126039E-001	-3.472024999171408E-002	2.2264721E-005	-6.4143592E-001	0
1.8519307E+004	5.205419888028700E+001	-6.4326823E-001	-3.473500548038304E-002	2.2343926E-005	-6.4343596E-001	0
1.8584178E+004	5.225419887523458E+001	-6.4528984E-001	-3.472253938190761E-002	2.2406102E-005	-6.4543593E-001	0
1.8633258E+004	5.245419887018215E+001	-6.4730597E-001	-3.473927876294358E-002	2.2486942E-005	-6.4743590E-001	0
1.8679818E+004	5.265419886512973E+001	-6.4926010E-001	-3.475730227440599E-002	2.2566530E-005	-6.4943594E-001	0
1.8743902E+004	5.285419886007730E+001	-6.5131867E-001	-3.474829458344353E-002	2.2632214E-005	-6.5143597E-001	0
1.8783197E+004	5.305419885502488E+001	-6.5329081E-001	-3.478059556378498E-002	2.2721844E-005	-6.5343589E-001	0
1.8844645E+004	5.325419884997245E+001	-6.5536726E-001	-3.477737362931604E-002	2.2791952E-005	-6.5543592E-001	0
1.8903865E+004	5.345419884492003E+001	-6.5728796E-001	-3.477003008851562E-002	2.2853921E-005	-6.5743595E-001	0
1.8946664E+004	5.365419883986760E+001	-6.5929133E-001	-3.479722454534656E-002	2.2941509E-005	-6.5943593E-001	0
1.8996879E+004	5.385419883481518E+001	-6.6132736E-001	-3.481242331584322E-002	2.3022409E-005	-6.6143590E-001	0
1.9045434E+004	5.405419882976275E+001	-6.6329062E-001	-3.482675277511860E-002	2.3100258E-005	-6.6343594E-001	0
1.9107045E+004	5.425419882471033E+001	-6.6530216E-001	-3.481973047619547E-002	2.3165641E-005	-6.6543597E-001	0
1.9160828E+004	5.445419881965790E+001	-6.6728622E-001	-3.482554073032620E-002	2.3238603E-005	-6.6743588E-001	0
1.9223006E+004	5.465419881460548E+001	-6.6930616E-001	-3.481797543549697E-002	2.3303885E-005	-6.6943592E-001	0
1.9255012E+004	5.485419880955305E+001	-6.7125529E-001	-3.486132712442364E-002	2.3400849E-005	-6.7143595E-001	0
1.9304453E+004	5.505419880450063E+001	-6.7329443E-001	-3.487767283609364E-002	2.3482942E-005	-6.7343593E-001	0
1.9358936E+004	5.525419879944820E+001	-6.7523432E-001	-3.487972256990446E-002	2.3551986E-005	-6.7543590E-001	0
1.9414324E+004	5.545419879439578E+001	-6.7725199E-001	-3.488414061161754E-002	2.3625355E-005	-6.7743593E-001	0
1.9471090E+004	5.565419878934335E+001	-6.7926627E-001	-3.488588715795767E-002	2.3696806E-005	-6.7943597E-001	0
1.9510912E+004	5.585419878429093E+001	-6.8125069E-001	-3.491639383475120E-002	2.3786817E-005	-6.8143588E-001	0
1.9563301E+004	5.605419877923850E+001	-6.8324351E-001	-3.492475622159358E-002	2.3862112E-005	-6.8343592E-001	0
1.9613342E+004	5.625419877418608E+001	-6.8525064E-001	-3.493798584355240E-002	2.3941277E-005	-6.8543595E-001	0
1.9646986E+004	5.645419876913365E+001	-6.8727475E-001	-3.498117941169820E-002	2.4041681E-005	-6.8743587E-001	0
1.9718859E+004	5.665419876408123E+001	-6.8929178E-001	-3.495596747532864E-002	2.4094861E-005	-6.8943590E-001	0
1.9756885E+004	5.685419875902880E+001	-6.9125944E-001	-3.498828074289806E-002	2.4185980E-005	-6.9143593E-001	0
1.9788246E+004	5.705419875397638E+001	-6.9324780E-001	-3.503331103966123E-002	2.4286766E-005	-6.9343597E-001	0
1.9858553E+004	5.725419874892395E+001	-6.9530064E-001	-3.501265374505413E-002	2.4344321E-005	-6.9543594E-001	0
1.9905221E+004	5.745419874387153E+001	-6.9727242E-001	-3.502962454971859E-002	2.4425191E-005	-6.9743592E-001	0
1.9947625E+004	5.765419873881910E+001	-6.9926107E-001	-3.505485170402581E-002	2.4512494E-005	-6.9943601E-001	0
1.9974314E+004	5.785419873376668E+001	-7.0127451E-001	-3.510881560409010E-002	2.4620918E-005	-7.0143586E-001	0
2.0052418E+004	5.805419872871425E+001	-7.0328289E-001	-3.507222250645631E-002	2.4665695E-005	-7.0343596E-001	0
2.0085426E+004	5.825419872366183E+001	-7.0530748E-001	-3.511538730153938E-002	2.4767145E-005	-7.0543599E-001	0
2.0136879E+004	5.845419871860940E+001	-7.0727599E-001	-3.512341646047823E-002	2.4841949E-005	-7.0743591E-001	0
2.0172820E+004	5.865419871355698E+001	-7.0927548E-001	-3.515995727443344E-002	2.4938096E-005	-7.0943588E-001	0
2.0231875E+004	5.885419870850455E+001	-7.1127802E-001	-3.515630655751983E-002	2.5005907E-005	-7.1143597E-001	0
2.0257686E+004	5.905419870345213E+001	-7.1326876E-001	-3.520978660118912E-002	2.5114041E-005	-7.1343595E-001	0
2.0299371E+004	5.925419869839970E+001	-7.1522152E-001	-3.523367753040152E-002	2.5199884E-005	-7.1543592E-001	0
2.0339666E+004	5.945419869334728E+001	-7.1728730E-001	-3.526544081292138E-002	2.5295452E-005	-7.1743590E-001	0
2.0401512E+004	5.965419868829485E+001	-7.1927083E-001	-3.525575971792611E-002	2.5358439E-005	-7.1943599E-001	0
2.0441377E+004	5.985419868324243E+001	-7.2130871E-001	-3.528669864665748E-002	2.5452602E-005	-7.2143590E-001	0
2.0473207E+004	6.005419867819001E+001	-7.2328162E-001	-3.532820230913769E-002	2.5552239E-005	-7.2343594E-001	0
2.0517709E+004	6.025419867313758E+001	-7.2529262E-001	-3.534959234685861E-002	2.5638799E-005	-7.2543597E-001	0
2.0557426E+004	6.045419866808516E+001	-7.2727334E-001	-3.537764825806428E-002	2.5729221E-005	-7.2743595E-001	0
2.0582357E+004	6.065419866303273E+001	-7.2927988E-001	-3.543228232787493E-002	2.5840051E-005	-7.2943592E-001	0
2.0619180E+004	6.085419865798031E+001	-7.3127681E-001	-3.546585487634732E-002	2.5935356E-005	-7.3143589E-001	0
2.0655643E+004	6.105419865292788E+001	-7.3328912E-001	-3.550066890632164E-002	2.6032254E-005	-7.3343605E-001	0
2.0710156E+004	6.125419864787546E+001	-7.3526949E-001	-3.550284459887088E-002	2.6104159E-005	-7.3543596E-001	0
2.0743490E+004	6.145419864282303E+001	-7.3725075E-001	-3.554130808366868E-002	2.6202855E-005	-7.3743594E-001	0
2.0783645E+004	6.165419863777061E+001	-7.3929453E-001	-3.557097659548725E-002	2.6297428E-005	-7.3943597E-001	0
2.0831275E+004	6.185419863271818E+001	-7.4124193E-001	-3.558312694973981E-002	2.6375707E-005	-7.4143589E-001	0
2.0850514E+004	6.205419862766576E+001	-7.4326587E-001	-3.564736349619058E-002	2.6495469E-005	-7.4343598E-001	0
2.0883906E+004	6.225419862261333E+001	-7.4528122E-001	-3.568686845146385E-002	2.6596754E-005	-7.4543595E-001	0
2.0947193E+004	6.245419861756091E+001	-7.4727494E-001	-3.567422664847830E-002	2.6658456E-005	-7.4743605E-001	0
2.0959600E+004	6.265419861250848E+001	-7.4927592E-001	-3.574858157860661E-002	2.6785552E-005	-7.4943590E-001	0
2.0986010E+004	6.285419860745606E+001	-7.5129300E-001	-3.579970825117184E-002	2.6896070E-005	-7.5143588E-001	0
2.1025648E+004	6.305419860240363E+001	-7.5327331E-001	-3.582639935824483E-002	2.6987071E-005	-7.5343597E-001	0
2.1061914E+004	6.325419859735121E+001	-7.5524688E-001	-3.585841594757011E-002	2.7081956E-005	-7.5543594E-001	0
2.1062193E+004	6.345419859229878E+001	-7.5732565E-001	-3.595663683252437E-002	2.7230883E-005	-7.5743592E-001	0
2.1122793E+004	6.365419858724636E+001	-7.5927103E-001	-3.594557854928737E-002	2.7292437E-005	-7.5943595E-001	0
2.1131176E+004	6.385419858219393E+001	-7.6125503E-001	-3.602520813648075E-002	2.7424370E-005	-7.6143599E-001	0
2.1151625E+004	6.405419857714151E+001	-7.6326203E-001	-3.608526668565180E-002	2.7542514E-005	-7.6343590E-001	0
2.1201102E+004	6.425419857208908E+001	-7.6529926E-001	-3.609714740987591E-002	2.7625119E-005	-7.6543587E-001	0
2.1213805E+004	6.445419856703666E+001	-7.6725829E-001	-3.616787806388766E-002	2.7750104E-005	-7.6743603E-001	0
2.1251377E+004	6.465419856198423E+001	-7.6929229E-001	-3.619964510627943E-002	2.7848107E-005	-7.6943594E-001	0
2.1298793E+004	6.485419855693181E+001	-7.7125204E-001	-3.621106723913725E-002	2.7927859E-005	-7.7143592E-001	0
2.1283449E+004	6.505419855187938E+001	-7.7322656E-001	-3.632994479860863E-002	2.8091279E-005	-7.7343601E-001	0
2.1286418E+004	6.525419854682696E+001	-7.7529931E-001	-3.642225276722089E-002	2.8238148E-005	-7.7543598E-001	0
2.1355928E+004	6.545419854177453E+001	-7.7730894E-001	-3.639780661717346E-002	2.8292341E-005	-7.7743584E-001	0
2.1342941E+004	6.565419853672211E+001	-7.7925754E-001	-3.651125407714378E-002	2.8451670E-005	-7.7943593E-001	0
2.1344893E+004	6.585419853166968E+001	-7.8123492E-001	-3.660055548913521E-002	2.8593631E-005	-7.8143591E-001	0
2.1397746E+004	6.605419852661726E+001	-7.8325021E-001	-3.660433268245289E-002	2.8670351E-005	-7.8343606E-001	0
2.1433367E+004	6.625419852156483E+001	-7.8529584E-001	-3.663894107413224E-002	2.8772409E-005	-7.8543591E-001	0
2.1445301E+004	6.645419851651241E+001	-7.8721267E-001	-3.670793397525271E-002	2.8896951E-005	-7.8743601E-001	0
2.1452240E+004	6.665419851145998E+001	-7.8924233E-001	-3.679067332850883E-002	2.9036757E-005	-7.8943604E-001	0
2.1444150E+004	6.685419850640756E+001	-7.9124260E-001	-3.689782961235799E-002	2.9195135E-005	-7.9143590E-001	0
2.1516189E+004	6.705419850135513E+001	-7.9325801E-001	-3.686796163384060E-002	2.9245806E-005	-7.9343599E-001	0
2.1495170E+004	6.725419849630271E+001	-7.9525971E-001	-3.699713487910894E-002	2.9422330E-005	-7.9543608E-001	0
2.1444898E+004	6.745419849125028E+001	-7.9728240E-001	-3.717818512431348E-002	2.9641513E-005	-7.9743594E-001	0
2.1485373E+004	6.765419848619786E+001	-7.9923129E-001	-3.719885642888433E-002	2.9730490E-005	-7.9943591E-001	0
2.1519975E+004	6.785419848114543E+001	-8.0126911E-001	-3.723373730844326E-002	2.9834244E-005	-8.0143601E-001	0
2.1507984E+004	6.805419847609301E+001	-8.0328816E-001	-3.734836994264856E-002	3.0001504E-005	-8.0343598E-001	0
2.1483770E+004	6.825419847104058E+001	-8.0524665E-001	-3.748162939659883E-002	3.0181956E-005	-8.0543596E-001	0
2.1509793E+004	6.845419846598816E+001	-8.0723172E-001	-3.752856790362658E-002	3.0294250E-005	-8.0743599E-001	0
2.1519967E+004	6.865419846093573E+001	-8.0926973E-001	-3.760552884537782E-002	3.0433015E-005	-8.0943602E-001	0
2.1451131E+004	6.885419845588331E+001	-8.1122780E-001	-3.781748474485819E-002	3.0678595E-005	-8.1143594E-001	0
2.1450334E+004	6.905419845083088E+001	-8.1326121E-001	-3.791368478046464E-002	3.0833729E-005	-8.1343591E-001	0
2.1525021E+004	6.925419844577846E+001	-8.1523973E-001	-3.787405009338177E-002	3.0876432E-005	-8.1543601E-001	0
2.1439836E+004	6.945419844072603E+001	-8.1721973E-001	-3.811688337669358E-002	3.1149870E-005	-8.1743598E-001	0
2.1475629E+004	6.965419843567361E+001	-8.1925845E-001	-3.814828664364267E-002	3.1253305E-005	-8.1943595E-001	0
2.1442971E+004	6.985419843062118E+001	-8.2129109E-001	-3.830118164052682E-002	3.1456420E-005	-8.2143599E-001	0
2.1425332E+004	7.005419842556876E+001	-8.2327116E-001	-3.842512860470762E-002	3.1634299E-005	-8.2343602E-001	0
2.1357762E+004	7.025419842051633E+001	-8.2524991E-001	-3.863934402157648E-002	3.1887113E-005	-8.2543588E-001	0
2.1407426E+004	7.045419841546391E+001	-8.2723308E-001	-3.864234367247171E-002	3.1966225E-005	-8.2743597E-001	0
2.1351627E+004	7.065419841041148E+001	-8.2927078E-001	-3.883876309644577E-002	3.2207852E-005	-8.2943606E-001	0
2.1262316E+004	7.085419840535906E+001	-8.3125943E-001	-3.909543079092820E-002	3.2498447E-005	-8.3143592E-001	0
2.1292311E+004	7.105419840030663E+001	-8.3322728E-001	-3.913277817827754E-002	3.2606498E-005	-8.3343601E-001	0
2.1203586E+004	7.125419839525421E+001	-8.3528286E-001	-3.939347017990430E-002	3.2904689E-005	-8.3543599E-001	0
2.1206920E+004	7.145419839020178E+001	-8.3727413E-001	-3.948117701691517E-002	3.3056567E-005	-8.3743596E-001	0
2.1119506E+004	7.165419838514936E+001	-8.3924919E-001	-3.973810725725022E-002	3.3350174E-005	-8.3943594E-001	0
2.1071066E+004	7.185419838009693E+001	-8.4129322E-001	-3.992646453768023E-002	3.3589862E-005	-8.4143597E-001	0
2.1038064E+004	7.205419837504451E+001	-8.4323841E-001	-4.008155714170353E-002	3.3798307E-005	-8.4343612E-001	0
2.0894926E+004	7.225419836999208E+001	-8.4525675E-001	-4.045272721220539E-002	3.4192941E-005	-8.4543598E-001	0
2.0786465E+004	7.245419836493966E+001	-8.4724474E-001	-4.075944528053355E-002	3.4533226E-005	-8.4743589E-001	0
2.0644537E+004	7.265419835988723E+001	-8.4928727E-001	-4.113859700222768E-002	3.4938486E-005	-8.4943604E-001	0
2.0480943E+004	7.285419835483481E+001	-8.5126764E-001	-4.156388668818578E-002	3.5381992E-005	-8.5143602E-001	0
2.0356188E+004	7.305419834978238E+001	-8.5323590E-001	-4.191530942615940E-002	3.5763645E-005	-8.5343593E-001	0
2.0120973E+004	7.325419834472996E+001	-8.5523820E-001	-4.250481407830708E-002	3.6351739E-005	-8.5543603E-001	0
1.9852969E+004	7.345419833967753E+001	-8.5725981E-001	-4.318043325479681E-002	3.7016849E-005	-8.5743600E-001	0
1.9528441E+004	7.365419833462511E+001	-8.5927671E-001	-4.400129616207726E-002	3.7809288E-005	-8.5943598E-001	0
1.9146402E+004	7.385419832957268E+001	-8.6127996E-001	-4.498390536866187E-002	3.8743736E-005	-8.6143595E-001	0
1.8704934E+004	7.405419832452026E+001	-8.6331904E-001	-4.615461621132577E-002	3.9846160E-005	-8.6343604E-001	0
1.8173316E+004	7.425419831946783E+001	-8.6525685E-001	-4.761139193761998E-002	4.1196083E-005	-8.6543590E-001	0
1.7536727E+004	7.445419831441541E+001	-8.6722887E-001	-4.945215255380001E-002	4.2886335E-005	-8.6743599E-001	0
1.6833104E+004	7.465419830936298E+001	-8.6925143E-001	-5.163940115485482E-002	4.4887624E-005	-8.6943597E-001	0
1.6037684E+004	7.485419830431056E+001	-8.7126195E-001	-5.432592170859951E-002	4.7332109E-005	-8.7143594E-001	0
1.5213426E+004	7.505419829925813E+001	-8.7325060E-001	-5.739999606850610E-002	5.0124581E-005	-8.7343603E-001	0
1.4365381E+004	7.525419829420571E+001	-8.7525159E-001	-6.092783958015469E-002	5.3327189E-005	-8.7543595E-001	0
1.3549696E+004	7.545419828915328E+001	-8.7725055E-001	-6.474319033276144E-002	5.6795998E-005	-8.7743610E-001	0
1.2739371E+004	7.565419828410086E+001	-8.7924176E-001	-6.901767261351677E-002	6.0683222E-005	-8.7943596E-001	0
1.2011640E+004	7.585419827904843E+001	-8.8123292E-001	-7.336491354542646E-002	6.4651576E-005	-8.8143587E-001	0
1.1324319E+004	7.605419827399601E+001	-8.8326311E-001	-7.799701648711532E-002	6.8891888E-005	-8.8343602E-001	0
1.0595933E+004	7.626419826869096E+001	-8.8533473E-001	-8.355420404208869E-002	7.3973439E-005	-8.8553596E-001	0
9.9521396E+003	7.647419826338592E+001	-8.8742846E-001	-8.916961579201343E-002	7.9131656E-005	-8.8763601E-001	0
9.5719863E+003	7.667419825833349E+001	-8.8944632E-001	-9.292181143843425E-002	8.2648963E-005	-8.8963598E-001	0
9.2663086E+003	7.687419825328107E+001	-8.9142281E-001	-9.620042623531777E-002	8.5755251E-005	-8.9163595E-001	0
9.0177148E+003	7.707419824822864E+001	-8.9342785E-001	-9.907475350817441E-002	8.8516143E-005	-8.9363593E-001	0
8.7960889E+003	7.727419824317622E+001	-8.9544749E-001	-1.018006387979735E-001	9.1157126E-005	-8.9563602E-001	0
8.5552510E+003	7.747419823812379E+001	-8.9743531E-001	-1.048987761716402E-001	9.4139868E-005	-8.9763612E-001	0
8.3022207E+003	7.767419823307137E+001	-8.9944482E-001	-1.083378529718864E-001	9.7443917E-005	-8.9963597E-001	0
7.9800166E+003	7.787419822801894E+001	-9.0144747E-001	-1.129631079234978E-001	1.0183031E-004	-9.0163594E-001	0
7.5350903E+003	7.807419822296652E+001	-9.0346152E-001	-1.199005567690448E-001	1.0832554E-004	-9.0363604E-001	0
7.0560874E+003	7.827419821791409E+001	-9.0546459E-001	-1.283238873766348E-001	1.1619274E-004	-9.0563595E-001	0
6.6149268E+003	7.847419821286167E+001	-9.0743685E-001	-1.371801845125362E-001	1.2448235E-004	-9.0763599E-001	0
6.1276738E+003	7.867419820780924E+001	-9.0945089E-001	-1.484169911924753E-001	1.3497796E-004	-9.0963602E-001	0
5.6269482E+003	7.887419820275682E+001	-9.1142523E-001	-1.619750452259572E-001	1.4762815E-004	-9.1163605E-001	0
5.1385898E+003	7.907419819770439E+001	-9.1345054E-001	-1.777628743165756E-001	1.6237759E-004	-9.1363597E-001	0
4.6606797E+003	7.927419819265197E+001	-9.1545820E-001	-1.964216009595452E-001	1.7981576E-004	-9.1563594E-001	0
4.2088242E+003	7.947419818759954E+001	-9.1743082E-001	-2.179779314104464E-001	1.9997967E-004	-9.1763604E-001	0
3.7916428E+003	7.967419818254712E+001	-9.1941345E-001	-2.424841977322224E-001	2.2294323E-004	-9.1963601E-001	0
3.3368022E+003	7.987419817749469E+001	-9.2143482E-001	-2.761430664477942E-001	2.5444783E-004	-9.2163593E-001	0
2.9828584E+003	8.007419817244227E+001	-9.2348081E-001	-3.095959371395089E-001	2.8590590E-004	-9.2363608E-001	0
2.6776284E+003	8.027419816738984E+001	-9.2545778E-001	-3.456259077718969E-001	3.1986219E-004	-9.2563593E-001	0
2.3958872E+003	8.047419816233742E+001	-9.2744172E-001	-3.870973912724482E-001	3.5901027E-004	-9.2763603E-001	0
2.0879048E+003	8.067419815728499E+001	-9.2942291E-001	-4.451461927268392E-001	4.1372908E-004	-9.2963600E-001	0
1.8775160E+003	8.087419815223257E+001	-9.3141001E-001	-4.960863143332386E-001	4.6205978E-004	-9.3163598E-001	0
1.6609602E+003	8.107419814718014E+001	-9.3342465E-001	-5.619789516794036E-001	5.2456500E-004	-9.3363607E-001	0
1.4736555E+003	8.127419814212772E+001	-9.3544555E-001	-6.347789956877641E-001	5.9380120E-004	-9.3563598E-001	0
1.3065699E+003	8.147419813707529E+001	-9.3745548E-001	-7.174935210073832E-001	6.7261822E-004	-9.3763602E-001	0
1.1678290E+003	8.167419813202287E+001	-9.3944323E-001	-8.044356468118856E-001	7.5572164E-004	-9.3963599E-001	0
1.0309115E+003	8.187419812697044E+001	-9.4146174E-001	-9.132323616317368E-001	8.5977331E-004	-9.4163597E-001	0
9.1627185E+002	8.208419812166539E+001	-9.4357681E-001	-1.029800050870161E+000	9.7169547E-004	-9.4373596E-001	0
8.1347552E+002	8.229419811636035E+001	-9.4557941E-001	-1.162394401961576E+000	1.0991362E-003	-9.4583595E-001	0
7.2808765E+002	8.249419811130792E+001	-9.4764960E-001	-1.301559815601430E+000	1.2334227E-003	-9.4783604E-001	0
6.5341205E+002	8.269419810625550E+001	-9.4965225E-001	-1.453374201934487E+000	1.3802000E-003	-9.4983602E-001	0
5.8669745E+002	8.289419810120307E+001	-9.5164251E-001	-1.622032816752018E+000	1.5435953E-003	-9.5183599E-001	0
5.2925732E+002	8.309419809615065E+001	-9.5362735E-001	-1.801821715318837E+000	1.7182665E-003	-9.5383596E-001	0
4.7766940E+002	8.329419809109822E+001	-9.5564574E-001	-2.000642527781778E+000	1.9119055E-003	-9.5583600E-001	0
4.3260687E+002	8.349419808604580E+001	-9.5765889E-001	-2.213693113368237E+000	2.1199628E-003	-9.5783603E-001	0
3.9195102E+002	8.369419808099337E+001	-9.5963168E-001	-2.448345970472253E+000	2.3495103E-003	-9.5983601E-001	0
3.5715552E+002	8.389419807594095E+001	-9.6166754E-001	-2.692573628221510E+000	2.5893606E-003	-9.6183598E-001	0
3.2569177E+002	8.409419807088852E+001	-9.6366811E-001	-2.958834650717220E+000	2.8513346E-003	-9.6383601E-001	0
2.9773700E+002	8.429419806583610E+001	-9.6562308E-001	-3.243208221753310E+000	3.1317167E-003	-9.6583605E-001	0
2.7333621E+002	8.449419806078367E+001	-9.6766818E-001	-3.540212009363955E+000	3.4257504E-003	-9.6783596E-001	0
2.5124104E+002	8.469419805573125E+001	-9.6964866E-001	-3.859435653267546E+000	3.7422967E-003	-9.6983594E-001	0
2.3197951E+002	8.489419805067882E+001	-9.7162557E-001	-4.188411279668063E+000	4.0695677E-003	-9.7183603E-001	0
2.1447261E+002	8.509419804562640E+001	-9.7360522E-001	-4.539531781120651E+000	4.4197119E-003	-9.7383600E-001	0
1.9877402E+002	8.529419804057397E+001	-9.7562075E-001	-4.908190607382608E+000	4.7885324E-003	-9.7583592E-001	0
1.8454300E+002	8.549419803552155E+001	-9.7761965E-001	-5.297516932563163E+000	5.1789568E-003	-9.7783607E-001	0
1.7171005E+002	8.569419803046912E+001	-9.7958022E-001	-5.704850977611926E+000	5.5883592E-003	-9.7983593E-001	0
1.6031573E+002	8.589419802541670E+001	-9.8164827E-001	-6.123218317083229E+000	6.0108467E-003	-9.8183602E-001	0
1.4996243E+002	8.609419802036427E+001	-9.8363888E-001	-6.559235312568376E+000	6.4519187E-003	-9.8383600E-001	0
1.4056238E+002	8.629419801531185E+001	-9.8563963E-001	-7.012115889801173E+000	6.9114193E-003	-9.8583609E-001	0
1.3193961E+002	8.649419801025942E+001	-9.8763263E-001	-7.485489982731494E+000	7.3929140E-003	-9.8783606E-001	0
1.2415678E+002	8.669419800520700E+001	-9.8965973E-001	-7.971048861066208E+000	7.8886263E-003	-9.8983598E-001	0
1.1709345E+002	8.689419800015457E+001	-9.9167252E-001	-8.469068757192886E+000	8.3985431E-003	-9.9183595E-001	0
1.1056224E+002	8.709419799510215E+001	-9.9366158E-001	-8.987350401018723E+000	8.9303851E-003	-9.9383593E-001	0
1.0461714E+002	8.729419799004972E+001	-9.9563181E-001	-9.516908712938545E+000	9.4753373E-003	-9.9583590E-001	0
9.9070427E+001	8.749419798499730E+001	-9.9766725E-001	-1.007028298414483E+001	1.0046791E-002	-9.9783599E-001	0
9.4010841E+001	8.769419797994487E+001	-9.9967426E-001	-1.063360608462034E+001	1.0630142E-002	-9.9983603E-001	0
8.8821709E+001	8.790419797463983E+001	-1.0017178E+000	-1.127784883203552E+001	1.1297222E-002	-1.0019361E+000	0
8.4280518E+001	8.811419796933478E+001	-1.0038627E+000	-1.191097022853199E+001	1.1956980E-002	-1.0040359E+000	0
8.0390106E+001	8.831419796428236E+001	-1.0058284E+000	-1.251184326234596E+001	1.2584767E-002	-1.0060360E+000	0
7.6752045E+001	8.851419795922993E+001	-1.0078298E+000	-1.313098332779208E+001	1.3233796E-002	-1.0080360E+000	0
7.3324455E+001	8.871419795417751E+001	-1.0098237E+000	-1.377198951936361E+001	1.3907281E-002	-1.0100359E+000	0
7.0154640E+001	8.891419794912508E+001	-1.0118465E+000	-1.442308713843758E+001	1.4593950E-002	-1.0120360E+000	0
6.7240738E+001	8.911419794407266E+001	-1.0138347E+000	-1.507768500635143E+001	1.5286281E-002	-1.0140359E+000	0
6.4452744E+001	8.931419793902023E+001	-1.0158371E+000	-1.576095946602810E+001	1.6010568E-002	-1.0160359E+000	0
6.1868263E+001	8.951419793396781E+001	-1.0178694E+000	-1.645220553564108E+001	1.6746195E-002	-1.0180360E+000	0
5.9446804E+001	8.971419792891538E+001	-1.0198327E+000	-1.715538370541694E+001	1.7495621E-002	-1.0200360E+000	0
5.7161789E+001	8.991419792386296E+001	-1.0218571E+000	-1.787657717187935E+001	1.8267307E-002	-1.0220360E+000	0
5.5023720E+001	9.011419791881053E+001	-1.0238777E+000	-1.860793328474441E+001	1.9052248E-002	-1.0240359E+000	0
5.2978024E+001	9.031419791375811E+001	-1.0258864E+000	-1.936437735184512E+001	1.9865653E-002	-1.0260360E+000	0
5.1061977E+001	9.051419790870568E+001	-1.0278797E+000	-2.013004131030600E+001	2.0691261E-002	-1.0280360E+000	0
4.9275421E+001	9.071419790365326E+001	-1.0298769E+000	-2.090041868013589E+001	2.1524860E-002	-1.0300360E+000	0
4.7579243E+001	9.091419789860083E+001	-1.0318773E+000	-2.168755175602402E+001	2.2378892E-002	-1.0320359E+000	0
4.5974560E+001	9.111419789354841E+001	-1.0338633E+000	-2.248772683111179E+001	2.3249235E-002	-1.0340359E+000	0
4.4427345E+001	9.131419788849598E+001	-1.0358692E+000	-2.331602926089363E+001	2.4152357E-002	-1.0360360E+000	0
4.2966816E+001	9.151419788344356E+001	-1.0378793E+000	-2.415537101814263E+001	2.5070360E-002	-1.0380360E+000	0
4.1577766E+001	9.171419787839113E+001	-1.0398544E+000	-2.500986600935869E+001	2.6006619E-002	-1.0400360E+000	0
4.0272717E+001	9.191419787333871E+001	-1.0418633E+000	-2.587020332553760E+001	2.6953217E-002	-1.0420359E+000	0
3.9043900E+001	9.211419786828628E+001	-1.0438660E+000	-2.673570131525707E+001	2.7908491E-002	-1.0440359E+000	0
3.7866982E+001	9.231419786323386E+001	-1.0458363E+000	-2.761868793191286E+001	2.8884627E-002	-1.0460360E+000	0
3.6758965E+001	9.251419785818143E+001	-1.0478699E+000	-2.850651314955982E+001	2.9871117E-002	-1.0480360E+000	0
3.5677704E+001	9.271419785312901E+001	-1.0498571E+000	-2.942614216734222E+001	3.0893246E-002	-1.0500361E+000	0
3.4652424E+001	9.291419784807658E+001	-1.0518628E+000	-3.035466870483083E+001	3.1928949E-002	-1.0520360E+000	0
3.3662140E+001	9.311419784302416E+001	-1.0538735E+000	-3.130738499078075E+001	3.2994024E-002	-1.0540360E+000	0
3.2774525E+001	9.331419783797173E+001	-1.0558641E+000	-3.221599973518558E+001	3.4015719E-002	-1.0560360E+000	0
3.1913221E+001	9.351419783291931E+001	-1.0578681E+000	-3.314827215022785E+001	3.5066500E-002	-1.0580361E+000	0
3.1123507E+001	9.371419782786688E+001	-1.0598545E+000	-3.405318348748347E+001	3.6091421E-002	-1.0600361E+000	0
3.0341644E+001	9.391419782281446E+001	-1.0618572E+000	-3.499669383253377E+001	3.7161492E-002	-1.0620360E+000	0
2.9560122E+001	9.411419781776203E+001	-1.0638856E+000	-3.599056891059661E+001	3.8289849E-002	-1.0640360E+000	0
2.8819822E+001	9.431419781270961E+001	-1.0658456E+000	-3.698307374842844E+001	3.9418247E-002	-1.0660360E+000	0
2.8084808E+001	9.451419780765718E+001	-1.0678860E+000	-3.802361732951096E+001	4.0604889E-002	-1.0680361E+000	0
2.7412819E+001	9.471419780260476E+001	-1.0699019E+000	-3.902925540016889E+001	4.1757476E-002	-1.0700361E+000	0
2.6719948E+001	9.491419779755233E+001	-1.0718380E+000	-4.011377815216338E+001	4.2995472E-002	-1.0720359E+000	0
2.6042484E+001	9.511419779249991E+001	-1.0738590E+000	-4.123488985870426E+001	4.4280458E-002	-1.0740360E+000	0
2.5466269E+001	9.531419778744748E+001	-1.0758914E+000	-4.224770429669610E+001	4.5453940E-002	-1.0760361E+000	0
2.4892456E+001	9.551419778239506E+001	-1.0778708E+000	-4.330110541276650E+001	4.6673000E-002	-1.0780361E+000	0
2.4328007E+001	9.571419777734263E+001	-1.0798742E+000	-4.438810776934341E+001	4.7933571E-002	-1.0800360E+000	0
2.3795582E+001	9.591419777229021E+001	-1.0818771E+000	-4.546546321742392E+001	4.9188044E-002	-1.0820360E+000	0
2.3326612E+001	9.611419776723778E+001	-1.0838886E+000	-4.646575423811566E+001	5.0363705E-002	-1.0840359E+000	0
2.2832134E+001	9.631419776218536E+001	-1.0858872E+000	-4.755960273391247E+001	5.1644363E-002	-1.0860361E+000	0
2.2231903E+001	9.651419775713293E+001	-1.0879050E+000	-4.893440800945791E+001	5.3235989E-002	-1.0880361E+000	0
2.1793886E+001	9.671419775208051E+001	-1.0898904E+000	-5.000899698107128E+001	5.4504324E-002	-1.0900359E+000	0
2.1291840E+001	9.691419774702808E+001	-1.0918937E+000	-5.128225941722940E+001	5.5994775E-002	-1.0920360E+000	0
2.0809565E+001	9.711419774197566E+001	-1.0938625E+000	-5.256537152309801E+001	5.7499290E-002	-1.0940360E+000	0
2.0384789E+001	9.731419773692323E+001	-1.0958693E+000	-5.375917001700452E+001	5.8913026E-002	-1.0960361E+000	0
1.9907541E+001	9.751419773187081E+001	-1.0978912E+000	-5.514951064743423E+001	6.0548164E-002	-1.0980361E+000	0
1.9379953E+001	9.771419772681838E+001	-1.0998924E+000	-5.675412767165919E+001	6.2423434E-002	-1.1000359E+000	0
1.8920248E+001	9.791419772176596E+001	-1.1018975E+000	-5.823906145344472E+001	6.4173475E-002	-1.1020360E+000	0
1.8497280E+001	9.811419771671353E+001	-1.1038656E+000	-5.967718863541299E+001	6.5875597E-002	-1.1040360E+000	0
1.8140921E+001	9.831419771166111E+001	-1.1058978E+000	-6.096150502866630E+001	6.7417197E-002	-1.1060359E+000	0
1.7661276E+001	9.851419770660868E+001	-1.1078507E+000	-6.272766766256223E+001	6.9492891E-002	-1.1080360E+000	0
1.7263994E+001	9.871419770155626E+001	-1.1098396E+000	-6.428637471869411E+001	7.1347564E-002	-1.1100360E+000	0
1.6923222E+001	9.891419769650383E+001	-1.1118534E+000	-6.569986780214214E+001	7.3048621E-002	-1.1120360E+000	0
1.6530119E+001	9.911419769145141E+001	-1.1139170E+000	-6.738711434805475E+001	7.5063653E-002	-1.1140360E+000	0
1.6044704E+001	9.931419768639898E+001	-1.1159073E+000	-6.954988622232872E+001	7.7611223E-002	-1.1160361E+000	0
1.5639221E+001	9.951419768134656E+001	-1.1178691E+000	-7.147856814736934E+001	7.9903685E-002	-1.1180360E+000	0
1.5391780E+001	9.971419767629413E+001	-1.1199054E+000	-7.275996455638023E+001	8.1484273E-002	-1.1200360E+000	0
1.5114052E+001	9.991419767124171E+001	-1.1218973E+000	-7.422876226280300E+001	8.3277054E-002	-1.1220360E+000	0
1.4859148E+001	1.001141976661893E+002	-1.1238734E+000	-7.563511496120020E+001	8.5004292E-002	-1.1240360E+000	0
1.4639727E+001	1.003141976611369E+002	-1.1259437E+000	-7.691015488598646E+001	8.6596504E-002	-1.1260360E+000	0
1.4398735E+001	1.005141976560844E+002	-1.1279439E+000	-7.833631718672325E+001	8.8358968E-002	-1.1280360E+000	0
1.4092359E+001	1.007141976510320E+002	-1.1299449E+000	-8.018139150029174E+001	9.0600558E-002	-1.1300360E+000	0
1.3842752E+001	1.009141976459796E+002	-1.1319196E+000	-8.176983728322324E+001	9.2556886E-002	-1.1320360E+000	0
1.3531631E+001	1.011141976409272E+002	-1.1339284E+000	-8.379835448838151E+001	9.5021337E-002	-1.1340359E+000	0
1.3276932E+001	1.013141976358747E+002	-1.1359376E+000	-8.555723492574793E+001	9.7187676E-002	-1.1360360E+000	0
1.2988845E+001	1.015141976308223E+002	-1.1379157E+000	-8.760715456560359E+001	9.9689558E-002	-1.1380360E+000	0
1.2743203E+001	1.017141976257699E+002	-1.1399145E+000	-8.945274631777033E+001	1.0196848E-001	-1.1400360E+000	0
1.2557261E+001	1.019141976207175E+002	-1.1419681E+000	-9.094086084290211E+001	1.0385156E-001	-1.1420360E+000	0
1.2390115E+001	1.021141976156650E+002	-1.1439475E+000	-9.232743494472834E+001	1.0561774E-001	-1.1440361E+000	0
1.2193027E+001	1.023141976106126E+002	-1.1459579E+000	-9.398468979578138E+001	1.0770250E-001	-1.1460360E+000	0
1.2077224E+001	1.025141976055602E+002	-1.1479353E+000	-9.504959543978566E+001	1.0911078E-001	-1.1480360E+000	0
1.1894158E+001	1.027141976005078E+002	-1.1499490E+000	-9.668182526261910E+001	1.1117917E-001	-1.1500360E+000	0
1.1689003E+001	1.029141975954553E+002	-1.1519339E+000	-9.854852061423071E+001	1.1352138E-001	-1.1520360E+000	0
1.1557188E+001	1.031141975904029E+002	-1.1539428E+000	-9.984632980526203E+001	1.1521696E-001	-1.1540360E+000	0
1.1475381E+001	1.033141975853505E+002	-1.1559174E+000	-1.007302031754909E+002	1.1643580E-001	-1.1560360E+000	0
1.1365369E+001	1.035141975802981E+002	-1.1579143E+000	-1.018809207994112E+002	1.1796937E-001	-1.1580361E+000	0
1.1247919E+001	1.037141975752456E+002	-1.1599394E+000	-1.031247985422478E+002	1.1961852E-001	-1.1600360E+000	0
1.0944220E+001	1.039141975701932E+002	-1.1619334E+000	-1.061686896466881E+002	1.2336095E-001	-1.1620359E+000	0
1.0724822E+001	1.041141975651408E+002	-1.1639415E+000	-1.085278139503637E+002	1.2632003E-001	-1.1640360E+000	0
1.0442549E+001	1.043241975598357E+002	-1.1660781E+000	-1.116660444590506E+002	1.3021132E-001	-1.1661360E+000	0
1.0290805E+001	1.045341975545307E+002	-1.1680880E+000	-1.135079316411698E+002	1.3258725E-001	-1.1682360E+000	0
1.0105778E+001	1.047341975494783E+002	-1.1700944E+000	-1.157846971877312E+002	1.3547902E-001	-1.1702360E+000	0
9.7087021E+000	1.049341975444258E+002	-1.1721243E+000	-1.207292457070212E+002	1.4150968E-001	-1.1722358E+000	0
9.5675497E+000	1.051341975393734E+002	-1.1741667E+000	-1.227238653133250E+002	1.4409827E-001	-1.1742359E+000	0
9.4306393E+000	1.053341975343210E+002	-1.1760938E+000	-1.247098681207685E+002	1.4667051E-001	-1.1762360E+000	0
9.2739182E+000	1.055341975292686E+002	-1.1781012E+000	-1.270338180924764E+002	1.4965869E-001	-1.1782361E+000	0
9.0196781E+000	1.057341975242161E+002	-1.1801598E+000	-1.308427915183863E+002	1.5441540E-001	-1.1802360E+000	0
8.8433037E+000	1.059341975191637E+002	-1.1821353E+000	-1.336757668637900E+002	1.5802285E-001	-1.1822360E+000	0
8.6023989E+000	1.061341975141113E+002	-1.1841416E+000	-1.376524974894361E+002	1.6300005E-001	-1.1842360E+000	0
8.4543753E+000	1.063341975090589E+002	-1.1861202E+000	-1.402966107251686E+002	1.6640864E-001	-1.1862360E+000	0
8.4316282E+000	1.065341975040064E+002	-1.1881030E+000	-1.409102680407418E+002	1.6741590E-001	-1.1882360E+000	0
8.2982731E+000	1.067341974989540E+002	-1.1901163E+000	-1.434173413058255E+002	1.7068331E-001	-1.1902360E+000	0
8.2717314E+000	1.069341974939016E+002	-1.1921192E+000	-1.441196770700467E+002	1.7180784E-001	-1.1922359E+000	0
8.1988573E+000	1.071341974888492E+002	-1.1941247E+000	-1.456452599404352E+002	1.7391860E-001	-1.1942359E+000	0
8.0812006E+000	1.073341974837967E+002	-1.1961218E+000	-1.480128834469256E+002	1.7704144E-001	-1.1962360E+000	0
7.8923111E+000	1.075341974787443E+002	-1.1980907E+000	-1.518047979467310E+002	1.8187591E-001	-1.1982360E+000	0
7.7331972E+000	1.077341974736919E+002	-1.2001513E+000	-1.551947178937957E+002	1.8625714E-001	-1.2002360E+000	0
7.6257696E+000	1.079341974686395E+002	-1.2020837E+000	-1.576344108992428E+002	1.8948975E-001	-1.2022359E+000	0
7.5522490E+000	1.081341974635870E+002	-1.2041494E+000	-1.594424902911632E+002	1.9199258E-001	-1.2042360E+000	0
7.5705094E+000	1.083341974585346E+002	-1.2060856E+000	-1.593136572708079E+002	1.9214590E-001	-1.2062360E+000	0
7.4759483E+000	1.085341974534822E+002	-1.2081076E+000	-1.615992441253056E+002	1.9522928E-001	-1.2082360E+000	0
7.3671036E+000	1.087341974484298E+002	-1.2101376E+000	-1.642623341056501E+002	1.9878003E-001	-1.2102360E+000	0
7.3431172E+000	1.089341974433773E+002	-1.2121569E+000	-1.650738835334775E+002	2.0009544E-001	-1.2122359E+000	0
7.2517467E+000	1.091341974383249E+002	-1.2141458E+000	-1.674280434800926E+002	2.0328206E-001	-1.2142360E+000	0
7.1389818E+000	1.093341974332725E+002	-1.2161127E+000	-1.703482047608649E+002	2.0716262E-001	-1.2162360E+000	0
6.9420118E+000	1.095341974282201E+002	-1.2181615E+000	-1.754767185598280E+002	2.1375898E-001	-1.2182360E+000	0
6.8266945E+000	1.097341974231676E+002	-1.2201276E+000	-1.787288940725953E+002	2.1807206E-001	-1.2202361E+000	0
6.7308879E+000	1.099341974181152E+002	-1.2221560E+000	-1.815742676868997E+002	2.2191209E-001	-1.2222359E+000	0
6.5721660E+000	1.101341974130628E+002	-1.2241784E+000	-1.862671187253766E+002	2.2802418E-001	-1.2242360E+000	0
6.3610811E+000	1.103341974080104E+002	-1.2261488E+000	-1.927579279994748E+002	2.3634991E-001	-1.2262360E+000	0
6.3097706E+000	1.105341974029579E+002	-1.2281758E+000	-1.946466574376946E+002	2.3906031E-001	-1.2282360E+000	0
6.3026137E+000	1.107341973979055E+002	-1.2300954E+000	-1.951722606239405E+002	2.4008049E-001	-1.2302361E+000	0
6.2812600E+000	1.109341973928531E+002	-1.2321496E+000	-1.961628082744655E+002	2.4170193E-001	-1.2322360E+000	0
6.2001333E+000	1.111341973878007E+002	-1.2341638E+000	-1.990543920058512E+002	2.4566571E-001	-1.2342360E+000	0
6.1615458E+000	1.113341973827482E+002	-1.2361553E+000	-2.006242154093297E+002	2.4800268E-001	-1.2362361E+000	0
6.0736699E+000	1.115341973776958E+002	-1.2381502E+000	-2.038553666981979E+002	2.5240356E-001	-1.2382361E+000	0
5.9925623E+000	1.117341973726434E+002	-1.2401496E+000	-2.069481469995583E+002	2.5664666E-001	-1.2402359E+000	0
5.9953842E+000	1.119341973675910E+002	-1.2422014E+000	-2.071929642921675E+002	2.5737539E-001	-1.2422360E+000	0
5.9713984E+000	1.121341973625385E+002	-1.2441620E+000	-2.083535408054622E+002	2.5922555E-001	-1.2442360E+000	0
5.9063683E+000	1.123341973574861E+002	-1.2461622E+000	-2.109861890118141E+002	2.6292300E-001	-1.2462361E+000	0
5.8663297E+000	1.125341973524337E+002	-1.2481569E+000	-2.127662454635392E+002	2.6556566E-001	-1.2482361E+000	0
5.7757559E+000	1.127341973473813E+002	-1.2501646E+000	-2.164503931209877E+002	2.7059862E-001	-1.2502359E+000	0
5.7191629E+000	1.129341973423288E+002	-1.2521652E+000	-2.189420408867386E+002	2.7415159E-001	-1.2522360E+000	0
5.6700215E+000	1.131341973372764E+002	-1.2541800E+000	-2.211949212253758E+002	2.7741823E-001	-1.2542361E+000	0
5.6075187E+000	1.133341973322240E+002	-1.2562150E+000	-2.240233259611932E+002	2.8142145E-001	-1.2562361E+000	0
5.4696250E+000	1.135341973271716E+002	-1.2581964E+000	-2.300333814685850E+002	2.8942716E-001	-1.2582361E+000	0
5.4123325E+000	1.137341973221191E+002	-1.2601938E+000	-2.328374784495556E+002	2.9342034E-001	-1.2602360E+000	0
5.3529239E+000	1.139341973170667E+002	-1.2621641E+000	-2.357896642987689E+002	2.9760525E-001	-1.2622359E+000	0
5.2940140E+000	1.141341973120143E+002	-1.2641482E+000	-2.387882238721085E+002	3.0186370E-001	-1.2642360E+000	0
5.2231674E+000	1.143341973069619E+002	-1.2661765E+000	-2.424154559846920E+002	3.0694073E-001	-1.2662361E+000	0
5.1989098E+000	1.145341973019094E+002	-1.2681668E+000	-2.439293724998593E+002	3.0934313E-001	-1.2682359E+000	0
5.1324730E+000	1.147341972968570E+002	-1.2701962E+000	-2.474823033879939E+002	3.1435108E-001	-1.2702360E+000	0
5.0503602E+000	1.149341972918046E+002	-1.2722113E+000	-2.519050744850347E+002	3.2047647E-001	-1.2722360E+000	0
5.0598426E+000	1.151341972867522E+002	-1.2742085E+000	-2.518276995012283E+002	3.2088101E-001	-1.2742360E+000	0
5.0419393E+000	1.153341972816997E+002	-1.2761720E+000	-2.531113362279875E+002	3.2301360E-001	-1.2762361E+000	0
4.9835744E+000	1.155341972766473E+002	-1.2781805E+000	-2.564786709809255E+002	3.2782602E-001	-1.2782360E+000	0
4.9149499E+000	1.157343972715898E+002	-1.2802044E+000	-2.604715167540344E+002	3.3345678E-001	-1.2802376E+000	0
4.8989024E+000	1.159346972665298E+002	-1.2822187E+000	-2.617359072452468E+002	3.3560267E-001	-1.2822407E+000	0
4.8292298E+000	1.161348972614724E+002	-1.2842234E+000	-2.659271799114481E+002	3.4150991E-001	-1.2842427E+000	0
4.8356962E+000	1.163350972564149E+002	-1.2862259E+000	-2.659856632810634E+002	3.4211767E-001	-1.2862449E+000	0
4.8181748E+000	1.165351972513599E+002	-1.2881824E+000	-2.673589995766979E+002	3.4440714E-001	-1.2882460E+000	0
4.7380781E+000	1.167353972463025E+002	-1.2902269E+000	-2.723101788736354E+002	3.5134193E-001	-1.2902476E+000	0
4.7559891E+000	1.169357972412399E+002	-1.2922403E+000	-2.717080078110565E+002	3.5111204E-001	-1.2922513E+000	0
4.7306299E+000	1.171363972361723E+002	-1.2942352E+000	-2.735862470550451E+002	3.5408497E-001	-1.2942574E+000	0
4.6923428E+000	1.173367972311098E+002	-1.2962162E+000	-2.762407315472374E+002	3.5806772E-001	-1.2962617E+000	0
4.6958528E+000	1.175370972260498E+002	-1.2982497E+000	-2.764672953206800E+002	3.5892358E-001	-1.2982647E+000	0
4.6150079E+000	1.177371972209949E+002	-1.3002195E+000	-2.817372404604534E+002	3.6632025E-001	-1.3002660E+000	0
4.5283742E+000	1.179372972159399E+002	-1.3022225E+000	-2.875695459422104E+002	3.7447953E-001	-1.3022667E+000	0
4.5098596E+000	1.181375972108799E+002	-1.3042312E+000	-2.891955302399365E+002	3.7717783E-001	-1.3042697E+000	0
4.4459391E+000	1.183378972058199E+002	-1.3062437E+000	-2.938060076945021E+002	3.8378224E-001	-1.3062727E+000	0
4.4018965E+000	1.185381972007599E+002	-1.3082521E+000	-2.972019110048227E+002	3.8881502E-001	-1.3082755E+000	0
4.3512864E+000	1.187385971956974E+002	-1.3102953E+000	-3.011282741115529E+002	3.9456698E-001	-1.3102795E+000	0
4.3171945E+000	1.189388971906374E+002	-1.3122650E+000	-3.039624676066369E+002	3.9887932E-001	-1.3122827E+000	0
4.3130431E+000	1.191389971855824E+002	-1.3142359E+000	-3.047119722063574E+002	4.0046343E-001	-1.3142841E+000	0
4.2835021E+000	1.193390971805275E+002	-1.3162340E+000	-3.072798731879875E+002	4.0445220E-001	-1.3162849E+000	0
4.1701880E+000	1.195394971754649E+002	-1.3182629E+000	-3.161159601940444E+002	4.1672397E-001	-1.3182887E+000	0
4.1567101E+000	1.197398971704024E+002	-1.3202949E+000	-3.176297505495695E+002	4.1936493E-001	-1.3202926E+000	0
4.1604347E+000	1.199400971653449E+002	-1.3222666E+000	-3.178193254110147E+002	4.2024186E-001	-1.3222947E+000	0
4.1214557E+000	1.201402971602874E+002	-1.3242872E+000	-3.213153974203010E+002	4.2551386E-001	-1.3242968E+000	0
4.1332464E+000	1.203404971552300E+002	-1.3262992E+000	-3.208855663553245E+002	4.2559028E-001	-1.3262990E+000	0
4.1204996E+000	1.205407971501700E+002	-1.3283092E+000	-3.223660602630573E+002	4.2820179E-001	-1.3283015E+000	0
4.0962214E+000	1.207411971451074E+002	-1.3303217E+000	-3.247680097561793E+002	4.3204591E-001	-1.3303051E+000	0
4.0523391E+000	1.209417971400399E+002	-1.3322835E+000	-3.287690105908678E+002	4.3801352E-001	-1.3323114E+000	0
4.0129237E+000	1.211422971349748E+002	-1.3343129E+000	-3.325039275563031E+002	4.4366428E-001	-1.3343170E+000	0
4.0113273E+000	1.213425971299148E+002	-1.3363076E+000	-3.331335213380007E+002	4.4516888E-001	-1.3363194E+000	0
4.0468516E+000	1.215429971248523E+002	-1.3383088E+000	-3.307036988020536E+002	4.4258368E-001	-1.3383235E+000	0
4.0457230E+000	1.217432971197923E+002	-1.3403202E+000	-3.312931132180611E+002	4.4403887E-001	-1.3403268E+000	0
4.0170350E+000	1.219437971147272E+002	-1.3422755E+000	-3.341458200924712E+002	4.4851574E-001	-1.3423313E+000	0
4.0111222E+000	1.221440971096672E+002	-1.3443297E+000	-3.351505143126801E+002	4.5055279E-001	-1.3443350E+000	0
4.0270061E+000	1.223442971046097E+002	-1.3463289E+000	-3.343249917903349E+002	4.5011139E-001	-1.3463366E+000	0
3.9763920E+000	1.225443970995548E+002	-1.3483139E+000	-3.390797179734627E+002	4.5718589E-001	-1.3483381E+000	0
3.9500101E+000	1.227443970945023E+002	-1.3503286E+000	-3.418544702746158E+002	4.6161586E-001	-1.3503380E+000	0
3.9565573E+000	1.229445970894449E+002	-1.3523386E+000	-3.417967788440637E+002	4.6222496E-001	-1.3523395E+000	0
3.9740837E+000	1.231449970843823E+002	-1.3543087E+000	-3.407851551491957E+002	4.6152830E-001	-1.3543432E+000	0
3.9879231E+000	1.233449970793299E+002	-1.3562992E+000	-3.401016249818864E+002	4.6127954E-001	-1.3563441E+000	0
3.9742641E+000	1.235451970742724E+002	-1.3583335E+000	-3.417823739827741E+002	4.6425444E-001	-1.3583454E+000	0
3.9760644E+000	1.237452970692175E+002	-1.3603319E+000	-3.421302510616572E+002	4.6541068E-001	-1.3603468E+000	0
3.9608347E+000	1.239454970641600E+002	-1.3623252E+000	-3.439490115313170E+002	4.6857041E-001	-1.3623488E+000	0
3.8631825E+000	1.241458970590975E+002	-1.3643440E+000	-3.531658227169701E+002	4.8183966E-001	-1.3643527E+000	0
3.8436115E+000	1.243461970540375E+002	-1.3663721E+000	-3.554917285369944E+002	4.8573399E-001	-1.3663555E+000	0
3.8372903E+000	1.245466970489724E+002	-1.3683980E+000	-3.566052708062198E+002	4.8797792E-001	-1.3683604E+000	0
3.8249176E+000	1.247471970439074E+002	-1.3703456E+000	-3.582679982742561E+002	4.9095097E-001	-1.3703657E+000	0
3.8245072E+000	1.249473970388499E+002	-1.3723882E+000	-3.588405483587517E+002	4.9246854E-001	-1.3723680E+000	0
3.8054526E+000	1.251474970337949E+002	-1.3743904E+000	-3.611634444352921E+002	4.9637955E-001	-1.3743688E+000	0
3.8183491E+000	1.253479970287299E+002	-1.3764044E+000	-3.604710724477216E+002	4.9615398E-001	-1.3763732E+000	0
3.7525141E+000	1.255482970236699E+002	-1.3783901E+000	-3.673244227723371E+002	5.0631636E-001	-1.3783768E+000	0
3.7264664E+000	1.257484970186124E+002	-1.3804108E+000	-3.704342535943288E+002	5.1135147E-001	-1.3803787E+000	0
3.7268312E+000	1.259487970135524E+002	-1.3824272E+000	-3.709390475217469E+002	5.1279622E-001	-1.3823816E+000	0
3.6627469E+000	1.261493970084848E+002	-1.3843540E+000	-3.779551275215563E+002	5.2322370E-001	-1.3843873E+000	0
3.6580117E+000	1.263497970034223E+002	-1.3863674E+000	-3.789948161542270E+002	5.2542609E-001	-1.3863919E+000	0
3.6720135E+000	1.265499969983648E+002	-1.3883847E+000	-3.780990248892667E+002	5.2494693E-001	-1.3883936E+000	0
3.6400974E+000	1.267502969933048E+002	-1.3904066E+000	-3.819696158275674E+002	5.3109306E-001	-1.3903968E+000	0
3.5699961E+000	1.269505969882448E+002	-1.3924088E+000	-3.900309222652531E+002	5.4308254E-001	-1.3923995E+000	0
3.5821724E+000	1.271509969831823E+002	-1.3943958E+000	-3.892598246638047E+002	5.4278225E-001	-1.3944033E+000	0
3.5917516E+000	1.273513969781197E+002	-1.3964152E+000	-3.887839119106143E+002	5.4290378E-001	-1.3964072E+000	0
3.5974214E+000	1.275518969730547E+002	-1.3984340E+000	-3.887323315625854E+002	5.4361653E-001	-1.3984126E+000	0
3.5610423E+000	1.277521969679947E+002	-1.4004267E+000	-3.932631561117964E+002	5.5073625E-001	-1.4004157E+000	0
3.3272030E+000	1.279524969629347E+002	-1.4024329E+000	-4.215050493013696E+002	5.9113258E-001	-1.4024189E+000	0
3.3383110E+000	1.281527969578747E+002	-1.4044708E+000	-4.207129969333118E+002	5.9087914E-001	-1.4044216E+000	0
3.3374519E+000	1.283530969528147E+002	-1.4064486E+000	-4.214138977429211E+002	5.9269696E-001	-1.4064246E+000	0
3.3267341E+000	1.285532969477572E+002	-1.4084647E+000	-4.233776067484050E+002	5.9631240E-001	-1.4084268E+000	0
3.3060484E+000	1.287534969426997E+002	-1.4104483E+000	-4.266266426156467E+002	6.0173482E-001	-1.4104286E+000	0
3.3026359E+000	1.289535969376448E+002	-1.4124418E+000	-4.276710704967818E+002	6.0406053E-001	-1.4124297E+000	0
3.2799020E+000	1.291535969325923E+002	-1.4144387E+000	-4.312442153013744E+002	6.0996854E-001	-1.4144298E+000	0
3.2649994E+000	1.293535969275399E+002	-1.4164833E+000	-4.338387601813529E+002	6.1452538E-001	-1.4164299E+000	0
3.2409551E+000	1.295535969224875E+002	-1.4184488E+000	-4.376638300759441E+002	6.2080371E-001	-1.4184299E+000	0
3.2609632E+000	1.297535969174351E+002	-1.4204746E+000	-4.355997260433201E+002	6.1875838E-001	-1.4204298E+000	0
3.1516693E+000	1.299535969123826E+002	-1.4225028E+000	-4.513490109432842E+002	6.4204520E-001	-1.4224299E+000	0
3.0942523E+000	1.301535969073302E+002	-1.4245118E+000	-4.603734978180601E+002	6.5580750E-001	-1.4244298E+000	0
3.0867863E+000	1.303535969022778E+002	-1.4264911E+000	-4.621282528425299E+002	6.5922189E-001	-1.4264299E+000	0
3.0968080E+000	1.305535968972254E+002	-1.4285263E+000	-4.612899053837446E+002	6.5896475E-001	-1.4284297E+000	0
3.0648646E+000	1.307535968921729E+002	-1.4305485E+000	-4.667574956206226E+002	6.6771924E-001	-1.4304298E+000	0
3.0681775E+000	1.309535968871205E+002	-1.4325063E+000	-4.668916185772614E+002	6.6882521E-001	-1.4324297E+000	0
3.0373847E+000	1.311535968820681E+002	-1.4345064E+000	-4.722833946426972E+002	6.7749357E-001	-1.4344298E+000	0
3.0242410E+000	1.313535968770157E+002	-1.4365237E+000	-4.750030459406148E+002	6.8235314E-001	-1.4364299E+000	0
3.0313284E+000	1.315535968719632E+002	-1.4385326E+000	-4.745551632342704E+002	6.8266308E-001	-1.4384297E+000	0
3.0380929E+000	1.317535968669108E+002	-1.4404984E+000	-4.741455848590049E+002	6.8300593E-001	-1.4404298E+000	0
3.0300653E+000	1.319535968618584E+002	-1.4425040E+000	-4.760636892470089E+002	6.8672383E-001	-1.4424297E+000	0
3.0270672E+000	1.321535968568060E+002	-1.4445187E+000	-4.772007526951320E+002	6.8932539E-001	-1.4444298E+000	0
3.0353246E+000	1.323535968517535E+002	-1.4465163E+000	-4.765606551656892E+002	6.8935275E-001	-1.4464298E+000	0
3.0111048E+000	1.325535968467011E+002	-1.4484867E+000	-4.810482578580340E+002	6.9679201E-001	-1.4484297E+000	0
2.9468286E+000	1.327535968416487E+002	-1.4504901E+000	-4.922207243307366E+002	7.1396130E-001	-1.4504298E+000	0
2.9364836E+000	1.329535968365963E+002	-1.4525024E+000	-4.946400524710321E+002	7.1846586E-001	-1.4524298E+000	0
2.9210105E+000	1.331535968315438E+002	-1.4544542E+000	-4.979284550846296E+002	7.2421414E-001	-1.4544297E+000	0
2.8978488E+000	1.333535968264914E+002	-1.4565029E+000	-5.026152257854428E+002	7.3206055E-001	-1.4564298E+000	0
2.9061558E+000	1.335535968214390E+002	-1.4585190E+000	-5.018722418224997E+002	7.3199022E-001	-1.4584298E+000	0
2.9064748E+000	1.337535968163866E+002	-1.4605136E+000	-5.025034443342779E+002	7.3391312E-001	-1.4604297E+000	0
2.9103682E+000	1.339535968113341E+002	-1.4624920E+000	-5.025109757576956E+002	7.3491830E-001	-1.4624298E+000	0
2.9051580E+000	1.341535968062817E+002	-1.4645102E+000	-5.041068928863460E+002	7.3826969E-001	-1.4644297E+000	0
2.9248519E+000	1.343535968012293E+002	-1.4665153E+000	-5.013981209623007E+002	7.3530799E-001	-1.4664298E+000	0
2.9160171E+000	1.345535967961769E+002	-1.4684824E+000	-5.035918144779680E+002	7.3951572E-001	-1.4684299E+000	0
2.9081929E+000	1.347535967911244E+002	-1.4705110E+000	-5.056442303343965E+002	7.4355537E-001	-1.4704298E+000	0
2.8952167E+000	1.349535967860720E+002	-1.4725000E+000	-5.085974869630791E+002	7.4890977E-001	-1.4724298E+000	0
2.8230531E+000	1.351535967810196E+002	-1.4747362E+000	-5.223905100660268E+002	7.7038819E-001	-1.4744298E+000	0
2.7267292E+000	1.353535967759672E+002	-1.4770722E+000	-5.417011173533751E+002	8.0013168E-001	-1.4764298E+000	0
2.7362988E+000	1.355535967709147E+002	-1.4790701E+000	-5.405367554991153E+002	7.9949176E-001	-1.4784298E+000	0
2.7310145E+000	1.357535967658623E+002	-1.4810519E+000	-5.423083535235501E+002	8.0318683E-001	-1.4804299E+000	0
2.7264490E+000	1.359535967608099E+002	-1.4830769E+000	-5.439591502018775E+002	8.0673325E-001	-1.4824297E+000	0
2.7294898E+000	1.361535967557575E+002	-1.4850798E+000	-5.440869224055268E+002	8.0801249E-001	-1.4844298E+000	0
2.6950493E+000	1.363535967507050E+002	-1.4870772E+000	-5.517811107289490E+002	8.2054114E-001	-1.4864298E+000	0
2.6695733E+000	1.365535967456526E+002	-1.4890717E+000	-5.577938999945891E+002	8.3059514E-001	-1.4884298E+000	0
2.6874874E+000	1.367535967406002E+002	-1.4910388E+000	-5.548077581582966E+002	8.2723987E-001	-1.4904299E+000	0
2.7119317E+000	1.369535967355478E+002	-1.4930640E+000	-5.505536963188151E+002	8.2201195E-001	-1.4924297E+000	0
2.7203915E+000	1.371535967304953E+002	-1.4950860E+000	-5.495848383438536E+002	8.2167655E-001	-1.4944298E+000	0
2.7300081E+000	1.373535967254429E+002	-1.4970826E+000	-5.483802566052555E+002	8.2097054E-001	-1.4964299E+000	0
2.7335615E+000	1.375535967203905E+002	-1.4990804E+000	-5.483982685590827E+002	8.2209313E-001	-1.4984298E+000	0
2.7488093E+000	1.377535967153381E+002	-1.5010753E+000	-5.460819671613567E+002	8.1971014E-001	-1.5004299E+000	0
2.7453072E+000	1.379535967102856E+002	-1.5030657E+000	-5.475036609718877E+002	8.2293397E-001	-1.5024297E+000	0
2.7630165E+000	1.381535967052332E+002	-1.5050815E+000	-5.447240744696746E+002	8.1985414E-001	-1.5044298E+000	0
2.7767632E+000	1.383535967001808E+002	-1.5070755E+000	-5.427454350356884E+002	8.1795835E-001	-1.5064299E+000	0
2.7320523E+000	1.385535966951284E+002	-1.5090840E+000	-5.523627741288128E+002	8.3356184E-001	-1.5084299E+000	0
2.7191076E+000	1.387535966900759E+002	-1.5110940E+000	-5.557315796702906E+002	8.3976263E-001	-1.5104299E+000	0
2.7331841E+000	1.389535966850235E+002	-1.5130607E+000	-5.535890044301004E+002	8.3761376E-001	-1.5124297E+000	0
2.6491337E+000	1.391535966799711E+002	-1.5150558E+000	-5.719061069748041E+002	8.6646962E-001	-1.5144298E+000	0
2.6602454E+000	1.393535966749187E+002	-1.5170387E+000	-5.702627108307934E+002	8.6511058E-001	-1.5164297E+000	0
2.6670930E+000	1.394635966721398E+002	-1.5182410E+000	-5.692493747010531E+002	8.6425775E-001	-1.5175296E+000	0
2.6663520E+000	1.394641966721247E+002	-1.5184665E+000	-5.694921264648438E+002	8.6475468E-001	-1.5177295E+000	1