EC-Lab ASCII FILE
Nb header lines : 61                          

Linear Sweep Voltammetry

Run on channel : 1 (SN 1340)
User : 
Electrode connection : standard
Potential control : Ewe
Ewe ctrl range : min = -5.00 V, max = 5.00 V
Ewe,I filtering : 50 kHz
Channel : Grounded
Acquisition started on : 11/23/2025 16:26:59.377
Technique started on : 11/23/2025 16:27:02.215
Loaded Setting File :  NONE
Saved on :
	File : Ni_Magnet_North_Test1_IR_02_LSV_C01.mpr
	Directory : C:\Users\volt\Documents\Platalytix\
	Host : 127.0.0.1
Device : SP-200 (SN 0262)
Address : USB
EC-LAB for windows v11.60 (software)
Internet server v11.60 (firmware)
Command interpretor v11.60 (firmware)
Electrode material : Ni
Initial state : 
Electrolyte : KOH (1 M)
Comments : Magnet North side
Cable : standard
Reference electrode : Hg/HgO (0.140 V)
Electrode surface area : 10.000 cm˛
Characteristic mass : 0.001 g
Equivalent Weight : 0.000 g/eq.
Density : 0.000 g/cm3
Volume (V) : 0.001 cmł
Cycle Definition : Charge/Discharge alternance
tR (h:m:s)          0:00:5.0000         
dER/dt (mV/h)       0.0                 
dER (mV)            0                   
dtR (s)             0.0000              
dE/dt               10.000              
dE/dt unit          mV/s                
Ei (V)              -0.200              
vs.                 Ref                 
EL (V)              -2.500              
vs.                 Ref                 
record              <I>                 
dI                  0.000               
unit dI             µA                  
tI (s)              0.0000              
step percent        50                  
N                   10                  
E range min (V)     -5.000              
E range max (V)     5.000               
I Range             Auto                
I Range min         Unset               
I Range max         Unset               
I Range init        Unset               
Bandwidth           8                   

<I>/mA	Ewe/V	control/V	Rwe/Ohm	time/s	
0.000000000000000E+000	-1.9349277E-001	0.0000000E+000	0.0000000E+000	2.838400134787662E+000
0.000000000000000E+000	-3.6874384E-001	-1.9991459E-001	0.0000000E+000	7.838200008482090E+000
5.654570981860152E-001	-2.0047368E-001	-2.0081438E-001	3.5453384E+002	7.938200005955878E+000
1.203220016040323E-001	-2.0194280E-001	-2.0221443E-001	1.6783530E+003	8.078200002419180E+000
5.051120775416956E-002	-2.0444101E-001	-2.0471442E-001	4.0474385E+003	8.328199996103649E+000
3.717245842549788E-002	-2.0663559E-001	-2.0691440E-001	5.5588359E+003	8.548199990545982E+000
3.041645332953379E-002	-2.0863672E-001	-2.0891443E-001	6.8593374E+003	8.748199985493557E+000
2.597561743096694E-002	-2.1064271E-001	-2.1091443E-001	8.1092476E+003	8.948199980441132E+000
2.272556594384478E-002	-2.1264000E-001	-2.1291441E-001	9.3568623E+003	9.148199975388707E+000
2.023810502909895E-002	-2.1463601E-001	-2.1491441E-001	1.0605539E+004	9.348199970336282E+000
1.820020809138195E-002	-2.1663608E-001	-2.1691445E-001	1.1902945E+004	9.548199965283857E+000
1.650752459429405E-002	-2.1863252E-001	-2.1891440E-001	1.3244416E+004	9.748199960231432E+000
1.513757005591544E-002	-2.2066443E-001	-2.2091441E-001	1.4577269E+004	9.948199955179007E+000
1.395830436786023E-002	-2.2267786E-001	-2.2291444E-001	1.5953073E+004	1.014819995012658E+001
1.288738986503657E-002	-2.2465371E-001	-2.2491442E-001	1.7432057E+004	1.034819994507416E+001
1.198268843096179E-002	-2.2665612E-001	-2.2691442E-001	1.8915299E+004	1.054819994002173E+001
1.117780190998635E-002	-2.2865169E-001	-2.2891442E-001	2.0455873E+004	1.074819993496931E+001
1.044309430323012E-002	-2.3066260E-001	-2.3091441E-001	2.2087572E+004	1.094819992991688E+001
9.782892774936769E-003	-2.3267324E-001	-2.3291442E-001	2.3783686E+004	1.114819992486446E+001
9.188306391650428E-003	-2.3466355E-001	-2.3491442E-001	2.5539369E+004	1.134819991981203E+001
8.685146303622507E-003	-2.3665491E-001	-2.3691443E-001	2.7248234E+004	1.154819991475961E+001
8.146466843136066E-003	-2.3866917E-001	-2.3891442E-001	2.9297262E+004	1.174819990970718E+001
7.657423515539094E-003	-2.4066944E-001	-2.4091443E-001	3.1429559E+004	1.194819990465476E+001
7.243466735373960E-003	-2.4267460E-001	-2.4291441E-001	3.3502551E+004	1.214819989960233E+001
6.872418268397358E-003	-2.4467126E-001	-2.4491441E-001	3.5601914E+004	1.234819989454991E+001
6.508135879525853E-003	-2.4668171E-001	-2.4691443E-001	3.7903590E+004	1.254819988949748E+001
6.164611694610210E-003	-2.4865715E-001	-2.4891439E-001	4.0336223E+004	1.274819988444506E+001
5.854500688990211E-003	-2.5065231E-001	-2.5091442E-001	4.2813609E+004	1.294819987939263E+001
5.492692483169859E-003	-2.5265980E-001	-2.5291443E-001	4.5999262E+004	1.314819987434021E+001
5.232296409390286E-003	-2.5467810E-001	-2.5491440E-001	4.8674250E+004	1.334819986928778E+001
4.973970000265733E-003	-2.5666291E-001	-2.5691444E-001	5.1601219E+004	1.354819986423536E+001
4.747512254011592E-003	-2.5866166E-001	-2.5891441E-001	5.4483621E+004	1.374819985918293E+001
4.481987530220923E-003	-2.6067108E-001	-2.6091444E-001	5.8159707E+004	1.394819985413051E+001
4.279770346799536E-003	-2.6265606E-001	-2.6291442E-001	6.1371531E+004	1.414819984907808E+001
4.116480828805932E-003	-2.6465386E-001	-2.6491439E-001	6.4291289E+004	1.434819984402566E+001
3.856023067634603E-003	-2.6666024E-001	-2.6691434E-001	6.9154211E+004	1.454819983897323E+001
3.658211017429081E-003	-2.6864764E-001	-2.6891437E-001	7.3436891E+004	1.474819983392081E+001
3.483610881834909E-003	-2.7064261E-001	-2.7091441E-001	7.7690250E+004	1.494819982886838E+001
3.330152252560441E-003	-2.7264988E-001	-2.7291441E-001	8.1873102E+004	1.514819982381596E+001
3.157717166134071E-003	-2.7466798E-001	-2.7491441E-001	8.6983086E+004	1.534819981876353E+001
2.968115135849478E-003	-2.7664152E-001	-2.7691439E-001	9.3204445E+004	1.554819981371111E+001
2.852562986821731E-003	-2.7864304E-001	-2.7891442E-001	9.7681641E+004	1.574819980865868E+001
2.754899495336024E-003	-2.8065538E-001	-2.8091443E-001	1.0187500E+005	1.594819980360626E+001
2.573277032823375E-003	-2.8264338E-001	-2.8291446E-001	1.0983791E+005	1.614819979855383E+001
2.427766844268917E-003	-2.8466591E-001	-2.8491440E-001	1.1725422E+005	1.634819979350141E+001
2.304382851393400E-003	-2.8666535E-001	-2.8691441E-001	1.2440005E+005	1.654819978844898E+001
2.220248329145380E-003	-2.8866115E-001	-2.8891441E-001	1.3001300E+005	1.674819978339656E+001
2.055717170741010E-003	-2.9067054E-001	-2.9091442E-001	1.4139617E+005	1.694819977834413E+001
1.948740276979537E-003	-2.9266530E-001	-2.9291442E-001	1.5018180E+005	1.714819977329171E+001
1.828119441436793E-003	-2.9468423E-001	-2.9491442E-001	1.6119528E+005	1.734819976823928E+001
1.705853104614640E-003	-2.9667282E-001	-2.9691440E-001	1.7391464E+005	1.754819976318686E+001
1.668662482575873E-003	-2.9866165E-001	-2.9891443E-001	1.7898266E+005	1.774819975813443E+001
1.539783502654518E-003	-3.0067658E-001	-3.0091441E-001	1.9527198E+005	1.794819975308201E+001
1.443583579419372E-003	-3.0264479E-001	-3.0291441E-001	2.0964827E+005	1.814819974802958E+001
1.336295256576971E-003	-3.0466139E-001	-3.0491441E-001	2.2798958E+005	1.834819974297716E+001
1.261288889818512E-003	-3.0663303E-001	-3.0691442E-001	2.4311086E+005	1.854819973792473E+001
1.171631285222271E-003	-3.0864450E-001	-3.0891442E-001	2.6343144E+005	1.874819973287231E+001
1.088663032468627E-003	-3.1064883E-001	-3.1091443E-001	2.8534894E+005	1.894819972781988E+001
9.960063243081574E-004	-3.1264061E-001	-3.1291443E-001	3.1389419E+005	1.914819972276746E+001
9.334147303237325E-004	-3.1464618E-001	-3.1491444E-001	3.3709150E+005	1.934819971771503E+001
8.216657681544247E-004	-3.1663117E-001	-3.1691444E-001	3.8535275E+005	1.954819971266261E+001
7.544958302571035E-004	-3.1864479E-001	-3.1891441E-001	4.2232809E+005	1.974819970761018E+001
6.918223950766614E-004	-3.2064784E-001	-3.2091442E-001	4.6348288E+005	1.994819970255776E+001
6.119579612483064E-004	-3.2263961E-001	-3.2291442E-001	5.2722513E+005	2.014819969750533E+001
5.479910791781758E-004	-3.2464346E-001	-3.2491443E-001	5.9242475E+005	2.034819969245291E+001
4.917986055673357E-004	-3.2663950E-001	-3.2691440E-001	6.6417331E+005	2.054819968740048E+001
3.954938957203514E-004	-3.2866630E-001	-3.2891440E-001	8.3102750E+005	2.074819968234806E+001
3.246533491137048E-004	-3.3065596E-001	-3.3091441E-001	1.0184893E+006	2.094819967729563E+001
2.351646491976626E-004	-3.3267024E-001	-3.3291444E-001	1.4146269E+006	2.114819967224321E+001
1.936661952793473E-004	-3.3466309E-001	-3.3491445E-001	1.7280409E+006	2.134819966719078E+001
1.409175012693648E-004	-3.3666208E-001	-3.3691442E-001	2.3890723E+006	2.154819966213836E+001
5.618987188575348E-005	-3.3866870E-001	-3.3891442E-001	6.0272195E+006	2.174819965708593E+001
-1.979876818260165E-005	-3.4065753E-001	-3.4091443E-001	1.7205996E+007	2.194819965203351E+001
-7.166393290491835E-005	-3.4265524E-001	-3.4291443E-001	4.7814185E+006	2.214819964698108E+001
-1.314520791996955E-004	-3.4466401E-001	-3.4491441E-001	2.6219745E+006	2.234819964192866E+001
-1.648284184734396E-004	-3.4665027E-001	-3.4691441E-001	2.1030978E+006	2.254819963687623E+001
-2.572526362081126E-004	-3.4866178E-001	-3.4891441E-001	1.3553283E+006	2.274819963182381E+001
-3.073402847519049E-004	-3.5066354E-001	-3.5091442E-001	1.1409619E+006	2.294819962677138E+001
-3.973575953786772E-004	-3.5266382E-001	-3.5291445E-001	8.8752250E+005	2.314819962171896E+001
-4.298888672107381E-004	-3.5465223E-001	-3.5491443E-001	8.2498581E+005	2.334819961666653E+001
-4.884831184157066E-004	-3.5666797E-001	-3.5691443E-001	7.3015413E+005	2.354819961161411E+001
-5.338213653702205E-004	-3.5867798E-001	-3.5891446E-001	6.7190638E+005	2.374819960656168E+001
-6.388699211688151E-004	-3.6066955E-001	-3.6091444E-001	5.6454300E+005	2.394819960150926E+001
-6.706107479676916E-004	-3.6264205E-001	-3.6291441E-001	5.4076388E+005	2.414819959645683E+001
-7.286581406517993E-004	-3.6466035E-001	-3.6491445E-001	5.0045466E+005	2.434819959140441E+001
-7.743926022681924E-004	-3.6666206E-001	-3.6691442E-001	4.7348341E+005	2.454819958635198E+001
-8.764059927330523E-004	-3.6865515E-001	-3.6891443E-001	4.2064425E+005	2.474819958129956E+001
-9.150784667621807E-004	-3.7065223E-001	-3.7091443E-001	4.0504966E+005	2.494819957624713E+001
-9.900346978937088E-004	-3.7264827E-001	-3.7291443E-001	3.7639919E+005	2.514819957119471E+001
-1.050029376599104E-003	-3.7464115E-001	-3.7491444E-001	3.5679113E+005	2.534819956614228E+001
-1.104563341945485E-003	-3.7664029E-001	-3.7691444E-001	3.4098569E+005	2.554819956108986E+001
-1.164187891218403E-003	-3.7865245E-001	-3.7891442E-001	3.2525028E+005	2.574819955603743E+001
-1.216771507136682E-003	-3.8064402E-001	-3.8091445E-001	3.1283116E+005	2.594819955098501E+001
-1.312645997201312E-003	-3.8265172E-001	-3.8291442E-001	2.9151175E+005	2.614819954593258E+001
-1.361892997476818E-003	-3.8465816E-001	-3.8491440E-001	2.8244375E+005	2.634819954088016E+001
-1.427610615151342E-003	-3.8665608E-001	-3.8691443E-001	2.7084141E+005	2.654819953582773E+001
-1.480747206565120E-003	-3.8865846E-001	-3.8891444E-001	2.6247456E+005	2.674819953077531E+001
-1.543284273715060E-003	-3.9064768E-001	-3.9091444E-001	2.5312750E+005	2.694819952572288E+001
-1.600628739522238E-003	-3.9264095E-001	-3.9291444E-001	2.4530420E+005	2.714819952067046E+001
-1.685110086849545E-003	-3.9463213E-001	-3.9491445E-001	2.3418775E+005	2.734819951561803E+001
-1.741266052223786E-003	-3.9662626E-001	-3.9691445E-001	2.2778039E+005	2.754819951056561E+001
-1.774763247298909E-003	-3.9864984E-001	-3.9891443E-001	2.2462142E+005	2.774819950551318E+001
-1.845403771091450E-003	-4.0064481E-001	-4.0091446E-001	2.1710414E+005	2.794819950046076E+001
-1.932455251178607E-003	-4.0264386E-001	-4.0291443E-001	2.0835870E+005	2.814819949540833E+001
-2.001634772001505E-003	-4.0464363E-001	-4.0491447E-001	2.0215658E+005	2.834819949035591E+001
-2.067262483017314E-003	-4.0666261E-001	-4.0691444E-001	1.9671552E+005	2.854819948530348E+001
-2.163079569859884E-003	-4.0864927E-001	-4.0891442E-001	1.8892013E+005	2.874819948025106E+001
-2.200275898697941E-003	-4.1064087E-001	-4.1091445E-001	1.8663153E+005	2.894819947519863E+001
-2.272974986325466E-003	-4.1268504E-001	-4.1291443E-001	1.8156163E+005	2.914819947014621E+001
-2.331829845356291E-003	-4.1468954E-001	-4.1491446E-001	1.7783867E+005	2.934819946509379E+001
-2.413836734113210E-003	-4.1669282E-001	-4.1691446E-001	1.7262677E+005	2.954819946004136E+001
-2.485697466051262E-003	-4.1869304E-001	-4.1891447E-001	1.6844086E+005	2.974819945498894E+001
-2.615948280246250E-003	-4.2068610E-001	-4.2091441E-001	1.6081591E+005	2.994819944993651E+001
-2.631946776002154E-003	-4.2268765E-001	-4.2291445E-001	1.6059886E+005	3.014819944488409E+001
-2.705766848117087E-003	-4.2468962E-001	-4.2491448E-001	1.5695722E+005	3.034819943983166E+001
-2.797033926925700E-003	-4.2669326E-001	-4.2691445E-001	1.5255205E+005	3.054819943477924E+001
-2.869374072742629E-003	-4.2866704E-001	-4.2891443E-001	1.4939392E+005	3.074819942972681E+001
-2.964283886844464E-003	-4.3068597E-001	-4.3091446E-001	1.4529173E+005	3.094819942467439E+001
-2.994060272636816E-003	-4.3269151E-001	-4.3291444E-001	1.4451664E+005	3.114819941962196E+001
-3.102975628028935E-003	-4.3468803E-001	-4.3491444E-001	1.4008748E+005	3.134819941456954E+001
-3.196468970094839E-003	-4.3669465E-001	-4.3691444E-001	1.3661783E+005	3.154819940951711E+001
-3.289903179327161E-003	-4.3870443E-001	-4.3891448E-001	1.3334873E+005	3.174819940446469E+001
-3.396973410937282E-003	-4.4070005E-001	-4.4091442E-001	1.2973315E+005	3.194819939941226E+001
-3.411861021922209E-003	-4.4269651E-001	-4.4291446E-001	1.2975221E+005	3.214819939435984E+001
-3.529596969884155E-003	-4.4469655E-001	-4.4491449E-001	1.2599074E+005	3.234819938930741E+001
-3.637730241867990E-003	-4.4669938E-001	-4.4691446E-001	1.2279618E+005	3.254819938425499E+001
-3.742408274300443E-003	-4.4869858E-001	-4.4891444E-001	1.1989568E+005	3.274819937920256E+001
-3.812000411641821E-003	-4.5069438E-001	-4.5091447E-001	1.1823041E+005	3.294819937415014E+001
-3.893543008756894E-003	-4.5270720E-001	-4.5291451E-001	1.1627127E+005	3.314819936909771E+001
-3.995270610547025E-003	-4.5468897E-001	-4.5491445E-001	1.1380680E+005	3.334819936404529E+001
-4.073635079209464E-003	-4.5669562E-001	-4.5691445E-001	1.1211009E+005	3.354819935899286E+001
-4.176700099879797E-003	-4.5866999E-001	-4.5891446E-001	1.0981636E+005	3.374819935394044E+001
-4.271911527036786E-003	-4.6068284E-001	-4.6091443E-001	1.0783998E+005	3.394819934888801E+001
-4.352584998904719E-003	-4.6269307E-001	-4.6291441E-001	1.0630305E+005	3.414819934383559E+001
-4.462142058520406E-003	-4.6466896E-001	-4.6491450E-001	1.0413585E+005	3.434819933878316E+001
-4.550786240949222E-003	-4.6666092E-001	-4.6691447E-001	1.0254512E+005	3.454819933373074E+001
-4.685591964450779E-003	-4.6866241E-001	-4.6891445E-001	1.0002203E+005	3.474819932867831E+001
-4.797787054258665E-003	-4.7064063E-001	-4.7091445E-001	9.8095359E+004	3.494819932362589E+001
-4.923045301123308E-003	-4.7266465E-001	-4.7291446E-001	9.6010625E+004	3.514819931857346E+001
-4.991866071037181E-003	-4.7466242E-001	-4.7491440E-001	9.5087172E+004	3.534819931352104E+001
-5.111911377654117E-003	-4.7668326E-001	-4.7691447E-001	9.3249516E+004	3.554819930846861E+001
-5.241932499040577E-003	-4.7867543E-001	-4.7891447E-001	9.1316594E+004	3.574819930341619E+001
-5.353618913155635E-003	-4.8067296E-001	-4.8091447E-001	8.9784680E+004	3.594819929836376E+001
-5.458643151424188E-003	-4.8266664E-001	-4.8291442E-001	8.8422461E+004	3.614819929331134E+001
-5.548831759138922E-003	-4.8466924E-001	-4.8491445E-001	8.7346180E+004	3.634819928825891E+001
-5.691575354214370E-003	-4.8668307E-001	-4.8691449E-001	8.5509375E+004	3.654819928320649E+001
-5.816497404452742E-003	-4.8866805E-001	-4.8891443E-001	8.4014148E+004	3.674819927815406E+001
-5.908288142990749E-003	-4.9068579E-001	-4.9091443E-001	8.3050414E+004	3.694819927310164E+001
-6.031923298169636E-003	-4.9267966E-001	-4.9291447E-001	8.1678703E+004	3.714819926804921E+001
-6.175772718526370E-003	-4.9469140E-001	-4.9491447E-001	8.0101945E+004	3.734819926299679E+001
-6.329040469054272E-003	-4.9667954E-001	-4.9691445E-001	7.8476281E+004	3.754819925794436E+001
-6.449178518656687E-003	-4.9867943E-001	-4.9891448E-001	7.7324492E+004	3.774819925289194E+001
-6.547256183067174E-003	-5.0067520E-001	-5.0091445E-001	7.6470992E+004	3.794819924783951E+001
-6.697595979524219E-003	-5.0264877E-001	-5.0291443E-001	7.5049133E+004	3.814819924278709E+001
-6.847996740388660E-003	-5.0468004E-001	-5.0491446E-001	7.3697469E+004	3.834819923773466E+001
-6.975811415089529E-003	-5.0665927E-001	-5.0691450E-001	7.2630875E+004	3.854819923268224E+001
-7.066935092612525E-003	-5.0867563E-001	-5.0891441E-001	7.1979664E+004	3.874819922762981E+001
-7.247554660521880E-003	-5.1068419E-001	-5.1091444E-001	7.0462969E+004	3.894819922257739E+001
-7.372052569914828E-003	-5.1266938E-001	-5.1291448E-001	6.9542289E+004	3.914819921752496E+001
-7.505861327779112E-003	-5.1466441E-001	-5.1491445E-001	6.8568336E+004	3.934819921247254E+001
-7.663491122369720E-003	-5.1665491E-001	-5.1691449E-001	6.7417695E+004	3.954819920742011E+001
-7.788911277967880E-003	-5.1865053E-001	-5.1891446E-001	6.6588320E+004	3.974819920236769E+001
-7.926637317302625E-003	-5.2065372E-001	-5.2091449E-001	6.5684063E+004	3.994819919731526E+001
-8.085736778249031E-003	-5.2266508E-001	-5.2291447E-001	6.4640379E+004	4.014819919226284E+001
-8.242049407321650E-003	-5.2466303E-001	-5.2491444E-001	6.3656867E+004	4.034819918721041E+001
-8.407520850810965E-003	-5.2667785E-001	-5.2691448E-001	6.2643656E+004	4.054819918215799E+001
-8.560105022547199E-003	-5.2866524E-001	-5.2891445E-001	6.1759199E+004	4.074819917710556E+001
-8.683803710992047E-003	-5.3066385E-001	-5.3091443E-001	6.1109609E+004	4.094819917205314E+001
-8.877066223535790E-003	-5.3267443E-001	-5.3291446E-001	6.0005684E+004	4.114819916700071E+001
-9.048762011709732E-003	-5.3468645E-001	-5.3491449E-001	5.9089457E+004	4.134819916194829E+001
-9.212847568607865E-003	-5.3669113E-001	-5.3691447E-001	5.8254641E+004	4.154819915689586E+001
-9.353534091285656E-003	-5.3866994E-001	-5.3891444E-001	5.7589992E+004	4.174819915184344E+001
-9.518790770812524E-003	-5.4070288E-001	-5.4091448E-001	5.6803734E+004	4.194819914679101E+001
-9.660126633869271E-003	-5.4268646E-001	-5.4291445E-001	5.6177988E+004	4.214819914173859E+001
-9.857627729156188E-003	-5.4469776E-001	-5.4491442E-001	5.5256477E+004	4.234819913668616E+001
-1.002639619347925E-002	-5.4668921E-001	-5.4691446E-001	5.4524996E+004	4.254819913163374E+001
-1.016596420361849E-002	-5.4869699E-001	-5.4891443E-001	5.3973926E+004	4.274819912658131E+001
-1.033031684214507E-002	-5.5068618E-001	-5.5091447E-001	5.3307773E+004	4.294819912152889E+001
-1.053887715661117E-002	-5.5269134E-001	-5.5291450E-001	5.2443094E+004	4.314819911647646E+001
-1.073504315848647E-002	-5.5468935E-001	-5.5491447E-001	5.1670902E+004	4.334819911142404E+001
-1.088665909884345E-002	-5.5669385E-001	-5.5691451E-001	5.1135418E+004	4.354819910637161E+001
-1.107463089441940E-002	-5.5871361E-001	-5.5891442E-001	5.0449863E+004	4.374819910131919E+001
-1.124737303116137E-002	-5.6069773E-001	-5.6091446E-001	4.9851438E+004	4.394819909626676E+001
-1.141937293727086E-002	-5.6271797E-001	-5.6291449E-001	4.9277484E+004	4.414819909121434E+001
-1.159150331849212E-002	-5.6470400E-001	-5.6491441E-001	4.8717063E+004	4.434819908616191E+001
-1.179138438228639E-002	-5.6669796E-001	-5.6691450E-001	4.8060340E+004	4.454819908110949E+001
-1.198266891859233E-002	-5.6867695E-001	-5.6891447E-001	4.7458289E+004	4.474819907605706E+001
-1.218073413679069E-002	-5.7067996E-001	-5.7091451E-001	4.6851031E+004	4.494819907100464E+001
-1.234205131410565E-002	-5.7269597E-001	-5.7291442E-001	4.6402008E+004	4.514819906595221E+001
-1.252596878328902E-002	-5.7468766E-001	-5.7491446E-001	4.5879699E+004	4.534819906089979E+001
-1.272681946633908E-002	-5.7667911E-001	-5.7691449E-001	4.5312117E+004	4.554819905584736E+001
-1.290654106268364E-002	-5.7869154E-001	-5.7891440E-001	4.4837074E+004	4.574819905079494E+001
-1.310093524982482E-002	-5.8068347E-001	-5.8091444E-001	4.4323816E+004	4.594819904574251E+001
-1.329181088655221E-002	-5.8268356E-001	-5.8291447E-001	4.3837785E+004	4.614819904069009E+001
-1.353150747384863E-002	-5.8469987E-001	-5.8491445E-001	4.3210254E+004	4.634819903563766E+001
-1.373829195632809E-002	-5.8668876E-001	-5.8691448E-001	4.2704637E+004	4.654819903058524E+001
-1.391283455811637E-002	-5.8869302E-001	-5.8891445E-001	4.2312945E+004	4.674819902553281E+001
-1.410802781025933E-002	-5.9068477E-001	-5.9091449E-001	4.1868699E+004	4.694819902048039E+001
-1.431301177377434E-002	-5.9268379E-001	-5.9291446E-001	4.1408742E+004	4.714819901542796E+001
-1.450414493452445E-002	-5.9468108E-001	-5.9491444E-001	4.1000770E+004	4.734819901037554E+001
-1.470731615520221E-002	-5.9668982E-001	-5.9691447E-001	4.0570953E+004	4.754819900532311E+001
-1.490385224263963E-002	-5.9869438E-001	-5.9891438E-001	4.0170445E+004	4.774819900027069E+001
-1.510438536554615E-002	-6.0069954E-001	-6.0091448E-001	3.9769875E+004	4.794819899521826E+001
-1.533217230323880E-002	-6.0268003E-001	-6.0291451E-001	3.9308195E+004	4.814819899016584E+001
-1.552212973021798E-002	-6.0470265E-001	-6.0491443E-001	3.8957453E+004	4.834819898511341E+001
-1.574798694945333E-002	-6.0671115E-001	-6.0691446E-001	3.8526266E+004	4.854819898006099E+001
-1.592945827402451E-002	-6.0869443E-001	-6.0891443E-001	3.8211871E+004	4.874819897500856E+001
-1.612506672893627E-002	-6.1069655E-001	-6.1091453E-001	3.7872496E+004	4.894819896995614E+001
-1.637167327529424E-002	-6.1269605E-001	-6.1291444E-001	3.7424156E+004	4.914819896490371E+001
-1.656775376529802E-002	-6.1472052E-001	-6.1491442E-001	3.7103434E+004	4.934819895985129E+001
-1.677724706574470E-002	-6.1672986E-001	-6.1691451E-001	3.6759895E+004	4.954819895479886E+001
-1.699272728294900E-002	-6.1871827E-001	-6.1891443E-001	3.6410770E+004	4.974819894974644E+001
-1.722742679772815E-002	-6.2072086E-001	-6.2091446E-001	3.6030969E+004	4.994819894469401E+001
-1.739841457530261E-002	-6.2271881E-001	-6.2291443E-001	3.5791699E+004	5.014819893964159E+001
-1.761475920689332E-002	-6.2472075E-001	-6.2491447E-001	3.5465758E+004	5.034819893458916E+001
-1.784091756590417E-002	-6.2672085E-001	-6.2691444E-001	3.5128285E+004	5.054819892953674E+001
-1.804883908554317E-002	-6.2872362E-001	-6.2891448E-001	3.4834574E+004	5.074819892448431E+001
-1.825561891048574E-002	-6.3071698E-001	-6.3091451E-001	3.4549199E+004	5.094819891943189E+001
-1.846274709323198E-002	-6.3271159E-001	-6.3291448E-001	3.4269633E+004	5.114819891437946E+001
-1.868617101656916E-002	-6.3471317E-001	-6.3491446E-001	3.3967000E+004	5.134819890932704E+001
-1.888628169203121E-002	-6.3672513E-001	-6.3691449E-001	3.3713629E+004	5.154819890427461E+001
-1.911426127345513E-002	-6.3873583E-001	-6.3891453E-001	3.3416715E+004	5.174819889922219E+001
-1.931801605259557E-002	-6.4070845E-001	-6.4091444E-001	3.3166367E+004	5.194819889416976E+001
-1.956232817095958E-002	-6.4273447E-001	-6.4291447E-001	3.2855727E+004	5.214819888911734E+001
-1.976073542799879E-002	-6.4472347E-001	-6.4491451E-001	3.2626492E+004	5.234819888406491E+001
-1.995955169496028E-002	-6.4671570E-001	-6.4691448E-001	3.2401314E+004	5.254819887901249E+001
-2.017381467263568E-002	-6.4871526E-001	-6.4891440E-001	3.2156301E+004	5.274819887396006E+001
-2.040537584495411E-002	-6.5071827E-001	-6.5091449E-001	3.1889551E+004	5.294819886890764E+001
-2.060203666810920E-002	-6.5272260E-001	-6.5291446E-001	3.1682430E+004	5.314819886385521E+001
-2.082728653937116E-002	-6.5474582E-001	-6.5491444E-001	3.1436924E+004	5.334819885880279E+001
-2.106172221241819E-002	-6.5671867E-001	-6.5691447E-001	3.1180674E+004	5.354819885375036E+001
-2.127020592236883E-002	-6.5872043E-001	-6.5891445E-001	3.0969160E+004	5.374819884869794E+001
-2.148063850188898E-002	-6.6072202E-001	-6.6091448E-001	3.0758957E+004	5.394819884364551E+001
-2.169563829417856E-002	-6.6273582E-001	-6.6291445E-001	3.0546961E+004	5.414819883859309E+001
-2.193281319796991E-002	-6.6471380E-001	-6.6491449E-001	3.0306818E+004	5.434819883354066E+001
-2.213119406120062E-002	-6.6672981E-001	-6.6691446E-001	3.0126246E+004	5.454819882848824E+001
-2.234524987847070E-002	-6.6871125E-001	-6.6891444E-001	2.9926326E+004	5.474819882343581E+001
-2.258076440411483E-002	-6.7071903E-001	-6.7091447E-001	2.9703115E+004	5.494819881838339E+001
-2.278110236531367E-002	-6.7272234E-001	-6.7291451E-001	2.9529842E+004	5.514819881333096E+001
-2.300392771234777E-002	-6.7471224E-001	-6.7491442E-001	2.9330307E+004	5.534819880827854E+001
-2.323118113881495E-002	-6.7671162E-001	-6.7691445E-001	2.9129453E+004	5.554819880322611E+001
-2.343908401339190E-002	-6.7869663E-001	-6.7891449E-001	2.8955766E+004	5.574819879817369E+001
-2.367253747941345E-002	-6.8071681E-001	-6.8091452E-001	2.8755549E+004	5.594819879312126E+001
-2.388153144035937E-002	-6.8269736E-001	-6.8291444E-001	2.8586834E+004	5.614819878806884E+001
-2.409217358237373E-002	-6.8469912E-001	-6.8491447E-001	2.8419980E+004	5.634819878301641E+001
-2.433087936691763E-002	-6.8671399E-001	-6.8691450E-001	2.8223969E+004	5.654819877796399E+001
-2.453873999381984E-002	-6.8869668E-001	-6.8891442E-001	2.8065691E+004	5.674819877291156E+001
-2.481446029537081E-002	-6.9071668E-001	-6.9091445E-001	2.7835250E+004	5.694819876785914E+001
-2.500516584442927E-002	-6.9269192E-001	-6.9291455E-001	2.7701953E+004	5.714819876280671E+001
-2.525243447442038E-002	-6.9471532E-001	-6.9491446E-001	2.7510826E+004	5.734819875775429E+001
-2.544030845017442E-002	-6.9670731E-001	-6.9691443E-001	2.7385961E+004	5.754819875270186E+001
-2.566311133353888E-002	-6.9871950E-001	-6.9891453E-001	2.7226609E+004	5.774819874764944E+001
-2.589718041209754E-002	-7.0072275E-001	-7.0091450E-001	2.7057879E+004	5.794819874259701E+001
-2.612235047194532E-002	-7.0270663E-001	-7.0291442E-001	2.6900590E+004	5.814819873754459E+001
-2.634982393670180E-002	-7.0469218E-001	-7.0491445E-001	2.6743715E+004	5.834819873249216E+001
-2.658773340863474E-002	-7.0670593E-001	-7.0691454E-001	2.6580150E+004	5.854819872743974E+001
-2.681341849092206E-002	-7.0870286E-001	-7.0891446E-001	2.6430902E+004	5.874819872238731E+001
-2.702735611971457E-002	-7.1070516E-001	-7.1091449E-001	2.6295771E+004	5.894819871733489E+001
-2.727895663035385E-002	-7.1271187E-001	-7.1291453E-001	2.6126801E+004	5.914819871228246E+001
-2.749785535616167E-002	-7.1471256E-001	-7.1491450E-001	2.5991574E+004	5.934819870723004E+001
-2.775772570742213E-002	-7.1671009E-001	-7.1691447E-001	2.5820203E+004	5.954819870217761E+001
-2.803091408474734E-002	-7.1870410E-001	-7.1891445E-001	2.5639695E+004	5.974819869712519E+001
-2.822405162722486E-002	-7.2070444E-001	-7.2091454E-001	2.5535115E+004	5.994819869207277E+001
-2.846818994292509E-002	-7.2269917E-001	-7.2291440E-001	2.5386199E+004	6.014819868702034E+001
-2.871084395931221E-002	-7.2469348E-001	-7.2491449E-001	2.5241107E+004	6.034819868196792E+001
-2.894740683436292E-002	-7.2671050E-001	-7.2691453E-001	2.5104512E+004	6.054819867691549E+001
-2.919221805174183E-002	-7.2870404E-001	-7.2891444E-001	2.4962270E+004	6.074819867186307E+001
-2.945245889542403E-002	-7.3068577E-001	-7.3091441E-001	2.4808990E+004	6.094819866681064E+001
-2.967761957763482E-002	-7.3271340E-001	-7.3291451E-001	2.4689090E+004	6.114819866175822E+001
-2.995140356636800E-002	-7.3469096E-001	-7.3491460E-001	2.4529434E+004	6.134819865670579E+001
-3.020450020976617E-002	-7.3671800E-001	-7.3691446E-001	2.4391002E+004	6.154819865165337E+001
-3.048123561359023E-002	-7.3869681E-001	-7.3891443E-001	2.4234477E+004	6.174819864660094E+001
-3.072761072404462E-002	-7.4070680E-001	-7.4091452E-001	2.4105578E+004	6.194819864154852E+001
-3.097274814665862E-002	-7.4269289E-001	-7.4291444E-001	2.3978914E+004	6.214819863649609E+001
-3.126805269105522E-002	-7.4471182E-001	-7.4491447E-001	2.3817020E+004	6.234819863144367E+001
-3.152092991665001E-002	-7.4670851E-001	-7.4691451E-001	2.3689291E+004	6.254819862639124E+001
-3.179365868602047E-002	-7.4870956E-001	-7.4891448E-001	2.3549021E+004	6.274819862133882E+001
-3.208951230077467E-002	-7.5070077E-001	-7.5091445E-001	2.3393961E+004	6.294819861628639E+001
-3.234822565030782E-002	-7.5269723E-001	-7.5291443E-001	2.3268578E+004	6.314819861123397E+001
-3.265495272274102E-002	-7.5469917E-001	-7.5491458E-001	2.3111324E+004	6.334819860618154E+001
-3.293875912721783E-002	-7.5669712E-001	-7.5691450E-001	2.2972848E+004	6.354819860112912E+001
-3.323347497992254E-002	-7.5871456E-001	-7.5891447E-001	2.2829830E+004	6.374819859607669E+001
-3.354496946040969E-002	-7.6070821E-001	-7.6091450E-001	2.2677266E+004	6.394819859102427E+001
-3.382008194383829E-002	-7.6269919E-001	-7.6291442E-001	2.2551666E+004	6.414819858597184E+001
-3.415278220404550E-002	-7.6470548E-001	-7.6491451E-001	2.2390723E+004	6.434819858091942E+001
-3.448625547017314E-002	-7.6669693E-001	-7.6691449E-001	2.2231957E+004	6.454819857586699E+001
-3.481215281467978E-002	-7.6870620E-001	-7.6891458E-001	2.2081547E+004	6.474819857081457E+001
-3.513001912941849E-002	-7.7070689E-001	-7.7091455E-001	2.1938699E+004	6.494819856576214E+001
-3.545489090773551E-002	-7.7267444E-001	-7.7291447E-001	2.1793170E+004	6.514819856070972E+001
-3.582723811215990E-002	-7.7468550E-001	-7.7491450E-001	2.1622809E+004	6.534819855565729E+001
-3.617479383592792E-002	-7.7669811E-001	-7.7691448E-001	2.1470699E+004	6.554819855060487E+001
-3.653513962986860E-002	-7.7868420E-001	-7.7891439E-001	2.1313295E+004	6.574819854555244E+001
-3.693876520106520E-002	-7.8068143E-001	-7.8091449E-001	2.1134475E+004	6.594819854050002E+001
-3.728672988921877E-002	-7.8269434E-001	-7.8291452E-001	2.0991230E+004	6.614819853544759E+001
-3.768821922394860E-002	-7.8469706E-001	-7.8491449E-001	2.0820752E+004	6.634819853039517E+001
-3.812115953875128E-002	-7.8671223E-001	-7.8691447E-001	2.0637154E+004	6.654819852534274E+001
-3.850737183202713E-002	-7.8867638E-001	-7.8891456E-001	2.0481180E+004	6.674819852029032E+001
-3.893539570842153E-002	-7.9068160E-001	-7.9091454E-001	2.0307527E+004	6.694819851523789E+001
-3.940070785614783E-002	-7.9269248E-001	-7.9291451E-001	2.0118736E+004	6.714819851018547E+001
-3.984983375268547E-002	-7.9468954E-001	-7.9491454E-001	1.9942104E+004	6.734819850513304E+001
-4.035482494753961E-002	-7.9670423E-001	-7.9691452E-001	1.9742479E+004	6.754819850008062E+001
-4.083494871248675E-002	-7.9870182E-001	-7.9891449E-001	1.9559271E+004	6.774819849502819E+001
-4.133015531938866E-002	-8.0068415E-001	-8.0091447E-001	1.9372881E+004	6.794819848997577E+001
-4.186611512940919E-002	-8.0268657E-001	-8.0291456E-001	1.9172703E+004	6.814819848492334E+001
-4.241221765100582E-002	-8.0470639E-001	-8.0491459E-001	1.8973457E+004	6.834819847987092E+001
-4.294736991275327E-002	-8.0668163E-001	-8.0691451E-001	1.8783027E+004	6.854819847481849E+001
-4.355302441214769E-002	-8.0868715E-001	-8.0891454E-001	1.8567875E+004	6.874819846976607E+001
-4.416672041420067E-002	-8.1068110E-001	-8.1091458E-001	1.8355021E+004	6.894819846471364E+001
-4.480671689950166E-002	-8.1268233E-001	-8.1291443E-001	1.8137512E+004	6.914819845966122E+001
-4.545453174093553E-002	-8.1468034E-001	-8.1491452E-001	1.7922973E+004	6.934819845460879E+001
-4.609789276049964E-002	-8.1667972E-001	-8.1691462E-001	1.7716205E+004	6.954819844955637E+001
-4.684287939424481E-002	-8.1868154E-001	-8.1891447E-001	1.7477182E+004	6.974819844450394E+001
-4.761343044012384E-002	-8.2069194E-001	-8.2091457E-001	1.7236564E+004	6.994819843945152E+001
-4.840219188207029E-002	-8.2271445E-001	-8.2291454E-001	1.6997463E+004	7.014819843439909E+001
-4.917816785607654E-002	-8.2471424E-001	-8.2491452E-001	1.6769926E+004	7.034819842934667E+001
-5.002329292255214E-002	-8.2669640E-001	-8.2691449E-001	1.6526229E+004	7.054819842429424E+001
-5.088791794190084E-002	-8.2870770E-001	-8.2891452E-001	1.6284960E+004	7.074819841924182E+001
-5.181904507129367E-002	-8.3070302E-001	-8.3091456E-001	1.6030844E+004	7.094819841418939E+001
-5.276445325573811E-002	-8.3270162E-001	-8.3291447E-001	1.5781488E+004	7.114819840913697E+001
-5.379517474095608E-002	-8.3469069E-001	-8.3491445E-001	1.5516089E+004	7.134819840408454E+001
-5.484035668700366E-002	-8.3670449E-001	-8.3691460E-001	1.5257095E+004	7.154819839903212E+001
-5.589181767056461E-002	-8.3868933E-001	-8.3891457E-001	1.5005583E+004	7.174819839397969E+001
-5.704627609748369E-002	-8.4070081E-001	-8.4091449E-001	1.4737173E+004	7.194819838892727E+001
-5.823413925847298E-002	-8.4270161E-001	-8.4291458E-001	1.4470921E+004	7.214819838387484E+001
-5.947898031854409E-002	-8.4471411E-001	-8.4491456E-001	1.4201893E+004	7.234819837882242E+001
-6.081012443136702E-002	-8.4669185E-001	-8.4691441E-001	1.3923534E+004	7.254819837376999E+001
-6.219636824757058E-002	-8.4871697E-001	-8.4891450E-001	1.3645765E+004	7.274819836871757E+001
-6.364855853219825E-002	-8.5071194E-001	-8.5091460E-001	1.3365770E+004	7.294819836366514E+001
-6.511365433324867E-002	-8.5271960E-001	-8.5291445E-001	1.3095864E+004	7.314819835861272E+001
-6.669866171921035E-002	-8.5471165E-001	-8.5491455E-001	1.2814524E+004	7.334819835356029E+001
-6.830195836192776E-002	-8.5672718E-001	-8.5691452E-001	1.2543230E+004	7.354819834850787E+001
-7.005713695803839E-002	-8.5872549E-001	-8.5891449E-001	1.2257502E+004	7.374819834345544E+001
-7.185274973572919E-002	-8.6072171E-001	-8.6091447E-001	1.1978967E+004	7.394819833840302E+001
-7.371661269851448E-002	-8.6272794E-001	-8.6291450E-001	1.1703304E+004	7.414819833335059E+001
-7.569804829397461E-002	-8.6472249E-001	-8.6491466E-001	1.1423313E+004	7.434819832829817E+001
-7.776884071987183E-002	-8.6673290E-001	-8.6691451E-001	1.1144989E+004	7.454819832324574E+001
-7.989223323479427E-002	-8.6872452E-001	-8.6891443E-001	1.0873704E+004	7.474819831819332E+001
-8.212979093020795E-002	-8.7072176E-001	-8.7091458E-001	1.0601777E+004	7.494819831314089E+001
-8.452141898960841E-002	-8.7273037E-001	-8.7291455E-001	1.0325553E+004	7.514819830808847E+001
-8.698549695089142E-002	-8.7471932E-001	-8.7491453E-001	1.0055922E+004	7.534819830303604E+001
-8.949860920675529E-002	-8.7670684E-001	-8.7691456E-001	9.7957598E+003	7.554819829798362E+001
-9.220788208239816E-002	-8.7870687E-001	-8.7891454E-001	9.5296289E+003	7.574819829293119E+001
-9.502914221165359E-002	-8.8070446E-001	-8.8091451E-001	9.2677305E+003	7.594819828787877E+001
-9.818793885982485E-002	-8.8279861E-001	-8.8301456E-001	8.9909072E+003	7.615819828257372E+001
-1.015120629092381E-001	-8.8487947E-001	-8.8511455E-001	8.7169883E+003	7.636819827726868E+001
-1.047144909040862E-001	-8.8687313E-001	-8.8711452E-001	8.4694404E+003	7.656819827221625E+001
-1.081201945613147E-001	-8.8888425E-001	-8.8911444E-001	8.2212598E+003	7.676819826716383E+001
-1.115720532528317E-001	-8.9087749E-001	-8.9111459E-001	7.9847725E+003	7.696819826211140E+001
-1.151931684510679E-001	-8.9287406E-001	-8.9311457E-001	7.7511025E+003	7.716819825705898E+001
-1.190340332412361E-001	-8.9488715E-001	-8.9511454E-001	7.5179102E+003	7.736819825200655E+001
-1.229123652885227E-001	-8.9685977E-001	-8.9711457E-001	7.2967417E+003	7.756819824695413E+001
-1.270405458763673E-001	-8.9888513E-001	-8.9911461E-001	7.0755767E+003	7.776819824190170E+001
-1.313079146334646E-001	-9.0089351E-001	-9.0111452E-001	6.8609233E+003	7.796819823684928E+001
-1.357310436541415E-001	-9.0289241E-001	-9.0311450E-001	6.6520698E+003	7.816819823179685E+001
-1.402812728588627E-001	-9.0489578E-001	-9.0511459E-001	6.4505815E+003	7.836819822674443E+001
-1.450106496732604E-001	-9.0688962E-001	-9.0711457E-001	6.2539517E+003	7.856819822169200E+001
-1.499176575515051E-001	-9.0888017E-001	-9.0911454E-001	6.0625293E+003	7.876819821663958E+001
-1.549605838584869E-001	-9.1089338E-001	-9.1111451E-001	5.8782261E+003	7.896819821158715E+001
-1.601603917213684E-001	-9.1288787E-001	-9.1311449E-001	5.6998354E+003	7.916819820653473E+001
-1.655403635255532E-001	-9.1488558E-001	-9.1511458E-001	5.5266616E+003	7.936819820148230E+001
-1.710050244300355E-001	-9.1689461E-001	-9.1711456E-001	5.3617993E+003	7.956819819642988E+001
-1.772095200641588E-001	-9.1889483E-001	-9.1911453E-001	5.1853579E+003	7.976819819137745E+001
-1.832754258953395E-001	-9.2090225E-001	-9.2111450E-001	5.0246904E+003	7.996819818632503E+001
-1.891762974308779E-001	-9.2289585E-001	-9.2311454E-001	4.8784961E+003	8.016819818127260E+001
-1.952012868306676E-001	-9.2490417E-001	-9.2511457E-001	4.7382075E+003	8.036819817622018E+001
-2.012726671491116E-001	-9.2690873E-001	-9.2711455E-001	4.6052388E+003	8.056819817116775E+001
-2.074463748839817E-001	-9.2889035E-001	-9.2911452E-001	4.4777373E+003	8.076819816611533E+001
-2.137073804656056E-001	-9.3088955E-001	-9.3111455E-001	4.3559072E+003	8.096819816106290E+001
-2.200716365584925E-001	-9.3291146E-001	-9.3311459E-001	4.2391265E+003	8.116819815601048E+001
-2.264301081561806E-001	-9.3489015E-001	-9.3511456E-001	4.1288242E+003	8.136819815095805E+001
-2.328388760829352E-001	-9.3689436E-001	-9.3711448E-001	4.0237883E+003	8.156819814590563E+001
-2.393562060330997E-001	-9.3888879E-001	-9.3911457E-001	3.9225588E+003	8.176819814085320E+001
-2.458362549083000E-001	-9.4089812E-001	-9.4111454E-001	3.8273367E+003	8.196819813580078E+001
-2.524379192769127E-001	-9.4288886E-001	-9.4311446E-001	3.7351316E+003	8.216819813074835E+001
-2.590581078606053E-001	-9.4490165E-001	-9.4511461E-001	3.6474507E+003	8.236819812569593E+001
-2.657814397457621E-001	-9.4689626E-001	-9.4711447E-001	3.5626877E+003	8.256819812064350E+001
-2.725803307584935E-001	-9.4888741E-001	-9.4911456E-001	3.4811294E+003	8.276819811559108E+001
-2.794413184007940E-001	-9.5090926E-001	-9.5111454E-001	3.4028943E+003	8.296819811053865E+001
-2.863640780486764E-001	-9.5289505E-001	-9.5311463E-001	3.3275649E+003	8.316819810548623E+001
-2.934928567015704E-001	-9.5490384E-001	-9.5511460E-001	3.2535847E+003	8.336819810043380E+001
-3.007512400116853E-001	-9.5689559E-001	-9.5711452E-001	3.1816846E+003	8.356819809538138E+001
-3.081127383689186E-001	-9.5890629E-001	-9.5911455E-001	3.1121929E+003	8.376819809032895E+001
-3.156464709636344E-001	-9.6088636E-001	-9.6111453E-001	3.0441853E+003	8.396819808527653E+001
-3.234590290920996E-001	-9.6290690E-001	-9.6311450E-001	2.9769053E+003	8.416819808022410E+001
-3.313996152690448E-001	-9.6490914E-001	-9.6511453E-001	2.9116182E+003	8.436819807517168E+001
-3.395303882185434E-001	-9.6689779E-001	-9.6711457E-001	2.8477502E+003	8.456819807011925E+001
-3.478939378414472E-001	-9.6891737E-001	-9.6911454E-001	2.7850942E+003	8.476819806506683E+001
-3.563033146319112E-001	-9.7091174E-001	-9.7111446E-001	2.7249585E+003	8.496819806001440E+001
-3.650194949464107E-001	-9.7291541E-001	-9.7311455E-001	2.6653794E+003	8.516819805496198E+001
-3.743069917216992E-001	-9.7491843E-001	-9.7511452E-001	2.6045957E+003	8.536819804990955E+001
-3.842570320565821E-001	-9.7689629E-001	-9.7711450E-001	2.5422991E+003	8.556819804485713E+001
-3.932563170089551E-001	-9.7889417E-001	-9.7911459E-001	2.4892014E+003	8.576819803980470E+001
-4.024396350695980E-001	-9.8090720E-001	-9.8111457E-001	2.4374021E+003	8.596819803475228E+001
-4.116593058349860E-001	-9.8288757E-001	-9.8311454E-001	2.3876238E+003	8.616819802969985E+001
-4.209311132587468E-001	-9.8489887E-001	-9.8511451E-001	2.3398101E+003	8.636819802464743E+001
-4.304008800198500E-001	-9.8688960E-001	-9.8711461E-001	2.2929543E+003	8.656819801959500E+001
-4.397069199513345E-001	-9.8889273E-001	-9.8911458E-001	2.2489814E+003	8.676819801454258E+001
-4.490915564925766E-001	-9.9089682E-001	-9.9111456E-001	2.2064473E+003	8.696819800949015E+001
-4.583844640915213E-001	-9.9289572E-001	-9.9311453E-001	2.1660764E+003	8.716819800443773E+001
-4.678235773520880E-001	-9.9489969E-001	-9.9511462E-001	2.1266558E+003	8.736819799938530E+001
-4.771000534177761E-001	-9.9689943E-001	-9.9711448E-001	2.0894976E+003	8.756819799433288E+001
-4.863233390790036E-001	-9.9890429E-001	-9.9911451E-001	2.0539922E+003	8.776819798928045E+001
-4.956825632610422E-001	-1.0009146E+000	-1.0011146E+000	2.0192653E+003	8.796819798422803E+001
-5.047685009294689E-001	-1.0029237E+000	-1.0031153E+000	1.9868984E+003	8.816829797917308E+001
-5.136485029736599E-001	-1.0049142E+000	-1.0051187E+000	1.9564238E+003	8.836869797411055E+001
-5.225547422964985E-001	-1.0069250E+000	-1.0071249E+000	1.9269272E+003	8.856929796904296E+001
-5.313488045269406E-001	-1.0089204E+000	-1.0091300E+000	1.8987911E+003	8.876979796397791E+001
-5.400578395492843E-001	-1.0109209E+000	-1.0111340E+000	1.8718752E+003	8.897019795891538E+001
-5.496020707920071E-001	-1.0129334E+000	-1.0131392E+000	1.8430305E+003	8.917069795385032E+001
-5.593886823771435E-001	-1.0149388E+000	-1.0151405E+000	1.8143715E+003	8.937079794879537E+001
-5.677295314113913E-001	-1.0169355E+000	-1.0171441E+000	1.7912323E+003	8.957119794373284E+001
-5.761496865989617E-001	-1.0189651E+000	-1.0191480E+000	1.7685770E+003	8.977159793867031E+001
-5.843662228212381E-001	-1.0209552E+000	-1.0211538E+000	1.7471154E+003	8.997219793360273E+001
-5.924980235181341E-001	-1.0229414E+000	-1.0231608E+000	1.7264890E+003	9.017289792853262E+001
-6.006734334924584E-001	-1.0249701E+000	-1.0251660E+000	1.7063682E+003	9.037339792346756E+001
-6.087091997712921E-001	-1.0269883E+000	-1.0271721E+000	1.6871575E+003	9.057399791839998E+001
-6.167338925338370E-001	-1.0289682E+000	-1.0291760E+000	1.6684153E+003	9.077439791333745E+001
-6.245320389759943E-001	-1.0309769E+000	-1.0311800E+000	1.6507991E+003	9.097479790827492E+001
-6.323789441488374E-001	-1.0329833E+000	-1.0331861E+000	1.6334878E+003	9.117539790320734E+001
-6.402173830405680E-001	-1.0350002E+000	-1.0351901E+000	1.6166387E+003	9.137579789814481E+001
-6.479701327093514E-001	-1.0369984E+000	-1.0371947E+000	1.6003799E+003	9.157629789307975E+001
-6.557279191915553E-001	-1.0390022E+000	-1.0392010E+000	1.5845020E+003	9.177689788801217E+001
-6.633796897318618E-001	-1.0410216E+000	-1.0412060E+000	1.5692697E+003	9.197739788294712E+001
-6.710529846019391E-001	-1.0430139E+000	-1.0432118E+000	1.5542944E+003	9.217799787787953E+001
-6.811605250582442E-001	-1.0450064E+000	-1.0452188E+000	1.5341559E+003	9.237869787280943E+001
-6.888701449718333E-001	-1.0470178E+000	-1.0472260E+000	1.5199059E+003	9.257939786773932E+001
-6.967149193234103E-001	-1.0490103E+000	-1.0492308E+000	1.5056521E+003	9.277989786267426E+001
-7.046907849238675E-001	-1.0510249E+000	-1.0512360E+000	1.4914696E+003	9.298039785760921E+001
-7.126699903483829E-001	-1.0530466E+000	-1.0532421E+000	1.4776075E+003	9.318099785254162E+001
-7.206718092916926E-001	-1.0550413E+000	-1.0552461E+000	1.4639691E+003	9.338139784747909E+001
-7.287983719687183E-001	-1.0570339E+000	-1.0572500E+000	1.4503790E+003	9.358179784241656E+001
-7.370307639286366E-001	-1.0590428E+000	-1.0592560E+000	1.4369045E+003	9.378239783734898E+001
-7.453890382580877E-001	-1.0610347E+000	-1.0612600E+000	1.4234642E+003	9.398279783228645E+001
-7.539331964241591E-001	-1.0630556E+000	-1.0632659E+000	1.4100131E+003	9.418339782721887E+001
-7.626242179858815E-001	-1.0650588E+000	-1.0652728E+000	1.3965709E+003	9.438409782214876E+001
-7.715698903878838E-001	-1.0670719E+000	-1.0672780E+000	1.3829880E+003	9.458459781708370E+001
-7.806626169522026E-001	-1.0690832E+000	-1.0692841E+000	1.3694562E+003	9.478519781201612E+001
-7.900989925575619E-001	-1.0710858E+000	-1.0712881E+000	1.3556350E+003	9.498559780695359E+001
-8.010630224560380E-001	-1.0730714E+000	-1.0732938E+000	1.3395592E+003	9.518619780188601E+001
-8.120699723932194E-001	-1.0750844E+000	-1.0753009E+000	1.3238816E+003	9.538689779681590E+001
-8.221791244173779E-001	-1.0770878E+000	-1.0773062E+000	1.3100403E+003	9.558739779175085E+001
-8.325100683209126E-001	-1.0790828E+000	-1.0793121E+000	1.2961799E+003	9.578799778668326E+001
-8.433037088612032E-001	-1.0810822E+000	-1.0813160E+000	1.2819607E+003	9.598839778162073E+001
-8.544528249228058E-001	-1.0830771E+000	-1.0833218E+000	1.2675680E+003	9.618899777655315E+001
-8.659723773448409E-001	-1.0850787E+000	-1.0853289E+000	1.2530177E+003	9.638969777148304E+001
-8.780158527143875E-001	-1.0871047E+000	-1.0873340E+000	1.2381378E+003	9.659019776641799E+001
-8.904900913249847E-001	-1.0891017E+000	-1.0893400E+000	1.2230363E+003	9.679079776135040E+001
-9.032971204876152E-001	-1.0911204E+000	-1.0913441E+000	1.2079308E+003	9.699119775628787E+001
-9.166459945989880E-001	-1.0930954E+000	-1.0933480E+000	1.1924946E+003	9.719159775122534E+001
-9.307767563680187E-001	-1.0951287E+000	-1.0953532E+000	1.1765750E+003	9.739209774616029E+001
-9.484474619685774E-001	-1.0971323E+000	-1.0973545E+000	1.1567666E+003	9.759219774110534E+001
-9.636607801030654E-001	-1.0991302E+000	-1.0993581E+000	1.1405779E+003	9.779259773604281E+001
-9.794517468634538E-001	-1.1011372E+000	-1.1013621E+000	1.1242383E+003	9.799299773098028E+001
-9.960321027533627E-001	-1.1031440E+000	-1.1033679E+000	1.1075387E+003	9.819359772591270E+001
-1.013269455314880E+000	-1.1051651E+000	-1.1053748E+000	1.0906923E+003	9.839429772084259E+001
-1.031178749459169E+000	-1.1071436E+000	-1.1073800E+000	1.0736680E+003	9.859479771577753E+001
-1.050079622421151E+000	-1.1091645E+000	-1.1093861E+000	1.0562670E+003	9.879539771070995E+001
-1.075180787237080E+000	-1.1112385E+000	-1.1114885E+000	1.0335364E+003	9.900569770539732E+001
-1.098955532545723E+000	-1.1133193E+000	-1.1135914E+000	1.0130704E+003	9.921589770008723E+001
-1.120616823444877E+000	-1.1153431E+000	-1.1155940E+000	9.9529388E+002	9.941619769502722E+001
-1.143423412334130E+000	-1.1173289E+000	-1.1176001E+000	9.7717859E+002	9.961679768995964E+001
-1.167382109082296E+000	-1.1193607E+000	-1.1196041E+000	9.5886401E+002	9.981719768489711E+001
-1.192660198473414E+000	-1.1213307E+000	-1.1216080E+000	9.4019299E+002	1.000175976798346E+002
-1.219056039391193E+000	-1.1233473E+000	-1.1236140E+000	9.2148944E+002	1.002181976747670E+002
-1.246773236650295E+000	-1.1253664E+000	-1.1256188E+000	9.0262323E+002	1.004186976697019E+002
-1.280813806496976E+000	-1.1273766E+000	-1.1276269E+000	8.8020331E+002	1.006194976646293E+002
-1.311699191001807E+000	-1.1293602E+000	-1.1296327E+000	8.6099023E+002	1.008200976595617E+002
-1.343947619269304E+000	-1.1313783E+000	-1.1316400E+000	8.4183215E+002	1.010207976544916E+002
-1.377784599051438E+000	-1.1333663E+000	-1.1336441E+000	8.2260052E+002	1.012211976494291E+002
-1.413703717716075E+000	-1.1353761E+000	-1.1356488E+000	8.0312170E+002	1.014216976443640E+002
-1.456688982001641E+000	-1.1373875E+000	-1.1376525E+000	7.8080328E+002	1.016219976393040E+002
-1.497705714713337E+000	-1.1394006E+000	-1.1396540E+000	7.6076398E+002	1.018221976342466E+002
-1.539820504015481E+000	-1.1413940E+000	-1.1416589E+000	7.4125134E+002	1.020226976291815E+002
-1.584221903458079E+000	-1.1434011E+000	-1.1436640E+000	7.2174304E+002	1.022231976241164E+002
-1.635099060669263E+000	-1.1453954E+000	-1.1456698E+000	7.0050519E+002	1.024237976190489E+002
-1.687228745933673E+000	-1.1474223E+000	-1.1476767E+000	6.8006329E+002	1.026244976139787E+002
-1.739481381677766E+000	-1.1494474E+000	-1.1496840E+000	6.6079895E+002	1.028251976089086E+002
-1.796852179245157E+000	-1.1514424E+000	-1.1516889E+000	6.4081085E+002	1.030256976038436E+002
-1.861300413302299E+000	-1.1534607E+000	-1.1536969E+000	6.1970691E+002	1.032264975987709E+002
-1.922517141115211E+000	-1.1554641E+000	-1.1557021E+000	6.0101624E+002	1.034269975937059E+002
-1.990553406655811E+000	-1.1574805E+000	-1.1577078E+000	5.8148676E+002	1.036275975886383E+002
-2.064257868492534E+000	-1.1594869E+000	-1.1597148E+000	5.6169672E+002	1.038282975835682E+002
-2.136439071956077E+000	-1.1614755E+000	-1.1617202E+000	5.4365021E+002	1.040287975785031E+002
-2.222432389821597E+000	-1.1634859E+000	-1.1637225E+000	5.2351917E+002	1.042289975734457E+002
-2.304179423919738E+000	-1.1655036E+000	-1.1657249E+000	5.0582156E+002	1.044292975683857E+002
-2.398599634028677E+000	-1.1675038E+000	-1.1677308E+000	4.8674393E+002	1.046298975633181E+002
-2.490208596695748E+000	-1.1694927E+000	-1.1697378E+000	4.6963644E+002	1.048305975582480E+002
-2.594680487720680E+000	-1.1715090E+000	-1.1717447E+000	4.5150415E+002	1.050312975531779E+002
-2.698544569233917E+000	-1.1735326E+000	-1.1737528E+000	4.3487613E+002	1.052320975481052E+002
-2.817697688476173E+000	-1.1755223E+000	-1.1757590E+000	4.1719250E+002	1.054326975430376E+002
-2.935171714627145E+000	-1.1775230E+000	-1.1777644E+000	4.0117688E+002	1.056331975379726E+002
-3.061736058911180E+000	-1.1795151E+000	-1.1797653E+000	3.8524390E+002	1.058332975329176E+002
-3.199046418665230E+000	-1.1815206E+000	-1.1817706E+000	3.6933524E+002	1.060338975278501E+002
-3.341944491524487E+000	-1.1835361E+000	-1.1837778E+000	3.5414594E+002	1.062345975227800E+002
-3.492117282733140E+000	-1.1855338E+000	-1.1857841E+000	3.3948853E+002	1.064351975177124E+002
-3.654751211748781E+000	-1.1875330E+000	-1.1877881E+000	3.2492856E+002	1.066355975126498E+002
-3.827253655679144E+000	-1.1895393E+000	-1.1897948E+000	3.1080756E+002	1.068362975075797E+002
-4.009630256745805E+000	-1.1915460E+000	-1.1918008E+000	2.9717102E+002	1.070368975025121E+002
-4.200530483938170E+000	-1.1935717E+000	-1.1938087E+000	2.8414786E+002	1.072376974974395E+002
-4.401158695916656E+000	-1.1955577E+000	-1.1958133E+000	2.7164612E+002	1.074380974923770E+002
-4.613314562872837E+000	-1.1975869E+000	-1.1978170E+000	2.5959360E+002	1.076384974873145E+002
-4.840510265491993E+000	-1.1995595E+000	-1.1998206E+000	2.4781674E+002	1.078387974822544E+002
-5.078497482261639E+000	-1.2015843E+000	-1.2018239E+000	2.3660233E+002	1.080391974771919E+002
-5.331692731534666E+000	-1.2035986E+000	-1.2038282E+000	2.2574419E+002	1.082395974721294E+002
-5.595862995810052E+000	-1.2055892E+000	-1.2058327E+000	2.1544295E+002	1.084400974670643E+002
-5.879335630417046E+000	-1.2076100E+000	-1.2078372E+000	2.0539906E+002	1.086404974620018E+002
-6.172777081949086E+000	-1.2096119E+000	-1.2098427E+000	1.9595911E+002	1.088410974569342E+002
-6.486417316939400E+000	-1.2116120E+000	-1.2118473E+000	1.8679218E+002	1.090414974518717E+002
-6.812613333569999E+000	-1.2136242E+000	-1.2138494E+000	1.7814371E+002	1.092416974468142E+002
-7.151783680431336E+000	-1.2156323E+000	-1.2158513E+000	1.6997610E+002	1.094418974417567E+002
-7.514501462454241E+000	-1.2176437E+000	-1.2178533E+000	1.6203918E+002	1.096420974366993E+002
-7.888441348417729E+000	-1.2196190E+000	-1.2198553E+000	1.5460837E+002	1.098422974316418E+002
-8.283334601646445E+000	-1.2216467E+000	-1.2218573E+000	1.4748247E+002	1.100424974265843E+002
-8.698395652209818E+000	-1.2236665E+000	-1.2238593E+000	1.4067728E+002	1.102426974215268E+002
-9.132615090549823E+000	-1.2256677E+000	-1.2258613E+000	1.3420775E+002	1.104428974164694E+002
-9.580490313108498E+000	-1.2276683E+000	-1.2278640E+000	1.2814253E+002	1.106431974114093E+002
-1.004617007372062E+001	-1.2296708E+000	-1.2298684E+000	1.2240195E+002	1.108435974063468E+002
-1.053107368409282E+001	-1.2316756E+000	-1.2318712E+000	1.1695632E+002	1.110438974012868E+002
-1.107962281830336E+001	-1.2337610E+000	-1.2339735E+000	1.1135406E+002	1.112540973959767E+002
-1.163817115134280E+001	-1.2358600E+000	-1.2360760E+000	1.0619022E+002	1.114643973906641E+002
-1.217998654864113E+001	-1.2378732E+000	-1.2380793E+000	1.0163174E+002	1.116646973856041E+002
-1.274949889037072E+001	-1.2398626E+000	-1.2400806E+000	9.7247948E+001	1.118647973805491E+002
-1.332563729615026E+001	-1.2418658E+000	-1.2420814E+000	9.3193726E+001	1.120648973754942E+002
-1.392489468670863E+001	-1.2438809E+000	-1.2440840E+000	8.9327850E+001	1.122651973704342E+002
-1.454506814825328E+001	-1.2458869E+000	-1.2460881E+000	8.5656998E+001	1.124655973653717E+002
-1.520753263697327E+001	-1.2478532E+000	-1.2480905E+000	8.2054939E+001	1.126657973603142E+002
-1.587126253954137E+001	-1.2498633E+000	-1.2500906E+000	7.8750084E+001	1.128657973552617E+002
-1.655532581465582E+001	-1.2518760E+000	-1.2520906E+000	7.5617722E+001	1.130657973502093E+002
-1.727209103630861E+001	-1.2538528E+000	-1.2540914E+000	7.2594154E+001	1.132658973451544E+002
-1.801638048232986E+001	-1.2558615E+000	-1.2560940E+000	6.9706650E+001	1.134661973400944E+002
-1.877830075645949E+001	-1.2578791E+000	-1.2580973E+000	6.6985779E+001	1.136664973350344E+002
-1.955228796063464E+001	-1.2598870E+000	-1.2600994E+000	6.4436806E+001	1.138666973299769E+002
-2.036878622492895E+001	-1.2618932E+000	-1.2621028E+000	6.1952301E+001	1.140670973249144E+002
-2.121290200516206E+001	-1.2638884E+000	-1.2641066E+000	5.9581116E+001	1.142673973198544E+002
-2.209898051261365E+001	-1.2659090E+000	-1.2661086E+000	5.7283592E+001	1.144675973147969E+002
-2.301709495441185E+001	-1.2678999E+000	-1.2681105E+000	5.5085140E+001	1.146677973097394E+002
-2.397757655330793E+001	-1.2698829E+000	-1.2701125E+000	5.2961269E+001	1.148679973046819E+002
-2.493506949968963E+001	-1.2719202E+000	-1.2721168E+000	5.1009289E+001	1.150684972996169E+002
-2.597226243171463E+001	-1.2739067E+000	-1.2741214E+000	4.9048740E+001	1.152688972945543E+002
-2.700397756175391E+001	-1.2759141E+000	-1.2761226E+000	4.7249115E+001	1.154689972894994E+002
-2.806176580978517E+001	-1.2779131E+000	-1.2781234E+000	4.5539299E+001	1.156690972844444E+002
-2.926884726122421E+001	-1.2799150E+000	-1.2801255E+000	4.3729599E+001	1.158692972793870E+002
-3.036551621804784E+001	-1.2819289E+000	-1.2821274E+000	4.2216602E+001	1.160694972743295E+002
-3.148150176344654E+001	-1.2839220E+000	-1.2841301E+000	4.0783379E+001	1.162697972692695E+002
-3.271295640539631E+001	-1.2859191E+000	-1.2861333E+000	3.9309166E+001	1.164700972642095E+002
-3.392781574738069E+001	-1.2879313E+000	-1.2881360E+000	3.7960926E+001	1.166703972591495E+002
-3.520257871289209E+001	-1.2899557E+000	-1.2901412E+000	3.6643784E+001	1.168708972540844E+002
-3.649013623818257E+001	-1.2919621E+000	-1.2921425E+000	3.5405792E+001	1.170709972490295E+002
-3.796702979965427E+001	-1.2939612E+000	-1.2941453E+000	3.4081181E+001	1.172712972439695E+002
-3.932404221666923E+001	-1.2959613E+000	-1.2961500E+000	3.2955952E+001	1.174717972389044E+002
-4.065504928435547E+001	-1.2979670E+000	-1.2981541E+000	3.1926340E+001	1.176721972338419E+002
-4.213193593479065E+001	-1.2999865E+000	-1.3001573E+000	3.0855133E+001	1.178724972287819E+002
-4.374485740809709E+001	-1.3019830E+000	-1.3021619E+000	2.9763109E+001	1.180729972237168E+002
-4.542818387593616E+001	-1.3039839E+000	-1.3041674E+000	2.8704294E+001	1.182734972186518E+002
-4.692259336380880E+001	-1.3059851E+000	-1.3061694E+000	2.7832756E+001	1.184736972135943E+002
-4.845499225736762E+001	-1.3079996E+000	-1.3081714E+000	2.6994114E+001	1.186738972085368E+002
-5.011347399183342E+001	-1.3099875E+000	-1.3101734E+000	2.6140427E+001	1.188740972034793E+002
-5.182338206943791E+001	-1.3119884E+000	-1.3121753E+000	2.5316532E+001	1.190742971984218E+002
-5.363929565772060E+001	-1.3140019E+000	-1.3141781E+000	2.4497002E+001	1.192745971933618E+002
-5.556345641924474E+001	-1.3159925E+000	-1.3161820E+000	2.3684496E+001	1.194749971882993E+002
-5.751294886831363E+001	-1.3180097E+000	-1.3181885E+000	2.2916748E+001	1.196756971832292E+002
-5.935850631191840E+001	-1.3200300E+000	-1.3201947E+000	2.2238262E+001	1.198762971781616E+002
-6.121899517318047E+001	-1.3220396E+000	-1.3222028E+000	2.1595251E+001	1.200770971730890E+002
-6.321102314268649E+001	-1.3240210E+000	-1.3242073E+000	2.0946045E+001	1.202774971680265E+002
-6.539741001361949E+001	-1.3260334E+000	-1.3262101E+000	2.0276543E+001	1.204777971629665E+002
-6.765606833639629E+001	-1.3280336E+000	-1.3282126E+000	1.9629187E+001	1.206779971579090E+002
-6.989398233986651E+001	-1.3300356E+000	-1.3302133E+000	1.9029329E+001	1.208780971528540E+002
-7.187098659944522E+001	-1.3320318E+000	-1.3322160E+000	1.8533651E+001	1.210783971477940E+002
-7.406381978441541E+001	-1.3340489E+000	-1.3342204E+000	1.8012154E+001	1.212787971427315E+002
-7.610636033980757E+001	-1.3360491E+000	-1.3362212E+000	1.7555025E+001	1.214788971376765E+002
-7.834546156626698E+001	-1.3380402E+000	-1.3382233E+000	1.7078720E+001	1.216790971326191E+002
-8.080408295712175E+001	-1.3400522E+000	-1.3402270E+000	1.6583967E+001	1.218794971275565E+002
-8.302020121271835E+001	-1.3420323E+000	-1.3422321E+000	1.6165129E+001	1.220799971224915E+002
-8.516789857438346E+001	-1.3440534E+000	-1.3442346E+000	1.5781220E+001	1.222801971174340E+002
-8.734362726342829E+001	-1.3460488E+000	-1.3462354E+000	1.5410956E+001	1.224802971123790E+002
-8.960777701047209E+001	-1.3480712E+000	-1.3482380E+000	1.5044132E+001	1.226805971073190E+002
-9.210423908679206E+001	-1.3500779E+000	-1.3502438E+000	1.4658152E+001	1.228811971022515E+002
-9.460085304005568E+001	-1.3520762E+000	-1.3522508E+000	1.4292431E+001	1.230818970971814E+002
-9.823428132994536E+001	-1.3541121E+000	-1.3542560E+000	1.3784517E+001	1.232823970921163E+002
-1.012032291690630E+002	-1.3560839E+000	-1.3562610E+000	1.3399611E+001	1.234828970870512E+002
-1.040242362314671E+002	-1.3581022E+000	-1.3582654E+000	1.3055633E+001	1.236832970819887E+002
-1.068495278490007E+002	-1.3601037E+000	-1.3602681E+000	1.2729151E+001	1.238835970769287E+002
-1.102033582706608E+002	-1.3621973E+000	-1.3623713E+000	1.2360760E+001	1.240938970716161E+002
-1.141537348057150E+002	-1.3642920E+000	-1.3644760E+000	1.1951357E+001	1.243043970662984E+002
-1.167723200649602E+002	-1.3663120E+000	-1.3664807E+000	1.1700650E+001	1.245048970612334E+002
-1.196270715123567E+002	-1.3682964E+000	-1.3684863E+000	1.1438016E+001	1.247053970561683E+002
-1.217140993155795E+002	-1.3702792E+000	-1.3704873E+000	1.1258180E+001	1.249054970511133E+002
-1.242345291260958E+002	-1.3723165E+000	-1.3724904E+000	1.1046176E+001	1.251057970460533E+002
-1.275145756500915E+002	-1.3743156E+000	-1.3744906E+000	1.0777714E+001	1.253057970410009E+002
-1.308113898125234E+002	-1.3763174E+000	-1.3764939E+000	1.0521388E+001	1.255061970359384E+002
-1.336400788264691E+002	-1.3783162E+000	-1.3784993E+000	1.0313643E+001	1.257066970308733E+002
-1.364749490465229E+002	-1.3803192E+000	-1.3805014E+000	1.0114085E+001	1.259068970258159E+002
-1.387155601066170E+002	-1.3823259E+000	-1.3825047E+000	9.9651823E+000	1.261072970207533E+002
-1.424039775751066E+002	-1.3843350E+000	-1.3845118E+000	9.7211828E+000	1.263079970156832E+002
-1.451373431936685E+002	-1.3863428E+000	-1.3865145E+000	9.5519371E+000	1.265081970106257E+002
-1.490130633572605E+002	-1.3883365E+000	-1.3885146E+000	9.3168783E+000	1.267081970055733E+002
-1.519241930498656E+002	-1.3903476E+000	-1.3905180E+000	9.1515875E+000	1.269085970005108E+002
-1.543052996795893E+002	-1.3923472E+000	-1.3925214E+000	9.0233269E+000	1.271088969954508E+002
-1.575409720136122E+002	-1.3943560E+000	-1.3945248E+000	8.8507519E+000	1.273092969903882E+002
-1.611007701734520E+002	-1.3963567E+000	-1.3965304E+000	8.6675978E+000	1.275097969853232E+002
-1.635329555493934E+002	-1.3983673E+000	-1.3985313E+000	8.5509815E+000	1.277098969802682E+002
-1.667386927874992E+002	-1.4004028E+000	-1.4005326E+000	8.3987875E+000	1.279099969752133E+002
-1.706669206642446E+002	-1.4023916E+000	-1.4025341E+000	8.2171259E+000	1.281101969701558E+002
-1.742669377964576E+002	-1.4043885E+000	-1.4045392E+000	8.0588350E+000	1.283106969650908E+002
-1.778257314020741E+002	-1.4063795E+000	-1.4065412E+000	7.9087510E+000	1.285108969600333E+002
-1.804498586599542E+002	-1.4083989E+000	-1.4085467E+000	7.8049321E+000	1.287114969549657E+002
-1.835618201563871E+002	-1.4103950E+000	-1.4105513E+000	7.6834879E+000	1.289118969499032E+002
-1.877349294221322E+002	-1.4123976E+000	-1.4125526E+000	7.5233607E+000	1.291119969448482E+002
-1.902599400429203E+002	-1.4144045E+000	-1.4145536E+000	7.4340639E+000	1.293120969397933E+002
-1.946090448795412E+002	-1.4164152E+000	-1.4165561E+000	7.2782598E+000	1.295123969347333E+002
-1.973339596181750E+002	-1.4184253E+000	-1.4185594E+000	7.1879435E+000	1.297126969296733E+002
-1.993106379508974E+002	-1.4204174E+000	-1.4205606E+000	7.1266513E+000	1.299127969246183E+002
-2.060896392917416E+002	-1.4224246E+000	-1.4225605E+000	6.9019704E+000	1.301127969195659E+002
-2.112200559151324E+002	-1.4244388E+000	-1.4245613E+000	6.7438617E+000	1.303128969145109E+002
-2.141328277198387E+002	-1.4264294E+000	-1.4265642E+000	6.6614232E+000	1.305131969094509E+002
-2.167089001554295E+002	-1.4281334E+000	-1.4282693E+000	6.5901003E+000	1.306837969051412E+002
-2.187979609456220E+002	-1.4293441E+000	-1.4294771E+000	6.5327120E+000	1.308045969020895E+002
-2.205407404792352E+002	-1.4306619E+000	-1.4307828E+000	6.4870639E+000	1.309351968987903E+002
-2.222286332958811E+002	-1.4318352E+000	-1.4319891E+000	6.4430723E+000	1.310557968957437E+002
-2.254755337720981E+002	-1.4330580E+000	-1.4331973E+000	6.3557138E+000	1.311765968926920E+002
-2.276020758741788E+002	-1.4344640E+000	-1.4346039E+000	6.3025084E+000	1.313172968891377E+002
-2.289129993655611E+002	-1.4356607E+000	-1.4358083E+000	6.2716436E+000	1.314376968860961E+002
-2.307635645241098E+002	-1.4369851E+000	-1.4371120E+000	6.2270885E+000	1.315680968828019E+002
-2.319007314141954E+002	-1.4379896E+000	-1.4381226E+000	6.2008843E+000	1.316691968802479E+002
-2.349557032153070E+002	-1.4391016E+000	-1.4392331E+000	6.1249909E+000	1.317801968774438E+002
-2.381528988622540E+002	-1.4405061E+000	-1.4406406E+000	6.0486608E+000	1.319208968738894E+002
-2.408074794325467E+002	-1.4417173E+000	-1.4418474E+000	5.9870119E+000	1.320415968708403E+002
-2.438394673673197E+002	-1.4428297E+000	-1.4429562E+000	5.9171295E+000	1.321524968680387E+002
-2.454118833164202E+002	-1.4442263E+000	-1.4443612E+000	5.8849077E+000	1.322929968644894E+002
-2.471257866559999E+002	-1.4455256E+000	-1.4456673E+000	5.8493519E+000	1.324235968611902E+002
-2.483652226221577E+002	-1.4468318E+000	-1.4469748E+000	5.8254204E+000	1.325543968578859E+002
-2.496194117902253E+002	-1.4480207E+000	-1.4481831E+000	5.8009138E+000	1.326751968548342E+002
-2.525811397549132E+002	-1.4494385E+000	-1.4495893E+000	5.7385063E+000	1.328157968512824E+002
-2.551186647521308E+002	-1.4508511E+000	-1.4509965E+000	5.6869655E+000	1.329564968477280E+002
-2.567865056462233E+002	-1.4521648E+000	-1.4523004E+000	5.6551442E+000	1.330868968444338E+002
-2.580297479386854E+002	-1.4532728E+000	-1.4534073E+000	5.6321912E+000	1.331975968416373E+002
-2.598072718404073E+002	-1.4542549E+000	-1.4544159E+000	5.5974369E+000	1.332984968390883E+002
-2.631316315721706E+002	-1.4553726E+000	-1.4555250E+000	5.5309677E+000	1.334093968362868E+002
-2.664332528913060E+002	-1.4567080E+000	-1.4568323E+000	5.4674406E+000	1.335400968329850E+002
-2.674650271605093E+002	-1.4580175E+000	-1.4581414E+000	5.4512453E+000	1.336709968296782E+002
-2.682914013985937E+002	-1.4593139E+000	-1.4594463E+000	5.4392867E+000	1.338014968263815E+002
-2.722900173923908E+002	-1.4605095E+000	-1.4606532E+000	5.3638015E+000	1.339221968233323E+002
-2.744542007677901E+002	-1.4616003E+000	-1.4617590E+000	5.3254800E+000	1.340327968205384E+002
-2.761640502292476E+002	-1.4628360E+000	-1.4629669E+000	5.2969823E+000	1.341534968174892E+002
-2.798222266601051E+002	-1.4640462E+000	-1.4641749E+000	5.2320585E+000	1.342743968144350E+002
-2.828401868377709E+002	-1.4653500E+000	-1.4654834E+000	5.1808410E+000	1.344051968111307E+002
-2.859655034479465E+002	-1.4668717E+000	-1.4669906E+000	5.1295409E+000	1.345558968073237E+002
-2.907362992104627E+002	-1.4682660E+000	-1.4683976E+000	5.0501642E+000	1.346966968037668E+002
-2.928487532029884E+002	-1.4693805E+000	-1.4695071E+000	5.0175405E+000	1.348075968009653E+002
-2.940609064814771E+002	-1.4707971E+000	-1.4709119E+000	5.0016751E+000	1.349480967974159E+002
-2.952321086701113E+002	-1.4719149E+000	-1.4720207E+000	4.9856191E+000	1.350588967946169E+002
-2.963403947981221E+002	-1.4732076E+000	-1.4733255E+000	4.9713359E+000	1.351893967913202E+002
-2.985565506016227E+002	-1.4744129E+000	-1.4745301E+000	4.9384713E+000	1.353098967882761E+002
-2.994893649257519E+002	-1.4756331E+000	-1.4757353E+000	4.9271636E+000	1.354303967852320E+002
-3.008162016829328E+002	-1.4768211E+000	-1.4769408E+000	4.9093800E+000	1.355509967821854E+002
-3.026695833277877E+002	-1.4779540E+000	-1.4780493E+000	4.8830609E+000	1.356617967793864E+002
-3.047228104951448E+002	-1.4791652E+000	-1.4792570E+000	4.8541336E+000	1.357825967763347E+002
-3.071043056469480E+002	-1.4802707E+000	-1.4803677E+000	4.8200912E+000	1.358936967735281E+002
-3.089424006013733E+002	-1.4815769E+000	-1.4816765E+000	4.7956414E+000	1.360244967702238E+002
-3.114645245496549E+002	-1.4830849E+000	-1.4831824E+000	4.7616496E+000	1.361750967664193E+002
-3.137045929205456E+002	-1.4844960E+000	-1.4845881E+000	4.7321463E+000	1.363156967628674E+002
-3.167587372565167E+002	-1.4857945E+000	-1.4858971E+000	4.6906190E+000	1.364465967595606E+002
-3.188005141651479E+002	-1.4871050E+000	-1.4872025E+000	4.6646881E+000	1.365770967562639E+002
-3.218334049899346E+002	-1.4880950E+000	-1.4882101E+000	4.6238055E+000	1.366778967537175E+002
-3.272742115982892E+002	-1.4889903E+000	-1.4891169E+000	4.5496721E+000	1.367685967514262E+002
-3.276933557758221E+002	-1.4904151E+000	-1.4905212E+000	4.5482006E+000	1.369089967478794E+002
-3.299195923802840E+002	-1.4918340E+000	-1.4919285E+000	4.5218110E+000	1.370496967443250E+002
-3.353923753587951E+002	-1.4930182E+000	-1.4931370E+000	4.4515567E+000	1.371705967412709E+002
-3.401258034714156E+002	-1.4944555E+000	-1.4945437E+000	4.3938313E+000	1.373111967377190E+002
-3.414528417361225E+002	-1.4958642E+000	-1.4959474E+000	4.3808808E+000	1.374515967341722E+002
-3.425732033243612E+002	-1.4970471E+000	-1.4971539E+000	4.3700066E+000	1.375721967311256E+002
-3.435540048607991E+002	-1.4985615E+000	-1.4986589E+000	4.3619385E+000	1.377227967273211E+002
-3.459623296396740E+002	-1.4997842E+000	-1.4998682E+000	4.3351083E+000	1.378436967242669E+002
-3.485737581729115E+002	-1.5012240E+000	-1.5012742E+000	4.3067613E+000	1.379842967207151E+002
-3.499895093145592E+002	-1.5027204E+000	-1.5027790E+000	4.2936153E+000	1.381346967169156E+002
-3.519739890079209E+002	-1.5041164E+000	-1.5041859E+000	4.2733736E+000	1.382754967133587E+002
-3.561797328118546E+002	-1.5052376E+000	-1.5052968E+000	4.2260618E+000	1.383865967105521E+002
-3.595835117208335E+002	-1.5065279E+000	-1.5066030E+000	4.1896467E+000	1.385171967072529E+002
-3.613298898160892E+002	-1.5073380E+000	-1.5074158E+000	4.1716394E+000	1.385984967051991E+002
-3.616745914852928E+002	-1.5080758E+000	-1.5081288E+000	4.1697035E+000	1.386697967033979E+002
-3.632370185905675E+002	-1.5092887E+000	-1.5093375E+000	4.1551070E+000	1.387905967003462E+002
-3.659255074677303E+002	-1.5109031E+000	-1.5109434E+000	4.1289911E+000	1.389511966962891E+002
-3.699579297058463E+002	-1.5122902E+000	-1.5123504E+000	4.0877357E+000	1.390918966927347E+002
-3.731602649957185E+002	-1.5133903E+000	-1.5134557E+000	4.0556040E+000	1.392024966899407E+002
-3.742621278311562E+002	-1.5147121E+000	-1.5147611E+000	4.0471959E+000	1.393329966866440E+002
-3.754322466962731E+002	-1.5160173E+000	-1.5160673E+000	4.0380583E+000	1.394635966833448E+002
-3.799117024104216E+002	-1.5173224E+000	-1.5173743E+000	3.9938817E+000	1.395942966800430E+002
-3.801047874139285E+002	-1.5188305E+000	-1.5188816E+000	3.9958205E+000	1.397449966762360E+002
-3.829449596945124E+002	-1.5203241E+000	-1.5203850E+000	3.9700851E+000	1.398953966724366E+002
-3.857401800472494E+002	-1.5217084E+000	-1.5217927E+000	3.9449050E+000	1.400360966688822E+002
-3.866958012295715E+002	-1.5230262E+000	-1.5230981E+000	3.9385641E+000	1.401666966655830E+002
-3.878665908122466E+002	-1.5242307E+000	-1.5243045E+000	3.9297810E+000	1.402872966625364E+002
-3.906988381111105E+002	-1.5255368E+000	-1.5256076E+000	3.9046361E+000	1.404175966592447E+002
-3.928266107482814E+002	-1.5266328E+000	-1.5267148E+000	3.8862765E+000	1.405283966564457E+002
-3.940887438192116E+002	-1.5278518E+000	-1.5279223E+000	3.8769233E+000	1.406490966533966E+002
-3.973589386694739E+002	-1.5291537E+000	-1.5292276E+000	3.8482933E+000	1.407795966500998E+002
-4.034874825991105E+002	-1.5306723E+000	-1.5307325E+000	3.7936056E+000	1.409300966462979E+002
-4.083453455082072E+002	-1.5319742E+000	-1.5320406E+000	3.7516632E+000	1.410609966429911E+002
-4.098006103209927E+002	-1.5334910E+000	-1.5335444E+000	3.7420418E+000	1.412112966391942E+002
-4.101429538283446E+002	-1.5351858E+000	-1.5352488E+000	3.7430506E+000	1.413816966348895E+002
-4.107350188516916E+002	-1.5369173E+000	-1.5369532E+000	3.7418706E+000	1.415521966305823E+002
-4.128112623385587E+002	-1.5381348E+000	-1.5381613E+000	3.7260001E+000	1.416729966275307E+002
-4.157514832202442E+002	-1.5391028E+000	-1.5391699E+000	3.7019780E+000	1.417738966249817E+002
-4.156959042627113E+002	-1.5404363E+000	-1.5404757E+000	3.7056806E+000	1.419043966216850E+002
-4.164848213708028E+002	-1.5419241E+000	-1.5419782E+000	3.7022336E+000	1.420546966178881E+002
-4.196234656047727E+002	-1.5431318E+000	-1.5431826E+000	3.6774201E+000	1.421750966148466E+002
-4.214436974569330E+002	-1.5441357E+000	-1.5441895E+000	3.6639192E+000	1.422757966123027E+002
-4.215866601051430E+002	-1.5454533E+000	-1.5454943E+000	3.6658022E+000	1.424062966090059E+002
-4.232007543896507E+002	-1.5467618E+000	-1.5468009E+000	3.6549125E+000	1.425369966057042E+002
-4.241059112995308E+002	-1.5477425E+000	-1.5478078E+000	3.6494246E+000	1.426376966031603E+002
-4.259785184675275E+002	-1.5491734E+000	-1.5492117E+000	3.6367404E+000	1.427779965996160E+002
-4.314091435813689E+002	-1.5504757E+000	-1.5505189E+000	3.5939798E+000	1.429087965963117E+002
-4.349956164735013E+002	-1.5516582E+000	-1.5517269E+000	3.5670662E+000	1.430295965932601E+002
-4.379957739818947E+002	-1.5527838E+000	-1.5528344E+000	3.5452027E+000	1.431402965904635E+002
-4.389017554872307E+002	-1.5541060E+000	-1.5541412E+000	3.5408971E+000	1.432709965871618E+002
-4.395554775448852E+002	-1.5554996E+000	-1.5555475E+000	3.5388014E+000	1.434115965836099E+002
-4.417225337780768E+002	-1.5568000E+000	-1.5568527E+000	3.5243845E+000	1.435420965803132E+002
-4.432143193974434E+002	-1.5582216E+000	-1.5582559E+000	3.5157294E+000	1.436823965767690E+002
-4.439003194302913E+002	-1.5600098E+000	-1.5600584E+000	3.5143247E+000	1.438625965722167E+002
-4.467763824898038E+002	-1.5616995E+000	-1.5617597E+000	3.4954836E+000	1.440327965679171E+002
-4.525046034491556E+002	-1.5634105E+000	-1.5634611E+000	3.4550157E+000	1.442028965636200E+002
-4.573563439582913E+002	-1.5650010E+000	-1.5650607E+000	3.4218416E+000	1.443628965595781E+002
-4.626848671397602E+002	-1.5666101E+000	-1.5666630E+000	3.3859117E+000	1.445230965555311E+002
-4.630279805204905E+002	-1.5680320E+000	-1.5680660E+000	3.3864737E+000	1.446634965519843E+002
-4.644600570359762E+002	-1.5694159E+000	-1.5694722E+000	3.3790116E+000	1.448039965484350E+002
-4.685714673883940E+002	-1.5711333E+000	-1.5711743E+000	3.3530281E+000	1.449741965441353E+002
-4.698429132669289E+002	-1.5728581E+000	-1.5728741E+000	3.3476255E+000	1.451441965398408E+002
-4.729200413266642E+002	-1.5745355E+000	-1.5745741E+000	3.3293905E+000	1.453141965355462E+002
-4.792936692372368E+002	-1.5762624E+000	-1.5762739E+000	3.2887194E+000	1.454841965312517E+002
-4.813360452461511E+002	-1.5778692E+000	-1.5778750E+000	3.2781031E+000	1.456442965272072E+002
-4.846910906123976E+002	-1.5794677E+000	-1.5794768E+000	3.2587099E+000	1.458044965231602E+002
-4.869751998679058E+002	-1.5810735E+000	-1.5810802E+000	3.2467229E+000	1.459647965191107E+002
-4.870598588301491E+002	-1.5823842E+000	-1.5823865E+000	3.2488496E+000	1.460954965158089E+002
-4.894891760359478E+002	-1.5838876E+000	-1.5838888E+000	3.2357969E+000	1.462456965120145E+002
-4.943211334928744E+002	-1.5854875E+000	-1.5854911E+000	3.2074039E+000	1.464058965079676E+002
-4.954698711155779E+002	-1.5870225E+000	-1.5869935E+000	3.2030656E+000	1.465561965041707E+002
-4.996803710012518E+002	-1.5883024E+000	-1.5882989E+000	3.1786368E+000	1.466866965008740E+002
-5.017549328427722E+002	-1.5900257E+000	-1.5900002E+000	3.1689289E+000	1.468567964965769E+002
-5.013360077742200E+002	-1.5917145E+000	-1.5917001E+000	3.1749456E+000	1.470267964922823E+002
-5.031445548830602E+002	-1.5930916E+000	-1.5931016E+000	3.1662703E+000	1.471669964887406E+002
-5.125883295970889E+002	-1.5946176E+000	-1.5946040E+000	3.1109128E+000	1.473171964849462E+002
-5.145981992783245E+002	-1.5960072E+000	-1.5960059E+000	3.1014628E+000	1.474574964814019E+002
-5.159270683087311E+002	-1.5973997E+000	-1.5974103E+000	3.0961735E+000	1.475978964778551E+002
-5.206249377971707E+002	-1.5988201E+000	-1.5988146E+000	3.0709634E+000	1.477382964743083E+002
-5.223530118114213E+002	-1.6003228E+000	-1.6003201E+000	3.0636806E+000	1.478887964705064E+002
-5.252676220995672E+002	-1.6019229E+000	-1.6019216E+000	3.0497270E+000	1.480489964664594E+002
-5.248687250132589E+002	-1.6031348E+000	-1.6031274E+000	3.0543537E+000	1.481694964634153E+002
-5.285817989857032E+002	-1.6045290E+000	-1.6045308E+000	3.0355358E+000	1.483098964598685E+002
-5.357340959458325E+002	-1.6061499E+000	-1.6061321E+000	2.9980357E+000	1.484699964558240E+002
-5.426547489236473E+002	-1.6075271E+000	-1.6075335E+000	2.9623387E+000	1.486101964522823E+002
-5.457750461121650E+002	-1.6092497E+000	-1.6092342E+000	2.9485586E+000	1.487801964479877E+002
-5.487201609838576E+002	-1.6111486E+000	-1.6111344E+000	2.9361935E+000	1.489701964431879E+002
-5.507078216905447E+002	-1.6129345E+000	-1.6129348E+000	2.9288390E+000	1.491502964386382E+002
-5.541905263943900E+002	-1.6145473E+000	-1.6145369E+000	2.9133432E+000	1.493104964345912E+002
-5.568368369135878E+002	-1.6160394E+000	-1.6160393E+000	2.9021776E+000	1.494607964307943E+002
-5.586091282038985E+002	-1.6173753E+000	-1.6173447E+000	2.8953614E+000	1.495913964274951E+002
-5.589602077149791E+002	-1.6186655E+000	-1.6186521E+000	2.8958509E+000	1.497219964241958E+002
-5.605033754094420E+002	-1.6203650E+000	-1.6203519E+000	2.8909104E+000	1.498919964199013E+002
-5.629128815720669E+002	-1.6216813E+000	-1.6216559E+000	2.8808744E+000	1.500223964166071E+002
-5.708754471759403E+002	-1.6224515E+000	-1.6224561E+000	2.8420413E+000	1.501025964145811E+002
-5.723339686239924E+002	-1.6227136E+000	-1.6226580E+000	2.8352563E+000	1.501189964141668E+002