EC-Lab ASCII FILE
Nb header lines : 63                          

Linear Sweep Voltammetry

Run on channel : 1 (SN 1340)
User : 
Electrode connection : standard
Potential control : Ewe
Ewe ctrl range : min = -5.00 V, max = 10.00 V
Ewe,I filtering : <None>
Safety Limits :
	Do not start on E overload
Channel : Floating
Acquisition started on : 03/05/2026 12:03:58.970
Technique started on : 03/05/2026 12:04:01.807
Loaded Setting File :  NONE
Saved on :
	File : Pt_N52magA_flat_3-5_02_LSV_C01.mpr
	Directory : C:\Users\volt\Documents\Platalytix\
	Host : 127.0.0.1
Device : SP-200 (SN 0262)
Address : USB
EC-LAB for windows v11.60 (software)
Internet server v11.60 (firmware)
Command interpretor v11.60 (firmware)
Electrode material : Pt
Initial state : 
Electrolyte : KOH (1 M)
Comments : N52 disk magnet, A side up (+), flat orientation
Cable : standard
Reference electrode : Hg/HgO (0.140 V)
Electrode surface area : 1.000 cm˛
Characteristic mass : 0.001 g
Equivalent Weight : 0.000 g/eq.
Density : 0.000 g/cm3
Volume (V) : 0.001 cmł
Cycle Definition : Charge/Discharge alternance
tR (h:m:s)          0:00:5.0000         
dER/dt (mV/h)       0.0                 
dER (mV)            0                   
dtR (s)             0.0000              
dE/dt               10.000              
dE/dt unit          mV/s                
Ei (V)              -0.200              
vs.                 Ref                 
EL (V)              -2.500              
vs.                 Ref                 
record              <I>                 
dI                  0.000               
unit dI             µA                  
tI (s)              0.0000              
step percent        50                  
N                   10                  
E range min (V)     -5.000              
E range max (V)     10.000              
I Range             Auto                
I Range min         Unset               
I Range max         Unset               
I Range init        Unset               
Bandwidth           8                   

Rwe/Ohm	time/s	Ewe/V	<I>/mA	Pwe/W	control/V	error	
0.0000000E+000	2.837400134740165E+000	-1.8122321E-001	0.000000000000000E+000	0.0000000E+000	0.0000000E+000	0
0.0000000E+000	7.837200008434593E+000	-2.1154899E-002	0.000000000000000E+000	0.0000000E+000	-1.9975121E-001	0
2.0679457E+002	8.017400003882358E+000	-2.0062591E-001	-9.701700806617737E-001	1.9464125E-004	-2.0140091E-001	0
1.1888472E+003	8.197599999330123E+000	-2.0318285E-001	-1.709074521753188E-001	3.4725461E-005	-2.0320444E-001	0
1.5750433E+003	8.512399991377606E+000	-2.0628954E-001	-1.309738880379552E-001	2.7018543E-005	-2.0635225E-001	0
1.8236871E+003	8.812399983798969E+000	-2.0930089E-001	-1.147679789137499E-001	2.4021041E-005	-2.0935248E-001	0
2.0181671E+003	9.112399976220331E+000	-2.1230772E-001	-1.051982879537513E-001	2.2334409E-005	-2.1235250E-001	0
2.1844006E+003	9.412399968641694E+000	-2.1528089E-001	-9.855375572943548E-002	2.1216740E-005	-2.1535249E-001	0
2.3332554E+003	9.712399961063056E+000	-2.1827057E-001	-9.354765994645020E-002	2.0418702E-005	-2.1835248E-001	0
2.4873037E+003	1.001239995348442E+001	-2.2127807E-001	-8.896302564391623E-002	1.9685567E-005	-2.2135249E-001	0
2.6197649E+003	1.031239994590578E+001	-2.2429609E-001	-8.561688063259176E-002	1.9203531E-005	-2.2435203E-001	0
2.7410022E+003	1.061239993832714E+001	-2.2728610E-001	-8.292080412180847E-002	1.8846746E-005	-2.2735250E-001	0
2.8571257E+003	1.091239993074851E+001	-2.3028214E-001	-8.059923325544754E-002	1.8560564E-005	-2.3035248E-001	0
2.9671055E+003	1.121239992316987E+001	-2.3331381E-001	-7.863347700372580E-002	1.8346276E-005	-2.3335248E-001	0
3.0771082E+003	1.151239991559123E+001	-2.3630437E-001	-7.679430377509003E-002	1.8146829E-005	-2.3635247E-001	0
3.1803540E+003	1.181239990801259E+001	-2.3928474E-001	-7.523839667234267E-002	1.8003400E-005	-2.3935248E-001	0
3.2858701E+003	1.211239990043396E+001	-2.4229036E-001	-7.373704830906946E-002	1.7865776E-005	-2.4235228E-001	0
3.3832678E+003	1.241239989285532E+001	-2.4531864E-001	-7.250937532627355E-002	1.7787901E-005	-2.4535246E-001	0
3.4855422E+003	1.271239988527668E+001	-2.4833195E-001	-7.124628885340201E-002	1.7692730E-005	-2.4835248E-001	0
3.5860408E+003	1.301239987769804E+001	-2.5130773E-001	-7.007943892727997E-002	1.7611505E-005	-2.5135252E-001	0
3.6786917E+003	1.331239987011941E+001	-2.5427800E-001	-6.912185981895083E-002	1.7576169E-005	-2.5435269E-001	0
3.7743179E+003	1.361239986254077E+001	-2.5729287E-001	-6.816937009877999E-002	1.7539493E-005	-2.5735247E-001	0
3.8772432E+003	1.391239985496213E+001	-2.6030973E-001	-6.713784007441737E-002	1.7476632E-005	-2.6035270E-001	0
3.9684460E+003	1.421249984738097E+001	-2.6331112E-001	-6.635118825705733E-002	1.7471006E-005	-2.6335356E-001	0
4.0631367E+003	1.451249983980233E+001	-2.6629874E-001	-6.554018591503574E-002	1.7453269E-005	-2.6635358E-001	0
4.1571948E+003	1.481249983222369E+001	-2.6933041E-001	-6.478657094463247E-002	1.7448994E-005	-2.6935357E-001	0
4.2537827E+003	1.511239982464758E+001	-2.7234304E-001	-6.402372858172978E-002	1.7436418E-005	-2.7235273E-001	0
4.3442446E+003	1.541249981706642E+001	-2.7531955E-001	-6.337570389852415E-002	1.7448570E-005	-2.7535355E-001	0
4.4354795E+003	1.571259980948525E+001	-2.7829319E-001	-6.274252438166428E-002	1.7460818E-005	-2.7835447E-001	0
4.5225005E+003	1.601249980190914E+001	-2.8132695E-001	-6.220606193075917E-002	1.7500242E-005	-2.8135359E-001	0
4.6200986E+003	1.631249979433051E+001	-2.8433672E-001	-6.154343156300129E-002	1.7499056E-005	-2.8435358E-001	0
4.7117651E+003	1.661249978675187E+001	-2.8732035E-001	-6.097934174684549E-002	1.7520606E-005	-2.8735363E-001	0
4.7984385E+003	1.691249977917323E+001	-2.9034171E-001	-6.050754070308639E-002	1.7567863E-005	-2.9035383E-001	0
4.9015000E+003	1.721239977159712E+001	-2.9331115E-001	-5.984109664444964E-002	1.7552060E-005	-2.9335272E-001	0
4.9934277E+003	1.751239976401848E+001	-2.9633710E-001	-5.934542746527138E-002	1.7586251E-005	-2.9635251E-001	0
5.0883682E+003	1.781239975643985E+001	-2.9932806E-001	-5.882594499190907E-002	1.7608256E-005	-2.9935250E-001	0
5.1848198E+003	1.811239974886121E+001	-3.0229607E-001	-5.830406554159406E-002	1.7625091E-005	-3.0235249E-001	0
5.2859727E+003	1.841239974128257E+001	-3.0535099E-001	-5.776628189175237E-002	1.7638991E-005	-3.0535269E-001	0
5.3774995E+003	1.871239973370393E+001	-3.0836329E-001	-5.734324693583459E-002	1.7682552E-005	-3.0835271E-001	0
5.4752446E+003	1.901239972612530E+001	-3.1133220E-001	-5.686178680876974E-002	1.7702905E-005	-3.1135252E-001	0
5.5754272E+003	1.931239971854666E+001	-3.1431702E-001	-5.637541350989284E-002	1.7719753E-005	-3.1435275E-001	0
5.6803223E+003	1.961239971096802E+001	-3.1735572E-001	-5.586931486193749E-002	1.7730446E-005	-3.1735250E-001	0
5.7750923E+003	1.991239970338938E+001	-3.2035670E-001	-5.547213542690155E-002	1.7770870E-005	-3.2035246E-001	0
5.8716968E+003	2.021239969581075E+001	-3.2334313E-001	-5.506809215079944E-002	1.7805889E-005	-3.2335252E-001	0
5.9767832E+003	2.051239968823211E+001	-3.2632798E-001	-5.459926757154765E-002	1.7817269E-005	-3.2635278E-001	0
6.0671182E+003	2.081239968065347E+001	-3.2934058E-001	-5.428286944136129E-002	1.7877552E-005	-3.2935274E-001	0
6.1742842E+003	2.111239967307483E+001	-3.3231288E-001	-5.382209057083476E-002	1.7885774E-005	-3.3235252E-001	0
6.2827246E+003	2.141239966549620E+001	-3.3534220E-001	-5.337528343670861E-002	1.7898985E-005	-3.3535248E-001	0
6.3865010E+003	2.171239965791756E+001	-3.3834967E-001	-5.297888010941715E-002	1.7925388E-005	-3.3835250E-001	0
6.4766387E+003	2.201239965033892E+001	-3.4138334E-001	-5.270995647477705E-002	1.7994302E-005	-3.4135267E-001	0
6.5897153E+003	2.231239964276028E+001	-3.4434074E-001	-5.225426846615189E-002	1.7993274E-005	-3.4435272E-001	0
6.6885767E+003	2.261239963518165E+001	-3.4731835E-001	-5.192709297446829E-002	1.8035233E-005	-3.4735253E-001	0
6.7981982E+003	2.291239962760301E+001	-3.5033965E-001	-5.153419087912786E-002	1.8054470E-005	-3.5035270E-001	0
6.9082109E+003	2.321249962002184E+001	-3.5334989E-001	-5.114926249084417E-002	1.8073586E-005	-3.5335362E-001	0
7.0152891E+003	2.351249961244321E+001	-3.5635805E-001	-5.079734424250126E-002	1.8102042E-005	-3.5635355E-001	0
7.1062588E+003	2.381249960486457E+001	-3.5934240E-001	-5.056702942246105E-002	1.8170878E-005	-3.5935381E-001	0
7.2239175E+003	2.411249959728593E+001	-3.6231640E-001	-5.015511392128166E-002	1.8172021E-005	-3.6235362E-001	0
7.3347495E+003	2.441239958970982E+001	-3.6532345E-001	-4.980721478365147E-002	1.8195744E-005	-3.6535269E-001	0
7.4324785E+003	2.471259958212613E+001	-3.6832634E-001	-4.955632634222937E-002	1.8252900E-005	-3.6835453E-001	0
7.5411060E+003	2.501249957455002E+001	-3.7131485E-001	-4.923877863209138E-002	1.8283090E-005	-3.7135360E-001	0
7.6439277E+003	2.531239956697391E+001	-3.7433693E-001	-4.897180285202474E-002	1.8331953E-005	-3.7435275E-001	0
7.7659209E+003	2.561249955939275E+001	-3.7731585E-001	-4.858610409563397E-002	1.8332306E-005	-3.7735364E-001	0
7.8573472E+003	2.591249955181411E+001	-3.8036016E-001	-4.840821681717772E-002	1.8412557E-005	-3.8035381E-001	0
7.9824653E+003	2.621249954423547E+001	-3.8338566E-001	-4.802847628826731E-002	1.8413430E-005	-3.8335386E-001	0
8.0794170E+003	2.651239953665936E+001	-3.8638142E-001	-4.782293267584514E-002	1.8477893E-005	-3.8635251E-001	0
8.1950986E+003	2.681239952908072E+001	-3.8930315E-001	-4.750438719128025E-002	1.8493607E-005	-3.8935250E-001	0
8.3024404E+003	2.711239952150208E+001	-3.9231792E-001	-4.725332342299426E-002	1.8538325E-005	-3.9235252E-001	0
8.4143877E+003	2.741239951392345E+001	-3.9534113E-001	-4.698394682088269E-002	1.8574687E-005	-3.9535269E-001	0
8.5384404E+003	2.771239950634481E+001	-3.9833617E-001	-4.665209980141949E-002	1.8583220E-005	-3.9835274E-001	0
8.6406084E+003	2.801239949876617E+001	-4.0132955E-001	-4.644691037702176E-002	1.8640518E-005	-4.0135249E-001	0
8.7511582E+003	2.831239949118753E+001	-4.0433866E-001	-4.620401566593961E-002	1.8682069E-005	-4.0435275E-001	0
8.8735010E+003	2.861239948360890E+001	-4.0734187E-001	-4.590543052434032E-002	1.8699204E-005	-4.0735254E-001	0
8.9953779E+003	2.891239947603026E+001	-4.1035974E-001	-4.561895490243480E-002	1.8720182E-005	-4.1035253E-001	0
9.1104736E+003	2.921239946845162E+001	-4.1335291E-001	-4.537117864178097E-002	1.8754308E-005	-4.1335276E-001	0
9.2167871E+003	2.951239946087298E+001	-4.1637504E-001	-4.517572723357853E-002	1.8810046E-005	-4.1635251E-001	0
9.3382109E+003	2.981239945329435E+001	-4.1936579E-001	-4.490857908168430E-002	1.8833121E-005	-4.1935274E-001	0
9.4729121E+003	3.011239944571571E+001	-4.2236310E-001	-4.458640418766058E-002	1.8831652E-005	-4.2235249E-001	0
9.5797002E+003	3.041239943813707E+001	-4.2534354E-001	-4.440050718599586E-002	1.8885468E-005	-4.2535248E-001	0
9.7212998E+003	3.071239943055843E+001	-4.2833340E-001	-4.406132859533157E-002	1.8872939E-005	-4.2835250E-001	0
9.8301387E+003	3.101239942297980E+001	-4.3134084E-001	-4.387942762138353E-002	1.8926989E-005	-4.3135273E-001	0
9.9594375E+003	3.131239941540116E+001	-4.3437386E-001	-4.361429657566740E-002	1.8944911E-005	-4.3435255E-001	0
1.0081947E+004	3.161239940782252E+001	-4.3736264E-001	-4.338076989841411E-002	1.8973127E-005	-4.3735272E-001	0
1.0210344E+004	3.191239940024388E+001	-4.4037217E-001	-4.313000501833997E-002	1.8993254E-005	-4.4035271E-001	0
1.0354711E+004	3.221249939266272E+001	-4.4333571E-001	-4.281488171479719E-002	1.8981365E-005	-4.4335362E-001	0
1.0454645E+004	3.251249938508408E+001	-4.4633007E-001	-4.269203619886569E-002	1.9054740E-005	-4.4635355E-001	0
1.0601263E+004	3.281249937750545E+001	-4.4934329E-001	-4.238582608142538E-002	1.9045787E-005	-4.4935381E-001	0
1.0727854E+004	3.311249936992681E+001	-4.5232520E-001	-4.216362232891396E-002	1.9071669E-005	-4.5235357E-001	0
1.0832582E+004	3.341239936235070E+001	-4.5530438E-001	-4.203101028313661E-002	1.9136904E-005	-4.5535272E-001	0
1.0966270E+004	3.371259935476701E+001	-4.5836800E-001	-4.179798808462644E-002	1.9158861E-005	-4.5835477E-001	0
1.1079842E+004	3.401249934719090E+001	-4.6136960E-001	-4.164044895888153E-002	1.9211637E-005	-4.6135363E-001	0
1.1226756E+004	3.431249933961226E+001	-4.6435320E-001	-4.136129864074360E-002	1.9206251E-005	-4.6435365E-001	0
1.1361973E+004	3.461239933203615E+001	-4.6736100E-001	-4.113379228769498E-002	1.9224330E-005	-4.6735272E-001	0
1.1468957E+004	3.491249932445498E+001	-4.7035411E-001	-4.101106133996923E-002	1.9289721E-005	-4.7035366E-001	0
1.1580625E+004	3.521249931687635E+001	-4.7334108E-001	-4.087353452411677E-002	1.9347122E-005	-4.7335392E-001	0
1.1693204E+004	3.551239930930024E+001	-4.7634259E-001	-4.073670368219606E-002	1.9404626E-005	-4.7635275E-001	0
1.1836467E+004	3.581239930172160E+001	-4.7933987E-001	-4.049687030633492E-002	1.9411764E-005	-4.7935256E-001	0
1.1942220E+004	3.611239929414296E+001	-4.8234868E-001	-4.039020450893577E-002	1.9482162E-005	-4.8235250E-001	0
1.2080257E+004	3.641239928656432E+001	-4.8536998E-001	-4.017878104223682E-002	1.9501575E-005	-4.8535275E-001	0
1.2185566E+004	3.671239927898569E+001	-4.8834056E-001	-4.007532583015894E-002	1.9570407E-005	-4.8835254E-001	0
1.2299612E+004	3.701239927140705E+001	-4.9133691E-001	-3.994735070278177E-002	1.9627609E-005	-4.9135274E-001	0
1.2406878E+004	3.731239926382841E+001	-4.9437240E-001	-3.984664106933311E-002	1.9699079E-005	-4.9435273E-001	0
1.2515790E+004	3.761239925624977E+001	-4.9736786E-001	-3.973922957853365E-002	1.9765015E-005	-4.9735251E-001	0
1.2642772E+004	3.791239924867114E+001	-5.0032651E-001	-3.957411222358320E-002	1.9799978E-005	-5.0035280E-001	0
1.2730231E+004	3.821239924109250E+001	-5.0333720E-001	-3.953873057121615E-002	1.9901314E-005	-5.0335300E-001	0
1.2836980E+004	3.851239923351386E+001	-5.0629121E-001	-3.944005594692301E-002	1.9968154E-005	-5.0635296E-001	0
1.2944635E+004	3.881239922593522E+001	-5.0933611E-001	-3.934727449602149E-002	2.0040989E-005	-5.0935304E-001	0
1.3035250E+004	3.911239921835659E+001	-5.1229650E-001	-3.930085789677018E-002	2.0133692E-005	-5.1235294E-001	0
1.3132248E+004	3.941239921077795E+001	-5.1535726E-001	-3.924364304089473E-002	2.0224496E-005	-5.1535255E-001	0
1.3215799E+004	3.971239920319931E+001	-5.1832747E-001	-3.922029128932830E-002	2.0328955E-005	-5.1835281E-001	0
1.3314632E+004	4.001239919562067E+001	-5.2131540E-001	-3.915357182466159E-002	2.0411360E-005	-5.2135295E-001	0
1.3368416E+004	4.031239918804204E+001	-5.2433461E-001	-3.922189551138067E-002	2.0565398E-005	-5.2435303E-001	0
1.3464554E+004	4.061239918046340E+001	-5.2732646E-001	-3.916405174681703E-002	2.0652242E-005	-5.2735299E-001	0
1.3537321E+004	4.091239917288476E+001	-5.3033966E-001	-3.917611457288150E-002	2.0776648E-005	-5.3035301E-001	0
1.3588041E+004	4.121249916530360E+001	-5.3333783E-001	-3.925053026758778E-002	2.0933792E-005	-5.3335363E-001	0
1.3614239E+004	4.151239915772749E+001	-5.3636575E-001	-3.939740955121107E-002	2.1131422E-005	-5.3635293E-001	0
1.3690910E+004	4.181239915014885E+001	-5.3931463E-001	-3.939216734619577E-002	2.1244772E-005	-5.3935301E-001	0
1.3733940E+004	4.211239914257021E+001	-5.4232663E-001	-3.948805772525071E-002	2.1415426E-005	-5.4235297E-001	0
1.3748925E+004	4.241239913499157E+001	-5.4537451E-001	-3.966670315684728E-002	2.1633208E-005	-5.4535306E-001	0
1.3742938E+004	4.271239912741294E+001	-5.4829687E-001	-3.989662469464439E-002	2.1875194E-005	-5.4835302E-001	0
1.3768188E+004	4.301249911983177E+001	-5.5134499E-001	-4.004484659154217E-002	2.2078526E-005	-5.5135375E-001	0
1.3771661E+004	4.331239911225566E+001	-5.5434716E-001	-4.025274314917693E-002	2.2313994E-005	-5.5435300E-001	0
1.3755186E+004	4.361239910467702E+001	-5.5732882E-001	-4.051772511197815E-002	2.2581697E-005	-5.5735302E-001	0
1.3754477E+004	4.391239909709839E+001	-5.6036705E-001	-4.074070349688075E-002	2.2829749E-005	-5.6035304E-001	0
1.3731758E+004	4.421239908951975E+001	-5.6331664E-001	-4.102290702938982E-002	2.3108887E-005	-5.6335300E-001	0
1.3731079E+004	4.451239908194111E+001	-5.6631297E-001	-4.124315147855717E-002	2.3356532E-005	-5.6635278E-001	0
1.3710112E+004	4.481239907436247E+001	-5.6936842E-001	-4.152908508222516E-002	2.3645349E-005	-5.6935257E-001	0
1.3762473E+004	4.511239906678384E+001	-5.7236075E-001	-4.158851281097464E-002	2.3803632E-005	-5.7235301E-001	0
1.3734664E+004	4.541239905920520E+001	-5.7540566E-001	-4.189441139875993E-002	2.4106281E-005	-5.7535303E-001	0
1.3789691E+004	4.571239905162656E+001	-5.7838714E-001	-4.194344291034668E-002	2.4259549E-005	-5.7835299E-001	0
1.3862824E+004	4.601239904404792E+001	-5.8137846E-001	-4.193795370767706E-002	2.4381823E-005	-5.8135295E-001	0
1.3937142E+004	4.631239903646929E+001	-5.8438617E-001	-4.193013037757221E-002	2.4503388E-005	-5.8435303E-001	0
1.4063210E+004	4.661239902889065E+001	-5.8741194E-001	-4.176940654815675E-002	2.4535848E-005	-5.8735257E-001	0
1.4174291E+004	4.691239902131201E+001	-5.9039313E-001	-4.165239208046939E-002	2.4591285E-005	-5.9035307E-001	0
1.4331464E+004	4.721239901373337E+001	-5.9342802E-001	-4.140735644235594E-002	2.4572286E-005	-5.9335297E-001	0
1.4468165E+004	4.751239900615474E+001	-5.9641075E-001	-4.122228060967414E-002	2.4585412E-005	-5.9635299E-001	0
1.4664597E+004	4.781239899857610E+001	-5.9939730E-001	-4.087376759412731E-002	2.4499626E-005	-5.9935302E-001	0
1.4815544E+004	4.811239899099746E+001	-6.0242128E-001	-4.066143461733351E-002	2.4495313E-005	-6.0235304E-001	0
1.4990769E+004	4.841239898341883E+001	-6.0541159E-001	-4.038562774501830E-002	2.4449928E-005	-6.0535282E-001	0
1.5153233E+004	4.871239897584019E+001	-6.0840744E-001	-4.015033648165678E-002	2.4427763E-005	-6.0835302E-001	0
1.5305574E+004	4.901239896826155E+001	-6.1144471E-001	-3.994915218188508E-002	2.4426698E-005	-6.1135298E-001	0
1.5412042E+004	4.931239896068291E+001	-6.1442900E-001	-3.986681367851463E-002	2.4495326E-005	-6.1435300E-001	0
1.5561250E+004	4.961239895310428E+001	-6.1742294E-001	-3.967695038959584E-002	2.4497460E-005	-6.1735302E-001	0
1.5686357E+004	4.991239894552564E+001	-6.2044108E-001	-3.955291093721425E-002	2.4540252E-005	-6.2035304E-001	0
1.5823672E+004	5.021249893794447E+001	-6.2341654E-001	-3.939771700949801E-002	2.4561188E-005	-6.2335354E-001	0
1.5898000E+004	5.051239893036836E+001	-6.2643129E-001	-3.940314954907476E-002	2.4683366E-005	-6.2635297E-001	0
1.6022356E+004	5.081239892278973E+001	-6.2943685E-001	-3.928491147701163E-002	2.4727371E-005	-6.2935305E-001	0
1.6070744E+004	5.111239891521109E+001	-6.3241357E-001	-3.935185213106218E-002	2.4886645E-005	-6.3235301E-001	0
1.6195024E+004	5.141239890763245E+001	-6.3543856E-001	-3.923665403758533E-002	2.4932482E-005	-6.3535309E-001	0
1.6231567E+004	5.171249890005129E+001	-6.3844025E-001	-3.933324685745329E-002	2.5111927E-005	-6.3835388E-001	0
1.6290794E+004	5.201239889247518E+001	-6.4144623E-001	-3.937476894036047E-002	2.5256797E-005	-6.4135277E-001	0
1.6284880E+004	5.231239888489654E+001	-6.4443237E-001	-3.957243528481835E-002	2.5501759E-005	-6.4435297E-001	0
1.6357441E+004	5.261239887731790E+001	-6.4739919E-001	-3.957826695782529E-002	2.5622938E-005	-6.4735305E-001	0
1.6372627E+004	5.291239886973926E+001	-6.5043598E-001	-3.972703978900344E-002	2.5839896E-005	-6.5035307E-001	0
1.6336396E+004	5.321239886216063E+001	-6.5339327E-001	-3.999616886331525E-002	2.6133228E-005	-6.5335298E-001	0
1.6357496E+004	5.351239885458199E+001	-6.5641177E-001	-4.012910980037637E-002	2.6341220E-005	-6.5635300E-001	0
1.6316021E+004	5.381239884700335E+001	-6.5942478E-001	-4.041578228798906E-002	2.6651169E-005	-6.5935302E-001	0
1.6338038E+004	5.411239883942471E+001	-6.6239923E-001	-4.054337639167704E-002	2.6855902E-005	-6.6235304E-001	0
1.6290739E+004	5.441239883184608E+001	-6.6538948E-001	-4.084464555859828E-002	2.7177597E-005	-6.6535306E-001	0
1.6215360E+004	5.471239882426744E+001	-6.6839790E-001	-4.122004659428776E-002	2.7551392E-005	-6.6835296E-001	0
1.6230362E+004	5.501239881668880E+001	-6.7140335E-001	-4.136712045862800E-002	2.7774024E-005	-6.7135298E-001	0
1.6130961E+004	5.531239880911016E+001	-6.7442179E-001	-4.180915066851199E-002	2.8197002E-005	-6.7435306E-001	0
1.6100991E+004	5.561239880153153E+001	-6.7738414E-001	-4.207095863047990E-002	2.8498200E-005	-6.7735285E-001	0
1.6062912E+004	5.591239879395289E+001	-6.8040794E-001	-4.235894140322216E-002	2.8821360E-005	-6.8035305E-001	0
1.5978382E+004	5.621239878637425E+001	-6.8339384E-001	-4.276990260811420E-002	2.9228688E-005	-6.8335295E-001	0
1.6005291E+004	5.651239877879561E+001	-6.8641049E-001	-4.288647465223272E-002	2.9437726E-005	-6.8635303E-001	0
1.5873392E+004	5.681239877121698E+001	-6.8941611E-001	-4.343218789916042E-002	2.9942850E-005	-6.8935299E-001	0
1.5825281E+004	5.711239876363834E+001	-6.9244629E-001	-4.375570302911164E-002	3.0298474E-005	-6.9235307E-001	0
1.5800146E+004	5.741239875605970E+001	-6.9544131E-001	-4.401486706588667E-002	3.0609757E-005	-6.9535285E-001	0
1.5756988E+004	5.771239874848106E+001	-6.9840091E-001	-4.432325008268412E-002	3.0955398E-005	-6.9835293E-001	0
1.5747911E+004	5.801239874090243E+001	-7.0141131E-001	-4.453995786383522E-002	3.1240830E-005	-7.0135301E-001	0
1.5708106E+004	5.831239873332379E+001	-7.0441222E-001	-4.484386631502979E-002	3.1588566E-005	-7.0435303E-001	0
1.5698175E+004	5.861239872574515E+001	-7.0745116E-001	-4.506582339379084E-002	3.1881867E-005	-7.0735306E-001	0
1.5681000E+004	5.891239871816651E+001	-7.1041942E-001	-4.530447212376953E-002	3.2185177E-005	-7.1035308E-001	0
1.5733063E+004	5.921249871058535E+001	-7.1337080E-001	-4.534214207875720E-002	3.2345761E-005	-7.1335375E-001	0
1.5747848E+004	5.951239870300924E+001	-7.1641117E-001	-4.549264142642145E-002	3.2591437E-005	-7.1635300E-001	0
1.5750673E+004	5.981239869543060E+001	-7.1937549E-001	-4.567268435042499E-002	3.2855809E-005	-7.1935308E-001	0
1.5779063E+004	6.011239868785196E+001	-7.2241318E-001	-4.578301942188512E-002	3.3074255E-005	-7.2235304E-001	0
1.5967396E+004	6.041239868027333E+001	-7.2542685E-001	-4.543175557870666E-002	3.2957414E-005	-7.2535312E-001	0
1.5973159E+004	6.071239867269469E+001	-7.2837281E-001	-4.559979722177898E-002	3.3213651E-005	-7.2835290E-001	0
1.6039115E+004	6.101239866511605E+001	-7.3137754E-001	-4.559961806744517E-002	3.3350538E-005	-7.3135281E-001	0
1.6099528E+004	6.131239865753741E+001	-7.3441178E-001	-4.561697390281028E-002	3.3501641E-005	-7.3435301E-001	0
1.6211434E+004	6.161239864995878E+001	-7.3744476E-001	-4.548917744062589E-002	3.3545755E-005	-7.3735309E-001	0
1.6382655E+004	6.191239864238014E+001	-7.4041820E-001	-4.519524857694585E-002	3.3463384E-005	-7.4035311E-001	0
1.6453047E+004	6.221239863480150E+001	-7.4340016E-001	-4.518313182739753E-002	3.3589145E-005	-7.4335295E-001	0
1.6544375E+004	6.251239862722286E+001	-7.4639452E-001	-4.511469986627211E-002	3.3673365E-005	-7.4635303E-001	0
1.6611129E+004	6.281239861964423E+001	-7.4938887E-001	-4.511366300549358E-002	3.3807679E-005	-7.4935281E-001	0
1.6719617E+004	6.311239861206559E+001	-7.5242972E-001	-4.500281006038109E-002	3.3861452E-005	-7.5235307E-001	0
1.6773229E+004	6.341239860448695E+001	-7.5541610E-001	-4.503701024411921E-002	3.4021683E-005	-7.5535303E-001	0
1.6911109E+004	6.371239859690832E+001	-7.5839382E-001	-4.484589230194613E-002	3.4010849E-005	-7.5835294E-001	0
1.6942896E+004	6.401239858932968E+001	-7.6134598E-001	-4.493599911327595E-002	3.4211844E-005	-7.6135302E-001	0
1.6999256E+004	6.431239858175104E+001	-7.6441520E-001	-4.496757012490815E-002	3.4373894E-005	-7.6435304E-001	0
1.7132439E+004	6.461239857417240E+001	-7.6742798E-001	-4.479385518945322E-002	3.4376058E-005	-7.6735288E-001	0
1.7130600E+004	6.491239856659377E+001	-7.7041900E-001	-4.497326758491604E-002	3.4648259E-005	-7.7035302E-001	0
1.7205072E+004	6.521239855901513E+001	-7.7335340E-001	-4.494915001823352E-002	3.4761579E-005	-7.7335292E-001	0
1.7224770E+004	6.551239855143649E+001	-7.7641165E-001	-4.507529823197154E-002	3.4996985E-005	-7.7635306E-001	0
1.7262453E+004	6.581239854385785E+001	-7.7943558E-001	-4.515207497854223E-002	3.5193134E-005	-7.7935302E-001	0
1.7316309E+004	6.611239853627922E+001	-7.8241765E-001	-4.518385914138506E-002	3.5352648E-005	-7.8235310E-001	0
1.7255850E+004	6.641239852870058E+001	-7.8545165E-001	-4.551799363690678E-002	3.5752182E-005	-7.8535295E-001	0
1.7277145E+004	6.671239852112194E+001	-7.8841043E-001	-4.563314209014435E-002	3.5977646E-005	-7.8835297E-001	0
1.7348389E+004	6.701239851354330E+001	-7.9140478E-001	-4.561834418316457E-002	3.6102574E-005	-7.9135305E-001	0
1.7353627E+004	6.731239850596467E+001	-7.9442519E-001	-4.577862460994047E-002	3.6367692E-005	-7.9435307E-001	0
1.7213256E+004	6.761239849838603E+001	-7.9736775E-001	-4.632289100343279E-002	3.6936381E-005	-7.9735309E-001	0
1.7306285E+004	6.791239849080739E+001	-8.0041641E-001	-4.625003918766746E-002	3.7019290E-005	-8.0035305E-001	0
1.7300965E+004	6.821239848322875E+001	-8.0342686E-001	-4.643826933905801E-002	3.7309754E-005	-8.0335295E-001	0
1.7263773E+004	6.851239847565012E+001	-8.0643314E-001	-4.671245166058624E-002	3.7670470E-005	-8.0635303E-001	0
1.7239432E+004	6.881239846807148E+001	-8.0943835E-001	-4.695273046237258E-002	3.8005339E-005	-8.0935305E-001	0
1.7178410E+004	6.911239846049284E+001	-8.1242442E-001	-4.729334181603478E-002	3.8422266E-005	-8.1235307E-001	0
1.7091541E+004	6.941239845291420E+001	-8.1540710E-001	-4.770822829014069E-002	3.8901628E-005	-8.1535304E-001	0
1.7088486E+004	6.971239844533557E+001	-8.1838274E-001	-4.789088586032070E-002	3.9193073E-005	-8.1835294E-001	0
1.7015066E+004	7.001239843775693E+001	-8.2139558E-001	-4.827460287291718E-002	3.9652547E-005	-8.2135308E-001	0
1.6951764E+004	7.031239843017829E+001	-8.2439244E-001	-4.863165908710310E-002	4.0091571E-005	-8.2435304E-001	0
1.6856246E+004	7.061239842259965E+001	-8.2742995E-001	-4.908743732374854E-002	4.0616414E-005	-8.2735312E-001	0
1.6841330E+004	7.091239841502102E+001	-8.3040601E-001	-4.930762725241788E-002	4.0945350E-005	-8.3035296E-001	0
1.6765246E+004	7.121239840744238E+001	-8.3339024E-001	-4.970939742266955E-002	4.1427327E-005	-8.3335298E-001	0
1.6600352E+004	7.151239839986374E+001	-8.3641779E-001	-5.038554632003306E-002	4.2143369E-005	-8.3635306E-001	0
1.6524047E+004	7.181239839228510E+001	-8.3942980E-001	-5.080049482451099E-002	4.2643449E-005	-8.3935308E-001	0
1.6517244E+004	7.211239838470647E+001	-8.4240830E-001	-5.100174900890148E-002	4.2964297E-005	-8.4235317E-001	0
1.6333860E+004	7.241239837712783E+001	-8.4540981E-001	-5.175811535137187E-002	4.3756820E-005	-8.4535301E-001	0
1.6221886E+004	7.271239836954919E+001	-8.4841460E-001	-5.230061388905505E-002	4.4372606E-005	-8.4835297E-001	0
1.6120054E+004	7.301239836197055E+001	-8.5140234E-001	-5.281634563235221E-002	4.4967961E-005	-8.5135311E-001	0
1.5956816E+004	7.331239835439192E+001	-8.5443532E-001	-5.354672747555045E-002	4.5752215E-005	-8.5435307E-001	0
1.5848229E+004	7.361239834681328E+001	-8.5739148E-001	-5.410014750115222E-002	4.6385005E-005	-8.5735303E-001	0
1.5584161E+004	7.391239833923464E+001	-8.6040121E-001	-5.520997870036659E-002	4.7502734E-005	-8.6035293E-001	0
1.5397834E+004	7.421239833165600E+001	-8.6342412E-001	-5.607438997390701E-002	4.8415983E-005	-8.6335301E-001	0
1.5208272E+004	7.451239832407737E+001	-8.6641258E-001	-5.696982265383888E-002	4.9359372E-005	-8.6635309E-001	0
1.4949510E+004	7.481239831649873E+001	-8.6940479E-001	-5.815607462417693E-002	5.0561172E-005	-8.6935306E-001	0
1.4629554E+004	7.511239830892009E+001	-8.7239140E-001	-5.963212657660188E-002	5.2022555E-005	-8.7235314E-001	0
1.4243412E+004	7.541239830134145E+001	-8.7538862E-001	-6.145919281597800E-002	5.3800679E-005	-8.7535292E-001	0
1.3939924E+004	7.571239829376282E+001	-8.7840587E-001	-6.301367817608794E-002	5.5351586E-005	-8.7835300E-001	0
1.3483685E+004	7.601239828618418E+001	-8.8142741E-001	-6.536992054126856E-002	5.7618839E-005	-8.8135308E-001	0
1.3021296E+004	7.631239827860554E+001	-8.8443828E-001	-6.792244654954294E-002	6.0073213E-005	-8.8435310E-001	0
1.2518222E+004	7.661239827102690E+001	-8.8742715E-001	-7.089083003639096E-002	6.2910447E-005	-8.8735312E-001	0
1.1921698E+004	7.691239826344827E+001	-8.9045948E-001	-7.469233530606156E-002	6.6510496E-005	-8.9035296E-001	0
1.1367625E+004	7.721239825586963E+001	-8.9345676E-001	-7.859660461694129E-002	7.0222668E-005	-8.9335299E-001	0
1.0733217E+004	7.751239824829099E+001	-8.9642787E-001	-8.351903444471154E-002	7.4868789E-005	-8.9635307E-001	0
1.0044696E+004	7.781239824071235E+001	-8.9939976E-001	-8.953976772774086E-002	8.0532045E-005	-8.9935309E-001	0
9.2796865E+003	7.811239823313372E+001	-9.0244281E-001	-9.724927711504702E-002	8.7761910E-005	-9.0235311E-001	0
8.5595752E+003	7.841239822555508E+001	-9.0543419E-001	-1.057802726336575E-001	9.5777075E-005	-9.0535295E-001	0
7.8274946E+003	7.871239821797644E+001	-9.0842545E-001	-1.160557094347983E-001	1.0542796E-004	-9.0835303E-001	0
7.0677515E+003	7.901239821039781E+001	-9.1141617E-001	-1.289541951629585E-001	1.1753094E-004	-9.1135305E-001	0
6.3448125E+003	7.931239820281917E+001	-9.1445208E-001	-1.441259408971893E-001	1.3179626E-004	-9.1435307E-001	0
5.6538999E+003	7.961239819524053E+001	-9.1744751E-001	-1.622680881311432E-001	1.4887245E-004	-9.1735315E-001	0
4.9999541E+003	7.991239818766189E+001	-9.2043597E-001	-1.840888840035418E-001	1.6944204E-004	-9.2035294E-001	0
4.4045596E+003	8.021239818008326E+001	-9.2344427E-001	-2.096564410808117E-001	1.9360604E-004	-9.2335302E-001	0
3.8609653E+003	8.051239817250462E+001	-9.2643255E-001	-2.399484310597488E-001	2.2229603E-004	-9.2635304E-001	0
3.3684089E+003	8.081239816492598E+001	-9.2945087E-001	-2.759317180236898E-001	2.5646496E-004	-9.2935318E-001	0
2.9301292E+003	8.111239815734734E+001	-9.3244421E-001	-3.182263120419688E-001	2.9672828E-004	-9.3235314E-001	0
2.4884028E+003	8.141239814976871E+001	-9.3545383E-001	-3.759253881498799E-001	3.5166086E-004	-9.3535304E-001	0
2.1659609E+003	8.171239814219007E+001	-9.3843251E-001	-4.332638124751682E-001	4.0658884E-004	-9.3835300E-001	0
1.8813053E+003	8.201239813461143E+001	-9.4145954E-001	-5.004289103476149E-001	4.7113356E-004	-9.4135302E-001	0
1.6341868E+003	8.231239812703279E+001	-9.4445908E-001	-5.779382935142490E-001	5.4583908E-004	-9.4435310E-001	0
1.4195840E+003	8.261239811945416E+001	-9.4744825E-001	-6.674126324293219E-001	6.3233892E-004	-9.4735301E-001	0
1.2215811E+003	8.291239811187552E+001	-9.5043963E-001	-7.780405808243889E-001	7.3948060E-004	-9.5035297E-001	0
1.0577729E+003	8.321239810429688E+001	-9.5346224E-001	-9.013865007473528E-001	8.5943798E-004	-9.5335311E-001	0
9.1874921E+002	8.352739809633931E+001	-9.5658600E-001	-1.041182917481251E+000	9.9598104E-004	-9.5650315E-001	0
7.9623572E+002	8.384239808838174E+001	-9.5973885E-001	-1.205345132463686E+000	1.1568166E-003	-9.5965320E-001	0
6.9722058E+002	8.414239808080310E+001	-9.6272194E-001	-1.380799682857521E+000	1.3293262E-003	-9.6265304E-001	0
6.1420605E+002	8.444239807322447E+001	-9.6571881E-001	-1.572304327626362E+000	1.5184039E-003	-9.6565294E-001	0
5.3999414E+002	8.474239806564583E+001	-9.6871388E-001	-1.793934078888972E+000	1.7378088E-003	-9.6865302E-001	0
4.7827637E+002	8.504239805806719E+001	-9.7170204E-001	-2.031674836923532E+000	1.9741827E-003	-9.7165304E-001	0
4.2611359E+002	8.534239805048855E+001	-9.7472566E-001	-2.287478545197757E+000	2.2296640E-003	-9.7465312E-001	0
3.7854401E+002	8.564239804290992E+001	-9.7774363E-001	-2.582906189563868E+000	2.5254202E-003	-9.7765315E-001	0
3.3958417E+002	8.594239803533128E+001	-9.8069692E-001	-2.887934629205944E+000	2.8321885E-003	-9.8065299E-001	0
3.0608698E+002	8.624239802775264E+001	-9.8369384E-001	-3.213772400124782E+000	3.1613682E-003	-9.8365313E-001	0
2.7640231E+002	8.654239802017401E+001	-9.8675185E-001	-3.569983877308736E+000	3.5226883E-003	-9.8665309E-001	0
2.5084032E+002	8.684239801259537E+001	-9.8969769E-001	-3.945528836579641E+000	3.9048807E-003	-9.8965317E-001	0
2.2839929E+002	8.714239800501673E+001	-9.9271280E-001	-4.346391782865645E+000	4.3147188E-003	-9.9265307E-001	0
2.0881035E+002	8.744239799743809E+001	-9.9572968E-001	-4.768583973487480E+000	4.7482206E-003	-9.9565297E-001	0
1.9156737E+002	8.774239798985946E+001	-9.9873805E-001	-5.213508313661606E+000	5.2069291E-003	-9.9865294E-001	0
1.7647948E+002	8.804239798228082E+001	-1.0017089E+000	-5.676064385248509E+000	5.6857639E-003	-1.0016531E+000	0
1.6321083E+002	8.834239797470218E+001	-1.0047427E+000	-6.156103136720853E+000	6.1852997E-003	-1.0046531E+000	0
1.5140213E+002	8.864239796712354E+001	-1.0077399E+000	-6.656048407067722E+000	6.7075654E-003	-1.0076530E+000	0
1.4088774E+002	8.894239795954491E+001	-1.0107344E+000	-7.174040908689356E+000	7.2510503E-003	-1.0106530E+000	0
1.3134114E+002	8.924239795196627E+001	-1.0137396E+000	-7.718370087810229E+000	7.8244172E-003	-1.0136530E+000	0
1.2302338E+002	8.954239794438763E+001	-1.0167445E+000	-8.264644861340656E+000	8.4030321E-003	-1.0166532E+000	0
1.1551057E+002	8.984239793680899E+001	-1.0197475E+000	-8.828174153844401E+000	9.0025086E-003	-1.0196530E+000	0
1.0864548E+002	9.014239792923036E+001	-1.0227530E+000	-9.413672392671380E+000	9.6278619E-003	-1.0226529E+000	0
1.0257191E+002	9.044239792165172E+001	-1.0257646E+000	-1.000044403169247E+001	1.0258101E-002	-1.0256530E+000	0
9.6810043E+001	9.074239791407308E+001	-1.0287474E+000	-1.062645336875207E+001	1.0931937E-002	-1.0286530E+000	0
9.1053123E+001	9.107239790573658E+001	-1.0320145E+000	-1.133420209689524E+001	1.1697060E-002	-1.0319531E+000	0
8.6454056E+001	9.137239789815794E+001	-1.0350084E+000	-1.197177396510341E+001	1.2390887E-002	-1.0349531E+000	0
8.2298080E+001	9.167239789057930E+001	-1.0380056E+000	-1.261275610145745E+001	1.3092112E-002	-1.0379530E+000	0
7.8480133E+001	9.197239788300067E+001	-1.0410492E+000	-1.326513065041243E+001	1.3809654E-002	-1.0409530E+000	0
7.4876083E+001	9.227239787542203E+001	-1.0440257E+000	-1.394337908247925E+001	1.4557245E-002	-1.0439532E+000	0
7.1631126E+001	9.257239786784339E+001	-1.0470282E+000	-1.461694357356990E+001	1.5304352E-002	-1.0469532E+000	0
6.8589615E+001	9.287239786026475E+001	-1.0500342E+000	-1.530893776641116E+001	1.6074907E-002	-1.0499530E+000	0
6.5745697E+001	9.317239785268612E+001	-1.0530195E+000	-1.601655420073283E+001	1.6865745E-002	-1.0529529E+000	0
6.3159050E+001	9.347239784510748E+001	-1.0560244E+000	-1.672008078902570E+001	1.7656814E-002	-1.0559530E+000	0
6.0688904E+001	9.377239783752884E+001	-1.0590265E+000	-1.745008399393464E+001	1.8480102E-002	-1.0589532E+000	0
5.8362724E+001	9.407239782995021E+001	-1.0620575E+000	-1.819753105910095E+001	1.9326825E-002	-1.0619531E+000	0
5.6203068E+001	9.437239782237157E+001	-1.0650427E+000	-1.894990414589853E+001	2.0182457E-002	-1.0649531E+000	0
5.4182335E+001	9.467239781479293E+001	-1.0680540E+000	-1.971221729799786E+001	2.1053711E-002	-1.0679530E+000	0
5.2271271E+001	9.497239780721429E+001	-1.0710542E+000	-2.049030318680232E+001	2.1946225E-002	-1.0709531E+000	0
5.0490532E+001	9.527239779963566E+001	-1.0740490E+000	-2.127228538672602E+001	2.2847477E-002	-1.0739532E+000	0
4.8802029E+001	9.557239779205702E+001	-1.0770479E+000	-2.206973676018055E+001	2.3770165E-002	-1.0769532E+000	0
4.7242882E+001	9.587239778447838E+001	-1.0800678E+000	-2.286202047393837E+001	2.4692532E-002	-1.0799530E+000	0
4.5712269E+001	9.617239777689974E+001	-1.0830539E+000	-2.369285136825209E+001	2.5660636E-002	-1.0829530E+000	0
4.4246857E+001	9.647239776932111E+001	-1.0860138E+000	-2.454442913443955E+001	2.6655588E-002	-1.0859530E+000	0
4.2828049E+001	9.677239776174247E+001	-1.0890460E+000	-2.542833643656468E+001	2.7692629E-002	-1.0889530E+000	0
4.1500908E+001	9.707239775416383E+001	-1.0920453E+000	-2.631376925078013E+001	2.8735828E-002	-1.0919532E+000	0
4.0199768E+001	9.737239774658519E+001	-1.0950507E+000	-2.724022403994826E+001	2.9829426E-002	-1.0949531E+000	0
3.8986088E+001	9.767239773900656E+001	-1.0980153E+000	-2.816428460373186E+001	3.0924816E-002	-1.0979530E+000	0
3.7761696E+001	9.797239773142792E+001	-1.1010481E+000	-2.915780337914106E+001	3.2104146E-002	-1.1009531E+000	0
3.6688499E+001	9.827239772384928E+001	-1.1040368E+000	-3.009217544313196E+001	3.3222869E-002	-1.1039531E+000	0
3.5658276E+001	9.857239771627064E+001	-1.1070217E+000	-3.104529353281160E+001	3.4367815E-002	-1.1069530E+000	0
3.4602173E+001	9.887239770869201E+001	-1.1100588E+000	-3.208060852686566E+001	3.5611361E-002	-1.1099529E+000	0
3.3633511E+001	9.917239770111337E+001	-1.1130388E+000	-3.309314769667546E+001	3.6833957E-002	-1.1129529E+000	0
3.2686852E+001	9.947239769353473E+001	-1.1160009E+000	-3.414219518419020E+001	3.8102720E-002	-1.1159531E+000	0
3.1797119E+001	9.977239768595609E+001	-1.1190171E+000	-3.519240592168019E+001	3.9380904E-002	-1.1189530E+000	0
3.0890177E+001	1.000723976783775E+002	-1.1220272E+000	-3.632310542592541E+001	4.0755510E-002	-1.1219531E+000	0
3.0079309E+001	1.003723976707988E+002	-1.1250716E+000	-3.740350687706663E+001	4.2081624E-002	-1.1249530E+000	0
2.9226374E+001	1.006723976632202E+002	-1.1280932E+000	-3.859846869412358E+001	4.3542672E-002	-1.1279531E+000	0
2.8442198E+001	1.009723976556415E+002	-1.1310616E+000	-3.976702265839685E+001	4.4978950E-002	-1.1309531E+000	0
2.7711452E+001	1.012723976480629E+002	-1.1340712E+000	-4.092427894708743E+001	4.6411049E-002	-1.1339531E+000	0
2.7011909E+001	1.015723976404843E+002	-1.1370592E+000	-4.209473764526462E+001	4.7864210E-002	-1.1369532E+000	0
2.6330915E+001	1.018723976329056E+002	-1.1401017E+000	-4.329897547579606E+001	4.9365234E-002	-1.1399530E+000	0
2.5714420E+001	1.021723976253270E+002	-1.1430947E+000	-4.445344699729787E+001	5.0814498E-002	-1.1429529E+000	0
2.5065990E+001	1.024723976177484E+002	-1.1460663E+000	-4.572196439699121E+001	5.2400403E-002	-1.1459531E+000	0
2.4458431E+001	1.027723976101697E+002	-1.1490617E+000	-4.698018898357714E+001	5.3983133E-002	-1.1489531E+000	0
2.3901922E+001	1.030723976025911E+002	-1.1520821E+000	-4.820039601750773E+001	5.5530813E-002	-1.1519531E+000	0
2.3356344E+001	1.033723975950124E+002	-1.1550778E+000	-4.945456578041819E+001	5.7123873E-002	-1.1549530E+000	0
2.2849707E+001	1.036723975874338E+002	-1.1580769E+000	-5.068235305026235E+001	5.8694061E-002	-1.1579530E+000	0
2.2375444E+001	1.039723975798552E+002	-1.1611116E+000	-5.189222382830908E+001	6.0252663E-002	-1.1609532E+000	0
2.1927757E+001	1.042723975722765E+002	-1.1641005E+000	-5.308798964340997E+001	6.1799757E-002	-1.1639531E+000	0
2.1469339E+001	1.045723975646979E+002	-1.1670870E+000	-5.436063687627120E+001	6.3443594E-002	-1.1669532E+000	0
2.1038317E+001	1.048723975571193E+002	-1.1700931E+000	-5.561723810631213E+001	6.5077342E-002	-1.1699530E+000	0
2.0632013E+001	1.051723975495406E+002	-1.1730949E+000	-5.685799262903117E+001	6.6699818E-002	-1.1729530E+000	0
2.0210751E+001	1.054723975419620E+002	-1.1761036E+000	-5.819198228026526E+001	6.8439797E-002	-1.1759530E+000	0
1.9814444E+001	1.057723975343833E+002	-1.1790860E+000	-5.950638685570095E+001	7.0163146E-002	-1.1789531E+000	0
1.9296717E+001	1.060723975268047E+002	-1.1821018E+000	-6.125921952807994E+001	7.2414637E-002	-1.1819531E+000	0
1.8900469E+001	1.063723975192261E+002	-1.1851051E+000	-6.270241790634054E+001	7.4308954E-002	-1.1849530E+000	0
1.8472288E+001	1.066723975116474E+002	-1.1881186E+000	-6.431897207924544E+001	7.6418564E-002	-1.1879530E+000	0
1.8128736E+001	1.069723975040688E+002	-1.1910808E+000	-6.570125747228167E+001	7.8255504E-002	-1.1909533E+000	0
1.7840240E+001	1.072723974964902E+002	-1.1940924E+000	-6.693252868146419E+001	7.9923622E-002	-1.1939533E+000	0
1.7471306E+001	1.075723974889115E+002	-1.1971068E+000	-6.851845378035648E+001	8.2023911E-002	-1.1969531E+000	0
1.7106651E+001	1.078723974813329E+002	-1.2001150E+000	-7.015487551760737E+001	8.4193915E-002	-1.1999528E+000	0
1.6775839E+001	1.081723974737542E+002	-1.2030591E+000	-7.171379560942160E+001	8.6275935E-002	-1.2029530E+000	0
1.6483324E+001	1.084723974661756E+002	-1.2061179E+000	-7.317200234272809E+001	8.8254057E-002	-1.2059531E+000	0
1.6102163E+001	1.087723974585970E+002	-1.2090943E+000	-7.508893647733277E+001	9.0789601E-002	-1.2089530E+000	0
1.5764021E+001	1.090723974510183E+002	-1.2121273E+000	-7.689201573304103E+001	9.3202911E-002	-1.2119530E+000	0
1.5538250E+001	1.093723974434397E+002	-1.2150930E+000	-7.820012038271943E+001	9.5020421E-002	-1.2149531E+000	0
1.5244588E+001	1.096723974358611E+002	-1.2181197E+000	-7.990506107456326E+001	9.7333930E-002	-1.2179532E+000	0
1.4954564E+001	1.099723974282824E+002	-1.2210890E+000	-8.165326835586518E+001	9.9705905E-002	-1.2209531E+000	0
1.4713931E+001	1.102723974207038E+002	-1.2241087E+000	-8.319385753284064E+001	1.0183833E-001	-1.2239532E+000	0
1.4448378E+001	1.105723974131251E+002	-1.2270859E+000	-8.492897917009554E+001	1.0421516E-001	-1.2269531E+000	0
1.4171385E+001	1.108723974055465E+002	-1.2300801E+000	-8.680027939488104E+001	1.0677130E-001	-1.2299531E+000	0
1.3986173E+001	1.111723973979679E+002	-1.2330918E+000	-8.816506719541508E+001	1.0871562E-001	-1.2329530E+000	0
1.3792423E+001	1.114723973903892E+002	-1.2360935E+000	-8.962120166889270E+001	1.1078019E-001	-1.2359531E+000	0
1.3542522E+001	1.117723973828106E+002	-1.2391191E+000	-9.149839352368122E+001	1.1337740E-001	-1.2389531E+000	0
1.3342821E+001	1.120723973752320E+002	-1.2421073E+000	-9.309180535401435E+001	1.1563001E-001	-1.2419530E+000	0
1.3112417E+001	1.123723973676533E+002	-1.2450955E+000	-9.495545141451089E+001	1.1822861E-001	-1.2449530E+000	0
1.2949539E+001	1.126723973600747E+002	-1.2481071E+000	-9.638235487856764E+001	1.2029550E-001	-1.2479532E+000	0
1.2742167E+001	1.129723973524960E+002	-1.2510825E+000	-9.818444178794130E+001	1.2283684E-001	-1.2509532E+000	0
1.2597432E+001	1.132723973449174E+002	-1.2541327E+000	-9.955463091246020E+001	1.2485472E-001	-1.2539532E+000	0
1.2422960E+001	1.135723973373388E+002	-1.2571142E+000	-1.011928034678355E+002	1.2721090E-001	-1.2569531E+000	0
1.2286709E+001	1.138723973297601E+002	-1.2601198E+000	-1.025595859082729E+002	1.2923737E-001	-1.2599529E+000	0
1.2088511E+001	1.141723973221815E+002	-1.2631314E+000	-1.044902302777327E+002	1.3198489E-001	-1.2629530E+000	0
1.1913564E+001	1.144723973146029E+002	-1.2661120E+000	-1.062748312258027E+002	1.3455583E-001	-1.2659531E+000	0
1.1784964E+001	1.147723973070242E+002	-1.2691144E+000	-1.076892867112181E+002	1.3667002E-001	-1.2689531E+000	0
1.1637075E+001	1.150873972990667E+002	-1.2722604E+000	-1.093281966498816E+002	1.3909394E-001	-1.2721031E+000	0
1.1465037E+001	1.154023972911091E+002	-1.2753838E+000	-1.112411405402976E+002	1.4187515E-001	-1.2752531E+000	0
1.1398572E+001	1.157023972835304E+002	-1.2783278E+000	-1.121480643126338E+002	1.4336199E-001	-1.2782532E+000	0
1.1271819E+001	1.160023972759518E+002	-1.2813644E+000	-1.136785884891547E+002	1.4566369E-001	-1.2812532E+000	0
1.1104163E+001	1.163023972683732E+002	-1.2843487E+000	-1.156637072892522E+002	1.4855254E-001	-1.2842532E+000	0
1.1022640E+001	1.166023972607945E+002	-1.2873628E+000	-1.167926032559891E+002	1.5035446E-001	-1.2872529E+000	0
1.0906301E+001	1.169023972532159E+002	-1.2903647E+000	-1.183136820521083E+002	1.5266781E-001	-1.2902529E+000	0
1.0771894E+001	1.172023972456373E+002	-1.2933658E+000	-1.200685596284684E+002	1.5529257E-001	-1.2932531E+000	0
1.0657154E+001	1.175023972380586E+002	-1.2963529E+000	-1.216415658288295E+002	1.5769039E-001	-1.2962530E+000	0
1.0507325E+001	1.178023972304800E+002	-1.2994000E+000	-1.236661086917758E+002	1.6069174E-001	-1.2992531E+000	0
1.0261932E+001	1.181023972229013E+002	-1.3023534E+000	-1.269111195488854E+002	1.6528313E-001	-1.3022530E+000	0
1.0077195E+001	1.184023972153227E+002	-1.3053712E+000	-1.295371532258807E+002	1.6909407E-001	-1.3052531E+000	0
9.9521704E+000	1.187023972077441E+002	-1.3083799E+000	-1.314667932750945E+002	1.7200851E-001	-1.3082530E+000	0
9.8296347E+000	1.190023972001654E+002	-1.3113854E+000	-1.334114131812935E+002	1.7495377E-001	-1.3112532E+000	0
9.7331314E+000	1.193023971925868E+002	-1.3143978E+000	-1.350436689226004E+002	1.7750110E-001	-1.3142533E+000	0
9.6651525E+000	1.196023971850082E+002	-1.3173814E+000	-1.363021759972567E+002	1.7956194E-001	-1.3172530E+000	0
9.6041241E+000	1.199023971774295E+002	-1.3203574E+000	-1.374781685963771E+002	1.8152033E-001	-1.3202529E+000	0
9.5062313E+000	1.202023971698509E+002	-1.3233504E+000	-1.392087331796665E+002	1.8422194E-001	-1.3232530E+000	0
9.4200048E+000	1.205023971622722E+002	-1.3263555E+000	-1.408019927600481E+002	1.8675350E-001	-1.3262531E+000	0
9.3321085E+000	1.208023971546936E+002	-1.3293238E+000	-1.424462368156574E+002	1.8935716E-001	-1.3292531E+000	0
9.2733345E+000	1.211023971471150E+002	-1.3323292E+000	-1.436731535841868E+002	1.9141993E-001	-1.3322530E+000	0
9.1991301E+000	1.214023971395363E+002	-1.3353374E+000	-1.451590973163870E+002	1.9383638E-001	-1.3352531E+000	0
9.1200113E+000	1.217023971319577E+002	-1.3383310E+000	-1.467466341387162E+002	1.9639556E-001	-1.3382533E+000	0
9.0180855E+000	1.220023971243791E+002	-1.3413309E+000	-1.487378695605397E+002	1.9950670E-001	-1.3412532E+000	0
8.9286852E+000	1.223023971168004E+002	-1.3443345E+000	-1.505635420595922E+002	2.0240776E-001	-1.3442532E+000	0
8.6622992E+000	1.226023971092218E+002	-1.3473791E+000	-1.555452072384114E+002	2.0957837E-001	-1.3472530E+000	0
8.5696611E+000	1.229023971016431E+002	-1.3504082E+000	-1.575801232827678E+002	2.1279749E-001	-1.3502530E+000	0
8.5013113E+000	1.232023970940645E+002	-1.3533674E+000	-1.591951389312740E+002	2.1544951E-001	-1.3532530E+000	0
8.5382719E+000	1.235023970864859E+002	-1.3563586E+000	-1.588563366738160E+002	2.1546617E-001	-1.3562530E+000	0
8.4775782E+000	1.238023970789072E+002	-1.3593869E+000	-1.603508613823167E+002	2.1797886E-001	-1.3592532E+000	0
8.2990942E+000	1.241023970713286E+002	-1.3623557E+000	-1.641571552899031E+002	2.2364044E-001	-1.3622531E+000	0
8.1884003E+000	1.244023970637500E+002	-1.3653914E+000	-1.667470315793857E+002	2.2767496E-001	-1.3652531E+000	0
8.1400375E+000	1.247023970561713E+002	-1.3683803E+000	-1.681049137573700E+002	2.3003146E-001	-1.3682531E+000	0
8.0306091E+000	1.250023970485927E+002	-1.3713732E+000	-1.707682686902144E+002	2.3418702E-001	-1.3712533E+000	0
7.9494395E+000	1.253023970410140E+002	-1.3744229E+000	-1.728955783385763E+002	2.3763165E-001	-1.3742532E+000	0
7.8387818E+000	1.255874970338118E+002	-1.3772314E+000	-1.756945658095025E+002	2.4197206E-001	-1.3771037E+000	0
7.7689691E+000	1.258726970266071E+002	-1.3800970E+000	-1.776422369103470E+002	2.4516353E-001	-1.3799559E+000	0
7.7151399E+000	1.261429970197787E+002	-1.3828167E+000	-1.792341637839384E+002	2.4784799E-001	-1.3826582E+000	0
7.6850495E+000	1.264429970122001E+002	-1.3858532E+000	-1.803310637469649E+002	2.4991238E-001	-1.3856586E+000	0
7.6362033E+000	1.267280970049978E+002	-1.3886778E+000	-1.818544850675762E+002	2.5253728E-001	-1.3885098E+000	0
7.5746665E+000	1.269982969981720E+002	-1.3913636E+000	-1.836864546529223E+002	2.5557464E-001	-1.3912115E+000	0
7.4937062E+000	1.272683969913487E+002	-1.3940725E+000	-1.860324468325744E+002	2.5934273E-001	-1.3939130E+000	0
7.4370050E+000	1.275385969845229E+002	-1.3967758E+000	-1.878142895664018E+002	2.6233447E-001	-1.3966143E+000	0
7.3533759E+000	1.278236969773207E+002	-1.3996236E+000	-1.903375616909889E+002	2.6640096E-001	-1.3994657E+000	0
7.2730331E+000	1.281087969701184E+002	-1.4024267E+000	-1.928255663193772E+002	2.7042374E-001	-1.4023169E+000	0
7.1492038E+000	1.283789969632926E+002	-1.4052089E+000	-1.965546054663528E+002	2.7620029E-001	-1.4050187E+000	0
7.0507450E+000	1.286343969568406E+002	-1.4077263E+000	-1.996563926552981E+002	2.8106156E-001	-1.4075729E+000	0
6.4139538E+000	1.288746969507702E+002	-1.4101616E+000	-2.198583991854429E+002	3.1003588E-001	-1.4099754E+000	0
6.1898398E+000	1.290999969450786E+002	-1.4124268E+000	-2.281847136153378E+002	3.2229421E-001	-1.4122286E+000	0
6.1625128E+000	1.293849969378789E+002	-1.4152511E+000	-2.296548743406645E+002	3.2501933E-001	-1.4150785E+000	0
6.1652446E+000	1.296849969303003E+002	-1.4182655E+000	-2.300420405006114E+002	3.2626069E-001	-1.4180789E+000	0
6.1282978E+000	1.299700969230980E+002	-1.4211130E+000	-2.318935948585040E+002	3.2954702E-001	-1.4209297E+000	0
6.0566926E+000	1.302402969162722E+002	-1.4237776E+000	-2.350751027566048E+002	3.3469465E-001	-1.4236319E+000	0
6.0170083E+000	1.304807969101967E+002	-1.4261941E+000	-2.370270995332646E+002	3.3804664E-001	-1.4260371E+000	0
6.0210247E+000	1.305722969078852E+002	-1.4271132E+000	-2.370216432710486E+002	3.3825672E-001	-1.4269501E+000	0
6.0208845E+000	1.305742969078347E+002	-1.4271322E+000	-2.370303234524190E+002	3.3827361E-001	-1.4269700E+000	0
6.0220056E+000	1.305762969077841E+002	-1.4271553E+000	-2.369900344146615E+002	3.3822158E-001	-1.4269900E+000	0
6.0122828E+000	1.305931969073572E+002	-1.4273012E+000	-2.373975431851245E+002	3.3883780E-001	-1.4271590E+000	0
5.9825206E+000	1.307739969027898E+002	-1.4291165E+000	-2.388820050530204E+002	3.4139022E-001	-1.4289682E+000	0
5.9601817E+000	1.310739968952112E+002	-1.4321454E+000	-2.402855281912216E+002	3.4412381E-001	-1.4319689E+000	0
5.8839917E+000	1.313291968887643E+002	-1.4347206E+000	-2.438345716013819E+002	3.4983450E-001	-1.4345207E+000	0
5.7236032E+000	1.315693968826963E+002	-1.4371482E+000	-2.510915250508976E+002	3.6085573E-001	-1.4369227E+000	0
5.7494607E+000	1.318544968754941E+002	-1.4399716E+000	-2.504533210508216E+002	3.6064565E-001	-1.4397739E+000	0
5.6922059E+000	1.321545968679129E+002	-1.4430045E+000	-2.535053191101615E+002	3.6580932E-001	-1.4427748E+000	0
5.6830878E+000	1.324396968607107E+002	-1.4458143E+000	-2.544064498880165E+002	3.6782447E-001	-1.4456258E+000	0
5.5649915E+000	1.327097968538874E+002	-1.4485092E+000	-2.602895768484259E+002	3.7703186E-001	-1.4483271E+000	0
5.5596695E+000	1.329499968478194E+002	-1.4509051E+000	-2.609696666178262E+002	3.7864220E-001	-1.4507282E+000	0
5.7204132E+000	1.331604968425017E+002	-1.4530381E+000	-2.540092949869022E+002	3.6908519E-001	-1.4528331E+000	0
5.7951674E+000	1.334008968364287E+002	-1.4554085E+000	-2.511417338895340E+002	3.6551380E-001	-1.4552377E+000	0
5.7986622E+000	1.336860968292240E+002	-1.4582695E+000	-2.514837724572817E+002	3.6673111E-001	-1.4580898E+000	0
5.7330451E+000	1.339712968220192E+002	-1.4611433E+000	-2.548633757099469E+002	3.7239191E-001	-1.4609416E+000	0
5.6643839E+000	1.342413968151959E+002	-1.4638455E+000	-2.584297810068576E+002	3.7830126E-001	-1.4636426E+000	0
5.6543489E+000	1.344964968087515E+002	-1.4663979E+000	-2.593398401112199E+002	3.8029540E-001	-1.4661937E+000	0
5.5772276E+000	1.347965968011704E+002	-1.4694029E+000	-2.634647467445320E+002	3.8713586E-001	-1.4691948E+000	0
5.4047122E+000	1.350817967939656E+002	-1.4722528E+000	-2.724017040397206E+002	4.0104419E-001	-1.4720465E+000	0
5.1749363E+000	1.353222967878901E+002	-1.4746778E+000	-2.849653946371159E+002	4.2023215E-001	-1.4744513E+000	0
5.2042627E+000	1.355178967829488E+002	-1.4766326E+000	-2.837352047185250E+002	4.1897264E-001	-1.4764075E+000	0
5.1787090E+000	1.357431967772573E+002	-1.4788673E+000	-2.855667814368326E+002	4.2231536E-001	-1.4786606E+000	0
5.2010698E+000	1.359833967711893E+002	-1.4813002E+000	-2.848068357291868E+002	4.2188445E-001	-1.4810630E+000	0
5.2079797E+000	1.362383967647474E+002	-1.4838347E+000	-2.849156138500261E+002	4.2276770E-001	-1.4836124E+000	0
5.2208791E+000	1.365083967579267E+002	-1.4865469E+000	-2.847311397590498E+002	4.2326617E-001	-1.4863127E+000	0
5.2620416E+000	1.368083967503480E+002	-1.4895631E+000	-2.830770385711648E+002	4.2166111E-001	-1.4893132E+000	0
5.2932858E+000	1.370935967431433E+002	-1.4924014E+000	-2.819423274980873E+002	4.2077112E-001	-1.4921649E+000	0
5.2292852E+000	1.373637967363175E+002	-1.4951046E+000	-2.859099239838015E+002	4.2746523E-001	-1.4948668E+000	0
5.0954208E+000	1.376190967298680E+002	-1.4976586E+000	-2.939224491904365E+002	4.4019550E-001	-1.4974191E+000	0
5.0638189E+000	1.377996967253057E+002	-1.4994351E+000	-2.961075635087946E+002	4.4399408E-001	-1.4992251E+000	0
5.0717511E+000	1.380397967192403E+002	-1.5018855E+000	-2.961276193490621E+002	4.4474980E-001	-1.5016268E+000	0
4.9559698E+000	1.383099967124144E+002	-1.5045960E+000	-3.035926447738702E+002	4.5678428E-001	-1.5043286E+000	0
4.9003258E+000	1.385801967055886E+002	-1.5072689E+000	-3.075854402108707E+002	4.6361396E-001	-1.5070310E+000	0
4.7158380E+000	1.388652966983864E+002	-1.5100887E+000	-3.202163925534455E+002	4.8355514E-001	-1.5098815E+000	0
4.5883260E+000	1.391054966923184E+002	-1.5125175E+000	-3.296447285296390E+002	4.9859342E-001	-1.5122837E+000	0
4.5066190E+000	1.393604966858766E+002	-1.5150553E+000	-3.361844685655324E+002	5.0933808E-001	-1.5148335E+000	0
4.4309492E+000	1.396307966790482E+002	-1.5177817E+000	-3.425409824318604E+002	5.1990247E-001	-1.5175368E+000	0
4.3918037E+000	1.398860966725988E+002	-1.5203329E+000	-3.461750540010885E+002	5.2630132E-001	-1.5200896E+000	0
4.3801899E+000	1.401115966669022E+002	-1.5225840E+000	-3.476068389420759E+002	5.2926058E-001	-1.5223449E+000	0
4.3981829E+000	1.403516966608368E+002	-1.5250144E+000	-3.467373941746205E+002	5.2877951E-001	-1.5247459E+000	0
4.3405108E+000	1.406069966543873E+002	-1.5275590E+000	-3.519306887383864E+002	5.3759491E-001	-1.5272987E+000	0
4.2666841E+000	1.408771966475615E+002	-1.5302838E+000	-3.586588064891380E+002	5.4884976E-001	-1.5300013E+000	0
4.1644988E+000	1.410874966422489E+002	-1.5323542E+000	-3.679564701039253E+002	5.6383967E-001	-1.5321028E+000	0
4.2189679E+000	1.413126966365598E+002	-1.5345902E+000	-3.637359299649260E+002	5.5818564E-001	-1.5343558E+000	0
4.1895027E+000	1.415528966304919E+002	-1.5370010E+000	-3.668695621993429E+002	5.6387889E-001	-1.5367570E+000	0
4.1457739E+000	1.418231966236635E+002	-1.5397766E+000	-3.714087343798265E+002	5.7188648E-001	-1.5394609E+000	0
4.0803723E+000	1.420782966172192E+002	-1.5423243E+000	-3.779861891957435E+002	5.8297729E-001	-1.5420119E+000	0
4.1115966E+000	1.423483966103959E+002	-1.5450377E+000	-3.757756096860248E+002	5.8058751E-001	-1.5447131E+000	0
4.1433377E+000	1.426036966039464E+002	-1.5476066E+000	-3.735168832869272E+002	5.7805717E-001	-1.5472658E+000	0
4.5937467E+000	1.428740965971156E+002	-1.5502325E+000	-3.374658146906968E+002	5.2315050E-001	-1.5499697E+000	0
3.9350116E+000	1.431147965910350E+002	-1.5526853E+000	-3.945821324327671E+002	6.1266184E-001	-1.5523765E+000	0
3.1420465E+000	1.433401965853409E+002	-1.5549780E+000	-4.948933774486859E+002	7.6954830E-001	-1.5546309E+000	0
3.1098816E+000	1.435952965788965E+002	-1.5575590E+000	-5.008419030863497E+002	7.8009081E-001	-1.5571816E+000	0
3.1100652E+000	1.438357965728210E+002	-1.5599332E+000	-5.015757027861182E+002	7.8242457E-001	-1.5595868E+000	0
3.0572476E+000	1.440315965678747E+002	-1.5619066E+000	-5.108864901248235E+002	7.9795694E-001	-1.5615444E+000	0
3.0977633E+000	1.442868965614252E+002	-1.5644870E+000	-5.050376229596459E+002	7.9012477E-001	-1.5640980E+000	0
3.1282589E+000	1.445870965538415E+002	-1.5674658E+000	-5.010665060621286E+002	7.8540462E-001	-1.5671000E+000	0
3.0942881E+000	1.448871965462604E+002	-1.5704904E+000	-5.075449526963582E+002	7.9709446E-001	-1.5701010E+000	0
3.0859158E+000	1.451574965394320E+002	-1.5731621E+000	-5.097877684000214E+002	8.0197877E-001	-1.5728029E+000	0
2.9886100E+000	1.453831965337304E+002	-1.5754678E+000	-5.271573658058696E+002	8.3051950E-001	-1.5750604E+000	0
2.9351442E+000	1.455789965287840E+002	-1.5774159E+000	-5.374236531502866E+002	8.4774065E-001	-1.5770180E+000	0
2.9622345E+000	1.458342965223346E+002	-1.5799826E+000	-5.333752878713894E+002	8.4272367E-001	-1.5795715E+000	0
2.9600716E+000	1.460893965158903E+002	-1.5825074E+000	-5.346179246507377E+002	8.4603679E-001	-1.5821226E+000	0
3.0194833E+000	1.463443965094484E+002	-1.5850308E+000	-5.249344364522767E+002	8.3203727E-001	-1.5846729E+000	0
2.9086313E+000	1.465843965033855E+002	-1.5874523E+000	-5.457729435261331E+002	8.6638850E-001	-1.5870726E+000	0
2.9225399E+000	1.467798964984468E+002	-1.5893945E+000	-5.438400976772418E+002	8.6437643E-001	-1.5890276E+000	0
2.9167087E+000	1.470054964927476E+002	-1.5916616E+000	-5.457046685617679E+002	8.6857712E-001	-1.5912834E+000	0
2.9071636E+000	1.472307964870561E+002	-1.5938945E+000	-5.482644620640842E+002	8.7387568E-001	-1.5935369E+000	0
2.8342490E+000	1.475007964802353E+002	-1.5966331E+000	-5.633354967669084E+002	8.9944011E-001	-1.5962371E+000	0
2.7898769E+000	1.478007964726567E+002	-1.5996463E+000	-5.733752354802300E+002	9.1719759E-001	-1.5992371E+000	0
2.8226583E+000	1.481007964650780E+002	-1.6026167E+000	-5.677685800959043E+002	9.0991539E-001	-1.6022366E+000	0
2.8668392E+000	1.482469964613847E+002	-1.6042403E+000	-5.595850339617054E+002	8.9770883E-001	-1.6038865E+000	1