EC-Lab ASCII FILE
Nb header lines : 63                          

Linear Sweep Voltammetry

Run on channel : 1 (SN 1340)
User : 
Electrode connection : standard
Potential control : Ewe
Ewe ctrl range : min = -5.00 V, max = 10.00 V
Ewe,I filtering : <None>
Safety Limits :
	Do not start on E overload
Channel : Floating
Acquisition started on : 03/05/2026 11:46:44.818
Technique started on : 03/05/2026 11:46:47.502
Loaded Setting File :  NONE
Saved on :
	File : Pt_N52magB_up_3-5_02_LSV_C01.mpr
	Directory : C:\Users\volt\Documents\Platalytix\
	Host : 127.0.0.1
Device : SP-200 (SN 0262)
Address : USB
EC-LAB for windows v11.60 (software)
Internet server v11.60 (firmware)
Command interpretor v11.60 (firmware)
Electrode material : Pt
Initial state : 
Electrolyte : KOH (1 M)
Comments : N52 disk magnet, B side up (-), up orientation
Cable : standard
Reference electrode : Hg/HgO (0.140 V)
Electrode surface area : 1.000 cm˛
Characteristic mass : 0.001 g
Equivalent Weight : 0.000 g/eq.
Density : 0.000 g/cm3
Volume (V) : 0.001 cmł
Cycle Definition : Charge/Discharge alternance
tR (h:m:s)          0:00:5.0000         
dER/dt (mV/h)       0.0                 
dER (mV)            0                   
dtR (s)             0.0000              
dE/dt               10.000              
dE/dt unit          mV/s                
Ei (V)              -0.200              
vs.                 Ref                 
EL (V)              -2.500              
vs.                 Ref                 
record              <I>                 
dI                  0.000               
unit dI             µA                  
tI (s)              0.0000              
step percent        50                  
N                   10                  
E range min (V)     -5.000              
E range max (V)     10.000              
I Range             Auto                
I Range min         Unset               
I Range max         Unset               
I Range init        Unset               
Bandwidth           8                   

Rwe/Ohm	time/s	Ewe/V	<I>/mA	Pwe/W	control/V	error	
0.0000000E+000	2.684400127473054E+000	-1.6351977E-001	0.000000000000000E+000	0.0000000E+000	0.0000000E+000	0
0.0000000E+000	7.684200001167483E+000	-6.6664889E-002	0.000000000000000E+000	0.0000000E+000	-1.9979225E-001	0
6.3871173E+002	7.864399996615248E+000	-2.0145354E-001	3.154060244560242E-001	-6.3539657E-005	-2.0144393E-001	0
7.6297056E+003	8.029699992439419E+000	-2.0311873E-001	-2.662209212023253E-002	5.4074453E-006	-2.0309585E-001	0
3.4911917E+003	8.329699984860781E+000	-2.0609722E-001	-5.903348662820074E-002	1.2166637E-005	-2.0609641E-001	0
3.5090850E+003	8.629599977284670E+000	-2.0907913E-001	-5.958223735429041E-002	1.2457403E-005	-2.0909552E-001	0
3.6554028E+003	8.929599969706032E+000	-2.1212518E-001	-5.803059040132801E-002	1.2309750E-005	-2.1209551E-001	0
3.8280591E+003	9.229599962127395E+000	-2.1505098E-001	-5.617755168968808E-002	1.2081037E-005	-2.1509507E-001	0
4.0041125E+003	9.529599954548758E+000	-2.1807571E-001	-5.446293286824605E-002	1.1877042E-005	-2.1809527E-001	0
4.1736133E+003	9.829599946970120E+000	-2.2107467E-001	-5.296961367567998E-002	1.1710240E-005	-2.2109529E-001	0
4.3389600E+003	1.012959993939148E+001	-2.2405861E-001	-5.163878224106846E-002	1.1570114E-005	-2.2409552E-001	0
4.5078584E+003	1.042959993181285E+001	-2.2706801E-001	-5.037159312065786E-002	1.1437777E-005	-2.2709507E-001	0
4.6669868E+003	1.072959992423421E+001	-2.3010392E-001	-4.930460302374007E-002	1.1345182E-005	-2.3009507E-001	0
4.8276675E+003	1.102959991665557E+001	-2.3308009E-001	-4.828006057379158E-002	1.1253121E-005	-2.3309551E-001	0
4.9900293E+003	1.132959990907693E+001	-2.3605174E-001	-4.730467930740262E-002	1.1166352E-005	-2.3609550E-001	0
5.1492207E+003	1.162959990149830E+001	-2.3909131E-001	-4.643252380079466E-002	1.1101612E-005	-2.3909530E-001	0
5.3160293E+003	1.192969989391713E+001	-2.4213207E-001	-4.554753992452620E-002	1.1028520E-005	-2.4209617E-001	0
5.4651211E+003	1.222969988633849E+001	-2.4506129E-001	-4.484096261084641E-002	1.0988784E-005	-2.4509640E-001	0
5.6233281E+003	1.252969987875986E+001	-2.4808793E-001	-4.411763371712893E-002	1.0945052E-005	-2.4809660E-001	0
5.7838726E+003	1.282979987117869E+001	-2.5107649E-001	-4.340975440576650E-002	1.0899169E-005	-2.5109753E-001	0
5.9340405E+003	1.312969986360258E+001	-2.5406966E-001	-4.281562460955313E-002	1.0878151E-005	-2.5409645E-001	0
6.0953921E+003	1.342969985602394E+001	-2.5702515E-001	-4.216712223292141E-002	1.0838011E-005	-2.5709662E-001	0
6.2518691E+003	1.372969984844531E+001	-2.6012164E-001	-4.160702095612145E-002	1.0822887E-005	-2.6009664E-001	0
6.4069463E+003	1.402969984086667E+001	-2.6307780E-001	-4.106133939785950E-002	1.0802327E-005	-2.6309663E-001	0
6.5601602E+003	1.432959983329056E+001	-2.6610923E-001	-4.056444095306549E-002	1.0794573E-005	-2.6609552E-001	0
6.7119702E+003	1.462959982571192E+001	-2.6910323E-001	-4.009302973234641E-002	1.0789164E-005	-2.6909554E-001	0
6.8661089E+003	1.492959981813328E+001	-2.7210960E-001	-3.963083092674757E-002	1.0783930E-005	-2.7209553E-001	0
7.0138779E+003	1.522959981055465E+001	-2.7511477E-001	-3.922434627535543E-002	1.0791197E-005	-2.7509555E-001	0
7.1719399E+003	1.552959980297601E+001	-2.7809343E-001	-3.877520309007920E-002	1.0783129E-005	-2.7809551E-001	0
7.3222368E+003	1.582959979539737E+001	-2.8109482E-001	-3.838920071334562E-002	1.0791005E-005	-2.8109553E-001	0
7.4711069E+003	1.612959978781873E+001	-2.8406832E-001	-3.802225231366474E-002	1.0800917E-005	-2.8409553E-001	0
7.6278657E+003	1.642959978024010E+001	-2.8710938E-001	-3.763954234157096E-002	1.0806665E-005	-2.8709555E-001	0
7.7785000E+003	1.672959977266146E+001	-2.9010031E-001	-3.729514821138782E-002	1.0819334E-005	-2.9009530E-001	0
7.9320884E+003	1.702959976508282E+001	-2.9314914E-001	-3.695737237451291E-002	1.0834022E-005	-2.9309550E-001	0
8.0773291E+003	1.732959975750418E+001	-2.9608977E-001	-3.665689099019337E-002	1.0853731E-005	-2.9609552E-001	0
8.2214336E+003	1.762959974992555E+001	-2.9907620E-001	-3.637762017727385E-002	1.0879680E-005	-2.9909554E-001	0
8.3658555E+003	1.792969974234438E+001	-3.0207992E-001	-3.610867221336281E-002	1.0907705E-005	-3.0209640E-001	0
8.5138965E+003	1.822969973476575E+001	-3.0509010E-001	-3.583436678794083E-002	1.0932710E-005	-3.0509663E-001	0
8.6468906E+003	1.852969972718711E+001	-3.0812690E-001	-3.563441423732749E-002	1.0979921E-005	-3.0809659E-001	0
8.7955137E+003	1.882969971960847E+001	-3.1111044E-001	-3.537149265648071E-002	1.1004440E-005	-3.1109661E-001	0
8.9484473E+003	1.912979971202731E+001	-3.1414676E-001	-3.510628880536504E-002	1.1028526E-005	-3.1409752E-001	0
9.0789443E+003	1.942969970445120E+001	-3.1708416E-001	-3.492522534759168E-002	1.1074236E-005	-3.1709665E-001	0
9.2151699E+003	1.972969969687256E+001	-3.2013696E-001	-3.474021444082165E-002	1.1121627E-005	-3.2009664E-001	0
9.3606816E+003	2.002969968929392E+001	-3.2313240E-001	-3.452017890028471E-002	1.1154588E-005	-3.2309663E-001	0
9.4943525E+003	2.032959968171781E+001	-3.2609195E-001	-3.434588477348871E-002	1.1199916E-005	-3.2609552E-001	0
9.6337822E+003	2.062959967413917E+001	-3.2911301E-001	-3.416238975078478E-002	1.1243287E-005	-3.2909533E-001	0
9.7671445E+003	2.092959966656053E+001	-3.3210626E-001	-3.400238934940572E-002	1.1292406E-005	-3.3209553E-001	0
9.9077969E+003	2.122959965898190E+001	-3.3513606E-001	-3.382548602390179E-002	1.1336140E-005	-3.3509552E-001	0
1.0035015E+004	2.152959965140326E+001	-3.3816057E-001	-3.369806354266286E-002	1.1395357E-005	-3.3809555E-001	0
1.0165202E+004	2.182959964382462E+001	-3.4113643E-001	-3.355923747254347E-002	1.1448278E-005	-3.4109554E-001	0
1.0301628E+004	2.212959963624598E+001	-3.4414235E-001	-3.340659810000901E-002	1.1496625E-005	-3.4409550E-001	0
1.0414179E+004	2.242959962866735E+001	-3.4710070E-001	-3.332962956506247E-002	1.1568738E-005	-3.4709558E-001	0
1.0541298E+004	2.272959962108871E+001	-3.5003334E-001	-3.320590449516567E-002	1.1623174E-005	-3.5009578E-001	0
1.0669439E+004	2.302959961351007E+001	-3.5306522E-001	-3.309126184796006E-002	1.1683373E-005	-3.5309556E-001	0
1.0795198E+004	2.332959960593143E+001	-3.5610932E-001	-3.298775271872967E-002	1.1747246E-005	-3.5609555E-001	0
1.0906162E+004	2.362959959835280E+001	-3.5908133E-001	-3.292462827940834E-002	1.1822619E-005	-3.5909551E-001	0
1.1033861E+004	2.392959959077416E+001	-3.6210963E-001	-3.281803269482608E-002	1.1883726E-005	-3.6209556E-001	0
1.1147207E+004	2.422969958319300E+001	-3.6506274E-001	-3.274925727436134E-002	1.1955533E-005	-3.6509639E-001	0
1.1267636E+004	2.452969957561436E+001	-3.6807948E-001	-3.266696757568721E-002	1.2024040E-005	-3.6809659E-001	0
1.1385921E+004	2.482969956803572E+001	-3.7107676E-001	-3.259084440602056E-002	1.2093705E-005	-3.7109661E-001	0
1.1506937E+004	2.512969956045708E+001	-3.7411684E-001	-3.251228755909619E-002	1.2163394E-005	-3.7409660E-001	0
1.1617189E+004	2.542969955287845E+001	-3.7710896E-001	-3.246129033263789E-002	1.2241443E-005	-3.7709644E-001	0
1.1732155E+004	2.572969954529981E+001	-3.8004676E-001	-3.239359985634527E-002	1.2311082E-005	-3.8009661E-001	0
1.1844609E+004	2.602969953772117E+001	-3.8312256E-001	-3.234573148459158E-002	1.2392379E-005	-3.8309667E-001	0
1.1947499E+004	2.632959953014506E+001	-3.8610825E-001	-3.231707648202792E-002	1.2477890E-005	-3.8609579E-001	0
1.2059002E+004	2.662959952256642E+001	-3.8908619E-001	-3.226520607832228E-002	1.2553946E-005	-3.8909528E-001	0
1.2173747E+004	2.692959951498779E+001	-3.9211366E-001	-3.220977484047571E-002	1.2629893E-005	-3.9209551E-001	0
1.2257806E+004	2.722959950740915E+001	-3.9508173E-001	-3.223103126521654E-002	1.2733892E-005	-3.9509553E-001	0
1.2368854E+004	2.752959949983051E+001	-3.9801639E-001	-3.217892043084469E-002	1.2807738E-005	-3.9809558E-001	0
1.2463298E+004	2.782959949225187E+001	-4.0108153E-001	-3.218101251062333E-002	1.2907210E-005	-4.0109557E-001	0
1.2552606E+004	2.812959948467324E+001	-4.0404987E-001	-3.218852332820454E-002	1.3005769E-005	-4.0409556E-001	0
1.2672759E+004	2.842959947709460E+001	-4.0708548E-001	-3.212287791449875E-002	1.3076758E-005	-4.0709552E-001	0
1.2789770E+004	2.872959946951596E+001	-4.1010794E-001	-3.206531202777574E-002	1.3150239E-005	-4.1009554E-001	0
1.2869868E+004	2.902959946193732E+001	-4.1309148E-001	-3.209756964982091E-002	1.3259232E-005	-4.1309553E-001	0
1.2960960E+004	2.932959945435869E+001	-4.1609824E-001	-3.210396640045665E-002	1.3358404E-005	-4.1609529E-001	0
1.3068288E+004	2.962959944678005E+001	-4.1913271E-001	-3.207250275319568E-002	1.3442635E-005	-4.1909552E-001	0
1.3148923E+004	2.992959943920141E+001	-4.2209956E-001	-3.210145533997494E-002	1.3550010E-005	-4.2209554E-001	0
1.3251985E+004	3.022959943162277E+001	-4.2507678E-001	-3.207646140384945E-002	1.3634959E-005	-4.2509577E-001	0
1.3363461E+004	3.052969942404161E+001	-4.2813158E-001	-3.203747749822550E-002	1.3716256E-005	-4.2809659E-001	0
1.3435526E+004	3.082969941646297E+001	-4.3109235E-001	-3.208600322655333E-002	1.3832030E-005	-4.3109661E-001	0
1.3521171E+004	3.112969940888433E+001	-4.3406489E-001	-3.210261248534074E-002	1.3934618E-005	-4.3409660E-001	0
1.3632297E+004	3.142979940130317E+001	-4.3704367E-001	-3.205943039341141E-002	1.4011371E-005	-4.3709755E-001	0
1.3704355E+004	3.172969939372706E+001	-4.4011906E-001	-3.211526929222965E-002	1.4134542E-005	-4.4009665E-001	0
1.3784417E+004	3.202969938614842E+001	-4.4311532E-001	-3.214610631165127E-002	1.4244432E-005	-4.4309667E-001	0
1.3866073E+004	3.232969937856979E+001	-4.4609269E-001	-3.217152281068736E-002	1.4351482E-005	-4.4609672E-001	0
1.3971335E+004	3.262959937099367E+001	-4.4910121E-001	-3.214447363891415E-002	1.4436122E-005	-4.4909576E-001	0
1.4048552E+004	3.292959936341504E+001	-4.5208544E-001	-3.218021633474076E-002	1.4548207E-005	-4.5209533E-001	0
1.4133073E+004	3.322959935583640E+001	-4.5507780E-001	-3.219949242051634E-002	1.4653274E-005	-4.5509553E-001	0
1.4212596E+004	3.352959934825776E+001	-4.5806941E-001	-3.222982065775137E-002	1.4763495E-005	-4.5809552E-001	0
1.4275348E+004	3.382959934067912E+001	-4.6111566E-001	-3.230153533159286E-002	1.4894744E-005	-4.6109581E-001	0
1.4355994E+004	3.412959933310049E+001	-4.6411067E-001	-3.232870213308672E-002	1.5004096E-005	-4.6409553E-001	0
1.4451623E+004	3.442959932552185E+001	-4.6712610E-001	-3.232343509871223E-002	1.5099120E-005	-4.6709558E-001	0
1.4520205E+004	3.472959931794321E+001	-4.7005969E-001	-3.237279955881472E-002	1.5217148E-005	-4.7009552E-001	0
1.4595304E+004	3.502959931036457E+001	-4.7309801E-001	-3.241440029941578E-002	1.5335188E-005	-4.7309557E-001	0
1.4675270E+004	3.532959930278594E+001	-4.7607055E-001	-3.244032814755904E-002	1.5443886E-005	-4.7609556E-001	0
1.4726441E+004	3.562959929520730E+001	-4.7907865E-001	-3.253186751946302E-002	1.5585323E-005	-4.7909555E-001	0
1.4807577E+004	3.592959928762866E+001	-4.8211360E-001	-3.255857393771122E-002	1.5696931E-005	-4.8209560E-001	0
1.4870836E+004	3.622959928005002E+001	-4.8510695E-001	-3.262136340178212E-002	1.5824849E-005	-4.8509553E-001	0
1.4938177E+004	3.652959927247139E+001	-4.8810849E-001	-3.267523733996830E-002	1.5949061E-005	-4.8809579E-001	0
1.5004873E+004	3.682969926489022E+001	-4.9109107E-001	-3.272877278531540E-002	1.6072809E-005	-4.9109641E-001	0
1.5069082E+004	3.712969925731159E+001	-4.9404970E-001	-3.278565319709187E-002	1.6197742E-005	-4.9409658E-001	0
1.5138386E+004	3.742969924973295E+001	-4.9712133E-001	-3.283846476861418E-002	1.6324702E-005	-4.9709666E-001	0
1.5188082E+004	3.772969924215431E+001	-5.0006145E-001	-3.292459588476271E-002	1.6464321E-005	-5.0009686E-001	0
1.5241564E+004	3.802969923457567E+001	-5.0307685E-001	-3.300690327039252E-002	1.6605009E-005	-5.0309676E-001	0
1.5308539E+004	3.832969922699704E+001	-5.0610960E-001	-3.306060644431061E-002	1.6732291E-005	-5.0609696E-001	0
1.5363745E+004	3.862959921942092E+001	-5.0908202E-001	-3.313528064191745E-002	1.6868575E-005	-5.0909579E-001	0
1.5410903E+004	3.892959921184229E+001	-5.1204735E-001	-3.322630331341594E-002	1.7013441E-005	-5.1209605E-001	0
1.5476115E+004	3.922959920426365E+001	-5.1513535E-001	-3.328583124786633E-002	1.7146709E-005	-5.1509553E-001	0
1.5526889E+004	3.952959919668501E+001	-5.1814806E-001	-3.337101709896761E-002	1.7291128E-005	-5.1809561E-001	0
1.5574620E+004	3.982959918910638E+001	-5.2102953E-001	-3.345375545324350E-002	1.7430395E-005	-5.2109581E-001	0
1.5627190E+004	4.012959918152774E+001	-5.2408928E-001	-3.353701292390809E-002	1.7576389E-005	-5.2409601E-001	0
1.5675473E+004	4.042959917394910E+001	-5.2709842E-001	-3.362567962107488E-002	1.7724042E-005	-5.2709579E-001	0
1.5712297E+004	4.072959916637046E+001	-5.3003383E-001	-3.373369551942776E-002	1.7880000E-005	-5.3009558E-001	0
1.5758216E+004	4.102959915879183E+001	-5.3309184E-001	-3.382945530298465E-002	1.8034207E-005	-5.3309560E-001	0
1.5804090E+004	4.132959915121319E+001	-5.3607261E-001	-3.391986581784956E-002	1.8183511E-005	-5.3609604E-001	0
1.5856996E+004	4.162959914363455E+001	-5.3910851E-001	-3.399814813787838E-002	1.8328692E-005	-5.3909588E-001	0
1.5888369E+004	4.192959913605591E+001	-5.4210949E-001	-3.411989534355808E-002	1.8496719E-005	-5.4209566E-001	0
1.5944543E+004	4.222959912847728E+001	-5.4511511E-001	-3.418819282692454E-002	1.8636501E-005	-5.4509580E-001	0
1.5982871E+004	4.252959912089864E+001	-5.4810131E-001	-3.429304342888240E-002	1.8796061E-005	-5.4809582E-001	0
1.5998353E+004	4.282959911332000E+001	-5.5111003E-001	-3.444792426687571E-002	1.8984596E-005	-5.5109584E-001	0
1.6047150E+004	4.312969910573884E+001	-5.5403602E-001	-3.452550892177531E-002	1.9128376E-005	-5.5409664E-001	0
1.6103712E+004	4.342969909816020E+001	-5.5713671E-001	-3.459678803965127E-002	1.9275141E-005	-5.5709672E-001	0
1.6122152E+004	4.372959909058409E+001	-5.6013376E-001	-3.474311209661352E-002	1.9460789E-005	-5.6009597E-001	0
1.6152977E+004	4.402969908300292E+001	-5.6307125E-001	-3.485866718957070E-002	1.9627912E-005	-5.6309700E-001	0
1.6178757E+004	4.432969907542429E+001	-5.6612682E-001	-3.499198635434414E-002	1.9809902E-005	-5.6609696E-001	0
1.6231994E+004	4.462969906784565E+001	-5.6914127E-001	-3.506292982683723E-002	1.9955760E-005	-5.6909674E-001	0
1.6241002E+004	4.492959906026954E+001	-5.7210845E-001	-3.522617902649539E-002	2.0153195E-005	-5.7209587E-001	0
1.6262128E+004	4.522959905269090E+001	-5.7516640E-001	-3.536845803247968E-002	2.0342748E-005	-5.7509577E-001	0
1.6295358E+004	4.552959904511226E+001	-5.7812804E-001	-3.547808052975765E-002	2.0510874E-005	-5.7809561E-001	0
1.6327928E+004	4.582959903753363E+001	-5.8113748E-001	-3.559162439789010E-002	2.0683627E-005	-5.8109576E-001	0
1.6357885E+004	4.612959902995499E+001	-5.8416325E-001	-3.571141644998654E-002	2.0861296E-005	-5.8409584E-001	0
1.6365110E+004	4.642959902237635E+001	-5.8714551E-001	-3.587788283578813E-002	2.1065538E-005	-5.8709604E-001	0
1.6421813E+004	4.672959901479771E+001	-5.9021419E-001	-3.594086913138284E-002	2.1212811E-005	-5.9009558E-001	0
1.6439094E+004	4.702959900721908E+001	-5.9317446E-001	-3.608316111451149E-002	2.1403610E-005	-5.9309566E-001	0
1.6447443E+004	4.732959899964044E+001	-5.9613299E-001	-3.624472241929577E-002	2.1606675E-005	-5.9609586E-001	0
1.6471379E+004	4.762959899206180E+001	-5.9919673E-001	-3.637805576338332E-002	2.1797612E-005	-5.9909612E-001	0
1.6516293E+004	4.792959898448316E+001	-6.0214019E-001	-3.645734456980787E-002	2.1952432E-005	-6.0209590E-001	0
1.6542656E+004	4.822959897690453E+001	-6.0517442E-001	-3.658266343938484E-002	2.2138893E-005	-6.0509557E-001	0
1.6560543E+004	4.852959896932589E+001	-6.0814738E-001	-3.672267036534910E-002	2.2332795E-005	-6.0809565E-001	0
1.6593221E+004	4.882959896174725E+001	-6.1117631E-001	-3.683289261982292E-002	2.2511391E-005	-6.1109602E-001	0
1.6612287E+004	4.912959895416861E+001	-6.1418122E-001	-3.697150262409898E-002	2.2707203E-005	-6.1409593E-001	0
1.6790746E+004	4.945959894583211E+001	-6.1752838E-001	-3.677790126725877E-002	2.2711398E-005	-6.1739582E-001	0
1.6817482E+004	4.975969893825095E+001	-6.2046951E-001	-3.689431460137721E-002	2.2891798E-005	-6.2039673E-001	0
1.6841605E+004	5.005959893067484E+001	-6.2350082E-001	-3.702146185387750E-002	2.3082912E-005	-6.2339604E-001	0
1.6870877E+004	5.035959892309620E+001	-6.2650585E-001	-3.713534777109900E-002	2.3265513E-005	-6.2639576E-001	0
1.6904625E+004	5.065959891551756E+001	-6.2949890E-001	-3.723826348952775E-002	2.3441446E-005	-6.2939560E-001	0
1.6919355E+004	5.095959890793893E+001	-6.3244480E-001	-3.737995622656054E-002	2.3640760E-005	-6.3239580E-001	0
1.6942617E+004	5.125959890036029E+001	-6.3545257E-001	-3.750616483095748E-002	2.3833389E-005	-6.3539600E-001	0
1.6953174E+004	5.155959889278165E+001	-6.3849604E-001	-3.766233084853407E-002	2.4047249E-005	-6.3839591E-001	0
1.6972305E+004	5.185959888520301E+001	-6.4149827E-001	-3.779677041330654E-002	2.4246563E-005	-6.4139581E-001	0
1.6990867E+004	5.215959887762438E+001	-6.4445794E-001	-3.792966866167238E-002	2.4444076E-005	-6.4439565E-001	0
1.6990086E+004	5.245959887004574E+001	-6.4752591E-001	-3.811198502580301E-002	2.4678498E-005	-6.4739579E-001	0
1.7015906E+004	5.275959886246710E+001	-6.5047884E-001	-3.822769320153230E-002	2.4866305E-005	-6.5039599E-001	0
1.7021869E+004	5.305959885488846E+001	-6.5344107E-001	-3.838832768976536E-002	2.5084510E-005	-6.5339559E-001	0
1.7028668E+004	5.335959884730983E+001	-6.5642285E-001	-3.854810119305438E-002	2.5303854E-005	-6.5639561E-001	0
1.7030436E+004	5.365959883973119E+001	-6.5946901E-001	-3.872296958649267E-002	2.5536598E-005	-6.5939587E-001	0
1.7032172E+004	5.395959883215255E+001	-6.6246885E-001	-3.889514843945402E-002	2.5766823E-005	-6.6239595E-001	0
1.7022672E+004	5.425969882457139E+001	-6.6545826E-001	-3.909247053958287E-002	2.6014408E-005	-6.6539663E-001	0
1.7005482E+004	5.455969881699275E+001	-6.6842479E-001	-3.930642672429796E-002	2.6273390E-005	-6.6839665E-001	0
1.7005795E+004	5.485969880941411E+001	-6.7146921E-001	-3.948473098602867E-002	2.6512782E-005	-6.7139691E-001	0
1.6981316E+004	5.515959880183800E+001	-6.7447019E-001	-3.971836691045441E-002	2.6788854E-005	-6.7439610E-001	0
1.6970088E+004	5.545959879425936E+001	-6.7741442E-001	-3.991814306062555E-002	2.7041126E-005	-6.7739582E-001	0
1.6949930E+004	5.575969878667820E+001	-6.8045646E-001	-4.014509120870308E-002	2.7316986E-005	-6.8039674E-001	0
1.6917500E+004	5.605959877910209E+001	-6.8342733E-001	-4.039765613851104E-002	2.7608863E-005	-6.8339586E-001	0
1.6900400E+004	5.635959877152345E+001	-6.8649125E-001	-4.061982392737121E-002	2.7885153E-005	-6.8639606E-001	0
1.6872395E+004	5.665959876394481E+001	-6.8948394E-001	-4.086461571929817E-002	2.8175496E-005	-6.8939567E-001	0
1.6833176E+004	5.695959875636618E+001	-6.9249004E-001	-4.113840803087254E-002	2.8487937E-005	-6.9239575E-001	0
1.6804293E+004	5.725959874878754E+001	-6.9542897E-001	-4.138400532911057E-002	2.8779636E-005	-6.9539565E-001	0
1.6770006E+004	5.755959874120890E+001	-6.9841486E-001	-4.164666921185600E-002	2.9086652E-005	-6.9839609E-001	0
1.6722461E+004	5.785959873363026E+001	-7.0149493E-001	-4.194926363066842E-002	2.9427196E-005	-7.0139587E-001	0
1.6701215E+004	5.815959872605163E+001	-7.0445490E-001	-4.217986011341961E-002	2.9713809E-005	-7.0439565E-001	0
1.6643975E+004	5.845959871847299E+001	-7.0744646E-001	-4.250465642722850E-002	3.0069768E-005	-7.0739561E-001	0
1.6583059E+004	5.875959871089435E+001	-7.1049446E-001	-4.284459838664190E-002	3.0440850E-005	-7.1039605E-001	0
1.6538094E+004	5.905959870331571E+001	-7.1347332E-001	-4.314120449974124E-002	3.0780098E-005	-7.1339607E-001	0
1.6502322E+004	5.935959869573708E+001	-7.1648157E-001	-4.341701316642743E-002	3.1107491E-005	-7.1639585E-001	0
1.6444934E+004	5.965959868815844E+001	-7.1943301E-001	-4.374800311096366E-002	3.1473759E-005	-7.1939570E-001	0
1.6389068E+004	5.995959868057980E+001	-7.2246045E-001	-4.408184791569261E-002	3.1847390E-005	-7.2239602E-001	0
1.6309241E+004	6.025959867300116E+001	-7.2538519E-001	-4.447694241187661E-002	3.2262917E-005	-7.2539604E-001	0
1.6267002E+004	6.055969866542000E+001	-7.2852856E-001	-4.478566773906079E-002	3.2627639E-005	-7.2839671E-001	0
1.6206022E+004	6.085969865784136E+001	-7.3153770E-001	-4.513986820984214E-002	3.3021515E-005	-7.3139691E-001	0
1.6147804E+004	6.115969865026273E+001	-7.3443156E-001	-4.548182425129221E-002	3.3403288E-005	-7.3439687E-001	0
1.6066999E+004	6.145959864268661E+001	-7.3747575E-001	-4.590003084050132E-002	3.3850160E-005	-7.3739594E-001	0
1.6002926E+004	6.175969863510545E+001	-7.4044359E-001	-4.626926374932738E-002	3.4259781E-005	-7.4039674E-001	0
1.5937506E+004	6.205969862752681E+001	-7.4344307E-001	-4.664739059418821E-002	3.4679681E-005	-7.4339682E-001	0
1.5858267E+004	6.235959861995070E+001	-7.4647123E-001	-4.707142687176905E-002	3.5137466E-005	-7.4639606E-001	0
1.5789056E+004	6.265959861237207E+001	-7.4941641E-001	-4.746429702766747E-002	3.5570523E-005	-7.4939620E-001	0
1.5714901E+004	6.295959860479343E+001	-7.5244039E-001	-4.788069572035580E-002	3.6027370E-005	-7.5239581E-001	0
1.5632170E+004	6.325959859721479E+001	-7.5544024E-001	-4.832599973411528E-002	3.6507405E-005	-7.5539559E-001	0
1.5561826E+004	6.355959858963615E+001	-7.5848293E-001	-4.873997034173039E-002	3.6968435E-005	-7.5839585E-001	0
1.5484740E+004	6.385959858205752E+001	-7.6144755E-001	-4.917406154380688E-002	3.7443468E-005	-7.6139611E-001	0
1.5385543E+004	6.415959857447888E+001	-7.6447660E-001	-4.968798279120779E-002	3.7985301E-005	-7.6439589E-001	0
1.5292756E+004	6.445959856690024E+001	-7.6747334E-001	-5.018541872994958E-002	3.8515969E-005	-7.6739573E-001	0
1.5213285E+004	6.475959855932160E+001	-7.7047998E-001	-5.064520664856326E-002	3.9021117E-005	-7.7039582E-001	0
1.5119794E+004	6.505959855174297E+001	-7.7342892E-001	-5.115340179759065E-002	3.9563522E-005	-7.7339607E-001	0
1.5015920E+004	6.535959854416433E+001	-7.7647632E-001	-5.171020782651647E-002	4.0151754E-005	-7.7639586E-001	0
1.4922634E+004	6.565959853658569E+001	-7.7943683E-001	-5.223185532356392E-002	4.0711431E-005	-7.7939570E-001	0
1.4834115E+004	6.595959852900705E+001	-7.8241944E-001	-5.274459883014559E-002	4.1268398E-005	-7.8239560E-001	0
1.4739525E+004	6.625959852142842E+001	-7.8543586E-001	-5.328773117500252E-002	4.1854095E-005	-7.8539604E-001	0
1.4625205E+004	6.655959851384978E+001	-7.8848660E-001	-5.391285791191403E-002	4.2509568E-005	-7.8839612E-001	0
1.4511919E+004	6.685959850627114E+001	-7.9146725E-001	-5.453911853250237E-002	4.3165925E-005	-7.9139590E-001	0
1.4401504E+004	6.715969849868998E+001	-7.9444152E-001	-5.516379023443696E-002	4.3824406E-005	-7.9439664E-001	0
1.4286798E+004	6.745959849111387E+001	-7.9748386E-001	-5.581963692630487E-002	4.4515258E-005	-7.9739594E-001	0
1.4177575E+004	6.775969848353270E+001	-8.0046499E-001	-5.645993456966858E-002	4.5194200E-005	-8.0039698E-001	0
1.4043135E+004	6.805969847595406E+001	-8.0340648E-001	-5.720991066537218E-002	4.5962814E-005	-8.0339682E-001	0
1.3961037E+004	6.835969846837543E+001	-8.0648935E-001	-5.776715138480659E-002	4.6588593E-005	-8.0639702E-001	0
1.3823869E+004	6.865959846079932E+001	-8.0942923E-001	-5.855301393694076E-002	4.7394522E-005	-8.0939609E-001	0
1.3714621E+004	6.895959845322068E+001	-8.1244546E-001	-5.923936549328013E-002	4.8128753E-005	-8.1239599E-001	0
1.3576712E+004	6.925959844564204E+001	-8.1547821E-001	-6.006448507517570E-002	4.8981277E-005	-8.1539565E-001	0
1.3464171E+004	6.955959843806340E+001	-8.1848705E-001	-6.079000647835442E-002	4.9755832E-005	-8.1839561E-001	0
1.3323237E+004	6.985959843048477E+001	-8.2145232E-001	-6.165560891943156E-002	5.0647144E-005	-8.2139611E-001	0
1.3185811E+004	7.015959842290613E+001	-8.2449371E-001	-6.252885901288097E-002	5.1554649E-005	-8.2439613E-001	0
1.3056133E+004	7.045959841532749E+001	-8.2735884E-001	-6.336936577466434E-002	5.2429205E-005	-8.2739574E-001	0
1.2944103E+004	7.075959840774885E+001	-8.3046311E-001	-6.415764314759059E-002	5.3280557E-005	-8.3039570E-001	0
1.2796491E+004	7.105959840017022E+001	-8.3344752E-001	-6.513093968062700E-002	5.4283220E-005	-8.3339584E-001	0
1.2663058E+004	7.135959839259158E+001	-8.3636552E-001	-6.604767634856842E-002	5.5239998E-005	-8.3639616E-001	0
1.2506863E+004	7.165959838501294E+001	-8.3943266E-001	-6.711775814587087E-002	5.6340839E-005	-8.3939582E-001	0
1.2363952E+004	7.195959837743430E+001	-8.4241652E-001	-6.813489224461899E-002	5.7397960E-005	-8.4239584E-001	0
1.2237984E+004	7.225959836985567E+001	-8.4553194E-001	-6.909078595057072E-002	5.8418467E-005	-8.4539586E-001	0
1.2081258E+004	7.255959836227703E+001	-8.4841120E-001	-7.022540360965113E-002	5.9580019E-005	-8.4839606E-001	0
1.1924882E+004	7.285959835469839E+001	-8.5150659E-001	-7.140587366002416E-002	6.0802573E-005	-8.5139620E-001	0
1.1781740E+004	7.315969834711723E+001	-8.5442793E-001	-7.252137105097511E-002	6.1964289E-005	-8.5439664E-001	0
1.1605537E+004	7.345969833953859E+001	-8.5750306E-001	-7.388740728421694E-002	6.3358675E-005	-8.5739666E-001	0
1.1337831E+004	7.377459833158355E+001	-8.6060530E-001	-7.590563619362731E-002	6.5324792E-005	-8.6054611E-001	0
1.1154700E+004	7.408959832362598E+001	-8.6378747E-001	-7.743708710883412E-002	6.6889188E-005	-8.6369580E-001	0
1.0966117E+004	7.438959831604734E+001	-8.6672950E-001	-7.903704823398688E-002	6.8503738E-005	-8.6669588E-001	0
1.0764266E+004	7.468959830846870E+001	-8.6976588E-001	-8.080122679332580E-002	7.0278147E-005	-8.6969572E-001	0
1.0534306E+004	7.498959830089007E+001	-8.7278020E-001	-8.285123040271286E-002	7.2310911E-005	-8.7269604E-001	0
1.0281637E+004	7.528959829331143E+001	-8.7571245E-001	-8.517247620406943E-002	7.4586598E-005	-8.7569612E-001	0
1.0017157E+004	7.558959828573279E+001	-8.7875569E-001	-8.772505783208440E-002	7.7088895E-005	-8.7869567E-001	0
9.7233838E+003	7.588959827815415E+001	-8.8177967E-001	-9.068650679873841E-002	7.9965517E-005	-8.8169593E-001	0
9.4084463E+003	7.618959827057552E+001	-8.8474476E-001	-9.403728769795644E-002	8.3198996E-005	-8.8469601E-001	0
9.0741973E+003	7.648959826299688E+001	-8.8775921E-001	-9.783336516745626E-002	8.6852473E-005	-8.8769603E-001	0
8.6882764E+003	7.678959825541824E+001	-8.9074928E-001	-1.025231255865490E-001	9.1322399E-005	-8.9069569E-001	0
8.2868535E+003	7.708959824783960E+001	-8.9376146E-001	-1.078529282271479E-001	9.6394790E-005	-8.9369565E-001	0
7.8507554E+003	7.738959824026097E+001	-8.9679307E-001	-1.142301627502845E-001	1.0244082E-004	-8.9669609E-001	0
7.3864526E+003	7.768959823268233E+001	-8.9972222E-001	-1.218070767109500E-001	1.0959253E-004	-8.9969599E-001	0
6.9076211E+003	7.798959822510369E+001	-9.0276510E-001	-1.306911761517284E-001	1.1798343E-004	-9.0269601E-001	0
6.4069385E+003	7.828969821752253E+001	-9.0577894E-001	-1.413746867414512E-001	1.2805422E-004	-9.0569669E-001	0
5.8941001E+003	7.858969820994389E+001	-9.0875530E-001	-1.541804947897667E-001	1.4011234E-004	-9.0869695E-001	0
5.3854629E+003	7.888959820236778E+001	-9.1178000E-001	-1.693039227564173E-001	1.5436792E-004	-9.1169614E-001	0
4.7653604E+003	7.918959819478914E+001	-9.1477853E-001	-1.919641971489912E-001	1.7560473E-004	-9.1469556E-001	0
4.3149341E+003	7.948959818721050E+001	-9.1778070E-001	-2.126986648063660E-001	1.9521073E-004	-9.1769582E-001	0
3.8573911E+003	7.978959817963187E+001	-9.2080921E-001	-2.387129554601457E-001	2.1980908E-004	-9.2069608E-001	0
3.4255325E+003	8.008959817205323E+001	-9.2378145E-001	-2.696752809062670E-001	2.4912102E-004	-9.2369610E-001	0
3.0293884E+003	8.038959816447459E+001	-9.2678773E-001	-3.059322777615314E-001	2.8353429E-004	-9.2669600E-001	0
2.6638352E+003	8.068959815689595E+001	-9.2981309E-001	-3.490505242866688E-001	3.2455174E-004	-9.2969567E-001	0
2.2904458E+003	8.098959814931732E+001	-9.3277305E-001	-4.072451910844925E-001	3.7986733E-004	-9.3269610E-001	0
2.0035314E+003	8.128959814173868E+001	-9.3579090E-001	-4.670707408536430E-001	4.3708054E-004	-9.3569607E-001	0
1.7531627E+003	8.158959813416004E+001	-9.3878096E-001	-5.354785147018681E-001	5.0269702E-004	-9.3869597E-001	0
1.5099698E+003	8.188979812657635E+001	-9.4180888E-001	-6.237269295032259E-001	5.8743154E-004	-9.4169772E-001	0
1.3161049E+003	8.218959811900277E+001	-9.4480896E-001	-7.178827586471042E-001	6.7826209E-004	-9.4469607E-001	0
1.1418792E+003	8.248959811142413E+001	-9.4781137E-001	-8.300452430297209E-001	7.8672630E-004	-9.4769603E-001	0
9.9681543E+002	8.278959810384549E+001	-9.5079845E-001	-9.538360012906324E-001	9.0690580E-004	-9.5069593E-001	0
8.5961816E+002	8.310459809588792E+001	-9.5392883E-001	-1.109712256462217E+000	1.0585865E-003	-9.5384598E-001	0
7.4874817E+002	8.341959808793035E+001	-9.5705539E-001	-1.278207327182351E+000	1.2233153E-003	-9.5699602E-001	0
6.5751471E+002	8.371959808035172E+001	-9.6003628E-001	-1.460098572440813E+000	1.4017476E-003	-9.5999604E-001	0
5.8005396E+002	8.401959807277308E+001	-9.6306366E-001	-1.660300175491287E+000	1.5989748E-003	-9.6299589E-001	0
5.1257574E+002	8.431959806519444E+001	-9.6606475E-001	-1.884725751269251E+000	1.8207671E-003	-9.6599579E-001	0
4.5542920E+002	8.461959805761580E+001	-9.6906573E-001	-2.127807647332901E+000	2.0619854E-003	-9.6899611E-001	0
4.0628058E+002	8.491959805003717E+001	-9.7204894E-001	-2.392555759684580E+000	2.3256813E-003	-9.7199619E-001	0
3.6339478E+002	8.521969804245600E+001	-9.7508103E-001	-2.683255596943219E+000	2.6163915E-003	-9.7499663E-001	0
3.2732486E+002	8.551989803487231E+001	-9.7804999E-001	-2.988010005961684E+000	2.9224232E-003	-9.7799885E-001	0
2.9535248E+002	8.581979802729620E+001	-9.8105776E-001	-3.321650792230241E+000	3.2587312E-003	-9.8099816E-001	0
2.6795529E+002	8.611989801971504E+001	-9.8406208E-001	-3.672485975819640E+000	3.6139542E-003	-9.8399913E-001	0
2.4489169E+002	8.640489801251533E+001	-9.8691899E-001	-4.030022195065158E+000	3.9773053E-003	-9.8684883E-001	0
2.2507909E+002	8.668979800531815E+001	-9.8977768E-001	-4.397466196003272E+000	4.3525137E-003	-9.8969799E-001	0
2.0638603E+002	8.698979799773952E+001	-9.9274582E-001	-4.810140629848073E+000	4.7752471E-003	-9.9269813E-001	0
1.9009404E+002	8.728979799016088E+001	-9.9575108E-001	-5.238202705516940E+000	5.2159461E-003	-9.9569809E-001	0
1.7566147E+002	8.758979798258224E+001	-9.9875891E-001	-5.685702988096651E+000	5.6786467E-003	-9.9869800E-001	0
1.6281023E+002	8.788979797500360E+001	-1.0017599E+000	-6.152929777079969E+000	6.1637582E-003	-1.0016980E+000	0
1.5137498E+002	8.818979796742497E+001	-1.0047853E+000	-6.637723586401791E+000	6.6694869E-003	-1.0046980E+000	0
1.4129115E+002	8.848979795984633E+001	-1.0077690E+000	-7.132569478200125E+000	7.1879826E-003	-1.0076981E+000	0
1.3202818E+002	8.878979795226769E+001	-1.0107836E+000	-7.655816226750119E+000	7.7383732E-003	-1.0106981E+000	0
1.2382951E+002	8.908979794468905E+001	-1.0137717E+000	-8.186833957652084E+000	8.2995798E-003	-1.0136981E+000	0
1.1623380E+002	8.938979793711042E+001	-1.0167572E+000	-8.747517556280240E+000	8.8941017E-003	-1.0166980E+000	0
1.0953371E+002	8.968979792953178E+001	-1.0197734E+000	-9.310132596227845E+000	9.4942255E-003	-1.0196980E+000	0
1.0335066E+002	8.998979792195314E+001	-1.0227844E+000	-9.896253506342568E+000	1.0121733E-002	-1.0226980E+000	0
9.7780739E+001	9.028979791437450E+001	-1.0257709E+000	-1.049052136927635E+001	1.0760872E-002	-1.0256982E+000	0
9.2284912E+001	9.060479790641693E+001	-1.0289166E+000	-1.114934839125347E+001	1.1471749E-002	-1.0288481E+000	0
8.7335182E+001	9.091979789845936E+001	-1.0320805E+000	-1.181746539792735E+001	1.2196576E-002	-1.0319980E+000	0
8.3120300E+001	9.121979789088073E+001	-1.0350989E+000	-1.245302194303223E+001	1.2890110E-002	-1.0349981E+000	0
7.9187645E+001	9.151979788330209E+001	-1.0381362E+000	-1.310982598974415E+001	1.3609786E-002	-1.0379981E+000	0
7.5563454E+001	9.181979787572345E+001	-1.0410717E+000	-1.377744973684332E+001	1.4343312E-002	-1.0409981E+000	0
7.2215584E+001	9.211979786814481E+001	-1.0440817E+000	-1.445784442011899E+001	1.5095171E-002	-1.0439982E+000	0
6.9086731E+001	9.241979786056618E+001	-1.0471069E+000	-1.515641062873024E+001	1.5870381E-002	-1.0469980E+000	0
6.6178246E+001	9.271979785298754E+001	-1.0500926E+000	-1.586764077118806E+001	1.6662491E-002	-1.0499980E+000	0
6.3452530E+001	9.301979784540890E+001	-1.0531093E+000	-1.659680532168102E+001	1.7478250E-002	-1.0529982E+000	0
6.0936954E+001	9.331979783783027E+001	-1.0561057E+000	-1.733112143038271E+001	1.8303497E-002	-1.0559982E+000	0
5.8554523E+001	9.361979783025163E+001	-1.0590618E+000	-1.808676311203661E+001	1.9154999E-002	-1.0589980E+000	0
5.6354279E+001	9.391979782267299E+001	-1.0621241E+000	-1.884726722701057E+001	2.0018138E-002	-1.0619979E+000	0
5.4239941E+001	9.421979781509435E+001	-1.0650924E+000	-1.963668182519098E+001	2.0914881E-002	-1.0649980E+000	0
5.2277603E+001	9.451979780751572E+001	-1.0681174E+000	-2.043164479696722E+001	2.1823395E-002	-1.0679982E+000	0
5.0430096E+001	9.481979779993708E+001	-1.0710204E+000	-2.123772260901693E+001	2.2746034E-002	-1.0709981E+000	0
4.8676842E+001	9.511979779235844E+001	-1.0740718E+000	-2.206535516916452E+001	2.3699775E-002	-1.0739982E+000	0
4.7019356E+001	9.541979778477980E+001	-1.0770448E+000	-2.290641348426402E+001	2.4671234E-002	-1.0769980E+000	0
4.5481983E+001	9.571979777720117E+001	-1.0800495E+000	-2.374675443699891E+001	2.5647670E-002	-1.0799981E+000	0
4.3996452E+001	9.601979776962253E+001	-1.0830958E+000	-2.461779932455494E+001	2.6663436E-002	-1.0829982E+000	0
4.2656368E+001	9.631979776204389E+001	-1.0860604E+000	-2.546068654260824E+001	2.7651843E-002	-1.0859982E+000	0
4.1367939E+001	9.661979775446525E+001	-1.0890745E+000	-2.632653494664021E+001	2.8671557E-002	-1.0889981E+000	0
4.0134701E+001	9.691979774688662E+001	-1.0920846E+000	-2.721048499561763E+001	2.9716153E-002	-1.0919980E+000	0
3.9006516E+001	9.721979773930798E+001	-1.0950396E+000	-2.807324727161517E+001	3.0741317E-002	-1.0949980E+000	0
3.7933796E+001	9.751979773172934E+001	-1.0980561E+000	-2.894664372362057E+001	3.1785037E-002	-1.0979981E+000	0
3.6862328E+001	9.781979772415070E+001	-1.1010683E+000	-2.986974366529807E+001	3.2888625E-002	-1.1009982E+000	0
3.5904045E+001	9.811979771657207E+001	-1.1040714E+000	-3.075061145511364E+001	3.3950869E-002	-1.1039981E+000	0
3.4942974E+001	9.841979770899343E+001	-1.1071445E+000	-3.168432349485676E+001	3.5079125E-002	-1.1069981E+000	0
3.4094162E+001	9.871979770141479E+001	-1.1100318E+000	-3.255782569970199E+001	3.6140222E-002	-1.1099981E+000	0
3.3261364E+001	9.901979769383615E+001	-1.1130630E+000	-3.346414015696450E+001	3.7247695E-002	-1.1129982E+000	0
3.2401627E+001	9.931979768625752E+001	-1.1160963E+000	-3.444568420864573E+001	3.8444698E-002	-1.1159981E+000	0
3.1516552E+001	9.961979767867888E+001	-1.1191123E+000	-3.550871557993696E+001	3.9738238E-002	-1.1189981E+000	0
3.0680725E+001	9.991979767110024E+001	-1.1220770E+000	-3.657270139449838E+001	4.1037388E-002	-1.1219980E+000	0
2.9906347E+001	1.002197976635216E+002	-1.1251193E+000	-3.762142188031154E+001	4.2328589E-002	-1.1249981E+000	0
2.9098536E+001	1.005197976559430E+002	-1.1280974E+000	-3.876818404899348E+001	4.3734290E-002	-1.1279980E+000	0
2.8248383E+001	1.008197976483643E+002	-1.1310933E+000	-4.004099235257814E+001	4.5290098E-002	-1.1309981E+000	0
2.7482391E+001	1.011197976407857E+002	-1.1341065E+000	-4.126665918151653E+001	4.6800788E-002	-1.1339982E+000	0
2.6735643E+001	1.014197976332071E+002	-1.1370960E+000	-4.253108888202246E+001	4.8361935E-002	-1.1369981E+000	0
2.5966116E+001	1.017197976256284E+002	-1.1401192E+000	-4.390795909320268E+001	5.0060306E-002	-1.1399981E+000	0
2.5203650E+001	1.020197976180498E+002	-1.1430973E+000	-4.535443466299174E+001	5.1844530E-002	-1.1429982E+000	0
2.4476078E+001	1.023197976104711E+002	-1.1461085E+000	-4.682565848128093E+001	5.3667285E-002	-1.1459982E+000	0
2.3861307E+001	1.026197976028925E+002	-1.1490827E+000	-4.815673532094570E+001	5.5336069E-002	-1.1489980E+000	0
2.3246593E+001	1.029197975953139E+002	-1.1521010E+000	-4.955999369807417E+001	5.7098120E-002	-1.1519979E+000	0
2.2593801E+001	1.032197975877352E+002	-1.1551628E+000	-5.112742100821595E+001	5.9060495E-002	-1.1549981E+000	0
2.1968601E+001	1.035197975801566E+002	-1.1581395E+000	-5.271794101497446E+001	6.1054729E-002	-1.1579982E+000	0
2.1428423E+001	1.038197975725780E+002	-1.1611001E+000	-5.418505017774106E+001	6.2914267E-002	-1.1609981E+000	0
2.0970367E+001	1.041197975649993E+002	-1.1641531E+000	-5.551419881919969E+001	6.4627029E-002	-1.1639981E+000	0
2.0442486E+001	1.044197975574207E+002	-1.1671536E+000	-5.709450245571816E+001	6.6638052E-002	-1.1669980E+000	0
2.0013018E+001	1.047197975498420E+002	-1.1701413E+000	-5.846901274729780E+001	6.8417005E-002	-1.1699982E+000	0
1.9549706E+001	1.050197975422634E+002	-1.1731015E+000	-6.000609539889234E+001	7.0393242E-002	-1.1729982E+000	0
1.9132620E+001	1.053197975346848E+002	-1.1761687E+000	-6.147452381303947E+001	7.2304413E-002	-1.1759982E+000	0
1.8750237E+001	1.056197975271061E+002	-1.1791606E+000	-6.288776922798741E+001	7.4154779E-002	-1.1789980E+000	0
1.8396387E+001	1.059197975195275E+002	-1.1821518E+000	-6.426000064462255E+001	7.5965077E-002	-1.1819980E+000	0
1.7977386E+001	1.062197975119489E+002	-1.1850840E+000	-6.592081761718168E+001	7.8121707E-002	-1.1849980E+000	0
1.7566744E+001	1.065197975043702E+002	-1.1881211E+000	-6.763467698006548E+001	8.0358185E-002	-1.1879981E+000	0
1.7208546E+001	1.068197974967916E+002	-1.1911401E+000	-6.921793794870587E+001	8.2448259E-002	-1.1909982E+000	0
1.6874224E+001	1.071197974892129E+002	-1.1941578E+000	-7.076816509388073E+001	8.4508359E-002	-1.1939981E+000	0
1.6577007E+001	1.074197974816343E+002	-1.1971507E+000	-7.221753892717152E+001	8.6455278E-002	-1.1969981E+000	0
1.6264383E+001	1.077197974740557E+002	-1.2001295E+000	-7.378881145358935E+001	8.8556133E-002	-1.1999983E+000	0
1.6011868E+001	1.080197974664770E+002	-1.2031447E+000	-7.514080797373002E+001	9.0405263E-002	-1.2029983E+000	0
1.5731326E+001	1.083197974588984E+002	-1.2061287E+000	-7.667050604204519E+001	9.2474498E-002	-1.2059982E+000	0
1.5538519E+001	1.086197974513198E+002	-1.2091130E+000	-7.781391367468405E+001	9.4085813E-002	-1.2089980E+000	0
1.5297459E+001	1.089197974437411E+002	-1.2121371E+000	-7.923780691492391E+001	9.6047089E-002	-1.2119980E+000	0
1.4994988E+001	1.092197974361625E+002	-1.2151657E+000	-8.103812226208572E+001	9.8474748E-002	-1.2149981E+000	0
1.4699495E+001	1.095197974285838E+002	-1.2181864E+000	-8.287266831880152E+001	1.0095435E-001	-1.2179980E+000	0
1.4417308E+001	1.098197974210052E+002	-1.2211828E+000	-8.470255578339902E+001	1.0343730E-001	-1.2209982E+000	0
1.4177180E+001	1.101197974134266E+002	-1.2241192E+000	-8.634433293557413E+001	1.0569575E-001	-1.2239981E+000	0
1.4030957E+001	1.104197974058479E+002	-1.2271296E+000	-8.745871854902316E+001	1.0732318E-001	-1.2269982E+000	0
1.3855586E+001	1.107197973982693E+002	-1.2301514E+000	-8.878378756697816E+001	1.0921750E-001	-1.2299981E+000	0
1.3710672E+001	1.110197973906907E+002	-1.2331331E+000	-8.993964832370807E+001	1.1090755E-001	-1.2329983E+000	0
1.3526272E+001	1.113197973831120E+002	-1.2361375E+000	-9.138789508197203E+001	1.1296801E-001	-1.2359983E+000	0
1.3352896E+001	1.116197973755334E+002	-1.2391820E+000	-9.280249241761135E+001	1.1499918E-001	-1.2389981E+000	0
1.3162024E+001	1.119197973679547E+002	-1.2421482E+000	-9.437364945970164E+001	1.1722606E-001	-1.2419980E+000	0
1.2870848E+001	1.122197973603761E+002	-1.2451503E+000	-9.674190249457365E+001	1.2045821E-001	-1.2449981E+000	0
1.2716232E+001	1.125197973527975E+002	-1.2481980E+000	-9.815785196665169E+001	1.2252044E-001	-1.2479981E+000	0
1.2499940E+001	1.128197973452188E+002	-1.2511624E+000	-1.000934769064336E+002	1.2523320E-001	-1.2509981E+000	0
1.2388913E+001	1.131197973376402E+002	-1.2541435E+000	-1.012311172494899E+002	1.2695834E-001	-1.2539980E+000	0
1.2207033E+001	1.134197973300616E+002	-1.2571504E+000	-1.029857417623085E+002	1.2946856E-001	-1.2569982E+000	0
1.2085783E+001	1.137197973224829E+002	-1.2600876E+000	-1.042619785159915E+002	1.3137923E-001	-1.2599982E+000	0
1.1970796E+001	1.140197973149043E+002	-1.2631524E+000	-1.055195028707906E+002	1.3328721E-001	-1.2629982E+000	0
1.1793825E+001	1.143197973073256E+002	-1.2661507E+000	-1.073570891982679E+002	1.3593026E-001	-1.2659982E+000	0
1.1651373E+001	1.146197972997470E+002	-1.2691493E+000	-1.089270170639466E+002	1.3824464E-001	-1.2689980E+000	0
1.1492566E+001	1.149347972917894E+002	-1.2722503E+000	-1.107020210060032E+002	1.4084068E-001	-1.2721480E+000	0
1.1358910E+001	1.152497972838319E+002	-1.2753272E+000	-1.122754917278426E+002	1.4318798E-001	-1.2752981E+000	0
1.1242431E+001	1.155497972762532E+002	-1.2784035E+000	-1.137123813657788E+002	1.4537030E-001	-1.2782981E+000	0
1.1138681E+001	1.158497972686746E+002	-1.2814488E+000	-1.150449287473738E+002	1.4742419E-001	-1.2812980E+000	0
1.1048263E+001	1.161497972610960E+002	-1.2843522E+000	-1.162492402891021E+002	1.4930497E-001	-1.2842981E+000	0
1.0921612E+001	1.164497972535173E+002	-1.2873995E+000	-1.178763305064560E+002	1.5175393E-001	-1.2872982E+000	0
1.0836486E+001	1.167497972459387E+002	-1.2903665E+000	-1.190761024324270E+002	1.5365182E-001	-1.2902982E+000	0
1.0744141E+001	1.170497972383600E+002	-1.2933888E+000	-1.203808506964684E+002	1.5569925E-001	-1.2932982E+000	0
1.0649441E+001	1.173497972307814E+002	-1.2964070E+000	-1.217347428968121E+002	1.5781777E-001	-1.2962981E+000	0
1.0519188E+001	1.176497972232028E+002	-1.2994372E+000	-1.235301826131476E+002	1.6051970E-001	-1.2992980E+000	0
1.0408721E+001	1.179497972156241E+002	-1.3023627E+000	-1.251222541902634E+002	1.6295455E-001	-1.3022981E+000	0
1.0304536E+001	1.182497972080455E+002	-1.3054131E+000	-1.266833447999543E+002	1.6537410E-001	-1.3052981E+000	0
1.0246494E+001	1.185497972004669E+002	-1.3083553E+000	-1.276880924637258E+002	1.6706140E-001	-1.3082981E+000	0
1.0171998E+001	1.188497971928882E+002	-1.3114238E+000	-1.289248899559116E+002	1.6907516E-001	-1.3112981E+000	0
1.0092296E+001	1.191497971853096E+002	-1.3144150E+000	-1.302394389017929E+002	1.7118867E-001	-1.3142982E+000	0
9.9750443E+000	1.194348971781073E+002	-1.3172940E+000	-1.320589627015349E+002	1.7396048E-001	-1.3171486E+000	0
9.8983240E+000	1.196903971716529E+002	-1.3198251E+000	-1.333382411966018E+002	1.7598315E-001	-1.3197035E+000	0
9.7710733E+000	1.199304971655874E+002	-1.3222586E+000	-1.353237790858241E+002	1.7893302E-001	-1.3221046E+000	0
9.6990252E+000	1.201705971595220E+002	-1.3246547E+000	-1.365760681152683E+002	1.8091613E-001	-1.3245057E+000	0
9.6523628E+000	1.204405971527012E+002	-1.3272901E+000	-1.375093427680918E+002	1.8251479E-001	-1.3272057E+000	0
9.5817251E+000	1.206957971462543E+002	-1.3298738E+000	-1.387927361286902E+002	1.8457682E-001	-1.3297576E+000	0
9.4720287E+000	1.209510971398049E+002	-1.3324813E+000	-1.406753800855126E+002	1.8744731E-001	-1.3323103E+000	0
9.3973007E+000	1.212212971329791E+002	-1.3352026E+000	-1.420836236198493E+002	1.8971042E-001	-1.3350127E+000	0
9.3419437E+000	1.214916971261482E+002	-1.3378346E+000	-1.432073056884145E+002	1.9158769E-001	-1.3377162E+000	0
9.3003016E+000	1.217172971204491E+002	-1.3401028E+000	-1.440924049963646E+002	1.9309863E-001	-1.3399726E+000	0
9.2362022E+000	1.219874971136232E+002	-1.3428692E+000	-1.453919152552457E+002	1.9524232E-001	-1.3426749E+000	0
9.1864204E+000	1.222279971075477E+002	-1.3451556E+000	-1.464286943940434E+002	1.9696938E-001	-1.3450797E+000	0
9.0554886E+000	1.224384971022300E+002	-1.3472351E+000	-1.487755294621168E+002	2.0043561E-001	-1.3471847E+000	0
8.9890385E+000	1.226789970961545E+002	-1.3497541E+000	-1.501555647188494E+002	2.0267309E-001	-1.3495899E+000	0
8.8637924E+000	1.229192970900840E+002	-1.3521062E+000	-1.525426308920225E+002	2.0625384E-001	-1.3519915E+000	0
8.7722816E+000	1.231446970843899E+002	-1.3543756E+000	-1.543926195692288E+002	2.0910560E-001	-1.3542466E+000	0
8.6748390E+000	1.233849970783194E+002	-1.3567765E+000	-1.564036475548241E+002	2.1220478E-001	-1.3566493E+000	0
8.5684776E+000	1.236252970722489E+002	-1.3591968E+000	-1.586275697599685E+002	2.1560608E-001	-1.3590529E+000	0
8.5199947E+000	1.238801970658096E+002	-1.3617213E+000	-1.598265469309649E+002	2.1763921E-001	-1.3616021E+000	0
8.4632330E+000	1.241504970589813E+002	-1.3644189E+000	-1.612172094892290E+002	2.1996780E-001	-1.3643044E+000	0
8.3912621E+000	1.244205970521580E+002	-1.3671628E+000	-1.629269639205677E+002	2.2274768E-001	-1.3670057E+000	0
8.3447809E+000	1.246908970453296E+002	-1.3698529E+000	-1.641568441383502E+002	2.2487073E-001	-1.3697085E+000	0
8.3038588E+000	1.249161970396381E+002	-1.3721009E+000	-1.652365435383603E+002	2.2672121E-001	-1.3719615E+000	0
8.2176638E+000	1.251562970335726E+002	-1.3745165E+000	-1.672636612775018E+002	2.2990666E-001	-1.3743625E+000	0
8.1204472E+000	1.253814970278836E+002	-1.3767439E+000	-1.695404039981797E+002	2.3341373E-001	-1.3766148E+000	0
8.1037273E+000	1.256215970218182E+002	-1.3791511E+000	-1.701872582120814E+002	2.3471394E-001	-1.3790157E+000	0
8.0823288E+000	1.259066970146159E+002	-1.3820261E+000	-1.709935423225324E+002	2.3631753E-001	-1.3818668E+000	0
8.0210152E+000	1.261618970081690E+002	-1.3845540E+000	-1.726158110986037E+002	2.3899591E-001	-1.3844188E+000	0
7.9573035E+000	1.264022970020960E+002	-1.3869454E+000	-1.742984148909169E+002	2.4174237E-001	-1.3868225E+000	0
7.8310900E+000	1.266428969960180E+002	-1.3893657E+000	-1.774166380448285E+002	2.4649659E-001	-1.3892285E+000	0
7.7237620E+000	1.269279969888157E+002	-1.3922352E+000	-1.802535051333939E+002	2.5095525E-001	-1.3920799E+000	0
7.6805525E+000	1.271979969819949E+002	-1.3949243E+000	-1.816177060163082E+002	2.5334296E-001	-1.3947798E+000	0
7.5364122E+000	1.274382969759245E+002	-1.3973497E+000	-1.854131239754543E+002	2.5908697E-001	-1.3971829E+000	0
7.5075302E+000	1.276932969694826E+002	-1.3999021E+000	-1.864663924059137E+002	2.6103470E-001	-1.3997328E+000	0
7.4860144E+000	1.279483969630382E+002	-1.4024159E+000	-1.873381238697448E+002	2.6272595E-001	-1.4022838E+000	0
7.4166784E+000	1.281886969569678E+002	-1.4048088E+000	-1.894121124167459E+002	2.6608780E-001	-1.4046868E+000	0
7.2787657E+000	1.284291969508922E+002	-1.4072268E+000	-1.933331582783587E+002	2.7206361E-001	-1.4070911E+000	0
7.2681146E+000	1.286545969451981E+002	-1.4095101E+000	-1.939306409820983E+002	2.7334720E-001	-1.4093455E+000	0
7.2117043E+000	1.289247969383723E+002	-1.4122196E+000	-1.958232843841106E+002	2.7654549E-001	-1.4120477E+000	0
7.1495457E+000	1.291801969319204E+002	-1.4147866E+000	-1.978848200462380E+002	2.7996477E-001	-1.4146018E+000	0
7.0709620E+000	1.294354969254709E+002	-1.4173108E+000	-2.004410169267762E+002	2.8408721E-001	-1.4171548E+000	0
6.9876685E+000	1.296757969194005E+002	-1.4197245E+000	-2.031756970297665E+002	2.8845352E-001	-1.4195577E+000	0
6.9678321E+000	1.299159969133325E+002	-1.4221450E+000	-2.041015092022380E+002	2.9026195E-001	-1.4219598E+000	0
6.9166322E+000	1.301712969068831E+002	-1.4246773E+000	-2.059784637816188E+002	2.9345283E-001	-1.4245121E+000	0
6.8370934E+000	1.304264969004362E+002	-1.4272596E+000	-2.087523943138284E+002	2.9794386E-001	-1.4270648E+000	0
6.8110552E+000	1.306968968936053E+002	-1.4298989E+000	-2.099379364902952E+002	3.0019000E-001	-1.4297684E+000	0
6.7635903E+000	1.309670968867795E+002	-1.4326353E+000	-2.118158084844351E+002	3.0345482E-001	-1.4324710E+000	0
6.6744838E+000	1.312376968799435E+002	-1.4353486E+000	-2.150501355434999E+002	3.0867192E-001	-1.4351768E+000	0
6.6001992E+000	1.315229968727363E+002	-1.4381800E+000	-2.178994742213057E+002	3.1337866E-001	-1.4380299E+000	0
6.4915042E+000	1.317931968659104E+002	-1.4408642E+000	-2.219615366835915E+002	3.1981644E-001	-1.4407314E+000	0
6.4534068E+000	1.320484968594610E+002	-1.4434097E+000	-2.236663084388224E+002	3.2284212E-001	-1.4432844E+000	0
6.3717599E+000	1.322739968537644E+002	-1.4457128E+000	-2.268938026782639E+002	3.2802328E-001	-1.4455392E+000	0
6.3851042E+000	1.325142968476939E+002	-1.4481264E+000	-2.267976144162067E+002	3.2843161E-001	-1.4479426E+000	0
6.2778811E+000	1.327694968412470E+002	-1.4506502E+000	-2.310732178649546E+002	3.3520642E-001	-1.4504948E+000	0
6.1293135E+000	1.330249968347925E+002	-1.4532337E+000	-2.370956718355974E+002	3.4455544E-001	-1.4530492E+000	0
6.1140094E+000	1.332951968279667E+002	-1.4559590E+000	-2.381348893648337E+002	3.4671462E-001	-1.4557518E+000	0
6.0836062E+000	1.335952968203856E+002	-1.4589374E+000	-2.398145764208241E+002	3.4987447E-001	-1.4587530E+000	0
5.9793286E+000	1.338506968139336E+002	-1.4615735E+000	-2.444377189611469E+002	3.5726368E-001	-1.4613066E+000	0
5.9587727E+000	1.340910968078606E+002	-1.4639466E+000	-2.456792095524656E+002	3.5966125E-001	-1.4637101E+000	0
5.9346642E+000	1.343163968021690E+002	-1.4662009E+000	-2.470571008419229E+002	3.6223537E-001	-1.4659635E+000	0
5.9329543E+000	1.345564967961036E+002	-1.4686104E+000	-2.475344282221108E+002	3.6353165E-001	-1.4683650E+000	0
5.8579926E+000	1.348265967892803E+002	-1.4713082E+000	-2.511625259764951E+002	3.6953750E-001	-1.4710656E+000	0
5.7241044E+000	1.350966967824570E+002	-1.4740154E+000	-2.575102237709584E+002	3.7957403E-001	-1.4737672E+000	0
5.6185226E+000	1.353370967763840E+002	-1.4764086E+000	-2.627752396633931E+002	3.8796362E-001	-1.4761704E+000	0
5.4140592E+000	1.355771967703186E+002	-1.4788241E+000	-2.731451740224308E+002	4.0393367E-001	-1.4785713E+000	0
5.3553572E+000	1.358474967634902E+002	-1.4815253E+000	-2.766436028183161E+002	4.0985450E-001	-1.4812747E+000	0
5.2793279E+000	1.361328967562804E+002	-1.4843551E+000	-2.811636402856543E+002	4.1734669E-001	-1.4841285E+000	0
5.2362037E+000	1.363581967505888E+002	-1.4866045E+000	-2.839088412966250E+002	4.2206016E-001	-1.4863814E+000	0
5.2552733E+000	1.366131967441470E+002	-1.4891695E+000	-2.833667012836759E+002	4.2198104E-001	-1.4889309E+000	0
5.2358336E+000	1.368835967373161E+002	-1.4918635E+000	-2.849333163641950E+002	4.2508161E-001	-1.4916357E+000	0
5.2414360E+000	1.371092967316145E+002	-1.4941442E+000	-2.850639097244466E+002	4.2592660E-001	-1.4938930E+000	0
5.2393794E+000	1.373049967266707E+002	-1.4960504E+000	-2.855396192374669E+002	4.2718166E-001	-1.4958495E+000	0
5.2204704E+000	1.375452967206002E+002	-1.4984920E+000	-2.870415647933981E+002	4.3012950E-001	-1.4982527E+000	0
5.1221747E+000	1.377558967152800E+002	-1.5006026E+000	-2.929620137171105E+002	4.3961957E-001	-1.5003585E+000	0
5.0556817E+000	1.379514967103387E+002	-1.5025756E+000	-2.972053563192269E+002	4.4657353E-001	-1.5023143E+000	0
4.9108725E+000	1.381622967050134E+002	-1.5047028E+000	-3.064023243298689E+002	4.6104443E-001	-1.5044224E+000	0
4.8837900E+000	1.384173966985691E+002	-1.5072261E+000	-3.086181239943462E+002	4.6515730E-001	-1.5069741E+000	0
4.8447404E+000	1.386575966925011E+002	-1.5096400E+000	-3.116039092742894E+002	4.7040972E-001	-1.5093758E+000	0
4.7904906E+000	1.389126966860567E+002	-1.5122073E+000	-3.156685729802098E+002	4.7735631E-001	-1.5119265E+000	0
4.7050428E+000	1.391681966796023E+002	-1.5147601E+000	-3.219439773898494E+002	4.8766789E-001	-1.5144817E+000	0
4.6832814E+000	1.394533966723975E+002	-1.5175917E+000	-3.240445336106459E+002	4.9176729E-001	-1.5173339E+000	0
4.6531248E+000	1.397236966655692E+002	-1.5202470E+000	-3.267152829032630E+002	4.9668792E-001	-1.5200365E+000	0
4.6676497E+000	1.399940966587383E+002	-1.5229398E+000	-3.262755004107685E+002	4.9689794E-001	-1.5227408E+000	0
4.6286273E+000	1.402642966519124E+002	-1.5257027E+000	-3.296231588354658E+002	5.0290698E-001	-1.5254425E+000	0
4.6243553E+000	1.405045966458420E+002	-1.5281146E+000	-3.304491980727371E+002	5.0496423E-001	-1.5278456E+000	0
4.5424013E+000	1.408045966382633E+002	-1.5310819E+000	-3.370644481876575E+002	5.1607329E-001	-1.5308460E+000	0
4.4882336E+000	1.411045966306847E+002	-1.5340537E+000	-3.417945368502369E+002	5.2433115E-001	-1.5338459E+000	0
4.4094954E+000	1.414045966231060E+002	-1.5370973E+000	-3.485880454810890E+002	5.3581375E-001	-1.5368459E+000	0
4.4491000E+000	1.417045966155274E+002	-1.5401232E+000	-3.461651072802852E+002	5.3313690E-001	-1.5398461E+000	0
4.4863510E+000	1.420045966079488E+002	-1.5431296E+000	-3.439609587996811E+002	5.3077632E-001	-1.5428462E+000	0
4.3941722E+000	1.423045966003701E+002	-1.5461217E+000	-3.518573366495457E+002	5.4401428E-001	-1.5458457E+000	0
4.2454643E+000	1.426045965927915E+002	-1.5491195E+000	-3.648881190951990E+002	5.6525528E-001	-1.5488456E+000	0
4.2028518E+000	1.429045965852129E+002	-1.5521441E+000	-3.693073314937874E+002	5.7321817E-001	-1.5518458E+000	0
4.1503196E+000	1.432045965776342E+002	-1.5551294E+000	-3.747011023741943E+002	5.8270872E-001	-1.5548459E+000	0
4.1551332E+000	1.435045965700556E+002	-1.5581350E+000	-3.749903836369633E+002	5.8428568E-001	-1.5578460E+000	0
4.1444550E+000	1.438045965624769E+002	-1.5611017E+000	-3.766723753248489E+002	5.8802390E-001	-1.5608459E+000	0
4.1605229E+000	1.441045965548983E+002	-1.5640966E+000	-3.759374916259931E+002	5.8800256E-001	-1.5638459E+000	0
4.1340590E+000	1.444045965473197E+002	-1.5670712E+000	-3.790636011568517E+002	5.9401965E-001	-1.5668460E+000	0
4.1213145E+000	1.447045965397410E+002	-1.5701305E+000	-3.809780684615289E+002	5.9818530E-001	-1.5698460E+000	0
4.1800542E+000	1.450045965321624E+002	-1.5731325E+000	-3.763426254394658E+002	5.9203684E-001	-1.5728461E+000	0
4.2410007E+000	1.453045965245838E+002	-1.5760919E+000	-3.716320976394773E+002	5.8572632E-001	-1.5758457E+000	0
4.2057538E+000	1.456045965170051E+002	-1.5791481E+000	-3.754732625233878E+002	5.9292787E-001	-1.5788457E+000	0
4.0783310E+000	1.459045965094265E+002	-1.5821419E+000	-3.879385719642983E+002	6.1377388E-001	-1.5818458E+000	0
4.0405684E+000	1.462045965018478E+002	-1.5851302E+000	-3.923037535177718E+002	6.2185252E-001	-1.5848459E+000	0
3.8450890E+000	1.465045964942692E+002	-1.5881357E+000	-4.130296343630612E+002	6.5594709E-001	-1.5878460E+000	0
3.7675054E+000	1.468045964866906E+002	-1.5910937E+000	-4.223202119317475E+002	6.7195100E-001	-1.5908459E+000	0
3.7874947E+000	1.471045964791119E+002	-1.5941172E+000	-4.208896265459498E+002	6.7094737E-001	-1.5938458E+000	0
3.8138924E+000	1.474045964715333E+002	-1.5971370E+000	-4.187682240689487E+002	6.6883022E-001	-1.5968460E+000	0
3.7108896E+000	1.477045964639547E+002	-1.6006691E+000	-4.313437943711551E+002	6.9043869E-001	-1.5998461E+000	0
3.6448174E+000	1.480045964563760E+002	-1.6036344E+000	-4.399766009982750E+002	7.0556158E-001	-1.6028461E+000	0
3.5557327E+000	1.483045964487974E+002	-1.6066593E+000	-4.518504143257633E+002	7.2596967E-001	-1.6058457E+000	0
3.4932528E+000	1.486045964412187E+002	-1.6096767E+000	-4.607959591060794E+002	7.4173254E-001	-1.6088457E+000	0
3.4644265E+000	1.489045964336401E+002	-1.6126465E+000	-4.654872853390816E+002	7.5066644E-001	-1.6118459E+000	0
3.4265983E+000	1.492045964260615E+002	-1.6157007E+000	-4.715174048331182E+002	7.6183099E-001	-1.6148459E+000	0
3.4131873E+000	1.495045964184828E+002	-1.6186872E+000	-4.742450421803933E+002	7.6765436E-001	-1.6178459E+000	0
3.4078307E+000	1.498045964109042E+002	-1.6216555E+000	-4.758614924815574E+002	7.7168339E-001	-1.6208459E+000	0
3.4053974E+000	1.501045964033256E+002	-1.6246747E+000	-4.770881278044708E+002	7.7511299E-001	-1.6238459E+000	0
3.3906994E+000	1.504045963957469E+002	-1.6276841E+000	-4.800437749265056E+002	7.8135961E-001	-1.6268460E+000	0
3.4499040E+000	1.507045963881683E+002	-1.6307207E+000	-4.726858389532717E+002	7.7081859E-001	-1.6298461E+000	0
3.4318438E+000	1.510045963805896E+002	-1.6336420E+000	-4.760245566344256E+002	7.7765369E-001	-1.6328460E+000	0
3.3955493E+000	1.513045963730110E+002	-1.6366715E+000	-4.820049490522943E+002	7.8888381E-001	-1.6358458E+000	0
3.2954128E+000	1.516045963654324E+002	-1.6396648E+000	-4.975597390374378E+002	8.1583118E-001	-1.6388457E+000	0
3.2611611E+000	1.519045963578537E+002	-1.6426945E+000	-5.037146011673303E+002	8.2744920E-001	-1.6418458E+000	0
3.1468897E+000	1.522045963502751E+002	-1.6457454E+000	-5.229752249999337E+002	8.6068410E-001	-1.6448460E+000	0
3.0943713E+000	1.525045963426965E+002	-1.6487606E+000	-5.328256792826455E+002	8.7850195E-001	-1.6478460E+000	0
3.1158035E+000	1.528045963351178E+002	-1.6517609E+000	-5.301235813717458E+002	8.7563741E-001	-1.6508458E+000	0
3.1387343E+000	1.531045963275392E+002	-1.6547295E+000	-5.271964289805564E+002	8.7236750E-001	-1.6538459E+000	0
3.1848290E+000	1.534045963199605E+002	-1.6577392E+000	-5.205111934673350E+002	8.6287177E-001	-1.6568460E+000	0
3.0965006E+000	1.536597963135137E+002	-1.6603090E+000	-5.361887902952885E+002	8.9023906E-001	-1.6593976E+000	0
3.1318042E+000	1.539148963070693E+002	-1.6628399E+000	-5.309527096818647E+002	8.8288933E-001	-1.6619490E+000	0
3.1275442E+000	1.541850963002435E+002	-1.6655519E+000	-5.325430325086631E+002	8.8697809E-001	-1.6646504E+000	0
3.1366990E+000	1.544104962945494E+002	-1.6677778E+000	-5.316983674058224E+002	8.8675469E-001	-1.6669047E+000	0
3.1086712E+000	1.545911962899845E+002	-1.6696262E+000	-5.370868003068626E+002	8.9673424E-001	-1.6687117E+000	0
3.1462755E+000	1.548015962846694E+002	-1.6716958E+000	-5.313253299121889E+002	8.8821435E-001	-1.6708155E+000	0
3.1686306E+000	1.550418962785989E+002	-1.6740984E+000	-5.283349735735501E+002	8.8448471E-001	-1.6732180E+000	0
3.1685097E+000	1.552673962729023E+002	-1.6763811E+000	-5.290755808156428E+002	8.8693231E-001	-1.6754735E+000	0
3.1725903E+000	1.554480962683374E+002	-1.6781573E+000	-5.289549440418687E+002	8.8766962E-001	-1.6772803E+000	0
3.0464430E+000	1.556584962630222E+002	-1.6802720E+000	-5.515520752841221E+002	9.2675751E-001	-1.6793842E+000	0
3.0401430E+000	1.559135962565779E+002	-1.6828463E+000	-5.535418312960301E+002	9.3152583E-001	-1.6819354E+000	0
3.0419960E+000	1.561092962516341E+002	-1.6847914E+000	-5.538440570372244E+002	9.3311173E-001	-1.6838917E+000	0
3.0259778E+000	1.562749962474481E+002	-1.6864426E+000	-5.573215298060370E+002	9.3989080E-001	-1.6855490E+000	0
3.0588498E+000	1.564558962428782E+002	-1.6882485E+000	-5.519226515088922E+002	9.3178260E-001	-1.6873584E+000	0
3.0045052E+000	1.566511962379445E+002	-1.6902167E+000	-5.625607316359896E+002	9.5084953E-001	-1.6893116E+000	0
2.9178317E+000	1.568764962322530E+002	-1.6924435E+000	-5.800346749336873E+002	9.8167592E-001	-1.6915640E+000	0
2.9054086E+000	1.569678962299440E+002	-1.6933303E+000	-5.828200103640538E+002	9.8690677E-001	-1.6924770E+000	0
2.9272304E+000	1.570591962276376E+002	-1.6942981E+000	-5.788058667384466E+002	9.8066974E-001	-1.6933908E+000	0
2.9351037E+000	1.572545962227014E+002	-1.6961945E+000	-5.778993738706595E+002	9.8022974E-001	-1.6953448E+000	0
2.9118667E+000	1.574203962185129E+002	-1.6979249E+000	-5.831053016688948E+002	9.9006897E-001	-1.6970031E+000	0
2.8679140E+000	1.574879962168052E+002	-1.6989496E+000	-5.923990528003592E+002	1.0064561E+000	-1.6979055E+000	1