EC-Lab ASCII FILE
Nb header lines : 63                          

Linear Sweep Voltammetry

Run on channel : 1 (SN 1340)
User : 
Electrode connection : standard
Potential control : Ewe
Ewe ctrl range : min = -5.00 V, max = 10.00 V
Ewe,I filtering : <None>
Safety Limits :
	Do not start on E overload
Channel : Floating
Acquisition started on : 03/05/2026 11:31:06.601
Technique started on : 03/05/2026 11:31:09.439
Loaded Setting File :  NONE
Saved on :
	File : Pt_N52magA_up_3-5_02_LSV_C01.mpr
	Directory : C:\Users\volt\Documents\Platalytix\
	Host : 127.0.0.1
Device : SP-200 (SN 0262)
Address : USB
EC-LAB for windows v11.60 (software)
Internet server v11.60 (firmware)
Command interpretor v11.60 (firmware)
Electrode material : Pt
Initial state : 
Electrolyte : KOH (1 M)
Comments : N52 disk magnet, A side up (+), up orientation
Cable : standard
Reference electrode : Hg/HgO (0.140 V)
Electrode surface area : 1.000 cm˛
Characteristic mass : 0.001 g
Equivalent Weight : 0.000 g/eq.
Density : 0.000 g/cm3
Volume (V) : 0.001 cmł
Cycle Definition : Charge/Discharge alternance
tR (h:m:s)          0:00:5.0000         
dER/dt (mV/h)       0.0                 
dER (mV)            0                   
dtR (s)             0.0000              
dE/dt               10.000              
dE/dt unit          mV/s                
Ei (V)              -0.200              
vs.                 Ref                 
EL (V)              -2.500              
vs.                 Ref                 
record              <I>                 
dI                  0.000               
unit dI             µA                  
tI (s)              0.0000              
step percent        50                  
N                   10                  
E range min (V)     -5.000              
E range max (V)     10.000              
I Range             Auto                
I Range min         Unset               
I Range max         Unset               
I Range init        Unset               
Bandwidth           8                   

Rwe/Ohm	time/s	Ewe/V	<I>/mA	Pwe/W	control/V	error	
0.0000000E+000	2.838400134787662E+000	-1.3593441E-001	0.000000000000000E+000	0.0000000E+000	0.0000000E+000	0
0.0000000E+000	7.838200008482090E+000	-3.6015455E-002	0.000000000000000E+000	0.0000000E+000	-1.9972098E-001	0
1.4629717E+003	8.018800003919750E+000	-2.0126392E-001	1.375719855229058E-001	-2.7688277E-005	-2.0137465E-001	0
5.9813491E+003	8.154100000501785E+000	-2.0262897E-001	-3.387679944183628E-002	6.8644208E-006	-2.0272848E-001	0
1.8141136E+003	8.454099992923148E+000	-2.0561910E-001	-1.133441064453993E-001	2.3305713E-005	-2.0572868E-001	0
1.9731353E+003	8.753999985347036E+000	-2.0861147E-001	-1.057258833406383E-001	2.2055632E-005	-2.0872778E-001	0
2.1294744E+003	9.053999977768399E+000	-2.1159416E-001	-9.936450577007916E-002	2.1024949E-005	-2.1172778E-001	0
2.2765579E+003	9.353999970189761E+000	-2.1461979E-001	-9.427380615777681E-002	2.0233025E-005	-2.1472755E-001	0
2.4136274E+003	9.653999962611124E+000	-2.1760479E-001	-9.015674165555332E-002	1.9618539E-005	-2.1772777E-001	0
2.5439407E+003	9.954099955029960E+000	-2.2060908E-001	-8.671942853004944E-002	1.9131094E-005	-2.2072841E-001	0
2.6704966E+003	1.025409994745132E+001	-2.2360918E-001	-8.373318487687964E-002	1.8723509E-005	-2.2372887E-001	0
2.7931824E+003	1.055419993987016E+001	-2.2663057E-001	-8.113704857524073E-002	1.8388135E-005	-2.2672956E-001	0
2.9139070E+003	1.085419993229152E+001	-2.2961962E-001	-7.880128674182019E-002	1.8094323E-005	-2.2973000E-001	0
3.0316433E+003	1.115419992471288E+001	-2.3260488E-001	-7.672567206678060E-002	1.7846765E-005	-2.3272981E-001	0
3.1512026E+003	1.145419991713425E+001	-2.3560587E-001	-7.476696822624485E-002	1.7615535E-005	-2.3572980E-001	0
3.2680762E+003	1.175409990955814E+001	-2.3863658E-001	-7.302050625502110E-002	1.7425364E-005	-2.3872867E-001	0
3.3842476E+003	1.205399990198202E+001	-2.4161890E-001	-7.139516060705264E-002	1.7250421E-005	-2.4172756E-001	0
3.5011345E+003	1.235399989440339E+001	-2.4459913E-001	-6.986282273963917E-002	1.7088387E-005	-2.4472778E-001	0
3.6181548E+003	1.265399988682475E+001	-2.4763006E-001	-6.844097898130208E-002	1.6948045E-005	-2.4772754E-001	0
3.7347861E+003	1.295399987924611E+001	-2.5062785E-001	-6.710634461778248E-002	1.6818718E-005	-2.5072780E-001	0
3.8514214E+003	1.325399987166747E+001	-2.5360522E-001	-6.584717627220793E-002	1.6699187E-005	-2.5372803E-001	0
3.9662668E+003	1.355409986408631E+001	-2.5662124E-001	-6.470095026514744E-002	1.6603639E-005	-2.5672886E-001	0
4.0833438E+003	1.385419985650515E+001	-2.5961497E-001	-6.357901439248403E-002	1.6506065E-005	-2.5973001E-001	0
4.2004380E+003	1.415419984892651E+001	-2.6261249E-001	-6.252026578431813E-002	1.6418602E-005	-2.6273000E-001	0
4.3188125E+003	1.445419984134787E+001	-2.6562792E-001	-6.150485314772847E-002	1.6337406E-005	-2.6572978E-001	0
4.4324307E+003	1.475409983377176E+001	-2.6860797E-001	-6.060060637463560E-002	1.6277807E-005	-2.6872894E-001	0
4.5452979E+003	1.505399982619565E+001	-2.7164352E-001	-5.976363388035688E-002	1.6234404E-005	-2.7172804E-001	0
4.6662622E+003	1.535399981861701E+001	-2.7460596E-001	-5.884923165146005E-002	1.6160349E-005	-2.7472779E-001	0
4.7862944E+003	1.565399981103837E+001	-2.7764052E-001	-5.800740666236237E-002	1.6105207E-005	-2.7772778E-001	0
4.9069443E+003	1.595399980345974E+001	-2.8063986E-001	-5.719238922783654E-002	1.6050464E-005	-2.8072801E-001	0
5.0223770E+003	1.625399979588110E+001	-2.8363189E-001	-5.647363933465860E-002	1.6017726E-005	-2.8372779E-001	0
5.1437817E+003	1.655399978830246E+001	-2.8661174E-001	-5.572004103950423E-002	1.5970018E-005	-2.8672799E-001	0
5.2605469E+003	1.685409978072130E+001	-2.8961146E-001	-5.505348683793365E-002	1.5944121E-005	-2.8972885E-001	0
5.3825527E+003	1.715419977314014E+001	-2.9260534E-001	-5.436181746872260E-002	1.5906558E-005	-2.9272979E-001	0
5.5001431E+003	1.745419976556150E+001	-2.9563683E-001	-5.375075131735119E-002	1.5890702E-005	-2.9573002E-001	0
5.6161035E+003	1.775419975798286E+001	-2.9862478E-001	-5.317294738622957E-002	1.5878761E-005	-2.9873005E-001	0
5.7357358E+003	1.805409975040675E+001	-3.0165628E-001	-5.259242812236853E-002	1.5864836E-005	-3.0172893E-001	0
5.8562212E+003	1.835409974282811E+001	-3.0462685E-001	-5.201764892608185E-002	1.5845973E-005	-3.0472893E-001	0
5.9714404E+003	1.865399973525200E+001	-3.0762908E-001	-5.151673079627309E-002	1.5848045E-005	-3.0772802E-001	0
6.0859688E+003	1.895399972767336E+001	-3.1064454E-001	-5.104274146773458E-002	1.5856149E-005	-3.1072780E-001	0
6.2039956E+003	1.925399972009473E+001	-3.1367302E-001	-5.055983796307911E-002	1.5859257E-005	-3.1372762E-001	0
6.3217544E+003	1.955399971251609E+001	-3.1660789E-001	-5.008228177787472E-002	1.5856445E-005	-3.1672782E-001	0
6.4338887E+003	1.985399970493745E+001	-3.1966326E-001	-4.968430080628293E-002	1.5882246E-005	-3.1972808E-001	0
6.5526719E+003	2.015409969735629E+001	-3.2265437E-001	-4.924012133689271E-002	1.5887541E-005	-3.2272884E-001	0
6.6711860E+003	2.045409968977765E+001	-3.2566175E-001	-4.881616831815550E-002	1.5897558E-005	-3.2572889E-001	0
6.7815566E+003	2.075419968219649E+001	-3.2865909E-001	-4.846366604087393E-002	1.5928024E-005	-3.2873002E-001	0
6.8958999E+003	2.105419967461785E+001	-3.3164248E-001	-4.809270417607935E-002	1.5949583E-005	-3.3173001E-001	0
7.0078521E+003	2.135419966703921E+001	-3.3465332E-001	-4.775405133474053E-002	1.5981052E-005	-3.3473003E-001	0
7.1235967E+003	2.165409965946310E+001	-3.3762658E-001	-4.739551960853997E-002	1.6001986E-005	-3.3772892E-001	0
7.2290903E+003	2.195399965188699E+001	-3.4064806E-001	-4.712184204468628E-002	1.6051963E-005	-3.4072781E-001	0
7.3385791E+003	2.225399964430835E+001	-3.4366509E-001	-4.682992434727312E-002	1.6093811E-005	-3.4372780E-001	0
7.4537261E+003	2.255399963672971E+001	-3.4661099E-001	-4.650170816991456E-002	1.6118003E-005	-3.4672806E-001	0
7.5626157E+003	2.285399962915108E+001	-3.4963641E-001	-4.623220572384812E-002	1.6164462E-005	-3.4972778E-001	0
7.6665215E+003	2.315399962157244E+001	-3.5261309E-001	-4.599388152610906E-002	1.6218044E-005	-3.5272780E-001	0
7.7724355E+003	2.345399961399380E+001	-3.5560402E-001	-4.575194340688871E-002	1.6269576E-005	-3.5572803E-001	0
7.8836509E+003	2.375409960641264E+001	-3.5862043E-001	-4.548913294976215E-002	1.6313332E-005	-3.5872889E-001	0
7.9826152E+003	2.405419959883147E+001	-3.6164129E-001	-4.530360927921675E-002	1.6383656E-005	-3.6172983E-001	0
8.0939492E+003	2.435419959125284E+001	-3.6457753E-001	-4.504321821342155E-002	1.6421745E-005	-3.6473006E-001	0
8.1968926E+003	2.465419958367420E+001	-3.6762673E-001	-4.484952517736096E-002	1.6487884E-005	-3.6773002E-001	0
8.2963477E+003	2.495409957609809E+001	-3.7063602E-001	-4.467459972320686E-002	1.6558015E-005	-3.7072894E-001	0
8.4028340E+003	2.525399956852198E+001	-3.7362054E-001	-4.446363415718360E-002	1.6612526E-005	-3.7372804E-001	0
8.5091201E+003	2.555399956094334E+001	-3.7661383E-001	-4.426001795651757E-002	1.6668935E-005	-3.7672782E-001	0
8.5995752E+003	2.585399955336470E+001	-3.7959448E-001	-4.414107369997494E-002	1.6755708E-005	-3.7972784E-001	0
8.7020342E+003	2.615399954578606E+001	-3.8261777E-001	-4.396877351643647E-002	1.6823235E-005	-3.8272801E-001	0
8.7917666E+003	2.645399953820743E+001	-3.8560599E-001	-4.385989878176882E-002	1.6912640E-005	-3.8572779E-001	0
8.8910986E+003	2.675399953062879E+001	-3.8862735E-001	-4.370971241028765E-002	1.6986789E-005	-3.8872781E-001	0
8.9860918E+003	2.705409952304763E+001	-3.9162424E-001	-4.358115413526502E-002	1.7067436E-005	-3.9172891E-001	0
9.0783545E+003	2.735419951546646E+001	-3.9464536E-001	-4.347102317665344E-002	1.7155638E-005	-3.9473006E-001	0
9.1731084E+003	2.765419950788782E+001	-3.9767173E-001	-4.335190682353801E-002	1.7239829E-005	-3.9773002E-001	0
9.2623848E+003	2.795419950030919E+001	-4.0063620E-001	-4.325411024904430E-002	1.7329163E-005	-4.0073004E-001	0
9.3512402E+003	2.825409949273308E+001	-4.0364358E-001	-4.316471191675436E-002	1.7423159E-005	-4.0372890E-001	0
9.4378945E+003	2.855409948515444E+001	-4.0665600E-001	-4.308757670583085E-002	1.7521821E-005	-4.0672892E-001	0
9.5267441E+003	2.885399947757833E+001	-4.0965098E-001	-4.300010189738492E-002	1.7615033E-005	-4.0972808E-001	0
9.6145195E+003	2.915399946999969E+001	-4.1263682E-001	-4.291809099809185E-002	1.7709584E-005	-4.1272783E-001	0
9.7019658E+003	2.945399946242105E+001	-4.1564763E-001	-4.284158939200367E-002	1.7807004E-005	-4.1572806E-001	0
9.7926621E+003	2.975399945484241E+001	-4.1864118E-001	-4.275049988633792E-002	1.7897120E-005	-4.1872779E-001	0
9.8684551E+003	3.005399944726378E+001	-4.2164567E-001	-4.272661600603844E-002	1.8015493E-005	-4.2172807E-001	0
9.9479180E+003	3.035409943968261E+001	-4.2465842E-001	-4.268817071285902E-002	1.8127890E-005	-4.2472887E-001	0
1.0023668E+004	3.065409943210398E+001	-4.2764738E-001	-4.266376358899715E-002	1.8245048E-005	-4.2772889E-001	0
1.0113396E+004	3.095419942452281E+001	-4.3062982E-001	-4.258013621840506E-002	1.8336277E-005	-4.3073002E-001	0
1.0193757E+004	3.125419941694418E+001	-4.3361774E-001	-4.253758107035086E-002	1.8445049E-005	-4.3373004E-001	0
1.0271607E+004	3.155419940936554E+001	-4.3666336E-001	-4.251168753182399E-002	1.8563296E-005	-4.3672985E-001	0
1.0349899E+004	3.185409940178943E+001	-4.3964005E-001	-4.247771166164394E-002	1.8674904E-005	-4.3972895E-001	0
1.0422105E+004	3.215399939421332E+001	-4.4262365E-001	-4.246969670812262E-002	1.8798091E-005	-4.4272804E-001	0
1.0497181E+004	3.245399938663468E+001	-4.4561890E-001	-4.245129343341447E-002	1.8917099E-005	-4.4572785E-001	0
1.0573240E+004	3.275399937905604E+001	-4.4864529E-001	-4.243214843942403E-002	1.9036983E-005	-4.4872802E-001	0
1.0644653E+004	3.305399937147740E+001	-4.5165148E-001	-4.242989141533948E-002	1.9163523E-005	-4.5172781E-001	0
1.0713164E+004	3.335399936389877E+001	-4.5466915E-001	-4.244023109023642E-002	1.9296263E-005	-4.5472786E-001	0
1.0790981E+004	3.365399935632013E+001	-4.5763299E-001	-4.240883981590926E-002	1.9407684E-005	-4.5772803E-001	0
1.0855327E+004	3.395409934873896E+001	-4.6065718E-001	-4.243604774050580E-002	1.9548470E-005	-4.6072891E-001	0
1.0920831E+004	3.425419934115780E+001	-4.6367562E-001	-4.245790416493167E-002	1.9686695E-005	-4.6373004E-001	0
1.0990382E+004	3.455419933357916E+001	-4.6661985E-001	-4.245711023156862E-002	1.9811330E-005	-4.6673006E-001	0
1.1068377E+004	3.485419932600053E+001	-4.6964613E-001	-4.243134480588884E-002	1.9927716E-005	-4.6972999E-001	0
1.1136397E+004	3.515409931842441E+001	-4.7265685E-001	-4.244252594587467E-002	2.0060750E-005	-4.7272897E-001	0
1.1212741E+004	3.545399931084830E+001	-4.7564846E-001	-4.242035479749762E-002	2.0177176E-005	-4.7572806E-001	0
1.1267165E+004	3.575399930326967E+001	-4.7863737E-001	-4.248072701399519E-002	2.0332864E-005	-4.7872782E-001	0
1.1335462E+004	3.605399929569103E+001	-4.8167223E-001	-4.249250944645128E-002	2.0467462E-005	-4.8172787E-001	0
1.1399736E+004	3.635399928811239E+001	-4.8463568E-001	-4.251288570436113E-002	2.0603262E-005	-4.8472780E-001	0
1.1466680E+004	3.665399928053375E+001	-4.8765716E-001	-4.252819330499624E-002	2.0739179E-005	-4.8772785E-001	0
1.1532275E+004	3.695399927295512E+001	-4.9066851E-001	-4.254741566485665E-002	2.0876676E-005	-4.9072811E-001	0
1.1595506E+004	3.725409926537395E+001	-4.9365696E-001	-4.257312936915836E-002	2.1016522E-005	-4.9372888E-001	0
1.1658820E+004	3.755419925779279E+001	-4.9669686E-001	-4.260267015898861E-002	2.1160613E-005	-4.9673009E-001	0
1.1715747E+004	3.785419925021415E+001	-4.9965787E-001	-4.264839876286430E-002	2.1309608E-005	-4.9973029E-001	0
1.1777434E+004	3.815419924263551E+001	-5.0266129E-001	-4.268003576053203E-002	2.1453601E-005	-5.0273007E-001	0
1.1839492E+004	3.845399923506193E+001	-5.0564730E-001	-4.270853074935246E-002	2.1595453E-005	-5.0572824E-001	0
1.1903363E+004	3.875399922748329E+001	-5.0866932E-001	-4.273324290641523E-002	2.1737089E-005	-5.0872809E-001	0
1.1961460E+004	3.905399921990465E+001	-5.1163685E-001	-4.277377977546398E-002	2.1884642E-005	-5.1172811E-001	0
1.2027029E+004	3.935399921232602E+001	-5.1464748E-001	-4.279090772089872E-002	2.2022234E-005	-5.1472813E-001	0
1.2082543E+004	3.965399920474738E+001	-5.1763219E-001	-4.284132788154693E-002	2.2176051E-005	-5.1772803E-001	0
1.2143482E+004	3.995399919716874E+001	-5.2062684E-001	-4.287294555445564E-002	2.2320806E-005	-5.2072829E-001	0
1.2199531E+004	4.025399918959010E+001	-5.2362567E-001	-4.292178469264452E-002	2.2474949E-005	-5.2372807E-001	0
1.2261766E+004	4.055409918200894E+001	-5.2664727E-001	-4.295036303372701E-002	2.2619692E-005	-5.2672917E-001	0
1.2325271E+004	4.085409917443030E+001	-5.2963346E-001	-4.297134200096842E-002	2.2759061E-005	-5.2972901E-001	0
1.2378892E+004	4.115419916684914E+001	-5.3264380E-001	-4.302839309081430E-002	2.2918806E-005	-5.3273028E-001	0
1.2443585E+004	4.145409915927303E+001	-5.3565460E-001	-4.304664647553430E-002	2.3058134E-005	-5.3572923E-001	0
1.2498708E+004	4.175399915169692E+001	-5.3864789E-001	-4.309628695631673E-002	2.3213724E-005	-5.3872806E-001	0
1.2568583E+004	4.205409914411575E+001	-5.4167962E-001	-4.309790707101246E-002	2.3345257E-005	-5.4172927E-001	0
1.2616429E+004	4.235399913653964E+001	-5.4463321E-001	-4.316857193356372E-002	2.3511038E-005	-5.4472810E-001	0
1.2684442E+004	4.265399912896100E+001	-5.4764408E-001	-4.317446917389944E-002	2.3644243E-005	-5.4772830E-001	0
1.2743144E+004	4.295399912138237E+001	-5.5065966E-001	-4.321223037686767E-002	2.3795232E-005	-5.5072808E-001	0
1.2793484E+004	4.325399911380373E+001	-5.5363780E-001	-4.327498274832120E-002	2.3958666E-005	-5.5372810E-001	0
1.2852268E+004	4.355399910622509E+001	-5.5670011E-001	-4.331532152804293E-002	2.4113644E-005	-5.5672812E-001	0
1.2906122E+004	4.385409909864393E+001	-5.5965477E-001	-4.336351109132303E-002	2.4268596E-005	-5.5972916E-001	0
1.2976027E+004	4.415409909106529E+001	-5.6267136E-001	-4.336237573519180E-002	2.4398767E-005	-5.6272918E-001	0
1.3023270E+004	4.445419908348413E+001	-5.6566185E-001	-4.343470214343209E-002	2.4569354E-005	-5.6573009E-001	0
1.3087280E+004	4.475409907590802E+001	-5.6864893E-001	-4.345050485330407E-002	2.4708082E-005	-5.6872946E-001	0
1.3150187E+004	4.505419906832685E+001	-5.7170087E-001	-4.347473475405622E-002	2.4854544E-005	-5.7173014E-001	0
1.3205991E+004	4.535399906075327E+001	-5.7471550E-001	-4.351930011881106E-002	2.5011215E-005	-5.7472831E-001	0
1.3258151E+004	4.565399905317463E+001	-5.7770240E-001	-4.357337357942970E-002	2.5172443E-005	-5.7772809E-001	0
1.3314743E+004	4.595399904559599E+001	-5.8072078E-001	-4.361486914477108E-002	2.5328061E-005	-5.8072811E-001	0
1.3352436E+004	4.625399903801735E+001	-5.8373159E-001	-4.371723669290983E-002	2.5519132E-005	-5.8372808E-001	0
1.3411512E+004	4.655399903043872E+001	-5.8670533E-001	-4.374639791297874E-002	2.5666244E-005	-5.8672816E-001	0
1.3470799E+004	4.685399902286008E+001	-5.8965719E-001	-4.377299452619299E-002	2.5811061E-005	-5.8972806E-001	0
1.3521979E+004	4.715399901528144E+001	-5.9268886E-001	-4.383151948393654E-002	2.5978454E-005	-5.9272814E-001	0
1.3583197E+004	4.745409900770028E+001	-5.9568596E-001	-4.385462143309293E-002	2.6123582E-005	-5.9572935E-001	0
1.3644846E+004	4.775419900011912E+001	-5.9870613E-001	-4.387782443586297E-002	2.6269923E-005	-5.9873003E-001	0
1.3719203E+004	4.805419899254048E+001	-6.0166425E-001	-4.385562602360541E-002	2.6386362E-005	-6.0173035E-001	0
1.3762182E+004	4.835409898496437E+001	-6.0472596E-001	-4.394114020274457E-002	2.6572348E-005	-6.0472924E-001	0
1.3824375E+004	4.865399897738826E+001	-6.0772961E-001	-4.396072873817303E-002	2.6716236E-005	-6.0772836E-001	0
1.3867844E+004	4.895399896980962E+001	-6.1072946E-001	-4.403925102260720E-002	2.6896068E-005	-6.1072814E-001	0
1.3923227E+004	4.925399896223098E+001	-6.1373383E-001	-4.407985548352575E-002	2.7053298E-005	-6.1372811E-001	0
1.3970265E+004	4.955399895465234E+001	-6.1673605E-001	-4.414634072813078E-002	2.7226641E-005	-6.1672813E-001	0
1.3879763E+004	4.985399894707371E+001	-6.1974996E-001	-4.465133793705267E-002	2.7672664E-005	-6.1972809E-001	0
1.4070610E+004	5.015399893949507E+001	-6.2274408E-001	-4.425849916361380E-002	2.7561719E-005	-6.2272835E-001	0
1.4110134E+004	5.045399893191643E+001	-6.2568706E-001	-4.434309978231438E-002	2.7744903E-005	-6.2572813E-001	0
1.4170081E+004	5.075409892433527E+001	-6.2873226E-001	-4.437040669700665E-002	2.7897106E-005	-6.2872916E-001	0
1.4242899E+004	5.105419891675410E+001	-6.3172680E-001	-4.435380501354780E-002	2.8019487E-005	-6.3173032E-001	0
1.4286280E+004	5.135419890917547E+001	-6.3476479E-001	-4.443177556947275E-002	2.8203727E-005	-6.3473028E-001	0
1.4343753E+004	5.165409890159935E+001	-6.3774878E-001	-4.446177990512185E-002	2.8355445E-005	-6.3772923E-001	0
1.4378304E+004	5.195399889402324E+001	-6.4074355E-001	-4.456322206846741E-002	2.8553597E-005	-6.4072806E-001	0
1.4417985E+004	5.225409888644208E+001	-6.4378172E-001	-4.465129642843901E-002	2.8745688E-005	-6.4372921E-001	0
1.4459412E+004	5.255399887886597E+001	-6.4670271E-001	-4.472538013998228E-002	2.8924025E-005	-6.4672804E-001	0
1.4497167E+004	5.285399887128733E+001	-6.4971685E-001	-4.481681601140086E-002	2.9118240E-005	-6.4972830E-001	0
1.4523170E+004	5.315399886370869E+001	-6.5270913E-001	-4.494260842948328E-002	2.9334451E-005	-6.5272838E-001	0
1.4556276E+004	5.345399885613006E+001	-6.5569586E-001	-4.504557729730599E-002	2.9536199E-005	-6.5572810E-001	0
1.4581297E+004	5.375399884855142E+001	-6.5867299E-001	-4.517245544013471E-002	2.9753875E-005	-6.5872830E-001	0
1.4610534E+004	5.405409884097026E+001	-6.6170877E-001	-4.528984178870854E-002	2.9968685E-005	-6.6172916E-001	0
1.4634287E+004	5.435409883339162E+001	-6.6472912E-001	-4.542272036231876E-002	3.0193805E-005	-6.6472912E-001	0
1.4673919E+004	5.465419882581045E+001	-6.6774368E-001	-4.550547753940981E-002	3.0385996E-005	-6.6773015E-001	0
1.4690845E+004	5.495409881823434E+001	-6.7076594E-001	-4.565877216295622E-002	3.0626350E-005	-6.7072940E-001	0
1.4699462E+004	5.525419881065318E+001	-6.7371142E-001	-4.583238494134539E-002	3.0877800E-005	-6.7373013E-001	0
1.4712011E+004	5.555399880307959E+001	-6.7673206E-001	-4.599861227910407E-002	3.1128737E-005	-6.7672837E-001	0
1.4702330E+004	5.585399879550096E+001	-6.7969757E-001	-4.623060265014853E-002	3.1422827E-005	-6.7972809E-001	0
1.4716890E+004	5.615399878792232E+001	-6.8270075E-001	-4.638893077903683E-002	3.1669759E-005	-6.8272817E-001	0
1.4713440E+004	5.645399878034368E+001	-6.8567407E-001	-4.660188499135909E-002	3.1953703E-005	-6.8572831E-001	0
1.4711062E+004	5.675399877276504E+001	-6.8867934E-001	-4.681370740255461E-002	3.2239634E-005	-6.8872809E-001	0
1.4697602E+004	5.705399876518641E+001	-6.9170266E-001	-4.706228254227696E-002	3.2553107E-005	-6.9172812E-001	0
1.4683882E+004	5.735399875760777E+001	-6.9471461E-001	-4.731137239355765E-002	3.2867902E-005	-6.9472814E-001	0
1.4676249E+004	5.765409875002661E+001	-6.9772065E-001	-4.754080209669764E-002	3.3170199E-005	-6.9772947E-001	0
1.4681932E+004	5.795419874244544E+001	-7.0071989E-001	-4.772668191617857E-002	3.3443037E-005	-7.0073038E-001	0
1.4659665E+004	5.825419873486680E+001	-7.0372498E-001	-4.800416460312973E-002	3.3781729E-005	-7.0373034E-001	0
1.4606428E+004	5.855409872729069E+001	-7.0672435E-001	-4.838447393994982E-002	3.4194487E-005	-7.0672923E-001	0
1.4603054E+004	5.885399871971458E+001	-7.0967811E-001	-4.859792471401830E-002	3.4488883E-005	-7.0972812E-001	0
1.4570184E+004	5.915399871213594E+001	-7.1266395E-001	-4.891249040171886E-002	3.4858167E-005	-7.1272838E-001	0
1.4538962E+004	5.945399870455731E+001	-7.1570510E-001	-4.922669765317300E-002	3.5231798E-005	-7.1572810E-001	0
1.4502824E+004	5.975399869697867E+001	-7.1866900E-001	-4.955372799773106E-002	3.5612728E-005	-7.1872830E-001	0
1.4482747E+004	6.005399868940003E+001	-7.2173131E-001	-4.983386655622601E-002	3.5966663E-005	-7.2172809E-001	0
1.4459617E+004	6.035399868182139E+001	-7.2471029E-001	-5.011960354349154E-002	3.6322192E-005	-7.2472841E-001	0
1.4411025E+004	6.065399867424276E+001	-7.2770911E-001	-5.049669091187126E-002	3.6746904E-005	-7.2772831E-001	0
1.4371446E+004	6.095409866666159E+001	-7.3073369E-001	-5.084621769061881E-002	3.7155045E-005	-7.3072916E-001	0
1.4346296E+004	6.125419865908043E+001	-7.3371667E-001	-5.114328248538069E-002	3.7524678E-005	-7.3373032E-001	0
1.4301992E+004	6.155419865150179E+001	-7.3668605E-001	-5.150933073101882E-002	3.7946207E-005	-7.3673016E-001	0
1.4246689E+004	6.185409864392568E+001	-7.3970753E-001	-5.192136333866149E-002	3.8406622E-005	-7.3972923E-001	0
1.4231758E+004	6.215399863634957E+001	-7.4271959E-001	-5.218748207090063E-002	3.8760667E-005	-7.4272811E-001	0
1.4176084E+004	6.245399862877093E+001	-7.4570692E-001	-5.260316620532862E-002	3.9226547E-005	-7.4572831E-001	0
1.4148831E+004	6.275399862119230E+001	-7.4875939E-001	-5.292022843866051E-002	3.9624520E-005	-7.4872816E-001	0
1.4121480E+004	6.305399861361366E+001	-7.5174141E-001	-5.323389633473530E-002	4.0018123E-005	-7.5172836E-001	0
1.4094273E+004	6.335399860603502E+001	-7.5470942E-001	-5.354723986308674E-002	4.0412608E-005	-7.5472814E-001	0
1.4020949E+004	6.365399859845638E+001	-7.5773233E-001	-5.404286811909621E-002	4.0950028E-005	-7.5772810E-001	0
1.3985116E+004	6.395399859087775E+001	-7.6068377E-001	-5.439238194260732E-002	4.1375402E-005	-7.6072830E-001	0
1.3940047E+004	6.425409858329658E+001	-7.6372856E-001	-5.478665835393515E-002	4.1842137E-005	-7.6372898E-001	0
1.3864583E+004	6.455409857571794E+001	-7.6676774E-001	-5.530406104237418E-002	4.2405369E-005	-7.6672935E-001	0
1.3831135E+004	6.485419856813678E+001	-7.6972091E-001	-5.565132091844538E-002	4.2835985E-005	-7.6973015E-001	0
1.3786973E+004	6.515409856056067E+001	-7.7271163E-001	-5.604650559622970E-002	4.3307788E-005	-7.7272946E-001	0
1.3745522E+004	6.545409855298203E+001	-7.7574021E-001	-5.643584544096469E-002	4.3779553E-005	-7.7572924E-001	0
1.3659701E+004	6.575399854540592E+001	-7.7873588E-001	-5.700973035356836E-002	4.4395521E-005	-7.7872837E-001	0
1.3585465E+004	6.605399853782728E+001	-7.8172690E-001	-5.754141587730705E-002	4.4981673E-005	-7.8172809E-001	0
1.3499565E+004	6.635399853024865E+001	-7.8471947E-001	-5.812923957415642E-002	4.5615147E-005	-7.8472811E-001	0
1.3404979E+004	6.665399852267001E+001	-7.8773326E-001	-5.876423316553359E-002	4.6290541E-005	-7.8772837E-001	0
1.3362153E+004	6.695399851509137E+001	-7.9075611E-001	-5.917879137255566E-002	4.6795991E-005	-7.9072785E-001	0
1.3299235E+004	6.725399850751273E+001	-7.9377490E-001	-5.968575523263997E-002	4.7377056E-005	-7.9372835E-001	0
1.3192788E+004	6.755399849993410E+001	-7.9675680E-001	-6.039335815933744E-002	4.8118818E-005	-7.9672813E-001	0
1.3127623E+004	6.785409849235293E+001	-7.9971606E-001	-6.091857386980781E-002	4.8717560E-005	-7.9972941E-001	0
1.3018863E+004	6.815419848477177E+001	-8.0271620E-001	-6.165793481717463E-002	4.9493821E-005	-8.0273008E-001	0
1.2910779E+004	6.845419847719313E+001	-8.0568373E-001	-6.240395643642260E-002	5.0277853E-005	-8.0573034E-001	0
1.2805117E+004	6.875409846961702E+001	-8.0866581E-001	-6.315177185547660E-002	5.1068680E-005	-8.0872923E-001	0
1.2722610E+004	6.905399846204091E+001	-8.1168729E-001	-6.379880145925532E-002	5.1784675E-005	-8.1172812E-001	0
1.2613401E+004	6.935399845446227E+001	-8.1468308E-001	-6.458868824180994E-002	5.2619311E-005	-8.1472832E-001	0
1.2505684E+004	6.965399844688363E+001	-8.1772012E-001	-6.538787812615610E-002	5.3468983E-005	-8.1772792E-001	0
1.2395782E+004	6.995399843930500E+001	-8.2067347E-001	-6.620586543313844E-002	5.4333395E-005	-8.2072830E-001	0
1.2247818E+004	7.025399843172636E+001	-8.2369202E-001	-6.725214138417024E-002	5.5395052E-005	-8.2372814E-001	0
1.2163414E+004	7.055399842414772E+001	-8.2668555E-001	-6.796492599347034E-002	5.6185621E-005	-8.2672834E-001	0
1.2047272E+004	7.085399841656908E+001	-8.2972962E-001	-6.887281715165233E-002	5.7145815E-005	-8.2972813E-001	0
1.1916234E+004	7.115409840898792E+001	-8.3273792E-001	-6.988263963471703E-002	5.8193924E-005	-8.3272910E-001	0
1.1790396E+004	7.145419840140676E+001	-8.3575171E-001	-7.088410534644041E-002	5.9241513E-005	-8.3573025E-001	0
1.1662732E+004	7.175419839382812E+001	-8.3872449E-001	-7.191492009365230E-002	6.0316805E-005	-8.3873016E-001	0
1.1529877E+004	7.205409838625201E+001	-8.4167856E-001	-7.299978943947755E-002	6.1442355E-005	-8.4172952E-001	0
1.1399878E+004	7.235409837867337E+001	-8.4469932E-001	-7.409722271926850E-002	6.2589876E-005	-8.4472919E-001	0
1.1244738E+004	7.265399837109726E+001	-8.4765762E-001	-7.538260419897169E-002	6.3898638E-005	-8.4772837E-001	0
1.1122487E+004	7.295399836351862E+001	-8.5065293E-001	-7.648046136448150E-002	6.5058332E-005	-8.5072815E-001	0
1.0984465E+004	7.325399835593998E+001	-8.5371941E-001	-7.772061774412942E-002	6.6351597E-005	-8.5372835E-001	0
1.0851354E+004	7.355399834836135E+001	-8.5673881E-001	-7.895225378908566E-002	6.7641457E-005	-8.5672814E-001	0
1.0697804E+004	7.385399834078271E+001	-8.5971779E-001	-8.036395410579122E-002	6.9090318E-005	-8.5972828E-001	0
1.0532940E+004	7.415399833320407E+001	-8.6272204E-001	-8.190704690205952E-002	7.0663016E-005	-8.6272830E-001	0
1.0365940E+004	7.445409832562291E+001	-8.6571825E-001	-8.351565096126495E-002	7.2301023E-005	-8.6572891E-001	0
1.0193604E+004	7.475409831804427E+001	-8.6871833E-001	-8.522189643469646E-002	7.4033822E-005	-8.6872941E-001	0
1.0006280E+004	7.505419831046311E+001	-8.7173861E-001	-8.711914600583770E-002	7.5945121E-005	-8.7173015E-001	0
9.7986553E+003	7.535419830288447E+001	-8.7475836E-001	-8.927330437517145E-002	7.8092569E-005	-8.7473041E-001	0
9.5897002E+003	7.565409829530836E+001	-8.7771636E-001	-9.152699003721398E-002	8.0334736E-005	-8.7772900E-001	0
9.3363789E+003	7.595399828773225E+001	-8.8070786E-001	-9.433077490788055E-002	8.3077852E-005	-8.8072830E-001	0
9.0828184E+003	7.625399828015361E+001	-8.8373798E-001	-9.729777344693219E-002	8.5985739E-005	-8.8372815E-001	0
8.7848623E+003	7.655399827257497E+001	-8.8675356E-001	-1.009410892843718E-001	8.9509871E-005	-8.8672811E-001	0
8.4811592E+003	7.685399826499633E+001	-8.8971925E-001	-1.049053849755117E-001	9.3336341E-005	-8.8972837E-001	0
8.1205630E+003	7.715399825741770E+001	-8.9274293E-001	-1.099360895910625E-001	9.8144665E-005	-8.9272791E-001	0
7.7426616E+003	7.745399824983906E+001	-8.9573026E-001	-1.156876434917085E-001	1.0362492E-004	-8.9572835E-001	0
7.3431797E+003	7.775399824226042E+001	-8.9872241E-001	-1.223887291339452E-001	1.0999350E-004	-8.9872819E-001	0
6.9149697E+003	7.805409823467926E+001	-9.0170908E-001	-1.303995733727954E-001	1.1758248E-004	-9.0172940E-001	0
6.4557749E+003	7.835419822709810E+001	-9.0472752E-001	-1.401423555241594E-001	1.2679065E-004	-9.0473014E-001	0
5.9969365E+003	7.865419821951946E+001	-9.0772271E-001	-1.513643979063548E-001	1.3739690E-004	-9.0773028E-001	0
5.5116807E+003	7.895409821194335E+001	-9.1072810E-001	-1.652360008501432E-001	1.5048507E-004	-9.1072923E-001	0
5.0358564E+003	7.925399820436724E+001	-9.1374445E-001	-1.814476699611625E-001	1.6579680E-004	-9.1372812E-001	0
4.5667866E+003	7.955399819678860E+001	-9.1675299E-001	-2.007435595484051E-001	1.8403227E-004	-9.1672838E-001	0
4.0389321E+003	7.983909818958637E+001	-9.1959232E-001	-2.276820434422264E-001	2.0937466E-004	-9.1957909E-001	0
3.6399028E+003	8.012419818238413E+001	-9.2247111E-001	-2.534328966765542E-001	2.3378452E-004	-9.2243016E-001	0
3.2410508E+003	8.042419817480550E+001	-9.2545885E-001	-2.855428331353238E-001	2.6425815E-004	-9.2543006E-001	0
2.8679980E+003	8.072419816722686E+001	-9.2845643E-001	-3.237297924603091E-001	3.0056899E-004	-9.2842996E-001	0
2.5253066E+003	8.102419815964822E+001	-9.3144417E-001	-3.688439802656420E-001	3.4355756E-004	-9.3143040E-001	0
2.2145701E+003	8.132429815206706E+001	-9.3444198E-001	-4.219518487956426E-001	3.9428953E-004	-9.3443102E-001	0
1.9314811E+003	8.160939814486483E+001	-9.3728226E-001	-4.852660874017627E-001	4.5483129E-004	-9.3728250E-001	0
1.6828451E+003	8.189439813766512E+001	-9.4017208E-001	-5.586800982805258E-001	5.2525545E-004	-9.4013220E-001	0
1.4729908E+003	8.219439813008648E+001	-9.4316059E-001	-6.403030865249288E-001	6.0390861E-004	-9.4313264E-001	0
1.2805410E+003	8.249419812251290E+001	-9.4614512E-001	-7.388635487613495E-001	6.9907214E-004	-9.4612998E-001	0
1.1070027E+003	8.279419811493426E+001	-9.4917667E-001	-8.574294389889698E-001	8.1385201E-004	-9.4913042E-001	0
9.6139575E+002	8.310939810697164E+001	-9.5230389E-001	-9.905430852794517E-001	9.4329804E-004	-9.5228177E-001	0
8.3214111E+002	8.342459809900902E+001	-9.5543063E-001	-1.148159423080948E+000	1.0969867E-003	-9.5543438E-001	0
7.2951514E+002	8.370949809181184E+001	-9.5827281E-001	-1.313574910735906E+000	1.2587631E-003	-9.5828325E-001	0
6.5412622E+002	8.397979808498349E+001	-9.6100473E-001	-1.469142661244410E+000	1.4118530E-003	-9.6098650E-001	0
5.7669061E+002	8.426479807778378E+001	-9.6382582E-001	-1.671304894978924E+000	1.6108468E-003	-9.6383619E-001	0
5.1137387E+002	8.454989807058155E+001	-9.6666080E-001	-1.890321079107043E+000	1.8272992E-003	-9.6668708E-001	0
4.5717545E+002	8.483499806337932E+001	-9.6952385E-001	-2.120682185560419E+000	2.0560520E-003	-9.6953851E-001	0
4.0681131E+002	8.513519805579563E+001	-9.7253299E-001	-2.390624223756035E+000	2.3249609E-003	-9.7253990E-001	0
3.6327203E+002	8.543509804821952E+001	-9.7554511E-001	-2.685439617211426E+000	2.6197676E-003	-9.7553903E-001	0
3.2721011E+002	8.571999804102234E+001	-9.7840369E-001	-2.990138870206039E+000	2.9255629E-003	-9.7838825E-001	0
2.9659869E+002	8.600509803382010E+001	-9.8123431E-001	-3.308289470711255E+000	3.2462073E-003	-9.8123938E-001	0
2.6846844E+002	8.630509802624147E+001	-9.8426253E-001	-3.666212888960644E+000	3.6085160E-003	-9.8423922E-001	0
2.4480890E+002	8.658999801904429E+001	-9.8708010E-001	-4.032043402146666E+000	3.9799497E-003	-9.8708844E-001	0
2.2515384E+002	8.686009801222099E+001	-9.8976856E-001	-4.395965632765897E+000	4.3509887E-003	-9.8978913E-001	0
2.0725008E+002	8.714529800501623E+001	-9.9266428E-001	-4.789693220194550E+000	4.7545573E-003	-9.9264115E-001	0
1.9151321E+002	8.741549799819040E+001	-9.9534243E-001	-5.197251819443458E+000	5.1730452E-003	-9.9534345E-001	0
1.7705360E+002	8.771539799061429E+001	-9.9834299E-001	-5.638648034633690E+000	5.6293048E-003	-9.9834269E-001	0
1.6375514E+002	8.801549798303313E+001	-1.0013585E+000	-6.114974387988703E+000	6.1232815E-003	-1.0013436E+000	0
1.5199791E+002	8.831559797545196E+001	-1.0043647E+000	-6.607753491795464E+000	6.6365944E-003	-1.0043448E+000	0
1.4159364E+002	8.861589796786575E+001	-1.0073860E+000	-7.114627063016570E+000	7.1671754E-003	-1.0073477E+000	0
1.3228255E+002	8.891599796028459E+001	-1.0103633E+000	-7.637918875322441E+000	7.7170734E-003	-1.0103488E+000	0
1.2384673E+002	8.921599795270595E+001	-1.0133783E+000	-8.182519600198077E+000	8.2919877E-003	-1.0133487E+000	0
1.1635229E+002	8.951599794512731E+001	-1.0164069E+000	-8.735598288976149E+000	8.8789221E-003	-1.0163487E+000	0
1.0956714E+002	8.981629793754109E+001	-1.0194126E+000	-9.303999922404252E+000	9.4846152E-003	-1.0193515E+000	0
1.0349361E+002	9.011639792995993E+001	-1.0223900E+000	-9.878773473523822E+000	1.0099960E-002	-1.0223528E+000	0
9.7817085E+001	9.041669792237371E+001	-1.0253766E+000	-1.048259191053648E+001	1.0748604E-002	-1.0253556E+000	0
9.2389351E+001	9.073179791441362E+001	-1.0284880E+000	-1.113210616469550E+001	1.1449238E-002	-1.0285068E+000	0
8.7517860E+001	9.104679790645605E+001	-1.0316513E+000	-1.178789422247143E+001	1.2160996E-002	-1.0316567E+000	0
8.3246681E+001	9.134699789887236E+001	-1.0346773E+000	-1.242905119023342E+001	1.2860057E-002	-1.0346584E+000	0
7.9374153E+001	9.164719789128867E+001	-1.0376983E+000	-1.307350355082443E+001	1.3566352E-002	-1.0376608E+000	0
7.5721664E+001	9.194729788370751E+001	-1.0406729E+000	-1.374339768046147E+001	1.4302381E-002	-1.0406616E+000	0
7.2432549E+001	9.224749787612382E+001	-1.0436648E+000	-1.440878281996828E+001	1.5037940E-002	-1.0436637E+000	0
6.9372673E+001	9.254759786854265E+001	-1.0467054E+000	-1.508815164692538E+001	1.5792849E-002	-1.0466647E+000	0
6.6505135E+001	9.284769786096149E+001	-1.0496825E+000	-1.578347970086446E+001	1.6567642E-002	-1.0496656E+000	0
6.3791000E+001	9.314799785337527E+001	-1.0526952E+000	-1.650225143046583E+001	1.7371841E-002	-1.0526685E+000	0
6.1285362E+001	9.344839784578653E+001	-1.0557073E+000	-1.722609319060014E+001	1.8185712E-002	-1.0556724E+000	0
5.8955124E+001	9.374859783820284E+001	-1.0586637E+000	-1.795711091712667E+001	1.9010542E-002	-1.0586748E+000	0
5.6751804E+001	9.404869783062168E+001	-1.0616481E+000	-1.870686177883147E+001	1.9860106E-002	-1.0616757E+000	0
5.4733070E+001	9.434879782304051E+001	-1.0646921E+000	-1.945244726189623E+001	2.0710867E-002	-1.0646768E+000	0
5.2782654E+001	9.464879781546188E+001	-1.0677013E+000	-2.022826228461588E+001	2.1597743E-002	-1.0676768E+000	0
5.1004299E+001	9.494889780788071E+001	-1.0707183E+000	-2.099270621037074E+001	2.2477275E-002	-1.0706776E+000	0
4.9297226E+001	9.524909780029702E+001	-1.0737321E+000	-2.178078280879145E+001	2.3386726E-002	-1.0736798E+000	0
4.7739243E+001	9.554919779271586E+001	-1.0767220E+000	-2.255423317084438E+001	2.4284640E-002	-1.0766809E+000	0
4.6241974E+001	9.584919778513722E+001	-1.0797198E+000	-2.334934541126620E+001	2.5210749E-002	-1.0796808E+000	0
4.4863644E+001	9.614939777755353E+001	-1.0827336E+000	-2.413387739740000E+001	2.6130561E-002	-1.0826825E+000	0
4.3528332E+001	9.644959776996984E+001	-1.0857261E+000	-2.494297662129753E+001	2.7081242E-002	-1.0856848E+000	0
4.2327839E+001	9.674959776239120E+001	-1.0886770E+000	-2.572011805750105E+001	2.8000902E-002	-1.0886848E+000	0
4.1163715E+001	9.704969775481004E+001	-1.0917071E+000	-2.652110250786524E+001	2.8953277E-002	-1.0916857E+000	0
4.0063194E+001	9.734989774722635E+001	-1.0946892E+000	-2.732406322755838E+001	2.9911358E-002	-1.0946877E+000	0
3.8999374E+001	9.765009773964266E+001	-1.0977031E+000	-2.814668585812848E+001	3.0896705E-002	-1.0976896E+000	0
3.7950985E+001	9.795039773205644E+001	-1.1006999E+000	-2.900319795955039E+001	3.1923816E-002	-1.1006927E+000	0
3.6996670E+001	9.825049772447528E+001	-1.1037176E+000	-2.983288859163741E+001	3.2927085E-002	-1.1036937E+000	0
3.6072304E+001	9.855059771689412E+001	-1.1067169E+000	-3.068051428074119E+001	3.3954643E-002	-1.1066949E+000	0
3.5153091E+001	9.885059770931548E+001	-1.1097294E+000	-3.156847375100315E+001	3.5032462E-002	-1.1096947E+000	0
3.4206120E+001	9.915069770173432E+001	-1.1127537E+000	-3.253083876638084E+001	3.6198813E-002	-1.1126956E+000	0
3.3324959E+001	9.945079769415315E+001	-1.1157480E+000	-3.348085140609180E+001	3.7356194E-002	-1.1156968E+000	0
3.2524429E+001	9.975089768657199E+001	-1.1187010E+000	-3.439571377713580E+001	3.8478520E-002	-1.1186976E+000	0
3.1622564E+001	1.000509976789908E+002	-1.1217417E+000	-3.547282326567529E+001	3.9791342E-002	-1.1216989E+000	0
3.0830814E+001	1.003510976714097E+002	-1.1247473E+000	-3.648127086591001E+001	4.1032210E-002	-1.1246997E+000	0
3.0083353E+001	1.006511976638285E+002	-1.1277606E+000	-3.748786377071497E+001	4.2277336E-002	-1.1277008E+000	0
2.9325623E+001	1.009511976562499E+002	-1.1307722E+000	-3.855918976351307E+001	4.3601662E-002	-1.1307008E+000	0
2.8584698E+001	1.012511976486712E+002	-1.1337535E+000	-3.966295284170025E+001	4.4968013E-002	-1.1337008E+000	0
2.7811075E+001	1.015512976410901E+002	-1.1367373E+000	-4.087354819308848E+001	4.6462487E-002	-1.1367017E+000	0
2.7046715E+001	1.018513976335089E+002	-1.1397852E+000	-4.214135340622813E+001	4.8032090E-002	-1.1397028E+000	0
2.6345684E+001	1.021514976259277E+002	-1.1427683E+000	-4.337591908306581E+001	4.9568623E-002	-1.1427035E+000	0
2.5720737E+001	1.024515976183466E+002	-1.1457514E+000	-4.454582060421535E+001	5.1038433E-002	-1.1457047E+000	0
2.5150892E+001	1.027516976107654E+002	-1.1487793E+000	-4.567548915636576E+001	5.2471057E-002	-1.1487056E+000	0
2.4470707E+001	1.030517976031842E+002	-1.1517869E+000	-4.706798643154201E+001	5.4212291E-002	-1.1517069E+000	0
2.3737148E+001	1.033517975956056E+002	-1.1547570E+000	-4.864767435816559E+001	5.6176245E-002	-1.1547068E+000	0
2.3199961E+001	1.036519975880219E+002	-1.1577945E+000	-4.990501793178809E+001	5.7779755E-002	-1.1577088E+000	0
2.2584942E+001	1.039519975804433E+002	-1.1607829E+000	-5.139632309950844E+001	5.9659977E-002	-1.1607088E+000	0
2.2017065E+001	1.042520975728621E+002	-1.1637927E+000	-5.285866825607968E+001	6.1516535E-002	-1.1637096E+000	0
2.1553207E+001	1.045521975652809E+002	-1.1668100E+000	-5.413626193522941E+001	6.3166730E-002	-1.1667110E+000	0
2.1091562E+001	1.048522975576998E+002	-1.1698079E+000	-5.546331009018174E+001	6.4881422E-002	-1.1697117E+000	0
2.0569221E+001	1.051524975501161E+002	-1.1728126E+000	-5.701783980957748E+001	6.6871241E-002	-1.1727136E+000	0
2.0172216E+001	1.054526975425324E+002	-1.1758131E+000	-5.828874270008816E+001	6.8536669E-002	-1.1757157E+000	0
1.9789820E+001	1.057528975349487E+002	-1.1788507E+000	-5.956854178756612E+001	7.0222415E-002	-1.1787176E+000	0
1.9383429E+001	1.060530975273650E+002	-1.1818157E+000	-6.097041795610670E+001	7.2055802E-002	-1.1817195E+000	0
1.9010828E+001	1.063531975197839E+002	-1.1848133E+000	-6.232307702953290E+001	7.3841207E-002	-1.1847208E+000	0
1.8661905E+001	1.066532975122027E+002	-1.1878296E+000	-6.364996666191195E+001	7.5605318E-002	-1.1877217E+000	0
1.8357742E+001	1.069533975046215E+002	-1.1908147E+000	-6.486717006895265E+001	7.7244781E-002	-1.1907228E+000	0
1.7975193E+001	1.072536974970353E+002	-1.1938030E+000	-6.641391320304319E+001	7.9285122E-002	-1.1937257E+000	0
1.7648493E+001	1.075537974894542E+002	-1.1967891E+000	-6.781254451434745E+001	8.1157319E-002	-1.1967269E+000	0
1.7339397E+001	1.078538974818730E+002	-1.1998042E+000	-6.919526119393345E+001	8.3020762E-002	-1.1997278E+000	0
1.6997555E+001	1.081539974742918E+002	-1.2028173E+000	-7.076413739980525E+001	8.5116327E-002	-1.2027290E+000	0
1.6666471E+001	1.084539974667132E+002	-1.2058491E+000	-7.235179322904298E+001	8.7245338E-002	-1.2057289E+000	0
1.6352938E+001	1.087540974591320E+002	-1.2088436E+000	-7.392210614012379E+001	8.9360267E-002	-1.2087295E+000	0
1.6067030E+001	1.090542974515483E+002	-1.2118281E+000	-7.542328020219043E+001	9.1400050E-002	-1.2117316E+000	0
1.5756244E+001	1.093543974439672E+002	-1.2148110E+000	-7.710029252847517E+001	9.3662284E-002	-1.2147329E+000	0
1.5502535E+001	1.096543974363885E+002	-1.2178329E+000	-7.855701937785238E+001	9.5669322E-002	-1.2177328E+000	0
1.5254454E+001	1.099543974288099E+002	-1.2208079E+000	-8.002960336912338E+001	9.7700775E-002	-1.2207328E+000	0
1.5014013E+001	1.102545974212262E+002	-1.2238408E+000	-8.151323503339609E+001	9.9759229E-002	-1.2237347E+000	0
1.4800839E+001	1.105546974136450E+002	-1.2268327E+000	-8.288940516766871E+001	1.0169144E-001	-1.2267357E+000	0
1.4580563E+001	1.108547974060639E+002	-1.2298484E+000	-8.434848537101379E+001	1.0373585E-001	-1.2297369E+000	0
1.4324737E+001	1.111547973984852E+002	-1.2328482E+000	-8.606428061400356E+001	1.0610419E-001	-1.2327369E+000	0
1.4139639E+001	1.114550973908990E+002	-1.2358395E+000	-8.740248139475719E+001	1.0801544E-001	-1.2357397E+000	0
1.3941204E+001	1.117552973833153E+002	-1.2388632E+000	-8.886343417839294E+001	1.1008964E-001	-1.2387416E+000	0
1.3694668E+001	1.120554973757316E+002	-1.2418591E+000	-9.068194456965080E+001	1.1261420E-001	-1.2417436E+000	0
1.3530245E+001	1.123556973681480E+002	-1.2448642E+000	-9.200603832002685E+001	1.1453503E-001	-1.2447456E+000	0
1.3350133E+001	1.126558973605643E+002	-1.2478480E+000	-9.347082969487860E+001	1.1663739E-001	-1.2477477E+000	0
1.3207145E+001	1.129560973529806E+002	-1.2508594E+000	-9.471080925830540E+001	1.1846990E-001	-1.2507498E+000	0
1.3058384E+001	1.132561973453994E+002	-1.2538657E+000	-9.601997494912382E+001	1.2039615E-001	-1.2537508E+000	0
1.2920630E+001	1.135561973378208E+002	-1.2568563E+000	-9.727515734137000E+001	1.2226090E-001	-1.2567508E+000	0
1.2743924E+001	1.138562973302396E+002	-1.2598479E+000	-9.885870852984795E+001	1.2454694E-001	-1.2597517E+000	0
1.2583363E+001	1.141563973226584E+002	-1.2628843E+000	-1.003614325976821E+002	1.2674487E-001	-1.2627530E+000	0
1.2433798E+001	1.144564973150773E+002	-1.2658365E+000	-1.018060990555654E+002	1.2886988E-001	-1.2657537E+000	0
1.2282398E+001	1.147565973074961E+002	-1.2688853E+000	-1.033092433100827E+002	1.3108757E-001	-1.2687550E+000	0
1.2086731E+001	1.150565972999175E+002	-1.2718807E+000	-1.052295065632572E+002	1.3383938E-001	-1.2717547E+000	0
1.1944000E+001	1.153565972923388E+002	-1.2748679E+000	-1.067370985964754E+002	1.3607571E-001	-1.2747548E+000	0
1.1799781E+001	1.156565972847602E+002	-1.2778754E+000	-1.082965395643906E+002	1.3838948E-001	-1.2777548E+000	0
1.1589208E+001	1.159716972768001E+002	-1.2810131E+000	-1.105350063568167E+002	1.4159679E-001	-1.2809057E+000	0
1.1460813E+001	1.162867972688400E+002	-1.2841666E+000	-1.120484710174044E+002	1.4388891E-001	-1.2840569E+000	0
1.1347960E+001	1.165868972612589E+002	-1.2871323E+000	-1.134241059090045E+002	1.4599183E-001	-1.2870576E+000	0
1.1236643E+001	1.168869972536777E+002	-1.2901525E+000	-1.148165507884592E+002	1.4813086E-001	-1.2900589E+000	0
1.1133699E+001	1.171870972460965E+002	-1.2931497E+000	-1.161473528737693E+002	1.5019591E-001	-1.2930597E+000	0
1.1021840E+001	1.174872972385128E+002	-1.2961320E+000	-1.175966949120427E+002	1.5242083E-001	-1.2960618E+000	0
1.0895982E+001	1.177873972309317E+002	-1.2991592E+000	-1.192328670337517E+002	1.5490247E-001	-1.2990631E+000	0
1.0773202E+001	1.180873972233530E+002	-1.3021642E+000	-1.208706746993958E+002	1.5739347E-001	-1.3020627E+000	0
1.0672946E+001	1.183874972157719E+002	-1.3050901E+000	-1.222802109245490E+002	1.5958668E-001	-1.3050636E+000	0
1.0553179E+001	1.186876972081882E+002	-1.3081021E+000	-1.239533791937956E+002	1.6214368E-001	-1.3080655E+000	0
1.0441176E+001	1.189877972006070E+002	-1.3111507E+000	-1.255749988632278E+002	1.6464774E-001	-1.3110669E+000	0
1.0320232E+001	1.192878971930259E+002	-1.3141681E+000	-1.273390034962026E+002	1.6734485E-001	-1.3140677E+000	0
1.0163350E+001	1.195880971854422E+002	-1.3171246E+000	-1.295955220287465E+002	1.7069346E-001	-1.3170696E+000	0
1.0046972E+001	1.198882971778585E+002	-1.3201705E+000	-1.313998392582064E+002	1.7347020E-001	-1.3200717E+000	0
9.9369116E+000	1.201883971702773E+002	-1.3231832E+000	-1.331583879363907E+002	1.7619294E-001	-1.3230729E+000	0
9.8163652E+000	1.204883971626987E+002	-1.3261750E+000	-1.350983681740822E+002	1.7916408E-001	-1.3260729E+000	0
9.6805038E+000	1.207884971551175E+002	-1.3291054E+000	-1.372971339822176E+002	1.8248236E-001	-1.3290738E+000	0
9.5913134E+000	1.210887971475313E+002	-1.3321717E+000	-1.388935614756697E+002	1.8503007E-001	-1.3320765E+000	0
9.5164814E+000	1.213889971399476E+002	-1.3351593E+000	-1.402996862638709E+002	1.8732244E-001	-1.3350787E+000	0
9.4311838E+000	1.216889971323690E+002	-1.3381883E+000	-1.418897438526633E+002	1.8987520E-001	-1.3380787E+000	0
9.3507071E+000	1.219891971247853E+002	-1.3411673E+000	-1.434295075403791E+002	1.9236296E-001	-1.3410803E+000	0
9.3198013E+000	1.221254971213421E+002	-1.3425761E+000	-1.440562991963493E+002	1.9340655E-001	-1.3424419E+000	0
9.2926750E+000	1.222167971190356E+002	-1.3434826E+000	-1.445743708867184E+002	1.9423315E-001	-1.3433561E+000	0
9.2086554E+000	1.224123971140943E+002	-1.3454120E+000	-1.461029851126759E+002	1.9656871E-001	-1.3453116E+000	0
9.0972481E+000	1.226378971083977E+002	-1.3476732E+000	-1.481407486923841E+002	1.9964531E-001	-1.3475666E+000	0
9.0135546E+000	1.228185971038329E+002	-1.3494526E+000	-1.497137016682129E+002	2.0203155E-001	-1.3493735E+000	0
8.8863897E+000	1.230291970985127E+002	-1.3516006E+000	-1.520978355931875E+002	2.0557553E-001	-1.3514800E+000	0
8.7676239E+000	1.232694970924422E+002	-1.3539852E+000	-1.544301145605980E+002	2.0909609E-001	-1.3538833E+000	0
8.6862974E+000	1.235099970863666E+002	-1.3563981E+000	-1.561537789250156E+002	2.1180668E-001	-1.3562876E+000	0
8.6078787E+000	1.237352970806751E+002	-1.3586760E+000	-1.578409807502730E+002	2.1445474E-001	-1.3585413E+000	0
8.5477848E+000	1.239755970746046E+002	-1.3610322E+000	-1.592263078426345E+002	2.1671215E-001	-1.3609439E+000	0
8.5088596E+000	1.241712970696608E+002	-1.3630506E+000	-1.601919292610442E+002	2.1834970E-001	-1.3629005E+000	0
8.4306459E+000	1.243964970639718E+002	-1.3652594E+000	-1.619400798352996E+002	2.2109021E-001	-1.3651532E+000	0
8.3679504E+000	1.246218970582777E+002	-1.3674967E+000	-1.634207570578747E+002	2.2347735E-001	-1.3674065E+000	0
8.2756891E+000	1.248324970529575E+002	-1.3696429E+000	-1.655019670787889E+002	2.2667858E-001	-1.3695126E+000	0
8.2200098E+000	1.250580970472583E+002	-1.3718630E+000	-1.668931154798602E+002	2.2895449E-001	-1.3717692E+000	0
8.1449995E+000	1.252686970419381E+002	-1.3739680E+000	-1.686885258852599E+002	2.3177263E-001	-1.3738747E+000	0
8.0409107E+000	1.254941970362415E+002	-1.3762492E+000	-1.711558795063020E+002	2.3555315E-001	-1.3761296E+000	0
7.9735122E+000	1.256897970313003E+002	-1.3781947E+000	-1.728466252552935E+002	2.3821630E-001	-1.3780862E+000	0
7.8871574E+000	1.259150970256087E+002	-1.3804460E+000	-1.750245247240323E+002	2.4161190E-001	-1.3803385E+000	0
7.7824202E+000	1.261107970206649E+002	-1.3824034E+000	-1.776315530471807E+002	2.4555846E-001	-1.3822956E+000	0
7.6707664E+000	1.263510970145944E+002	-1.3848114E+000	-1.805310420664723E+002	2.5000143E-001	-1.3846995E+000	0
7.6103206E+000	1.265616970092742E+002	-1.3868865E+000	-1.822375950087997E+002	2.5274286E-001	-1.3868049E+000	0
7.5445852E+000	1.267423970047093E+002	-1.3886844E+000	-1.840637109102163E+002	2.5560641E-001	-1.3886119E+000	0
7.4224148E+000	1.269678969990127E+002	-1.3909452E+000	-1.873979307862505E+002	2.6066026E-001	-1.3908666E+000	0
7.2589016E+000	1.271933969933161E+002	-1.3932327E+000	-1.919343760505317E+002	2.6740924E-001	-1.3931221E+000	0
7.2286067E+000	1.273888969883774E+002	-1.3952048E+000	-1.930115799110256E+002	2.6929069E-001	-1.3950773E+000	0
7.1957917E+000	1.275546969841889E+002	-1.3968540E+000	-1.941209605153053E+002	2.7115864E-001	-1.3967351E+000	0
7.0847983E+000	1.277800969784948E+002	-1.3991134E+000	-1.974810540118701E+002	2.7629840E-001	-1.3989885E+000	0
7.0122957E+000	1.279906969731746E+002	-1.4012234E+000	-1.998237723131811E+002	2.7999774E-001	-1.4010952E+000	0
6.9649634E+000	1.282310969671016E+002	-1.4036300E+000	-2.015272695172839E+002	2.8286973E-001	-1.4034985E+000	0
6.9146624E+000	1.284864969606497E+002	-1.4061977E+000	-2.033646230221361E+002	2.8597087E-001	-1.4060527E+000	0
6.8664603E+000	1.287121969549480E+002	-1.4084235E+000	-2.051163871707786E+002	2.8889075E-001	-1.4083098E+000	0
6.8303466E+000	1.289678969484885E+002	-1.4110192E+000	-2.065809109561346E+002	2.9148963E-001	-1.4108669E+000	0
6.7970695E+000	1.291784969431683E+002	-1.4130996E+000	-2.078983717403003E+002	2.9378110E-001	-1.4129732E+000	0
6.7476740E+000	1.294188969370953E+002	-1.4155371E+000	-2.097814891614298E+002	2.9695350E-001	-1.4153773E+000	0
6.7115035E+000	1.296296969317700E+002	-1.4175936E+000	-2.112184883695843E+002	2.9942197E-001	-1.4174846E+000	0
6.6701179E+000	1.298404969264448E+002	-1.4197218E+000	-2.128480909939835E+002	3.0218509E-001	-1.4195930E+000	0
6.6335478E+000	1.300660969207456E+002	-1.4220145E+000	-2.143671102249949E+002	3.0483314E-001	-1.4218484E+000	0
6.5909262E+000	1.302616969158044E+002	-1.4239420E+000	-2.160458147312384E+002	3.0763671E-001	-1.4238050E+000	0
6.5084271E+000	1.304571969108656E+002	-1.4258839E+000	-2.190827100265778E+002	3.1238651E-001	-1.4257601E+000	0
6.4816236E+000	1.306228969066797E+002	-1.4275601E+000	-2.202472988126051E+002	3.1441626E-001	-1.4274174E+000	0
6.4714727E+000	1.308481969009881E+002	-1.4298025E+000	-2.209392753725033E+002	3.1589955E-001	-1.4296701E+000	0
6.4362035E+000	1.310885968949151E+002	-1.4322066E+000	-2.225235139201949E+002	3.1869966E-001	-1.4320740E+000	0
6.3526649E+000	1.313142968892134E+002	-1.4344896E+000	-2.258091007604182E+002	3.2392082E-001	-1.4343306E+000	0
6.2935476E+000	1.315396968835194E+002	-1.4367044E+000	-2.282821250753641E+002	3.2797393E-001	-1.4365847E+000	0
6.2347231E+000	1.317352968785781E+002	-1.4387110E+000	-2.307578113408510E+002	3.3199382E-001	-1.4385403E+000	0
6.2051430E+000	1.319756968725051E+002	-1.4410833E+000	-2.322401550405054E+002	3.3467740E-001	-1.4409455E+000	0
6.1534152E+000	1.322162968664270E+002	-1.4435049E+000	-2.345859844230704E+002	3.3862603E-001	-1.4433508E+000	0
6.0684547E+000	1.324565968603565E+002	-1.4459112E+000	-2.382667888487777E+002	3.4451261E-001	-1.4457542E+000	0
6.0154290E+000	1.326521968554152E+002	-1.4478698E+000	-2.406926934940620E+002	3.4849167E-001	-1.4477103E+000	0
5.8647718E+000	1.328329968508478E+002	-1.4496483E+000	-2.471789674235606E+002	3.5832256E-001	-1.4495175E+000	0
5.8272681E+000	1.330138968462779E+002	-1.4514610E+000	-2.490808644822764E+002	3.6153114E-001	-1.4513271E+000	0
5.7752175E+000	1.332395968405763E+002	-1.4537274E+000	-2.517181907966983E+002	3.6592963E-001	-1.4535835E+000	0
5.6486850E+000	1.334503968352510E+002	-1.4558727E+000	-2.577365648383297E+002	3.7523162E-001	-1.4556919E+000	0
5.5967679E+000	1.336608968299333E+002	-1.4579386E+000	-2.604965292826810E+002	3.7978792E-001	-1.4577969E+000	0
5.5148029E+000	1.338862968242393E+002	-1.4601918E+000	-2.647767913452110E+002	3.8662490E-001	-1.4600506E+000	0
5.4485259E+000	1.340820968192929E+002	-1.4621605E+000	-2.683589099684104E+002	3.9238378E-001	-1.4620082E+000	0
5.3567190E+000	1.342778968143466E+002	-1.4641036E+000	-2.733209606231035E+002	4.0017021E-001	-1.4639668E+000	0
5.2664223E+000	1.344439968101506E+002	-1.4657844E+000	-2.783264089560039E+002	4.0796652E-001	-1.4656279E+000	0
5.2476678E+000	1.346098968059596E+002	-1.4674498E+000	-2.796384784798220E+002	4.1035542E-001	-1.4672868E+000	0
5.2580652E+000	1.347756968017711E+002	-1.4690918E+000	-2.793977907594940E+002	4.1046101E-001	-1.4689449E+000	0
5.2491603E+000	1.350307967953268E+002	-1.4716803E+000	-2.803648992293659E+002	4.1260749E-001	-1.4714963E+000	0
5.1593704E+000	1.352708967892613E+002	-1.4740883E+000	-2.857109016173558E+002	4.2116311E-001	-1.4738973E+000	0
5.0767627E+000	1.354513967847015E+002	-1.4759578E+000	-2.907281446503384E+002	4.2910245E-001	-1.4757020E+000	0
5.0771070E+000	1.356763967790175E+002	-1.4782362E+000	-2.911571962823260E+002	4.3039912E-001	-1.4779522E+000	0
5.0701427E+000	1.359015967733285E+002	-1.4804688E+000	-2.919974578645679E+002	4.3229312E-001	-1.4802045E+000	0
4.9787264E+000	1.361120967680108E+002	-1.4825484E+000	-2.977766216089130E+002	4.4146824E-001	-1.4823090E+000	0
4.8445115E+000	1.363373967623193E+002	-1.4847858E+000	-3.064882257792051E+002	4.5506936E-001	-1.4845620E+000	0
4.7420917E+000	1.365777967562462E+002	-1.4872212E+000	-3.136213470391149E+002	4.6642432E-001	-1.4869661E+000	0
4.7388477E+000	1.367732967513075E+002	-1.4892089E+000	-3.142554901309004E+002	4.6799210E-001	-1.4889202E+000	0
4.7426028E+000	1.369835967459949E+002	-1.4912595E+000	-3.144390237323964E+002	4.6891016E-001	-1.4910244E+000	0
4.7291064E+000	1.372238967399244E+002	-1.4937170E+000	-3.158560652683036E+002	4.7179955E-001	-1.4934272E+000	0
4.7315917E+000	1.374939967331011E+002	-1.4963669E+000	-3.162502196323926E+002	4.7322634E-001	-1.4961284E+000	0
4.6962342E+000	1.377491967266542E+002	-1.4989455E+000	-3.191803128464162E+002	4.7843388E-001	-1.4986800E+000	0
4.6656823E+000	1.379895967205812E+002	-1.5013527E+000	-3.217862995276491E+002	4.8311472E-001	-1.5010842E+000	0
4.6778469E+000	1.382147967148921E+002	-1.5035702E+000	-3.214235518623152E+002	4.8328286E-001	-1.5033352E+000	0
4.6928272E+000	1.384250967095795E+002	-1.5057014E+000	-3.208516580922978E+002	4.8310679E-001	-1.5054394E+000	0
4.7067137E+000	1.386355967042618E+002	-1.5077826E+000	-3.203471968638192E+002	4.8301393E-001	-1.5075434E+000	0
4.7056108E+000	1.388610966985652E+002	-1.5100713E+000	-3.209086578924234E+002	4.8459494E-001	-1.5097986E+000	0
4.6799088E+000	1.390568966936189E+002	-1.5120544E+000	-3.230948450027327E+002	4.8853698E-001	-1.5117571E+000	0
4.6146736E+000	1.392227966894279E+002	-1.5136404E+000	-3.280059352502112E+002	4.9648303E-001	-1.5134159E+000	0
4.5797424E+000	1.394481966837338E+002	-1.5159202E+000	-3.310055544419668E+002	5.0177801E-001	-1.5156698E+000	0
4.4671617E+000	1.396585966784187E+002	-1.5180150E+000	-3.398164645322349E+002	5.1584649E-001	-1.5177736E+000	0
4.4185858E+000	1.398690966731010E+002	-1.5201188E+000	-3.440283638267347E+002	5.2296400E-001	-1.5198791E+000	0
4.3711309E+000	1.401244966666491E+002	-1.5226781E+000	-3.483487999953659E+002	5.3042310E-001	-1.5224329E+000	0
4.3389783E+000	1.403499966609525E+002	-1.5249733E+000	-3.514590773378148E+002	5.3596568E-001	-1.5246879E+000	0
4.1464977E+000	1.405157966567640E+002	-1.5266074E+000	-3.681679272171787E+002	5.6204790E-001	-1.5263466E+000	0
3.9992855E+000	1.406965966521966E+002	-1.5284443E+000	-3.821793441016034E+002	5.8413982E-001	-1.5281539E+000	0
3.9334035E+000	1.409070966468789E+002	-1.5305337E+000	-3.891117819873921E+002	5.9554869E-001	-1.5302584E+000	0
3.9405618E+000	1.411177966415562E+002	-1.5325984E+000	-3.889289019500229E+002	5.9607178E-001	-1.5323657E+000	0
3.9444497E+000	1.413435966358520E+002	-1.5348747E+000	-3.891226499496070E+002	5.9725451E-001	-1.5346240E+000	0
3.9510400E+000	1.415691966301529E+002	-1.5371740E+000	-3.890555289542044E+002	5.9804606E-001	-1.5368800E+000	0
3.9350650E+000	1.418245966237009E+002	-1.5397029E+000	-3.912776280051012E+002	6.0245132E-001	-1.5394342E+000	0
3.9231999E+000	1.420203966187546E+002	-1.5416665E+000	-3.929614883559780E+002	6.0581559E-001	-1.5413914E+000	0
3.7472723E+000	1.422308966134369E+002	-1.5437835E+000	-4.119752867791435E+002	6.3600069E-001	-1.5434976E+000	0
3.6636796E+000	1.425307966058608E+002	-1.5468080E+000	-4.222006670213932E+002	6.5306336E-001	-1.5464969E+000	0
3.6533592E+000	1.428307965982822E+002	-1.5497724E+000	-4.242047698027595E+002	6.5742081E-001	-1.5494964E+000	0
3.6605542E+000	1.431307965907035E+002	-1.5528080E+000	-4.242002603112755E+002	6.5870160E-001	-1.5524964E+000	0
3.6456623E+000	1.434308965831224E+002	-1.5557745E+000	-4.267467327255924E+002	6.6392165E-001	-1.5554974E+000	0
3.6744969E+000	1.437309965755412E+002	-1.5587802E+000	-4.242159483244241E+002	6.6125941E-001	-1.5584986E+000	0
3.7180531E+000	1.440309965679626E+002	-1.5618055E+000	-4.200600205995174E+002	6.5605205E-001	-1.5614985E+000	0
3.7499537E+000	1.443309965603839E+002	-1.5647768E+000	-4.172789545488795E+002	6.5294844E-001	-1.5644987E+000	0
3.7412667E+000	1.446309965528053E+002	-1.5677805E+000	-4.190507256485917E+002	6.5697956E-001	-1.5674987E+000	0
3.6474600E+000	1.449309965452267E+002	-1.5707691E+000	-4.306473649132845E+002	6.7644757E-001	-1.5704987E+000	0
3.5362723E+000	1.452309965376480E+002	-1.5737914E+000	-4.450424795981286E+002	7.0040405E-001	-1.5734988E+000	0
3.4061468E+000	1.455309965300694E+002	-1.5767944E+000	-4.629261467468760E+002	7.2993934E-001	-1.5764987E+000	0
3.3689640E+000	1.458309965224908E+002	-1.5798506E+000	-4.689425662119941E+002	7.4085915E-001	-1.5794984E+000	0
3.2538695E+000	1.461309965149121E+002	-1.5828129E+000	-4.864401910035344E+002	7.6994383E-001	-1.5824984E+000	0
3.2005806E+000	1.464309965073335E+002	-1.5858046E+000	-4.954740327638428E+002	7.8572500E-001	-1.5854986E+000	0
3.1988337E+000	1.467309964997548E+002	-1.5888386E+000	-4.966930789279286E+002	7.8916514E-001	-1.5884987E+000	0
3.1886699E+000	1.470309964921762E+002	-1.5918424E+000	-4.992183066054004E+002	7.9467690E-001	-1.5914987E+000	0
3.1928616E+000	1.473309964845976E+002	-1.5948236E+000	-4.994966322218224E+002	7.9660904E-001	-1.5944986E+000	0
3.2080412E+000	1.476309964770189E+002	-1.5978345E+000	-4.980716711431905E+002	7.9583609E-001	-1.5974988E+000	0
3.2222464E+000	1.479309964694403E+002	-1.6008199E+000	-4.968024542639560E+002	7.9529130E-001	-1.6004988E+000	0
3.2344868E+000	1.482309964618617E+002	-1.6038176E+000	-4.958491679736671E+002	7.9525161E-001	-1.6034987E+000	0
3.2628121E+000	1.485309964542830E+002	-1.6068574E+000	-4.924762209528531E+002	7.9133904E-001	-1.6064986E+000	0
3.2638111E+000	1.488309964467044E+002	-1.6098284E+000	-4.932357574898206E+002	7.9402488E-001	-1.6094984E+000	0
3.2799358E+000	1.491309964391257E+002	-1.6128782E+000	-4.917407889876872E+002	7.9311800E-001	-1.6124985E+000	0
3.2114699E+000	1.494309964315471E+002	-1.6158258E+000	-5.031421309386187E+002	8.1299001E-001	-1.6154985E+000	0
3.1968367E+000	1.497309964239685E+002	-1.6188236E+000	-5.063829562327510E+002	8.1974471E-001	-1.6184987E+000	0
3.1330123E+000	1.500310964163873E+002	-1.6222138E+000	-5.177808572457689E+002	8.3995128E-001	-1.6214995E+000	0
2.9844818E+000	1.503312964088036E+002	-1.6253186E+000	-5.445899013314443E+002	8.8513213E-001	-1.6245015E+000	0
2.8935018E+000	1.506313964012224E+002	-1.6283456E+000	-5.627595128087059E+002	9.1636699E-001	-1.6275027E+000	0
2.8939030E+000	1.509314963936413E+002	-1.6313460E+000	-5.637182617783787E+002	9.1961950E-001	-1.6305035E+000	0
2.9224312E+000	1.512015963868180E+002	-1.6340070E+000	-5.591259116782794E+002	9.1361564E-001	-1.6332046E+000	0
2.9230759E+000	1.513169963839027E+002	-1.6353678E+000	-5.594681267371543E+002	9.1493613E-001	-1.6345543E+000	1