EC-Lab ASCII FILE
Nb header lines : 63                          

Linear Sweep Voltammetry

Run on channel : 1 (SN 1340)
User : 
Electrode connection : standard
Potential control : Ewe
Ewe ctrl range : min = -5.00 V, max = 10.00 V
Ewe,I filtering : <None>
Safety Limits :
	Do not start on E overload
Channel : Floating
Acquisition started on : 03/05/2026 12:29:43.734
Technique started on : 03/05/2026 12:29:46.572
Loaded Setting File :  NONE
Saved on :
	File : Pt_N52magB_flat_3-5_02_LSV_C01.mpr
	Directory : C:\Users\volt\Documents\Platalytix\
	Host : 127.0.0.1
Device : SP-200 (SN 0262)
Address : USB
EC-LAB for windows v11.60 (software)
Internet server v11.60 (firmware)
Command interpretor v11.60 (firmware)
Electrode material : Pt
Initial state : 
Electrolyte : KOH (1 M)
Comments : N52 disk magnet, B side up (-), flat orientation
Cable : standard
Reference electrode : Hg/HgO (0.140 V)
Electrode surface area : 1.000 cm˛
Characteristic mass : 0.001 g
Equivalent Weight : 0.000 g/eq.
Density : 0.000 g/cm3
Volume (V) : 0.001 cmł
Cycle Definition : Charge/Discharge alternance
tR (h:m:s)          0:00:5.0000         
dER/dt (mV/h)       0.0                 
dER (mV)            0                   
dtR (s)             0.0000              
dE/dt               10.000              
dE/dt unit          mV/s                
Ei (V)              -0.200              
vs.                 Ref                 
EL (V)              -2.500              
vs.                 Ref                 
record              <I>                 
dI                  0.000               
unit dI             µA                  
tI (s)              0.0000              
step percent        50                  
N                   10                  
E range min (V)     -5.000              
E range max (V)     10.000              
I Range             Auto                
I Range min         Unset               
I Range max         Unset               
I Range init        Unset               
Bandwidth           8                   

Rwe/Ohm	time/s	Ewe/V	<I>/mA	Pwe/W	control/V	error	
0.0000000E+000	2.838400134787662E+000	-1.6568680E-001	0.000000000000000E+000	0.0000000E+000	0.0000000E+000	0
0.0000000E+000	7.838200008482090E+000	-4.4975039E-002	0.000000000000000E+000	0.0000000E+000	-1.9972032E-001	0
1.0998193E+003	8.018600003924803E+000	-2.0142929E-001	1.831476166844368E-001	-3.6891295E-005	-2.0137399E-001	0
8.6844941E+003	8.168700000132958E+000	-2.0288058E-001	-2.336124153557251E-002	4.7395420E-006	-2.0287442E-001	0
2.1307043E+003	8.483599992177915E+000	-2.0597970E-001	-9.667211558742972E-002	1.9912493E-005	-2.0602337E-001	0
2.3280742E+003	8.783599984599277E+000	-2.0902197E-001	-8.978321128117228E-002	1.8766665E-005	-2.0902313E-001	0
2.5188638E+003	9.083599977020640E+000	-2.1202247E-001	-8.417385603058603E-002	1.7846749E-005	-2.1202336E-001	0
2.6959360E+003	9.383599969442002E+000	-2.1502762E-001	-7.975991120569426E-002	1.7150584E-005	-2.1502337E-001	0
2.8635710E+003	9.683599961863365E+000	-2.1800287E-001	-7.612972383440342E-002	1.6596498E-005	-2.1802336E-001	0
3.0235498E+003	9.983699954282201E+000	-2.2105660E-001	-7.311160865428018E-002	1.6161803E-005	-2.2102422E-001	0
3.1744797E+003	1.028369994670356E+001	-2.2400743E-001	-7.056508144716866E-002	1.5807102E-005	-2.2402446E-001	0
3.3257939E+003	1.058369993912493E+001	-2.2702815E-001	-6.826284411570704E-002	1.5497588E-005	-2.2702469E-001	0
3.4703186E+003	1.088379993154376E+001	-2.3001179E-001	-6.627973322034175E-002	1.5245120E-005	-2.3002538E-001	0
3.6105415E+003	1.118379992396513E+001	-2.3304574E-001	-6.454592372086243E-002	1.5042153E-005	-2.3302537E-001	0
3.7495146E+003	1.148379991638649E+001	-2.3600952E-001	-6.294401767982097E-002	1.4855387E-005	-2.3602536E-001	0
3.8852539E+003	1.178369990881038E+001	-2.3903382E-001	-6.152334471388654E-002	1.4706160E-005	-2.3902474E-001	0
4.0174937E+003	1.208369990123174E+001	-2.4202116E-001	-6.024182678217782E-002	1.4579797E-005	-2.4202427E-001	0
4.1504443E+003	1.238359989365563E+001	-2.4502790E-001	-5.903654410151860E-002	1.4465601E-005	-2.4502337E-001	0
4.2852646E+003	1.268359988607699E+001	-2.4803032E-001	-5.787981258223487E-002	1.4355948E-005	-2.4802336E-001	0
4.4170527E+003	1.298359987849835E+001	-2.5099844E-001	-5.682486945228893E-002	1.4262953E-005	-2.5102359E-001	0
4.5442637E+003	1.328359987091972E+001	-2.5396851E-001	-5.588771295149120E-002	1.4193719E-005	-2.5402361E-001	0
4.6750166E+003	1.358359986334108E+001	-2.5703785E-001	-5.498116326555347E-002	1.4132240E-005	-2.5702336E-001	0
4.8051597E+003	1.388359985576244E+001	-2.6001763E-001	-5.411217421232428E-002	1.4070120E-005	-2.6002359E-001	0
4.9307495E+003	1.418359984818380E+001	-2.6299474E-001	-5.333767801827727E-002	1.4027529E-005	-2.6302338E-001	0
5.0543975E+003	1.448359984060517E+001	-2.6603132E-001	-5.263363866569137E-002	1.4002197E-005	-2.6602358E-001	0
5.1802256E+003	1.478359983302653E+001	-2.6907676E-001	-5.194306089347128E-002	1.3976671E-005	-2.6902342E-001	0
5.3026182E+003	1.508359982544789E+001	-2.7206397E-001	-5.130747732578417E-002	1.3958916E-005	-2.7202359E-001	0
5.4318516E+003	1.538359981786925E+001	-2.7503219E-001	-5.063323222823707E-002	1.3925769E-005	-2.7502358E-001	0
5.5536235E+003	1.568369981028809E+001	-2.7811012E-001	-5.007723423011523E-002	1.3926985E-005	-2.7802446E-001	0
5.6741377E+003	1.598369980270945E+001	-2.8098688E-001	-4.952062937503576E-002	1.3914647E-005	-2.8102469E-001	0
5.7970049E+003	1.628369979513081E+001	-2.8403816E-001	-4.899739720883933E-002	1.3917131E-005	-2.8402469E-001	0
5.9134326E+003	1.658379978754965E+001	-2.8704721E-001	-4.854155177857467E-002	1.3933717E-005	-2.8702560E-001	0
6.0343149E+003	1.688369977997354E+001	-2.9005006E-001	-4.806677376913948E-002	1.3941771E-005	-2.9002452E-001	0
6.1554136E+003	1.718369977239490E+001	-2.9302737E-001	-4.760482212536604E-002	1.3949516E-005	-2.9302472E-001	0
6.2698735E+003	1.748369976481627E+001	-2.9600543E-001	-4.721074814329829E-002	1.3974638E-005	-2.9602474E-001	0
6.3807793E+003	1.778369975723763E+001	-2.9904661E-001	-4.686678554817014E-002	1.4015353E-005	-2.9902449E-001	0
6.4986968E+003	1.808359974966152E+001	-3.0204284E-001	-4.647744860009756E-002	1.4038181E-005	-3.0202362E-001	0
6.6063574E+003	1.838359974208288E+001	-3.0504638E-001	-4.617466927729741E-002	1.4085415E-005	-3.0502361E-001	0
6.7147876E+003	1.868359973450424E+001	-3.0807355E-001	-4.587986671565834E-002	1.4134373E-005	-3.0802360E-001	0
6.8301343E+003	1.898359972692560E+001	-3.1103811E-001	-4.553909187388375E-002	1.4164393E-005	-3.1102338E-001	0
6.9419336E+003	1.928359971934697E+001	-3.1404254E-001	-4.523848220877813E-002	1.4206807E-005	-3.1402358E-001	0
7.0393154E+003	1.958359971176833E+001	-3.1706768E-001	-4.504240196248355E-002	1.4281490E-005	-3.1702358E-001	0
7.1520972E+003	1.988359970418969E+001	-3.1998178E-001	-4.473957391979558E-002	1.4315849E-005	-3.2002360E-001	0
7.2625586E+003	2.018359969661105E+001	-3.2305473E-001	-4.448221962598684E-002	1.4370192E-005	-3.2302341E-001	0
7.3515967E+003	2.048359968903242E+001	-3.2602501E-001	-4.434750921374259E-002	1.4458397E-005	-3.2602358E-001	0
7.4591777E+003	2.078359968145378E+001	-3.2905966E-001	-4.411473789980591E-002	1.4516380E-005	-3.2902360E-001	0
7.5572407E+003	2.108359967387514E+001	-3.3203924E-001	-4.393657072454449E-002	1.4588665E-005	-3.3202359E-001	0
7.6641489E+003	2.138369966629398E+001	-3.3510676E-001	-4.372393605975555E-002	1.4652186E-005	-3.3502448E-001	0
7.7603418E+003	2.168369965871534E+001	-3.3806354E-001	-4.356297033399575E-002	1.4727052E-005	-3.3802471E-001	0
7.8596855E+003	2.198369965113670E+001	-3.4104463E-001	-4.339163780021926E-002	1.4798486E-005	-3.4102467E-001	0
7.9545088E+003	2.228379964355554E+001	-3.4405628E-001	-4.325298997310159E-002	1.4881462E-005	-3.4402561E-001	0
8.0446191E+003	2.258379963597690E+001	-3.4703454E-001	-4.313871673299499E-002	1.4970625E-005	-3.4702557E-001	0
8.1427085E+003	2.288369962840079E+001	-3.5005653E-001	-4.299018327304249E-002	1.5048994E-005	-3.5002473E-001	0
8.2287695E+003	2.318369962082215E+001	-3.5301188E-001	-4.289971520615044E-002	1.5144109E-005	-3.5302475E-001	0
8.3221172E+003	2.348359961324604E+001	-3.5605139E-001	-4.278374916605143E-002	1.5233213E-005	-3.5602361E-001	0
8.4080703E+003	2.378369960566488E+001	-3.5900873E-001	-4.269811463086659E-002	1.5328997E-005	-3.5902449E-001	0
8.4946064E+003	2.408359959808877E+001	-3.6208418E-001	-4.262518671362947E-002	1.5433905E-005	-3.6202359E-001	0
8.5844180E+003	2.438359959051013E+001	-3.6507040E-001	-4.252709929182219E-002	1.5525386E-005	-3.6502361E-001	0
8.6720547E+003	2.468359958293149E+001	-3.6804575E-001	-4.244043391831853E-002	1.5620020E-005	-3.6802360E-001	0
8.7639707E+003	2.498359957535286E+001	-3.7102708E-001	-4.233549975084017E-002	1.5707617E-005	-3.7102339E-001	0
8.8376201E+003	2.528359956777422E+001	-3.7406987E-001	-4.232698911688793E-002	1.5833251E-005	-3.7402362E-001	0
8.9217607E+003	2.558359956019558E+001	-3.7706903E-001	-4.226396951184960E-002	1.5936434E-005	-3.7702358E-001	0
9.0013965E+003	2.588359955261694E+001	-3.7997621E-001	-4.221302945128391E-002	1.6039947E-005	-3.8002366E-001	0
9.0780576E+003	2.618359954503831E+001	-3.8305366E-001	-4.219555348729975E-002	1.6163161E-005	-3.8302341E-001	0
9.1557490E+003	2.648359953745967E+001	-3.8605830E-001	-4.216567185162945E-002	1.6278407E-005	-3.8602361E-001	0
9.2415400E+003	2.678359952988103E+001	-3.8905218E-001	-4.209819704766082E-002	1.6378395E-005	-3.8902363E-001	0
9.3004072E+003	2.708359952230239E+001	-3.9207947E-001	-4.215723768932689E-002	1.6528988E-005	-3.9202359E-001	0
9.3875391E+003	2.738369951472123E+001	-3.9501312E-001	-4.207845369020102E-002	1.6621541E-005	-3.9502448E-001	0
9.4680244E+003	2.768369950714259E+001	-3.9805430E-001	-4.204196013700501E-002	1.6734983E-005	-3.9802468E-001	0
9.5395889E+003	2.798369949956395E+001	-4.0106776E-001	-4.204245916043592E-002	1.6861875E-005	-4.0102467E-001	0
9.6097764E+003	2.828379949198279E+001	-4.0411824E-001	-4.205282441579378E-002	1.6994314E-005	-4.0402541E-001	0
9.6865635E+003	2.858369948440668E+001	-4.0705121E-001	-4.202224932646148E-002	1.7105207E-005	-4.0702471E-001	0
9.7561543E+003	2.888369947682804E+001	-4.1007888E-001	-4.203284297017695E-002	1.7236782E-005	-4.1002473E-001	0
9.8200078E+003	2.918359946925193E+001	-4.1307825E-001	-4.206495947971711E-002	1.7376120E-005	-4.1302383E-001	0
9.8948965E+003	2.948359946167329E+001	-4.1602677E-001	-4.204457899344138E-002	1.7491671E-005	-4.1602340E-001	0
9.9645654E+003	2.978359945409466E+001	-4.1907570E-001	-4.205659684896135E-002	1.7624898E-005	-4.1902363E-001	0
1.0023564E+004	3.008359944651602E+001	-4.2200300E-001	-4.210108963186282E-002	1.7766786E-005	-4.2202356E-001	0
1.0086548E+004	3.038359943893738E+001	-4.2503640E-001	-4.213893628324383E-002	1.7910581E-005	-4.2502385E-001	0
1.0158396E+004	3.068359943135874E+001	-4.2801228E-001	-4.213384530343884E-002	1.8033803E-005	-4.2802340E-001	0
1.0220671E+004	3.098359942378011E+001	-4.3105248E-001	-4.217457888308396E-002	1.8179457E-005	-4.3102363E-001	0
1.0278743E+004	3.128359941620147E+001	-4.3405867E-001	-4.222876862272767E-002	1.8329763E-005	-4.3402368E-001	0
1.0350488E+004	3.158359940862283E+001	-4.3703732E-001	-4.222383440662930E-002	1.8453391E-005	-4.3702361E-001	0
1.0420211E+004	3.188359940104419E+001	-4.4007245E-001	-4.223258462844467E-002	1.8585397E-005	-4.4002363E-001	0
1.0477698E+004	3.218359939346556E+001	-4.4304854E-001	-4.228491006278978E-002	1.8734267E-005	-4.4302359E-001	0
1.0544525E+004	3.248359938588692E+001	-4.4609571E-001	-4.230590776311560E-002	1.8872484E-005	-4.4602364E-001	0
1.0602604E+004	3.278359937830828E+001	-4.4902459E-001	-4.235040421632572E-002	1.9016374E-005	-4.4902366E-001	0
1.0664588E+004	3.308369937072712E+001	-4.5205599E-001	-4.238850863145960E-002	1.9161980E-005	-4.5202467E-001	0
1.0724671E+004	3.338369936314848E+001	-4.5502430E-001	-4.242781052988698E-002	1.9305684E-005	-4.5502469E-001	0
1.0780800E+004	3.368369935556984E+001	-4.5803624E-001	-4.248629712365115E-002	1.9460264E-005	-4.5802465E-001	0
1.0836604E+004	3.398379934798868E+001	-4.6107405E-001	-4.254783754353447E-002	1.9617704E-005	-4.6102563E-001	0
1.0897780E+004	3.428369934041257E+001	-4.6402717E-001	-4.257997024985138E-002	1.9758263E-005	-4.6402457E-001	0
1.0948342E+004	3.458369933283393E+001	-4.6702424E-001	-4.265707681145564E-002	1.9921888E-005	-4.6702471E-001	0
1.1010877E+004	3.488369932525529E+001	-4.7005188E-001	-4.268977675888841E-002	2.0066411E-005	-4.7002476E-001	0
1.1055653E+004	3.518359931767918E+001	-4.7303173E-001	-4.278640963774050E-002	2.0239329E-005	-4.7302359E-001	0
1.1110469E+004	3.548359931010054E+001	-4.7605714E-001	-4.284762140338605E-002	2.0397916E-005	-4.7602338E-001	0
1.1161653E+004	3.578359930252191E+001	-4.7906062E-001	-4.292022130735473E-002	2.0561389E-005	-4.7902369E-001	0
1.1223114E+004	3.608359929494327E+001	-4.8203981E-001	-4.295063008277517E-002	2.0703914E-005	-4.8202369E-001	0
1.1272637E+004	3.638359928736463E+001	-4.8505154E-001	-4.302911014766964E-002	2.0871335E-005	-4.8502368E-001	0
1.1314033E+004	3.668359927978599E+001	-4.8805258E-001	-4.313692437736424E-002	2.1053087E-005	-4.8802361E-001	0
1.1377982E+004	3.698359927220736E+001	-4.9107090E-001	-4.315975166272756E-002	2.1194497E-005	-4.9102366E-001	0
1.1424638E+004	3.728359926462872E+001	-4.9409699E-001	-4.324837351380906E-002	2.1368891E-005	-4.9402365E-001	0
1.1467968E+004	3.758359925705008E+001	-4.9706680E-001	-4.334393184696736E-002	2.1544829E-005	-4.9702364E-001	0
1.1524037E+004	3.788359924947144E+001	-5.0003713E-001	-4.339079335993212E-002	2.1697007E-005	-5.0002366E-001	0
1.1568912E+004	3.818359924189281E+001	-5.0305569E-001	-4.348340657696920E-002	2.1874575E-005	-5.0302386E-001	0
1.1621457E+004	3.848359923431417E+001	-5.0603485E-001	-4.354314939531656E-002	2.2034352E-005	-5.0602388E-001	0
1.1662134E+004	3.878369922673301E+001	-5.0904399E-001	-4.364930208603612E-002	2.2219416E-005	-5.0902474E-001	0
1.1709771E+004	3.908369921915437E+001	-5.1202804E-001	-4.372656071207492E-002	2.2389226E-005	-5.1202470E-001	0
1.1755013E+004	3.938369921157573E+001	-5.1504683E-001	-4.381507944975233E-002	2.2566817E-005	-5.1502478E-001	0
1.1806787E+004	3.968379920399457E+001	-5.1806349E-001	-4.387844851900458E-002	2.2731821E-005	-5.1802582E-001	0
1.1853546E+004	3.998369919641846E+001	-5.2101344E-001	-4.395422592985554E-002	2.2900742E-005	-5.2102482E-001	0
1.1908840E+004	4.028359918884235E+001	-5.2402174E-001	-4.400275282994564E-002	2.3058399E-005	-5.2402395E-001	0
1.1949823E+004	4.058369918126118E+001	-5.2709544E-001	-4.410905891786598E-002	2.3249684E-005	-5.2702481E-001	0
1.1991170E+004	4.088359917368507E+001	-5.3001148E-001	-4.420014773728975E-002	2.3426586E-005	-5.3002393E-001	0
1.2047753E+004	4.118359916610643E+001	-5.3303355E-001	-4.424340033695384E-002	2.3583218E-005	-5.3302383E-001	0
1.2078688E+004	4.148359915852780E+001	-5.3604281E-001	-4.437922833357066E-002	2.3789165E-005	-5.3602368E-001	0
1.2127630E+004	4.178359915094916E+001	-5.3903484E-001	-4.444684156052542E-002	2.3958397E-005	-5.3902388E-001	0
1.2174112E+004	4.208359914337052E+001	-5.4204798E-001	-4.452464038608728E-002	2.4134491E-005	-5.4202390E-001	0
1.2228492E+004	4.238359913579188E+001	-5.4501200E-001	-4.456902716017153E-002	2.4290655E-005	-5.4502374E-001	0
1.2265278E+004	4.268359912821325E+001	-5.4802108E-001	-4.468068704010830E-002	2.4485958E-005	-5.4802382E-001	0
1.2303615E+004	4.298359912063461E+001	-5.5104977E-001	-4.478763095252591E-002	2.4680214E-005	-5.5102372E-001	0
1.2358200E+004	4.328359911305597E+001	-5.5406255E-001	-4.483359519138674E-002	2.4840616E-005	-5.5402404E-001	0
1.2408469E+004	4.358359910547733E+001	-5.5704689E-001	-4.489247483405394E-002	2.5007213E-005	-5.5702370E-001	0
1.2445655E+004	4.388359909789870E+001	-5.6004447E-001	-4.499919610306624E-002	2.5201551E-005	-5.6002378E-001	0
1.2495830E+004	4.418359909032006E+001	-5.6303972E-001	-4.505821039637625E-002	2.5369562E-005	-5.6302363E-001	0
1.2546008E+004	4.448359908274142E+001	-5.6602472E-001	-4.511592313977808E-002	2.5536729E-005	-5.6602389E-001	0
1.2586524E+004	4.478369907516026E+001	-5.6903332E-001	-4.520972795928994E-002	2.5725842E-005	-5.6902492E-001	0
1.2643088E+004	4.508369906758162E+001	-5.7202327E-001	-4.524395369457257E-002	2.5880594E-005	-5.7202476E-001	0
1.2682273E+004	4.538369906000298E+001	-5.7510018E-001	-4.534677330855685E-002	2.6078938E-005	-5.7502478E-001	0
1.2710746E+004	4.568369905242434E+001	-5.7812780E-001	-4.548338961475895E-002	2.6295213E-005	-5.7802480E-001	0
1.2764148E+004	4.598369904484571E+001	-5.8111203E-001	-4.552689424870981E-002	2.6456226E-005	-5.8102489E-001	0
1.2809528E+004	4.628359903726960E+001	-5.8411831E-001	-4.560029673890109E-002	2.6635968E-005	-5.8402389E-001	0
1.2865905E+004	4.658359902969096E+001	-5.8711249E-001	-4.563320320223851E-002	2.6791824E-005	-5.8702391E-001	0
1.2904558E+004	4.688359902211232E+001	-5.9012914E-001	-4.573028913647659E-002	2.6986776E-005	-5.9002388E-001	0
1.2953752E+004	4.718359901453368E+001	-5.9313744E-001	-4.578885461418991E-002	2.7159083E-005	-5.9302366E-001	0
1.3010974E+004	4.748359900695505E+001	-5.9609050E-001	-4.581444232241150E-002	2.7309554E-005	-5.9602374E-001	0
1.3065542E+004	4.778359899937641E+001	-5.9907550E-001	-4.585156240197504E-002	2.7468548E-005	-5.9902412E-001	0
1.3112149E+004	4.808359899179777E+001	-6.0208547E-001	-4.591813635085701E-002	2.7646644E-005	-6.0202372E-001	0
1.3167079E+004	4.838359898421913E+001	-6.0513228E-001	-4.595797485698060E-002	2.7810655E-005	-6.0502374E-001	0
1.3209421E+004	4.868359897664050E+001	-6.0811448E-001	-4.603642137643110E-002	2.7995415E-005	-6.0802382E-001	0
1.3268040E+004	4.898359896906186E+001	-6.1107159E-001	-4.605590387735059E-002	2.8143455E-005	-6.1102414E-001	0
1.3311733E+004	4.928359896148322E+001	-6.1414719E-001	-4.613577885999581E-002	2.8334160E-005	-6.1402386E-001	0
1.3354788E+004	4.958359895390458E+001	-6.1707431E-001	-4.620622362085691E-002	2.8512673E-005	-6.1702371E-001	0
1.3400804E+004	4.988359894632595E+001	-6.2011987E-001	-4.627482558268481E-002	2.8695938E-005	-6.2002367E-001	0
1.3451006E+004	5.018359893874731E+001	-6.2310618E-001	-4.632413229094923E-002	2.8864853E-005	-6.2302405E-001	0
1.3504324E+004	5.048369893116615E+001	-6.2612343E-001	-4.636466072026041E-002	2.9029999E-005	-6.2602472E-001	0
1.3539736E+004	5.078369892358751E+001	-6.2906396E-001	-4.646057645979258E-002	2.9226674E-005	-6.2902498E-001	0
1.3595357E+004	5.108369891600887E+001	-6.3209844E-001	-4.649369710679152E-002	2.9388593E-005	-6.3202482E-001	0
1.3633028E+004	5.138359890843276E+001	-6.3511121E-001	-4.658621826159703E-002	2.9587429E-005	-6.3502407E-001	0
1.3667801E+004	5.168369890085160E+001	-6.3813657E-001	-4.668904431742010E-002	2.9793986E-005	-6.3802481E-001	0
1.3722910E+004	5.198369889327296E+001	-6.4111662E-001	-4.671870763926811E-002	2.9952140E-005	-6.4102483E-001	0
1.3771845E+004	5.228359888569685E+001	-6.4413393E-001	-4.677179774035317E-002	3.0127301E-005	-6.4402413E-001	0
1.3782052E+004	5.258359887811821E+001	-6.4713043E-001	-4.695457875980613E-002	3.0385736E-005	-6.4702392E-001	0
1.3835222E+004	5.288359887053957E+001	-6.5010798E-001	-4.698934341632949E-002	3.0548148E-005	-6.5002388E-001	0
1.3866563E+004	5.318359886296093E+001	-6.5313882E-001	-4.710170909288569E-002	3.0763953E-005	-6.5302366E-001	0
1.3894182E+004	5.348359885538230E+001	-6.5611118E-001	-4.722200987180886E-002	3.0982890E-005	-6.5602392E-001	0
1.3927268E+004	5.378359884780366E+001	-6.5908277E-001	-4.732319197045065E-002	3.1189902E-005	-6.5902382E-001	0
1.3963824E+004	5.408359884022502E+001	-6.6208386E-001	-4.741422256583505E-002	3.1392192E-005	-6.6202372E-001	0
1.3964624E+004	5.438359883264638E+001	-6.6504323E-001	-4.762342736110581E-002	3.1671640E-005	-6.6502368E-001	0
1.3981259E+004	5.468359882506775E+001	-6.6804165E-001	-4.778122269987573E-002	3.1919848E-005	-6.6802406E-001	0
1.4004302E+004	5.498359881748911E+001	-6.7111748E-001	-4.792223736091517E-002	3.2161450E-005	-6.7102391E-001	0
1.4014923E+004	5.528359880991047E+001	-6.7411345E-001	-4.809969090099342E-002	3.2424650E-005	-6.7402393E-001	0
1.4030049E+004	5.558359880233184E+001	-6.7707181E-001	-4.825869208567505E-002	3.2674601E-005	-6.7702371E-001	0
1.4038233E+004	5.588359879475320E+001	-6.8006170E-001	-4.844353719315621E-002	3.2944594E-005	-6.8002385E-001	0
1.4029982E+004	5.618359878717456E+001	-6.8309838E-001	-4.868846877739630E-002	3.3259013E-005	-6.8302387E-001	0
1.4038094E+004	5.648369877959340E+001	-6.8612623E-001	-4.887602446315356E-002	3.3535121E-005	-6.8602473E-001	0
1.4043189E+004	5.678369877201476E+001	-6.8909550E-001	-4.906972725644942E-002	3.3813729E-005	-6.8902493E-001	0
1.4027278E+004	5.708369876443612E+001	-6.9206381E-001	-4.933699681555409E-002	3.4144348E-005	-6.9202501E-001	0
1.4025272E+004	5.738369875685748E+001	-6.9508660E-001	-4.955957933777178E-002	3.4448200E-005	-6.9502485E-001	0
1.4018630E+004	5.768369874927885E+001	-6.9807798E-001	-4.979644791666293E-002	3.4761804E-005	-6.9802487E-001	0
1.4011440E+004	5.798359874170274E+001	-7.0109588E-001	-5.003738665599178E-002	3.5081004E-005	-7.0102400E-001	0
1.3981186E+004	5.828359873412410E+001	-7.0409399E-001	-5.036010612473563E-002	3.5458248E-005	-7.0402414E-001	0
1.3978480E+004	5.858359872654546E+001	-7.0712918E-001	-5.058698399719153E-002	3.5771533E-005	-7.0702374E-001	0
1.3938896E+004	5.888359871896682E+001	-7.1008307E-001	-5.094255943810816E-002	3.6173449E-005	-7.1002382E-001	0
1.3933052E+004	5.918359871138819E+001	-7.1309507E-001	-5.118010630555569E-002	3.6496280E-005	-7.1302390E-001	0
1.3912368E+004	5.948359870380955E+001	-7.1608555E-001	-5.147114684441706E-002	3.6857746E-005	-7.1602416E-001	0
1.3905858E+004	5.978359869623091E+001	-7.1906269E-001	-5.170933468625744E-002	3.7182253E-005	-7.1902394E-001	0
1.3880524E+004	6.008359868865227E+001	-7.2208810E-001	-5.202167357146847E-002	3.7564230E-005	-7.2202379E-001	0
1.3860849E+004	6.038359868107364E+001	-7.2513121E-001	-5.231506507451156E-002	3.7935286E-005	-7.2502387E-001	0
1.3820385E+004	6.068359867349500E+001	-7.2810704E-001	-5.268355736040975E-002	3.8359271E-005	-7.2802413E-001	0
1.3802534E+004	6.098359866591636E+001	-7.3110479E-001	-5.296888158877924E-002	3.8725804E-005	-7.3102373E-001	0
1.3763976E+004	6.128359865833772E+001	-7.3411477E-001	-5.333595484453568E-002	3.9154711E-005	-7.3402393E-001	0
1.3755936E+004	6.158359865075909E+001	-7.3712623E-001	-5.358604983255222E-002	3.9499682E-005	-7.3702389E-001	0
1.3749453E+004	6.188359864318045E+001	-7.4010617E-001	-5.382804365808103E-002	3.9838465E-005	-7.4002409E-001	0
1.3709032E+004	6.218369863559928E+001	-7.4309611E-001	-5.420485660977148E-002	4.0279418E-005	-7.4302477E-001	0
1.3668528E+004	6.248369862802065E+001	-7.4610072E-001	-5.458530020453616E-002	4.0726132E-005	-7.4602479E-001	0
1.3639293E+004	6.278369862044201E+001	-7.4909586E-001	-5.492189802869474E-002	4.1141768E-005	-7.4902499E-001	0
1.3625421E+004	6.308369861286337E+001	-7.5210494E-001	-5.519865673799407E-002	4.1515181E-005	-7.5202507E-001	0
1.3592554E+004	6.338369860528474E+001	-7.5507414E-001	-5.555057277033459E-002	4.1944801E-005	-7.5502497E-001	0
1.3537827E+004	6.368369859770610E+001	-7.5808495E-001	-5.599753586617398E-002	4.2450891E-005	-7.5802481E-001	0
1.3503969E+004	6.398359859012999E+001	-7.6110947E-001	-5.636190867947677E-002	4.2897584E-005	-7.6102412E-001	0
1.3465188E+004	6.428359858255135E+001	-7.6410228E-001	-5.674650185926725E-002	4.3360131E-005	-7.6402366E-001	0
1.3404395E+004	6.458359857497271E+001	-7.6711047E-001	-5.722828178503980E-002	4.3900414E-005	-7.6702380E-001	0
1.3357718E+004	6.488359856739407E+001	-7.7010572E-001	-5.765249140338957E-002	4.4398512E-005	-7.7002388E-001	0
1.3318410E+004	6.518359855981544E+001	-7.7308244E-001	-5.804614897946014E-002	4.4874458E-005	-7.7302414E-001	0
1.3264997E+004	6.548359855223680E+001	-7.7610224E-001	-5.850753113046253E-002	4.5407825E-005	-7.7602392E-001	0
1.3193729E+004	6.578359854465816E+001	-7.7907073E-001	-5.904855944201523E-002	4.6003006E-005	-7.7902371E-001	0
1.3150102E+004	6.608359853707952E+001	-7.8207821E-001	-5.947316962334204E-002	4.6512669E-005	-7.8202379E-001	0
1.3069496E+004	6.638359852950089E+001	-7.8513789E-001	-6.007407542161536E-002	4.7166432E-005	-7.8502405E-001	0
1.3017675E+004	6.668359852192225E+001	-7.8810292E-001	-6.054099098664567E-002	4.7712532E-005	-7.8802365E-001	0
1.2959226E+004	6.698359851434361E+001	-7.9106474E-001	-6.104259118245103E-002	4.8288643E-005	-7.9102373E-001	0
1.2869518E+004	6.728359850676497E+001	-7.9406810E-001	-6.170146692091749E-002	4.8995167E-005	-7.9402393E-001	0
1.2821126E+004	6.758359849918634E+001	-7.9710132E-001	-6.217093072697377E-002	4.9556529E-005	-7.9702419E-001	0
1.2756937E+004	6.788369849160517E+001	-8.0014324E-001	-6.272221153987734E-002	5.0186754E-005	-8.0002487E-001	0
1.2638666E+004	6.818369848402654E+001	-8.0311584E-001	-6.354435352013654E-002	5.1033476E-005	-8.0302471E-001	0
1.2593256E+004	6.848369847644790E+001	-8.0609584E-001	-6.401012235196668E-002	5.1598294E-005	-8.0602497E-001	0
1.2473208E+004	6.878369846886926E+001	-8.0907577E-001	-6.486509307948696E-002	5.2480777E-005	-8.0902505E-001	0
1.2392539E+004	6.908369846129062E+001	-8.1207234E-001	-6.552913128103771E-002	5.3214393E-005	-8.1202489E-001	0
1.2309299E+004	6.938369845371199E+001	-8.1506383E-001	-6.621529254814335E-002	5.3969688E-005	-8.1502503E-001	0
1.2219824E+004	6.968359844613587E+001	-8.1805390E-001	-6.694481658153306E-002	5.4764467E-005	-8.1802416E-001	0
1.2132948E+004	6.998359843855724E+001	-8.2105231E-001	-6.767129184989568E-002	5.5561672E-005	-8.2102418E-001	0
1.2016676E+004	7.028359843097860E+001	-8.2405615E-001	-6.857604813447926E-002	5.6510515E-005	-8.2402372E-001	0
1.1914172E+004	7.058359842339996E+001	-8.2708418E-001	-6.942019663158611E-002	5.7416346E-005	-8.2702374E-001	0
1.1828729E+004	7.088359841582133E+001	-8.3005863E-001	-7.017310031944213E-002	5.8247788E-005	-8.3002406E-001	0
1.1704840E+004	7.118359840824269E+001	-8.3304667E-001	-7.117112934316405E-002	5.9288872E-005	-8.3302391E-001	0
1.1605304E+004	7.148359840066405E+001	-8.3607781E-001	-7.204273405314476E-002	6.0233331E-005	-8.3602393E-001	0
1.1481257E+004	7.178359839308541E+001	-8.3908349E-001	-7.308289678426894E-002	6.1322651E-005	-8.3902377E-001	0
1.1357764E+004	7.208359838550678E+001	-8.4208184E-001	-7.414151591577878E-002	6.2433224E-005	-8.4202409E-001	0
1.1259757E+004	7.238359837792814E+001	-8.4509706E-001	-7.505464853251764E-002	6.3428466E-005	-8.4502387E-001	0
1.1132023E+004	7.268359837034950E+001	-8.4804755E-001	-7.618090073728090E-002	6.4605025E-005	-8.4802371E-001	0
1.1007098E+004	7.298359836277086E+001	-8.5110044E-001	-7.732287793021794E-002	6.5809538E-005	-8.5102373E-001	0
1.0835680E+004	7.328359835519223E+001	-8.5407227E-001	-7.882037207491743E-002	6.7318295E-005	-8.5402417E-001	0
1.0697057E+004	7.358359834761359E+001	-8.5708636E-001	-8.012356947602162E-002	6.8672816E-005	-8.5702395E-001	0
1.0558294E+004	7.388359834003495E+001	-8.6005527E-001	-8.145778576085644E-002	7.0058195E-005	-8.6002386E-001	0
1.0386921E+004	7.418369833245379E+001	-8.6311722E-001	-8.309653986238952E-002	7.1722054E-005	-8.6302477E-001	0
1.0204099E+004	7.448359832487768E+001	-8.6604822E-001	-8.487258064052516E-002	7.3503747E-005	-8.6602414E-001	0
1.0009621E+004	7.478369831729651E+001	-8.6907482E-001	-8.682395003927335E-002	7.5456512E-005	-8.6902493E-001	0
9.7820137E+003	7.508369830971787E+001	-8.7212944E-001	-8.915642976526383E-002	7.7755947E-005	-8.7202483E-001	0
9.5429551E+003	7.538359830214176E+001	-8.7509465E-001	-9.170059076313816E-002	8.0246697E-005	-8.7502408E-001	0
9.2757490E+003	7.568359829456313E+001	-8.7805766E-001	-9.466164668852273E-002	8.3118386E-005	-8.7802416E-001	0
8.9652080E+003	7.598359828698449E+001	-8.8107210E-001	-9.827681968180557E-002	8.6588967E-005	-8.8102371E-001	0
8.6476689E+003	7.628359827940585E+001	-8.8413465E-001	-1.022396525083312E-001	9.0393616E-005	-8.8402379E-001	0
8.2779824E+003	7.658359827182721E+001	-8.8707376E-001	-1.071606194510600E-001	9.5059375E-005	-8.8702387E-001	0
7.8986606E+003	7.688359826424858E+001	-8.9011848E-001	-1.126923306105849E-001	1.0030952E-004	-8.9002407E-001	0
7.4843179E+003	7.718359825666994E+001	-8.9309806E-001	-1.193292515971708E-001	1.0657272E-004	-8.9302373E-001	0
7.0420381E+003	7.748359824909130E+001	-8.9614224E-001	-1.272560926832402E-001	1.1403956E-004	-8.9602393E-001	0
6.5786187E+003	7.778359824151266E+001	-8.9910525E-001	-1.366708241144949E-001	1.2288145E-004	-8.9902401E-001	0
6.0971064E+003	7.808359823393403E+001	-9.0208799E-001	-1.479534605504926E-001	1.3346704E-004	-9.0202415E-001	0
5.5993994E+003	7.838359822635539E+001	-9.0514261E-001	-1.616499479251066E-001	1.4631625E-004	-9.0502387E-001	0
5.1105879E+003	7.868359821877675E+001	-9.0810567E-001	-1.776910472558724E-001	1.6136224E-004	-9.0802377E-001	0
4.6241992E+003	7.898359821119811E+001	-9.1111976E-001	-1.970329794709906E-001	1.7952063E-004	-9.1102397E-001	0
4.1428013E+003	7.928359820361948E+001	-9.1411269E-001	-2.206508756948038E-001	2.0169976E-004	-9.1402423E-001	0
3.6927263E+003	7.958369819603831E+001	-9.1712314E-001	-2.483593575117342E-001	2.2777611E-004	-9.1702461E-001	0
3.2613772E+003	7.988359818846220E+001	-9.2012811E-001	-2.821286921203541E-001	2.5959453E-004	-9.2002392E-001	0
2.8110271E+003	8.018359818088356E+001	-9.2315912E-001	-3.284063346355818E-001	3.0317131E-004	-9.2302412E-001	0
2.4525947E+003	8.048359817330493E+001	-9.2614400E-001	-3.776180373909308E-001	3.4972868E-004	-9.2602402E-001	0
2.1428806E+003	8.078359816572629E+001	-9.2910957E-001	-4.335797071412362E-001	4.0284306E-004	-9.2902380E-001	0
1.8642396E+003	8.108359815814765E+001	-9.3216783E-001	-5.000257427644703E-001	4.6610791E-004	-9.3202388E-001	0
1.6167688E+003	8.138359815056901E+001	-9.3512619E-001	-5.783920415767554E-001	5.4086954E-004	-9.3502408E-001	0
1.3934755E+003	8.168359814299038E+001	-9.3813580E-001	-6.732345453134414E-001	6.3158543E-004	-9.3802422E-001	0
1.1886976E+003	8.198359813541174E+001	-9.4116402E-001	-7.917606415000904E-001	7.4517663E-004	-9.4102377E-001	0
1.0348756E+003	8.228359812783310E+001	-9.4414783E-001	-9.123297326568509E-001	8.6137414E-004	-9.4402397E-001	0
8.7867346E+002	8.259859811987553E+001	-9.4728595E-001	-1.078086423696284E+000	1.0212561E-003	-9.4717413E-001	0
7.6212366E+002	8.291359811191796E+001	-9.5041502E-001	-1.247061383288727E+000	1.1852259E-003	-9.5032394E-001	0
6.6433527E+002	8.321359810433933E+001	-9.5339251E-001	-1.435107467730147E+000	1.3682207E-003	-9.5332372E-001	0
5.7727771E+002	8.351359809676069E+001	-9.5645791E-001	-1.656842013140460E+000	1.5846996E-003	-9.5632428E-001	0
5.0493164E+002	8.381359808918205E+001	-9.5936167E-001	-1.899983320493362E+000	1.8227712E-003	-9.5932424E-001	0
4.4457086E+002	8.411379808159836E+001	-9.6237558E-001	-2.164729323553996E+000	2.0832827E-003	-9.6232587E-001	0
3.9156149E+002	8.441359807402478E+001	-9.6539378E-001	-2.465497315632227E+000	2.3801757E-003	-9.6532393E-001	0
3.4567474E+002	8.471359806644614E+001	-9.6841574E-001	-2.801522974197096E+000	2.7130391E-003	-9.6832412E-001	0
3.0745700E+002	8.501359805886750E+001	-9.7138590E-001	-3.159420198773731E+000	3.0690162E-003	-9.7132397E-001	0
2.7566354E+002	8.529859805166780E+001	-9.7425443E-001	-3.534215689090884E+000	3.4432253E-003	-9.7417378E-001	0
2.4974370E+002	8.558369804446556E+001	-9.7712970E-001	-3.912529851239817E+000	3.8230491E-003	-9.7702491E-001	0
2.2690709E+002	8.585389803763974E+001	-9.7981364E-001	-4.318127150916492E+000	4.2309598E-003	-9.7972691E-001	0
2.0659753E+002	8.613879803044256E+001	-9.8266077E-001	-4.756401258331152E+000	4.6739290E-003	-9.8257583E-001	0
1.8897301E+002	8.642379802324285E+001	-9.8551321E-001	-5.215100469453660E+000	5.1395502E-003	-9.8542601E-001	0
1.7257660E+002	8.672379801566422E+001	-9.8850280E-001	-5.727907367535408E+000	5.6620524E-003	-9.8842621E-001	0
1.5808258E+002	8.702379800808558E+001	-9.9150997E-001	-6.272101294352190E+000	6.2188511E-003	-9.9142587E-001	0
1.4556226E+002	8.732379800050694E+001	-9.9452853E-001	-6.832324498110236E+000	6.7949416E-003	-9.9442607E-001	0
1.3428453E+002	8.762379799292830E+001	-9.9753040E-001	-7.428483532415385E+000	7.4101384E-003	-9.9742609E-001	0
1.2476579E+002	8.792379798534967E+001	-1.0004979E+000	-8.019008870895675E+000	8.0230022E-003	-1.0004262E+000	0
1.1600928E+002	8.822379797777103E+001	-1.0035033E+000	-8.650198703652251E+000	8.6805029E-003	-1.0034261E+000	0
1.0840115E+002	8.852379797019239E+001	-1.0065099E+000	-9.285048562365873E+000	9.3454933E-003	-1.0064261E+000	0
1.0147165E+002	8.882379796261375E+001	-1.0095286E+000	-9.948873653903505E+000	1.0043673E-002	-1.0094262E+000	0
9.5345345E+001	8.912379795503512E+001	-1.0125229E+000	-1.061953217083510E+001	1.0752520E-002	-1.0124261E+000	0
8.9033554E+001	8.945379794669861E+001	-1.0158126E+000	-1.140932347461910E+001	1.1589735E-002	-1.0157262E+000	0
8.4086655E+001	8.975379793911998E+001	-1.0188235E+000	-1.211635240897527E+001	1.2344425E-002	-1.0187261E+000	0
7.9582260E+001	9.005379793154134E+001	-1.0218077E+000	-1.283964164276143E+001	1.3119644E-002	-1.0217260E+000	0
7.5510162E+001	9.035379792396270E+001	-1.0248111E+000	-1.357183053245296E+001	1.3908563E-002	-1.0247262E+000	0
7.1768570E+001	9.065379791638406E+001	-1.0278256E+000	-1.432138937109102E+001	1.4719890E-002	-1.0277262E+000	0
6.8365944E+001	9.095379790880543E+001	-1.0308554E+000	-1.507849251615392E+001	1.5543746E-002	-1.0307262E+000	0
6.5236465E+001	9.125379790122679E+001	-1.0338368E+000	-1.584753015998369E+001	1.6383760E-002	-1.0337261E+000	0
6.2395512E+001	9.155379789364815E+001	-1.0367937E+000	-1.661647910100447E+001	1.7227860E-002	-1.0367261E+000	0
5.9699535E+001	9.185379788606951E+001	-1.0397983E+000	-1.741719131402914E+001	1.8110365E-002	-1.0397261E+000	0
5.7263580E+001	9.215379787849088E+001	-1.0428203E+000	-1.821088224846319E+001	1.8990679E-002	-1.0427263E+000	0
5.4974400E+001	9.245379787091224E+001	-1.0457942E+000	-1.902329504072247E+001	1.9894453E-002	-1.0457263E+000	0
5.2842834E+001	9.275379786333360E+001	-1.0488398E+000	-1.984828780745120E+001	2.0817675E-002	-1.0487261E+000	0
5.0857231E+001	9.305379785575497E+001	-1.0518218E+000	-2.068185410151126E+001	2.1753626E-002	-1.0517261E+000	0
4.9038715E+001	9.335379784817633E+001	-1.0548097E+000	-2.150973302919461E+001	2.2688676E-002	-1.0547261E+000	0
4.7292423E+001	9.365379784059769E+001	-1.0578029E+000	-2.236728010545141E+001	2.3660174E-002	-1.0577263E+000	0
4.5671825E+001	9.395379783301905E+001	-1.0608046E+000	-2.322667380710982E+001	2.4638962E-002	-1.0607263E+000	0
4.4129093E+001	9.425379782544042E+001	-1.0638494E+000	-2.410766676644073E+001	2.5646929E-002	-1.0637261E+000	0
4.2709560E+001	9.455379781786178E+001	-1.0668929E+000	-2.498018840745889E+001	2.6651185E-002	-1.0667261E+000	0
4.1386147E+001	9.485379781028314E+001	-1.0697938E+000	-2.584907992203557E+001	2.7653186E-002	-1.0697262E+000	0
4.0156960E+001	9.515379780270450E+001	-1.0727974E+000	-2.671510575483518E+001	2.8659897E-002	-1.0727262E+000	0
3.8930058E+001	9.545379779512587E+001	-1.0758872E+000	-2.763641512763863E+001	2.9733665E-002	-1.0757262E+000	0
3.7759842E+001	9.575379778754723E+001	-1.0787961E+000	-2.856993240875767E+001	3.0821133E-002	-1.0787261E+000	0
3.6722641E+001	9.605379777996859E+001	-1.0818610E+000	-2.946032793839311E+001	3.1871982E-002	-1.0817261E+000	0
3.5596169E+001	9.635379777238995E+001	-1.0847918E+000	-3.047495981021689E+001	3.3058986E-002	-1.0847262E+000	0
3.4639317E+001	9.665379776481132E+001	-1.0878193E+000	-3.140417962198387E+001	3.4162074E-002	-1.0877261E+000	0
3.3811665E+001	9.695379775723268E+001	-1.0908221E+000	-3.226170942900296E+001	3.5191786E-002	-1.0907263E+000	0
3.2896324E+001	9.725379774965404E+001	-1.0938191E+000	-3.325049836618894E+001	3.6370032E-002	-1.0937262E+000	0
3.2010681E+001	9.755379774207540E+001	-1.0968212E+000	-3.426422543377737E+001	3.7581727E-002	-1.0967262E+000	0
3.1238173E+001	9.785379773449677E+001	-1.0998080E+000	-3.520718145370483E+001	3.8721140E-002	-1.0997262E+000	0
3.0500467E+001	9.815379772691813E+001	-1.1028550E+000	-3.615862564854433E+001	3.9877720E-002	-1.1027262E+000	0
2.9744753E+001	9.845379771933949E+001	-1.1058434E+000	-3.717776518230812E+001	4.1112788E-002	-1.1057262E+000	0
2.9036446E+001	9.875379771176085E+001	-1.1088092E+000	-3.818681048249090E+001	4.2341888E-002	-1.1087261E+000	0
2.8296906E+001	9.905379770418222E+001	-1.1118165E+000	-3.929109883475479E+001	4.3684494E-002	-1.1117260E+000	0
2.7653856E+001	9.935379769660358E+001	-1.1148400E+000	-4.031408945528460E+001	4.4943761E-002	-1.1147262E+000	0
2.6986511E+001	9.965379768902494E+001	-1.1178416E+000	-4.142223428367265E+001	4.6303496E-002	-1.1177262E+000	0
2.6321653E+001	9.995379768144630E+001	-1.1208602E+000	-4.258319926667605E+001	4.7729813E-002	-1.1207262E+000	0
2.5638336E+001	1.002537976738677E+002	-1.1238296E+000	-4.383395377914217E+001	4.9261894E-002	-1.1237261E+000	0
2.5006317E+001	1.005537976662890E+002	-1.1268519E+000	-4.506269130859522E+001	5.0778981E-002	-1.1267262E+000	0
2.4398029E+001	1.008537976587104E+002	-1.1298786E+000	-4.631024202617928E+001	5.2324954E-002	-1.1297263E+000	0
2.3762877E+001	1.011537976511318E+002	-1.1329113E+000	-4.767568101825668E+001	5.4012317E-002	-1.1327262E+000	0
2.3261494E+001	1.014537976435531E+002	-1.1358594E+000	-4.883002914155696E+001	5.5464048E-002	-1.1357262E+000	0
2.2654963E+001	1.017537976359745E+002	-1.1388248E+000	-5.026822741492254E+001	5.7246704E-002	-1.1387260E+000	0
2.2179823E+001	1.020537976283958E+002	-1.1418511E+000	-5.148152296345029E+001	5.8784232E-002	-1.1417261E+000	0
2.1714287E+001	1.023537976208172E+002	-1.1448617E+000	-5.272389148591873E+001	6.0361564E-002	-1.1447262E+000	0
2.1231583E+001	1.026537976132386E+002	-1.1478733E+000	-5.406442560161560E+001	6.2059108E-002	-1.1477262E+000	0
2.0541534E+001	1.029537976056599E+002	-1.1509063E+000	-5.602825264840033E+001	6.4483270E-002	-1.1507263E+000	0
2.0111959E+001	1.032537975980813E+002	-1.1538727E+000	-5.737246728253680E+001	6.6200525E-002	-1.1537262E+000	0
1.9713388E+001	1.035537975905027E+002	-1.1568594E+000	-5.868394516037043E+001	6.7889072E-002	-1.1567261E+000	0
1.9282333E+001	1.038537975829240E+002	-1.1599308E+000	-6.015510638936735E+001	6.9775760E-002	-1.1597263E+000	0
1.8853632E+001	1.041537975753454E+002	-1.1628942E+000	-6.168011797512622E+001	7.1727455E-002	-1.1627263E+000	0
1.8435688E+001	1.044537975677667E+002	-1.1658632E+000	-6.323946802179375E+001	7.3728569E-002	-1.1657261E+000	0
1.8046568E+001	1.047537975601881E+002	-1.1688918E+000	-6.477086418550880E+001	7.5710133E-002	-1.1687260E+000	0
1.7706886E+001	1.050537975526095E+002	-1.1718276E+000	-6.617919768179740E+001	7.7550605E-002	-1.1717261E+000	0
1.7342251E+001	1.053537975450308E+002	-1.1748633E+000	-6.774572483841689E+001	7.9591967E-002	-1.1747262E+000	0
1.7013010E+001	1.056537975374522E+002	-1.1778657E+000	-6.923323508998647E+001	8.1547454E-002	-1.1777261E+000	0
1.6613091E+001	1.059537975298736E+002	-1.1808772E+000	-7.108112921442694E+001	8.3938085E-002	-1.1807262E+000	0
1.6053396E+001	1.062537975222949E+002	-1.1838703E+000	-7.374578586211805E+001	8.7305449E-002	-1.1837261E+000	0
1.5839166E+001	1.065537975147163E+002	-1.1868452E+000	-7.493104310555964E+001	8.8931546E-002	-1.1867262E+000	0
1.5553389E+001	1.068537975071376E+002	-1.1898675E+000	-7.650213932155725E+001	9.1027409E-002	-1.1897262E+000	0
1.5254248E+001	1.071537974995590E+002	-1.1928689E+000	-7.819913545003271E+001	9.3281321E-002	-1.1927264E+000	0
1.4993099E+001	1.074537974919804E+002	-1.1958829E+000	-7.976222121130854E+001	9.5386274E-002	-1.1957262E+000	0
1.4723728E+001	1.077537974844017E+002	-1.1988696E+000	-8.142432160993212E+001	9.7617142E-002	-1.1987261E+000	0
1.4522276E+001	1.080537974768231E+002	-1.2018852E+000	-8.276148940898739E+001	9.9469811E-002	-1.2017261E+000	0
1.4129894E+001	1.083537974692445E+002	-1.2048368E+000	-8.526863881703952E+001	1.0273480E-001	-1.2047262E+000	0
1.3925004E+001	1.086537974616658E+002	-1.2078408E+000	-8.673899318553777E+001	1.0476690E-001	-1.2077262E+000	0
1.3694695E+001	1.089537974540872E+002	-1.2108632E+000	-8.841841186202657E+001	1.0706260E-001	-1.2107261E+000	0
1.3480043E+001	1.092537974465085E+002	-1.2138697E+000	-9.004939336079843E+001	1.0930823E-001	-1.2137262E+000	0
1.3269655E+001	1.095537974389299E+002	-1.2169039E+000	-9.170576975080689E+001	1.1159711E-001	-1.2167263E+000	0
1.2980427E+001	1.098537974313513E+002	-1.2198609E+000	-9.397695153993382E+001	1.1463881E-001	-1.2197263E+000	0
1.2725200E+001	1.101537974237726E+002	-1.2228513E+000	-9.609682370950497E+001	1.1751212E-001	-1.2227263E+000	0
1.2530233E+001	1.104537974161940E+002	-1.2259179E+000	-9.783679780969635E+001	1.1993989E-001	-1.2257261E+000	0
1.2268359E+001	1.107537974086154E+002	-1.2289207E+000	-1.001699283979794E+002	1.2310090E-001	-1.2287260E+000	0
1.2162660E+001	1.110537974010367E+002	-1.2318500E+000	-1.012813035155443E+002	1.2476338E-001	-1.2317262E+000	0
1.1946457E+001	1.113537973934581E+002	-1.2348731E+000	-1.033673092151904E+002	1.2764551E-001	-1.2347261E+000	0
1.1726732E+001	1.116537973858794E+002	-1.2378707E+000	-1.055597310452848E+002	1.3066930E-001	-1.2377262E+000	0
1.1528572E+001	1.119537973783008E+002	-1.2408670E+000	-1.076340643402573E+002	1.3355955E-001	-1.2407262E+000	0
1.1439763E+001	1.122537973707222E+002	-1.2438862E+000	-1.087335694029528E+002	1.3525219E-001	-1.2437263E+000	0
1.1184773E+001	1.125837973623857E+002	-1.2471188E+000	-1.115014842084943E+002	1.3905559E-001	-1.2470263E+000	0
1.0999757E+001	1.128837973548070E+002	-1.2500592E+000	-1.136442583129932E+002	1.4206205E-001	-1.2500263E+000	0
1.0842007E+001	1.131837973472284E+002	-1.2531136E+000	-1.155794927073912E+002	1.4483424E-001	-1.2530262E+000	0
1.0632771E+001	1.134837973396498E+002	-1.2561910E+000	-1.181433236949788E+002	1.4841059E-001	-1.2560260E+000	0
1.0468606E+001	1.137837973320711E+002	-1.2591385E+000	-1.202775695178361E+002	1.5144612E-001	-1.2590261E+000	0
1.0317509E+001	1.140837973244925E+002	-1.2621026E+000	-1.223262897163067E+002	1.5438832E-001	-1.2620262E+000	0
1.0136497E+001	1.143837973169138E+002	-1.2651477E+000	-1.248111387516281E+002	1.5790452E-001	-1.2650261E+000	0
9.8987188E+000	1.146837973093352E+002	-1.2681475E+000	-1.281122806260778E+002	1.6246526E-001	-1.2680262E+000	0
9.8227863E+000	1.149837973017566E+002	-1.2711333E+000	-1.294065894985108E+002	1.6449302E-001	-1.2710261E+000	0
9.7061138E+000	1.152837972941779E+002	-1.2741537E+000	-1.312733177933494E+002	1.6726239E-001	-1.2740263E+000	0
9.5782919E+000	1.155837972865993E+002	-1.2771840E+000	-1.333415259894907E+002	1.7030166E-001	-1.2770263E+000	0
9.4321756E+000	1.158837972790207E+002	-1.2801369E+000	-1.357202194087854E+002	1.7374046E-001	-1.2800263E+000	0
9.3322601E+000	1.161837972714420E+002	-1.2831268E+000	-1.374936877242080E+002	1.7642184E-001	-1.2830265E+000	0
9.1767263E+000	1.164837972638634E+002	-1.2861128E+000	-1.401494056961328E+002	1.8024795E-001	-1.2860261E+000	0
9.0470753E+000	1.167837972562847E+002	-1.2891408E+000	-1.424925487125001E+002	1.8369296E-001	-1.2890260E+000	0
8.9925308E+000	1.170837972487061E+002	-1.2921815E+000	-1.436949743303333E+002	1.8567999E-001	-1.2920262E+000	0
8.8583584E+000	1.173837972411275E+002	-1.2951528E+000	-1.462068612363125E+002	1.8936022E-001	-1.2950263E+000	0
8.6593714E+000	1.176837972335488E+002	-1.2981813E+000	-1.499163376538007E+002	1.9461858E-001	-1.2980262E+000	0
8.5475168E+000	1.179837972259702E+002	-1.3011404E+000	-1.522243771806016E+002	1.9806530E-001	-1.3010261E+000	0
8.4377422E+000	1.182837972183916E+002	-1.3041013E+000	-1.545557244790567E+002	2.0155632E-001	-1.3040262E+000	0
8.3876228E+000	1.185837972108129E+002	-1.3071283E+000	-1.558401459568847E+002	2.0370306E-001	-1.3070263E+000	0
8.2829018E+000	1.188837972032343E+002	-1.3101181E+000	-1.581713965399722E+002	2.0722321E-001	-1.3100263E+000	0
8.1671448E+000	1.191837971956556E+002	-1.3131094E+000	-1.607794977575682E+002	2.1112107E-001	-1.3130263E+000	0
8.0637665E+000	1.194837971880770E+002	-1.3160931E+000	-1.632107151306423E+002	2.1480049E-001	-1.3160261E+000	0
7.9624844E+000	1.197837971804984E+002	-1.3191046E+000	-1.656649503431042E+002	2.1852939E-001	-1.3190261E+000	0
7.8573627E+000	1.200837971729197E+002	-1.3221706E+000	-1.682715504448702E+002	2.2248369E-001	-1.3220261E+000	0
7.7443371E+000	1.203837971653411E+002	-1.3251386E+000	-1.711106470984387E+002	2.2674532E-001	-1.3250262E+000	0
7.6895475E+000	1.206837971577625E+002	-1.3281916E+000	-1.727268952110981E+002	2.2941442E-001	-1.3280263E+000	0
7.5738850E+000	1.209837971501838E+002	-1.3311310E+000	-1.757527285490905E+002	2.3394990E-001	-1.3310262E+000	0
7.4823923E+000	1.212837971426052E+002	-1.3341556E+000	-1.783060122309507E+002	2.3788796E-001	-1.3340262E+000	0
7.4076781E+000	1.215837971350265E+002	-1.3371744E+000	-1.805119452376268E+002	2.4137595E-001	-1.3370262E+000	0
7.3194118E+000	1.218837971274479E+002	-1.3401690E+000	-1.830978983381726E+002	2.4538212E-001	-1.3400264E+000	0
7.1583948E+000	1.221837971198693E+002	-1.3431174E+000	-1.876282817661109E+002	2.5200680E-001	-1.3430262E+000	0
7.0807109E+000	1.224837971122906E+002	-1.3461494E+000	-1.901150073737829E+002	2.5592321E-001	-1.3460259E+000	0
6.9618697E+000	1.227688971050884E+002	-1.3490622E+000	-1.937787199066422E+002	2.6141953E-001	-1.3488771E+000	0
6.9309969E+000	1.230241970986390E+002	-1.3515631E+000	-1.950027014928359E+002	2.6355845E-001	-1.3514293E+000	0
6.8364196E+000	1.232794970921896E+002	-1.3541501E+000	-1.980788368674926E+002	2.6822847E-001	-1.3539826E+000	0
6.7298684E+000	1.235497970853612E+002	-1.3568465E+000	-2.016156058808670E+002	2.7356142E-001	-1.3566860E+000	0
6.6708398E+000	1.237753970796621E+002	-1.3591090E+000	-2.037388261887190E+002	2.7690327E-001	-1.3589414E+000	0
6.5928111E+000	1.240157970735891E+002	-1.3615260E+000	-2.065167679406745E+002	2.8117794E-001	-1.3613454E+000	0
6.5188546E+000	1.242410970678975E+002	-1.3637538E+000	-2.092014456104711E+002	2.8529927E-001	-1.3635989E+000	0
6.4621429E+000	1.244961970614531E+002	-1.3663194E+000	-2.114344154113678E+002	2.8888693E-001	-1.3661495E+000	0
6.4309549E+000	1.247516970549987E+002	-1.3688884E+000	-2.128592746360423E+002	2.9138058E-001	-1.3687046E+000	0
6.3396187E+000	1.250217970481754E+002	-1.3715626E+000	-2.163478053923229E+002	2.9673457E-001	-1.3714056E+000	0
6.2786994E+000	1.252919970413495E+002	-1.3743042E+000	-2.188835676242447E+002	3.0081260E-001	-1.3741078E+000	0
6.1967592E+000	1.255623970345187E+002	-1.3770298E+000	-2.222177339283426E+002	3.0600044E-001	-1.3768117E+000	0
6.1130185E+000	1.258327970276878E+002	-1.3797089E+000	-2.257000959806605E+002	3.1140041E-001	-1.3795156E+000	0
6.0694075E+000	1.261027970208670E+002	-1.3824060E+000	-2.277662268484182E+002	3.1486541E-001	-1.3822162E+000	0
6.0174880E+000	1.263429970147990E+002	-1.3848108E+000	-2.301310489204461E+002	3.1868798E-001	-1.3846178E+000	0
5.9780431E+000	1.266129970079783E+002	-1.3875382E+000	-2.321057446350558E+002	3.2205558E-001	-1.3873179E+000	0
5.8888226E+000	1.268383970022842E+002	-1.3898118E+000	-2.360084285306289E+002	3.2800728E-001	-1.3895714E+000	0
5.8040323E+000	1.270936969958348E+002	-1.3923696E+000	-2.398969492781371E+002	3.3402523E-001	-1.3921248E+000	0
5.6641030E+000	1.273339969897643E+002	-1.3946767E+000	-2.462308190655841E+002	3.4341237E-001	-1.3945273E+000	0
5.5959077E+000	1.275441969844542E+002	-1.3968374E+000	-2.496176489727750E+002	3.4867525E-001	-1.3966293E+000	0
5.5519562E+000	1.277842969783887E+002	-1.3991935E+000	-2.520181090961669E+002	3.5262209E-001	-1.3990309E+000	0
5.4714694E+000	1.280246969723157E+002	-1.4016058E+000	-2.561662682026090E+002	3.5904413E-001	-1.4014341E+000	0
5.4393601E+000	1.282648969662478E+002	-1.4040363E+000	-2.581252674504763E+002	3.6241725E-001	-1.4038371E+000	0
5.3204422E+000	1.285052969601747E+002	-1.4064692E+000	-2.643519341935694E+002	3.7180287E-001	-1.4062406E+000	0
5.2445436E+000	1.287455969541043E+002	-1.4088503E+000	-2.686316414839566E+002	3.7846178E-001	-1.4086438E+000	0
5.1639161E+000	1.290155969472835E+002	-1.4115171E+000	-2.733423859769446E+002	3.8582745E-001	-1.4113436E+000	0
5.0326738E+000	1.292559969412105E+002	-1.4139049E+000	-2.809450743546486E+002	3.9722961E-001	-1.4137475E+000	0
5.0079889E+000	1.294963969351375E+002	-1.4163634E+000	-2.828207889048690E+002	4.0057701E-001	-1.4161518E+000	0
4.9702058E+000	1.297515969286906E+002	-1.4189299E+000	-2.854871572198463E+002	4.0508628E-001	-1.4187036E+000	0
4.8890100E+000	1.300066969222462E+002	-1.4215001E+000	-2.907541777542099E+002	4.1330710E-001	-1.4212545E+000	0
4.8352399E+000	1.302918969150414E+002	-1.4243542E+000	-2.945777726092492E+002	4.1958308E-001	-1.4241060E+000	0
4.7601147E+000	1.305619969082181E+002	-1.4270289E+000	-2.997887598044820E+002	4.2780721E-001	-1.4268080E+000	0
4.7241244E+000	1.308172969017687E+002	-1.4296179E+000	-3.026207092091981E+002	4.3263197E-001	-1.4293602E+000	0
4.6971941E+000	1.310725968953193E+002	-1.4321283E+000	-3.048901853707021E+002	4.3664187E-001	-1.4319136E+000	0
4.5755401E+000	1.313128968892488E+002	-1.4345295E+000	-3.135213662963320E+002	4.4975567E-001	-1.4343165E+000	0
4.5718012E+000	1.315531968831783E+002	-1.4368932E+000	-3.142947849170278E+002	4.5160806E-001	-1.4367198E+000	0
4.5413966E+000	1.317782968774918E+002	-1.4392325E+000	-3.169140569447959E+002	4.5611301E-001	-1.4389706E+000	0
4.5375261E+000	1.319736968725556E+002	-1.4411288E+000	-3.176023141035448E+002	4.5770586E-001	-1.4409249E+000	0
4.5256066E+000	1.322140968664826E+002	-1.4435450E+000	-3.189726881312324E+002	4.6045142E-001	-1.4433280E+000	0
4.4924784E+000	1.324694968600306E+002	-1.4461286E+000	-3.218999721997525E+002	4.6550876E-001	-1.4458832E+000	0
4.3982944E+000	1.327248968535787E+002	-1.4486667E+000	-3.293700972654151E+002	4.7714749E-001	-1.4484365E+000	0
4.3851056E+000	1.329801968471293E+002	-1.4512094E+000	-3.309406016120711E+002	4.8026413E-001	-1.4509900E+000	0
4.4021583E+000	1.332501968403085E+002	-1.4539572E+000	-3.302827988084618E+002	4.8021704E-001	-1.4536898E+000	0
4.3502760E+000	1.335204968334801E+002	-1.4566505E+000	-3.348409457913269E+002	4.8774624E-001	-1.4563923E+000	0
4.2473464E+000	1.337759968270257E+002	-1.4591544E+000	-3.435449484963078E+002	5.0128514E-001	-1.4589474E+000	0
4.1976485E+000	1.340310968205813E+002	-1.4617649E+000	-3.482342295659487E+002	5.0903660E-001	-1.4614981E+000	0
4.1329069E+000	1.342713968145108E+002	-1.4641217E+000	-3.542595367494232E+002	5.1867908E-001	-1.4639018E+000	0
4.1394281E+000	1.345264968080664E+002	-1.4666823E+000	-3.543200127632645E+002	5.1967490E-001	-1.4664528E+000	0
4.0987186E+000	1.347518968023724E+002	-1.4689497E+000	-3.583924286877093E+002	5.2646047E-001	-1.4687065E+000	0
4.1195641E+000	1.349774967966732E+002	-1.4712105E+000	-3.571277212597147E+002	5.2541006E-001	-1.4709623E+000	0
4.0695772E+000	1.352029967909766E+002	-1.4734776E+000	-3.620714001189881E+002	5.3350407E-001	-1.4732176E+000	0
3.9776280E+000	1.354283967852825E+002	-1.4757677E+000	-3.710170397577676E+002	5.4753500E-001	-1.4754716E+000	0
3.9163218E+000	1.356684967792171E+002	-1.4780893E+000	-3.774177485864298E+002	5.5785716E-001	-1.4778724E+000	0
3.8861425E+000	1.359088967731441E+002	-1.4805503E+000	-3.809819810393783E+002	5.6406295E-001	-1.4802767E+000	0
3.8842139E+000	1.361342967674500E+002	-1.4827788E+000	-3.817448904834573E+002	5.6604320E-001	-1.4825299E+000	0
3.7768922E+000	1.363298967625087E+002	-1.4847412E+000	-3.931118962569344E+002	5.8366942E-001	-1.4844863E+000	0
3.7393196E+000	1.364954967583253E+002	-1.4864354E+000	-3.975149361534823E+002	5.9088027E-001	-1.4861420E+000	0
3.7420540E+000	1.365866967560214E+002	-1.4873118E+000	-3.974586777024798E+002	5.9114498E-001	-1.4870533E+000	0
3.7625568E+000	1.366779967537150E+002	-1.4882885E+000	-3.955524304754885E+002	5.8869612E-001	-1.4879674E+000	0
3.7431653E+000	1.369032967480234E+002	-1.4905676E+000	-3.982104575690755E+002	5.9355956E-001	-1.4902209E+000	0
3.6907029E+000	1.371581967415841E+002	-1.4931417E+000	-4.045683714565057E+002	6.0407788E-001	-1.4927700E+000	0
3.6003940E+000	1.374133967351372E+002	-1.4956516E+000	-4.154133058702982E+002	6.2131357E-001	-1.4953218E+000	0
3.5196090E+000	1.376388967294406E+002	-1.4979274E+000	-4.255948525981366E+002	6.3751018E-001	-1.4975758E+000	0
3.4763703E+000	1.378344967244993E+002	-1.4998697E+000	-4.314470388195441E+002	6.4711434E-001	-1.4995320E+000	0
3.4315429E+000	1.380895967180550E+002	-1.5024167E+000	-4.378254234985061E+002	6.5779626E-001	-1.5020839E+000	0
3.4202192E+000	1.383446967116106E+002	-1.5049866E+000	-4.400263835667001E+002	6.6223383E-001	-1.5046345E+000	0
3.3888123E+000	1.385847967055452E+002	-1.5074183E+000	-4.448219976764935E+002	6.7053282E-001	-1.5070359E+000	0
3.2563558E+000	1.388251966994721E+002	-1.5098270E+000	-4.636554318205863E+002	7.0003951E-001	-1.5094396E+000	0
3.2650011E+000	1.390358966941494E+002	-1.5119076E+000	-4.630649429648513E+002	7.0011139E-001	-1.5115459E+000	0
3.3120794E+000	1.392315966892056E+002	-1.5139476E+000	-4.570988336545934E+002	6.9202369E-001	-1.5135034E+000	0
3.2899692E+000	1.394422966838829E+002	-1.5159322E+000	-4.607739817792512E+002	6.9850212E-001	-1.5156102E+000	0
3.2402470E+000	1.396828966778048E+002	-1.5183840E+000	-4.686013176852206E+002	7.1151674E-001	-1.5180163E+000	0
3.2036364E+000	1.399082966721107E+002	-1.5205939E+000	-4.746462051790586E+002	7.2174412E-001	-1.5202702E+000	0
3.1929352E+000	1.401634966656638E+002	-1.5232226E+000	-4.770602889701649E+002	7.2666901E-001	-1.5228230E+000	0
3.1207247E+000	1.404038966595908E+002	-1.5256130E+000	-4.888649663016959E+002	7.4581873E-001	-1.5252261E+000	0
3.0995462E+000	1.406443966535153E+002	-1.5280377E+000	-4.929875392112135E+002	7.5330353E-001	-1.5276316E+000	0
3.0918007E+000	1.408998966470608E+002	-1.5306033E+000	-4.950523834204378E+002	7.5772882E-001	-1.5301862E+000	0
3.0743973E+000	1.411105966417381E+002	-1.5327246E+000	-4.985447333576217E+002	7.6413178E-001	-1.5322936E+000	0
3.0852818E+000	1.413362966360364E+002	-1.5349741E+000	-4.975150321364381E+002	7.6367271E-001	-1.5345501E+000	0
3.0415955E+000	1.415914966295895E+002	-1.5374923E+000	-5.054887423914388E+002	7.7718502E-001	-1.5371027E+000	0
2.9719944E+000	1.418167966238980E+002	-1.5397393E+000	-5.180828275202607E+002	7.9771245E-001	-1.5393555E+000	0
2.9828153E+000	1.420719966174511E+002	-1.5423172E+000	-5.170676204112760E+002	7.9748225E-001	-1.5419074E+000	0
2.9900067E+000	1.422974966117545E+002	-1.5445555E+000	-5.165726228169169E+002	7.9787511E-001	-1.5441622E+000	0
2.9932613E+000	1.425079966064368E+002	-1.5466577E+000	-5.167131942605245E+002	7.9917842E-001	-1.5462680E+000	0
3.0001442E+000	1.427781965996110E+002	-1.5493819E+000	-5.164357853148663E+002	8.0015624E-001	-1.5489695E+000	0
2.9982376E+000	1.430634965924037E+002	-1.5522398E+000	-5.177174129264376E+002	8.0362159E-001	-1.5518227E+000	0
2.9576747E+000	1.433187965859543E+002	-1.5547892E+000	-5.256795775729215E+002	8.1732094E-001	-1.5543760E+000	0
2.8369544E+000	1.434993965813919E+002	-1.5565914E+000	-5.486839632337660E+002	8.5407674E-001	-1.5561817E+000	0
2.7628903E+000	1.437545965749450E+002	-1.5591497E+000	-5.643183387321023E+002	8.7985677E-001	-1.5587341E+000	0
2.6789792E+000	1.440545965673664E+002	-1.5621541E+000	-5.831154388183368E+002	9.1091615E-001	-1.5617340E+000	0
2.6768539E+000	1.443545965597878E+002	-1.5651463E+000	-5.846962187178033E+002	9.1513515E-001	-1.5647340E+000	0
2.6712334E+000	1.445495965548616E+002	-1.5671088E+000	-5.866610810563388E+002	9.1936171E-001	-1.5666838E+000	0
2.6498113E+000	1.445901965538360E+002	-1.5676668E+000	-5.916145031047317E+002	9.2745441E-001	-1.5672836E+000	1