EC-Lab ASCII FILE
Nb header lines : 63                          

Linear Sweep Voltammetry

Run on channel : 1 (SN 1340)
User : 
Electrode connection : standard
Potential control : Ewe
Ewe ctrl range : min = -5.00 V, max = 5.00 V
Ewe,I filtering : <None>
Safety Limits :
	Do not start on E overload
Channel : Floating
Acquisition started on : 11/03/2025 10:19:08.510
Technique started on : 11/03/2025 10:19:08.510
Loaded Setting File :  C:\Users\volt\Documents\Platalytix\PtPdCoNi_Test1.mps
Saved on :
	File : PtPdCoNiCr_Test1_C01.mpr
	Directory : C:\Users\volt\Documents\Platalytix\
	Host : 127.0.0.1
Device : SP-200 (SN 0262)
Address : USB
EC-LAB for windows v11.60 (software)
Internet server v11.60 (firmware)
Command interpretor v11.60 (firmware)
Electrode material : PtPdCoNiCr
Initial state : 
Electrolyte : KOH (1M)
Comments : 
Cable : standard
Reference electrode : Hg/HgO (0.140 V)
Electrode surface area : 1.000 cm˛
Characteristic mass : 0.001 g
Equivalent Weight : 0.000 g/eq.
Density : 0.000 g/cm3
Volume (V) : 0.001 cmł
Cycle Definition : Charge/Discharge alternance
tR (h:m:s)          0:00:5.0000         
dER/dt (mV/h)       0.0                 
dER (mV)            0                   
dtR (s)             0.0000              
dE/dt               10.000              
dE/dt unit          mV/s                
Ei (V)              -0.200              
vs.                 Ref                 
EL (V)              -2.500              
vs.                 Ref                 
record              <I>                 
dI                  0.000               
unit dI             µA                  
tI (s)              0.0000              
step percent        50                  
N                   10                  
E range min (V)     -5.000              
E range max (V)     5.000               
I Range             Auto                
I Range min         Unset               
I Range max         Unset               
I Range init        Unset               
Bandwidth           8                   

<I>/mA	Ewe/V	control/V	Rwe/Ohm	time/s	
0.000000000000000E+000	1.6903551E-002	0.0000000E+000	0.0000000E+000	0.000000000000000E+000
0.000000000000000E+000	1.6193105E-002	-1.9991258E-001	0.0000000E+000	4.999799873694428E+000
-2.878996801376341E-001	-2.0210873E-001	-2.0181227E-001	7.0201093E+002	5.199799868642003E+000
-3.065890926894328E-001	-2.0332380E-001	-2.0301226E-001	6.6318011E+002	5.319799865610548E+000
-2.597108788475769E-001	-2.0538342E-001	-2.0511214E-001	7.9081561E+002	5.529799860305502E+000
-2.322011833752842E-001	-2.0738937E-001	-2.0711204E-001	8.9314520E+002	5.729799855253077E+000
-2.136441965602227E-001	-2.0941101E-001	-2.0911194E-001	9.8018579E+002	5.929799850200652E+000
-2.000854697686667E-001	-2.1143200E-001	-2.1111184E-001	1.0567084E+003	6.129799845148227E+000
-1.897021742197613E-001	-2.1340863E-001	-2.1311174E-001	1.1249667E+003	6.329799840095802E+000
-1.814119110270385E-001	-2.1544510E-001	-2.1511164E-001	1.1876017E+003	6.529799835043377E+000
-1.745794623173658E-001	-2.1743961E-001	-2.1711156E-001	1.2455051E+003	6.729799829990952E+000
-1.689062850991191E-001	-2.1942578E-001	-2.1911146E-001	1.2990978E+003	6.929799824938527E+000
-1.642418160755819E-001	-2.2141242E-001	-2.2111133E-001	1.3480880E+003	7.129799819886102E+000
-1.601156098514696E-001	-2.2345100E-001	-2.2311123E-001	1.3955604E+003	7.329799814833677E+000
-1.565328118868614E-001	-2.2545867E-001	-2.2511114E-001	1.4403285E+003	7.529799809781252E+000
-1.536731459232059E-001	-2.2737141E-001	-2.2711104E-001	1.4795780E+003	7.729799804728827E+000
-1.509135510949861E-001	-2.2946756E-001	-2.2911096E-001	1.5205232E+003	7.929799799676402E+000
-1.487099276454340E-001	-2.3137139E-001	-2.3111084E-001	1.5558571E+003	8.129799794623978E+000
-1.466180732232982E-001	-2.3344544E-001	-2.3311076E-001	1.5922009E+003	8.329799789571553E+000
-1.448271971943029E-001	-2.3541158E-001	-2.3510976E-001	1.6254653E+003	8.529699784521654E+000
-1.432870613250565E-001	-2.3745665E-001	-2.3711054E-001	1.6572094E+003	8.729599779471755E+000
-1.419016976657068E-001	-2.3940785E-001	-2.3911044E-001	1.6871388E+003	8.929599774419330E+000
-1.407146427047576E-001	-2.4141525E-001	-2.4111035E-001	1.7156370E+003	9.129599769366905E+000
-1.396477568732011E-001	-2.4340037E-001	-2.4311022E-001	1.7429594E+003	9.329599764314480E+000
-1.387141654922573E-001	-2.4538045E-001	-2.4511015E-001	1.7689646E+003	9.529599759262055E+000
-1.378098447266503E-001	-2.4742499E-001	-2.4711005E-001	1.7954087E+003	9.729599754209630E+000
-1.372341821286956E-001	-2.4934284E-001	-2.4910995E-001	1.8169150E+003	9.929599749157205E+000
-1.365453003749437E-001	-2.5143892E-001	-2.5110984E-001	1.8414323E+003	1.012959974410478E+001
-1.359700673500550E-001	-2.5340331E-001	-2.5310975E-001	1.8636698E+003	1.032959973905236E+001
-1.355569035347015E-001	-2.5538379E-001	-2.5510964E-001	1.8839601E+003	1.052959973399993E+001
-1.351662847338044E-001	-2.5741452E-001	-2.5710955E-001	1.9044285E+003	1.072959972894751E+001
-1.348924775113713E-001	-2.5936869E-001	-2.5910944E-001	1.9227810E+003	1.092959972389508E+001
-1.346618583016186E-001	-2.6141915E-001	-2.6110935E-001	1.9413007E+003	1.112959971884266E+001
-1.345037999351735E-001	-2.6335317E-001	-2.6310924E-001	1.9579608E+003	1.132959971379023E+001
-1.344257569628977E-001	-2.6540431E-001	-2.6510915E-001	1.9743561E+003	1.152959970873781E+001
-1.343284888233143E-001	-2.6735973E-001	-2.6710907E-001	1.9903428E+003	1.172959970368538E+001
-1.342753422089640E-001	-2.6939517E-001	-2.6910892E-001	2.0062892E+003	1.192959969863296E+001
-1.343842489304881E-001	-2.7138814E-001	-2.7110884E-001	2.0194937E+003	1.212959969358053E+001
-1.343811036873177E-001	-2.7339402E-001	-2.7310875E-001	2.0344678E+003	1.232959968852811E+001
-1.344657874178081E-001	-2.7541685E-001	-2.7510798E-001	2.0482300E+003	1.252949968347821E+001
-1.347278926802411E-001	-2.7735159E-001	-2.7710855E-001	2.0586055E+003	1.272939967842831E+001
-1.349239523645045E-001	-2.7940887E-001	-2.7910846E-001	2.0708618E+003	1.292939967337588E+001
-1.351689816000625E-001	-2.8139827E-001	-2.8110835E-001	2.0818257E+003	1.312939966832346E+001
-1.356480733466141E-001	-2.8341141E-001	-2.8310823E-001	2.0893140E+003	1.332939966327103E+001
-1.361098248826211E-001	-2.8540289E-001	-2.8510812E-001	2.0968574E+003	1.352939965821861E+001
-1.365461651998199E-001	-2.8736979E-001	-2.8710803E-001	2.1045613E+003	1.372939965316618E+001
-1.368939409902545E-001	-2.8940564E-001	-2.8910795E-001	2.1140867E+003	1.392939964811376E+001
-1.373127121869013E-001	-2.9139903E-001	-2.9110783E-001	2.1221563E+003	1.412939964306133E+001
-1.377229588961577E-001	-2.9340541E-001	-2.9310772E-001	2.1304031E+003	1.432939963800891E+001
-1.381767340439484E-001	-2.9542786E-001	-2.9510766E-001	2.1380435E+003	1.452939963295648E+001
-1.386103924298386E-001	-2.9740027E-001	-2.9710755E-001	2.1455842E+003	1.472939962790406E+001
-1.392199212142484E-001	-2.9936948E-001	-2.9910743E-001	2.1503352E+003	1.492939962285163E+001
-1.396638494493896E-001	-3.0140406E-001	-3.0110732E-001	2.1580679E+003	1.512939961779921E+001
-1.402105045411943E-001	-3.0337670E-001	-3.0310723E-001	2.1637231E+003	1.532939961274678E+001
-1.408179550444343E-001	-3.0537599E-001	-3.0510718E-001	2.1685872E+003	1.552939960769436E+001
-1.413338941600080E-001	-3.0739620E-001	-3.0710703E-001	2.1749646E+003	1.572939960264193E+001
-1.419247536573667E-001	-3.0939490E-001	-3.0910695E-001	2.1799924E+003	1.592939959758951E+001
-1.424680349866852E-001	-3.1139764E-001	-3.1110683E-001	2.1857368E+003	1.612939959253708E+001
-1.430902906974387E-001	-3.1338659E-001	-3.1310675E-001	2.1901318E+003	1.632939958748466E+001
-1.437105798075713E-001	-3.1538129E-001	-3.1510621E-001	2.1945586E+003	1.652929958243476E+001
-1.442940120971734E-001	-3.1738973E-001	-3.1710654E-001	2.1996042E+003	1.672919957738486E+001
-1.449278122935516E-001	-3.1939545E-001	-3.1910643E-001	2.2038245E+003	1.692919957233244E+001
-1.456250828287461E-001	-3.2137850E-001	-3.2110634E-001	2.2068896E+003	1.712919956728001E+001
-1.462546711578505E-001	-3.2336867E-001	-3.2310623E-001	2.2109973E+003	1.732919956222759E+001
-1.467507921007213E-001	-3.2544506E-001	-3.2510614E-001	2.2176716E+003	1.752919955717516E+001
-1.476031679738214E-001	-3.2732663E-001	-3.2710603E-001	2.2176125E+003	1.772919955212274E+001
-1.483597923534796E-001	-3.2944271E-001	-3.2910594E-001	2.2205659E+003	1.792919954707031E+001
-1.490497247531346E-001	-3.3137900E-001	-3.3110583E-001	2.2232781E+003	1.812919954201789E+001
-1.498218912582699E-001	-3.3338687E-001	-3.3310574E-001	2.2252214E+003	1.832919953696546E+001
-1.504600623573968E-001	-3.3542439E-001	-3.3510566E-001	2.2293252E+003	1.852919953191304E+001
-1.512294080311136E-001	-3.3741313E-001	-3.3710554E-001	2.2311343E+003	1.872919952686061E+001
-1.518525729798492E-001	-3.3940530E-001	-3.3910543E-001	2.2350974E+003	1.892919952180819E+001
-1.525371516400068E-001	-3.4138155E-001	-3.4110531E-001	2.2380222E+003	1.912919951675576E+001
-1.532044601394396E-001	-3.4342417E-001	-3.4310523E-001	2.2416069E+003	1.932919951170334E+001
-1.537688569938700E-001	-3.4532079E-001	-3.4510514E-001	2.2457134E+003	1.952919950665091E+001
-1.542320226946345E-001	-3.4741077E-001	-3.4710503E-001	2.2525203E+003	1.972919950159849E+001
-1.548415136432737E-001	-3.4941414E-001	-3.4910494E-001	2.2565920E+003	1.992919949654606E+001
-1.555468538700016E-001	-3.5133627E-001	-3.5110489E-001	2.2587166E+003	2.012919949149364E+001
-1.560667642411229E-001	-3.5339099E-001	-3.5310474E-001	2.2643577E+003	2.032919948644121E+001
-1.567840325959158E-001	-3.5538477E-001	-3.5510466E-001	2.2667153E+003	2.052909948139131E+001
-1.574152570942209E-001	-3.5743216E-001	-3.5710454E-001	2.2706323E+003	2.072899947634141E+001
-1.581706657748070E-001	-3.5938439E-001	-3.5910445E-001	2.2721304E+003	2.092899947128899E+001
-1.589024626700593E-001	-3.6141193E-001	-3.6110434E-001	2.2744263E+003	2.112899946623656E+001
-1.597112588892753E-001	-3.6334491E-001	-3.6310425E-001	2.2750112E+003	2.132899946118414E+001
-1.604091261636020E-001	-3.6537033E-001	-3.6510414E-001	2.2777402E+003	2.152899945613171E+001
-1.611710175060901E-001	-3.6737880E-001	-3.6710405E-001	2.2794346E+003	2.172899945107929E+001
-1.619383146988480E-001	-3.6939174E-001	-3.6910394E-001	2.2810645E+003	2.192899944602686E+001
-1.627826421466698E-001	-3.7140596E-001	-3.7110385E-001	2.2816067E+003	2.212899944097444E+001
-1.640301832977835E-001	-3.7343013E-001	-3.7310374E-001	2.2765940E+003	2.232899943592201E+001
-1.647751136005033E-001	-3.7540147E-001	-3.7510365E-001	2.2782656E+003	2.252899943086959E+001
-1.654274278276020E-001	-3.7739000E-001	-3.7710357E-001	2.2813025E+003	2.272899942581716E+001
-1.662730465679010E-001	-3.7934226E-001	-3.7910342E-001	2.2814417E+003	2.292899942076474E+001
-1.669150252114822E-001	-3.8135052E-001	-3.8110337E-001	2.2846985E+003	2.312899941571231E+001
-1.676123467487309E-001	-3.8337770E-001	-3.8310325E-001	2.2872878E+003	2.332899941065989E+001
-1.682503023364346E-001	-3.8537085E-001	-3.8510311E-001	2.2904617E+003	2.352899940560746E+001
-1.688979904298287E-001	-3.8741836E-001	-3.8710302E-001	2.2938008E+003	2.372899940055504E+001
-1.695032113162031E-001	-3.8939503E-001	-3.8910294E-001	2.2972722E+003	2.392899939550261E+001
-1.700305195932870E-001	-3.9142072E-001	-3.9110282E-001	2.3020615E+003	2.412899939045019E+001
-1.706349853343860E-001	-3.9334938E-001	-3.9310277E-001	2.3052095E+003	2.432899938539776E+001
-1.711209467063117E-001	-3.9543530E-001	-3.9510268E-001	2.3108528E+003	2.452889938034787E+001
-1.718290946456920E-001	-3.9732647E-001	-3.9710256E-001	2.3123352E+003	2.472879937529797E+001
-1.725972169374537E-001	-3.9942235E-001	-3.9910248E-001	2.3141877E+003	2.492879937024554E+001
-1.733507978795366E-001	-4.0142846E-001	-4.0110233E-001	2.3157002E+003	2.512879936519312E+001
-1.738482373397030E-001	-4.0339029E-001	-4.0310228E-001	2.3203589E+003	2.532879936014069E+001
-1.747148542003947E-001	-4.0541849E-001	-4.0510213E-001	2.3204580E+003	2.552879935508827E+001
-1.761228428940270E-001	-4.0735677E-001	-4.0710208E-001	2.3129128E+003	2.572879935003584E+001
-1.772368847553000E-001	-4.0939364E-001	-4.0910193E-001	2.3098669E+003	2.592879934498342E+001
-1.780844745120607E-001	-4.1141063E-001	-4.1110188E-001	2.3101992E+003	2.612879933993099E+001
-1.789474671161710E-001	-4.1340551E-001	-4.1310173E-001	2.3102061E+003	2.632879933487857E+001
-1.797028618374770E-001	-4.1546890E-001	-4.1510168E-001	2.3119771E+003	2.652879932982614E+001
-1.804055041261856E-001	-4.1738912E-001	-4.1710153E-001	2.3136165E+003	2.672879932477372E+001
-1.809008663093623E-001	-4.1951323E-001	-4.1910145E-001	2.3190227E+003	2.692879931972129E+001
-1.816464027774241E-001	-4.2141902E-001	-4.2110133E-001	2.3199966E+003	2.712879931466887E+001
-1.821987233441442E-001	-4.2344299E-001	-4.2310125E-001	2.3240723E+003	2.732879930961644E+001
-1.826086253310031E-001	-4.2550534E-001	-4.2510116E-001	2.3301492E+003	2.752879930456402E+001
-1.832132691173247E-001	-4.2742258E-001	-4.2710105E-001	2.3329238E+003	2.772879929951159E+001
-1.835322786658962E-001	-4.2946288E-001	-4.2910096E-001	2.3399856E+003	2.792879929445917E+001
-1.840109213016708E-001	-4.3139726E-001	-4.3110085E-001	2.3444111E+003	2.812879928940674E+001
-1.843504412289789E-001	-4.3345585E-001	-4.3310070E-001	2.3512603E+003	2.832879928435432E+001
-1.847141149669778E-001	-4.3539947E-001	-4.3510023E-001	2.3571533E+003	2.852869927930442E+001
-1.849678414356379E-001	-4.3745711E-001	-4.3710053E-001	2.3650442E+003	2.872859927425452E+001
-1.853164668657445E-001	-4.3940741E-001	-4.3910044E-001	2.3711191E+003	2.892859926920210E+001
-1.855808395486909E-001	-4.4141188E-001	-4.4110033E-001	2.3785422E+003	2.912859926414967E+001
-1.857335954078825E-001	-4.4342929E-001	-4.4310027E-001	2.3874480E+003	2.932859925909725E+001
-1.860785878088120E-001	-4.4544449E-001	-4.4510013E-001	2.3938513E+003	2.952859925404482E+001
-1.862396606911490E-001	-4.4743347E-001	-4.4710010E-001	2.4024607E+003	2.972859924899240E+001
-1.862595806261542E-001	-4.4946682E-001	-4.4909993E-001	2.4131206E+003	2.992859924393997E+001
-1.863037072958391E-001	-4.5138869E-001	-4.5109987E-001	2.4228647E+003	3.012859923888755E+001
-1.863295196834320E-001	-4.5341924E-001	-4.5309976E-001	2.4334268E+003	3.032859923383512E+001
-1.864655123043657E-001	-4.5544684E-001	-4.5509964E-001	2.4425259E+003	3.052859922878270E+001
-1.869195038421081E-001	-4.5742428E-001	-4.5709959E-001	2.4471726E+003	3.072859922373027E+001
-1.871759495539527E-001	-4.5943218E-001	-4.5909944E-001	2.4545471E+003	3.092859921867785E+001
-1.872388902563780E-001	-4.6144807E-001	-4.6109939E-001	2.4644883E+003	3.112859921362542E+001
-1.873631349842906E-001	-4.6344039E-001	-4.6309924E-001	2.4734875E+003	3.132859920857300E+001
-1.875313836870008E-001	-4.6542341E-001	-4.6509919E-001	2.4818428E+003	3.152859920352057E+001
-1.875471611445996E-001	-4.6739003E-001	-4.6709904E-001	2.4921201E+003	3.172859919846815E+001
-1.876016968846432E-001	-4.6941173E-001	-4.6909893E-001	2.5021721E+003	3.192859919341572E+001
-1.876817270617108E-001	-4.7137922E-001	-4.7109884E-001	2.5115881E+003	3.212859918836330E+001
-1.877718050668520E-001	-4.7339365E-001	-4.7309870E-001	2.5211116E+003	3.232859918331087E+001
-1.876806492982352E-001	-4.7541526E-001	-4.7509822E-001	2.5331074E+003	3.252849917826097E+001
-1.876130115067640E-001	-4.7742441E-001	-4.7709849E-001	2.5447297E+003	3.272839917321107E+001
-1.873734443630104E-001	-4.7939655E-001	-4.7909850E-001	2.5585085E+003	3.292839916815865E+001
-1.871808383575804E-001	-4.8141181E-001	-4.8109829E-001	2.5719075E+003	3.312839916310622E+001
-1.869116252174183E-001	-4.8340276E-001	-4.8309824E-001	2.5862637E+003	3.332839915805380E+001
-1.866248546774312E-001	-4.8542458E-001	-4.8509815E-001	2.6010715E+003	3.352839915300137E+001
-1.862710079414738E-001	-4.8743427E-001	-4.8709807E-001	2.6168015E+003	3.372839914794895E+001
-1.859257409281505E-001	-4.8941606E-001	-4.8909795E-001	2.6323201E+003	3.392839914289652E+001
-1.856735728115106E-001	-4.9137783E-001	-4.9109781E-001	2.6464607E+003	3.412839913784410E+001
-1.851259334342316E-001	-4.9348137E-001	-4.9309775E-001	2.6656523E+003	3.432839913279167E+001
-1.847378287354569E-001	-4.9541900E-001	-4.9509761E-001	2.6817410E+003	3.452839912773925E+001
-1.842509418358516E-001	-4.9743336E-001	-4.9709755E-001	2.6997603E+003	3.472839912268682E+001
-1.836612166756604E-001	-4.9941298E-001	-4.9909741E-001	2.7192075E+003	3.492839911763440E+001
-1.830639650510903E-001	-5.0144315E-001	-5.0109738E-001	2.7391689E+003	3.512839911258197E+001
-1.823417409998943E-001	-5.0341189E-001	-5.0309730E-001	2.7608154E+003	3.532839910752955E+001
-1.816067353530841E-001	-5.0541931E-001	-5.0509715E-001	2.7830427E+003	3.552839910247712E+001
-1.809227830601552E-001	-5.0744754E-001	-5.0709707E-001	2.8047742E+003	3.572839909742470E+001
-1.801362177452108E-001	-5.0947237E-001	-5.0909692E-001	2.8282617E+003	3.592839909237227E+001
-1.793468228431498E-001	-5.1138008E-001	-5.1109689E-001	2.8513472E+003	3.612839908731985E+001
-1.784451998001524E-001	-5.1347190E-001	-5.1309675E-001	2.8774766E+003	3.632839908226742E+001
-1.778074289618123E-001	-5.1538420E-001	-5.1509625E-001	2.8985527E+003	3.652829907721753E+001
-1.770078754232034E-001	-5.1742285E-001	-5.1709652E-001	2.9231628E+003	3.672819907216763E+001
-1.760917096345977E-001	-5.1944196E-001	-5.1909643E-001	2.9498376E+003	3.692819906711520E+001
-1.754246866457212E-001	-5.2136493E-001	-5.2109635E-001	2.9720156E+003	3.712819906206278E+001
-1.745957339165596E-001	-5.2344280E-001	-5.2309626E-001	2.9980273E+003	3.732819905701035E+001
-1.738029405487332E-001	-5.2541906E-001	-5.2509618E-001	3.0230735E+003	3.752819905195793E+001
-1.728919763244736E-001	-5.2741563E-001	-5.2709603E-001	3.0505500E+003	3.772819904690550E+001
-1.720193614021718E-001	-5.2943176E-001	-5.2909595E-001	3.0777451E+003	3.792819904185308E+001
-1.711353370075090E-001	-5.3141731E-001	-5.3109586E-001	3.1052458E+003	3.812819903680065E+001
-1.702728563404372E-001	-5.3340429E-001	-5.3309578E-001	3.1326443E+003	3.832819903174823E+001
-1.694943763562764E-001	-5.3539014E-001	-5.3509569E-001	3.1587488E+003	3.852819902669580E+001
-1.684791621458543E-001	-5.3742528E-001	-5.3709555E-001	3.1898621E+003	3.872819902164338E+001
-1.675637955967416E-001	-5.3946280E-001	-5.3909546E-001	3.2194473E+003	3.892819901659095E+001
-1.667385398739707E-001	-5.4140449E-001	-5.4109532E-001	3.2470266E+003	3.912819901153853E+001
-1.658104629046759E-001	-5.4340363E-001	-5.4309529E-001	3.2772578E+003	3.932819900648610E+001
-1.648770453621651E-001	-5.4542935E-001	-5.4509515E-001	3.3080977E+003	3.952819900143368E+001
-1.640856015155956E-001	-5.4739219E-001	-5.4709506E-001	3.3360159E+003	3.972819899638125E+001
-1.631170049417435E-001	-5.4942483E-001	-5.4909492E-001	3.3682866E+003	3.992819899132883E+001
-1.622207439356731E-001	-5.5140394E-001	-5.5109483E-001	3.3990964E+003	4.012819898627640E+001
-1.612100349242915E-001	-5.5342138E-001	-5.5309474E-001	3.4329214E+003	4.032819898122398E+001
-1.603045444984290E-001	-5.5539209E-001	-5.5509448E-001	3.4646060E+003	4.052809897617408E+001
-1.594835032694157E-001	-5.5740923E-001	-5.5709457E-001	3.4950901E+003	4.072799897112418E+001
-1.583835916507080E-001	-5.5944085E-001	-5.5909437E-001	3.5321895E+003	4.092799896607175E+001
-1.574256594077412E-001	-5.6141597E-001	-5.6109440E-001	3.5662290E+003	4.112799896101933E+001
-1.564193539703664E-001	-5.6338352E-001	-5.6309426E-001	3.6017507E+003	4.132799895596690E+001
-1.554444275401498E-001	-5.6540477E-001	-5.6509417E-001	3.6373435E+003	4.152799895091448E+001
-1.543728808709792E-001	-5.6739390E-001	-5.6709403E-001	3.6754766E+003	4.172799894586205E+001
-1.533679102310941E-001	-5.6939894E-001	-5.6909388E-001	3.7126340E+003	4.192799894080963E+001
-1.522456000573813E-001	-5.7139730E-001	-5.7109386E-001	3.7531284E+003	4.212799893575720E+001
-1.511070133174208E-001	-5.7337481E-001	-5.7309371E-001	3.7944951E+003	4.232799893070478E+001
-1.499275430760301E-001	-5.7540852E-001	-5.7509363E-001	3.8379106E+003	4.252799892565236E+001
-1.489612645102150E-001	-5.7739061E-001	-5.7709348E-001	3.8761125E+003	4.272799892059993E+001
-1.477519436549323E-001	-5.7939976E-001	-5.7909346E-001	3.9214358E+003	4.292799891554751E+001
-1.466447570669521E-001	-5.8140403E-001	-5.8109331E-001	3.9647107E+003	4.312799891049508E+001
-1.454668342993253E-001	-5.8338112E-001	-5.8309329E-001	4.0104063E+003	4.332799890544266E+001
-1.440954039933460E-001	-5.8546430E-001	-5.8509314E-001	4.0630325E+003	4.352799890039023E+001
-1.428381058803491E-001	-5.8740592E-001	-5.8709300E-001	4.1123896E+003	4.372799889533781E+001
-1.415957991992576E-001	-5.8939868E-001	-5.8909297E-001	4.1625435E+003	4.392799889028538E+001
-1.404142672694425E-001	-5.9143943E-001	-5.9109277E-001	4.2121035E+003	4.412799888523296E+001
-1.391878376288287E-001	-5.9340715E-001	-5.9309274E-001	4.2633550E+003	4.432799888018053E+001
-1.380139143592870E-001	-5.9541655E-001	-5.9509259E-001	4.3141777E+003	4.452789887513063E+001
-1.366370160812660E-001	-5.9740222E-001	-5.9709257E-001	4.3721841E+003	4.472779887008073E+001
-1.352866422480008E-001	-5.9942871E-001	-5.9909242E-001	4.4308047E+003	4.492779886502831E+001
-1.339417233664009E-001	-6.0144615E-001	-6.0109240E-001	4.4903569E+003	4.512779885997588E+001
-1.328424114909224E-001	-6.0334933E-001	-6.0309225E-001	4.5418428E+003	4.532779885492346E+001
-1.314273624091728E-001	-6.0549557E-001	-6.0509211E-001	4.6070737E+003	4.552779884987103E+001
-1.301413499296151E-001	-6.0742784E-001	-6.0709202E-001	4.6674468E+003	4.572779884481861E+001
-1.288938516425708E-001	-6.0938513E-001	-6.0909188E-001	4.7278062E+003	4.592779883976618E+001
-1.274016765759340E-001	-6.1146152E-001	-6.1109185E-001	4.7994780E+003	4.612779883471376E+001
-1.260129641350822E-001	-6.1341339E-001	-6.1309171E-001	4.8678594E+003	4.632779882966133E+001
-1.246141814257173E-001	-6.1541486E-001	-6.1509168E-001	4.9385620E+003	4.652779882460891E+001
-1.232299981522642E-001	-6.1746430E-001	-6.1709154E-001	5.0106655E+003	4.672779881955648E+001
-1.218997130050081E-001	-6.1941993E-001	-6.1909145E-001	5.0813896E+003	4.692779881450406E+001
-1.204637909274289E-001	-6.2149376E-001	-6.2109137E-001	5.1591748E+003	4.712779880945163E+001
-1.190349574479579E-001	-6.2342966E-001	-6.2309122E-001	5.2373662E+003	4.732779880439921E+001
-1.176609010953042E-001	-6.2544709E-001	-6.2509114E-001	5.3156748E+003	4.752779879934678E+001
-1.162192652787575E-001	-6.2743747E-001	-6.2709105E-001	5.3987388E+003	4.772779879429436E+001
-1.149285436183416E-001	-6.2943107E-001	-6.2909096E-001	5.4767168E+003	4.792779878924193E+001
-1.135502039600591E-001	-6.3142699E-001	-6.3109082E-001	5.5607739E+003	4.812779878418951E+001
-1.121237977870369E-001	-6.3345581E-001	-6.3309073E-001	5.6496108E+003	4.832779877913708E+001
-1.107829057762944E-001	-6.3540030E-001	-6.3509065E-001	5.7355444E+003	4.852769877408718E+001
-1.094087667915289E-001	-6.3744205E-001	-6.3709056E-001	5.8262427E+003	4.872759876903729E+001
-1.079918271798612E-001	-6.3940448E-001	-6.3909048E-001	5.9208599E+003	4.892759876398486E+001
-1.067294955914608E-001	-6.4143443E-001	-6.4109033E-001	6.0099077E+003	4.912759875893244E+001
-1.055669865133814E-001	-6.4348847E-001	-6.4309025E-001	6.0955464E+003	4.932759875388001E+001
-1.042206342281380E-001	-6.4542186E-001	-6.4509010E-001	6.1928413E+003	4.952759874882759E+001
-1.028916048954600E-001	-6.4743757E-001	-6.4709008E-001	6.2924238E+003	4.972759874377516E+001
-1.016779125820158E-001	-6.4942437E-001	-6.4908993E-001	6.3870742E+003	4.992759873872274E+001
-1.003822260346188E-001	-6.5140736E-001	-6.5108985E-001	6.4892700E+003	5.012759873367031E+001
-9.909193448578746E-002	-6.5345007E-001	-6.5308970E-001	6.5943818E+003	5.032759872861789E+001
-9.789873801632187E-002	-6.5547252E-001	-6.5508962E-001	6.6954136E+003	5.052759872356546E+001
-9.664130659379078E-002	-6.5742898E-001	-6.5708953E-001	6.8027739E+003	5.072759871851304E+001
-9.545471874232536E-002	-6.5945208E-001	-6.5908945E-001	6.9085332E+003	5.092759871346061E+001
-9.427586653219100E-002	-6.6145116E-001	-6.6108936E-001	7.0161240E+003	5.112759870840819E+001
-9.318329442858425E-002	-6.6345209E-001	-6.6308922E-001	7.1198608E+003	5.132759870335576E+001
-9.204061078741876E-002	-6.6541785E-001	-6.6508919E-001	7.2296113E+003	5.152759869830334E+001
-9.086590633482627E-002	-6.6743165E-001	-6.6708899E-001	7.3452373E+003	5.172759869325091E+001
-8.974086564317241E-002	-6.6942680E-001	-6.6908896E-001	7.4595537E+003	5.192759868819849E+001
-8.871436783306857E-002	-6.7138290E-001	-6.7108881E-001	7.5679160E+003	5.212759868314606E+001
-8.758978149061702E-002	-6.7341912E-001	-6.7308873E-001	7.6883296E+003	5.232759867809364E+001
-8.641788519499427E-002	-6.7544264E-001	-6.7508888E-001	7.8160054E+003	5.252749867304374E+001
-8.542836230520634E-002	-6.7742270E-001	-6.7708856E-001	7.9297168E+003	5.272739866799384E+001
-8.439746285501504E-002	-6.7942089E-001	-6.7908847E-001	8.0502524E+003	5.292739866294141E+001
-8.351265678030212E-002	-6.8138552E-001	-6.8108833E-001	8.1590688E+003	5.312739865788899E+001
-8.258147356828960E-002	-6.8343389E-001	-6.8308824E-001	8.2758740E+003	5.332739865283656E+001
-8.179072959215522E-002	-6.8543744E-001	-6.8508810E-001	8.3803809E+003	5.352739864778414E+001
-8.089826953789558E-002	-6.8743658E-001	-6.8708807E-001	8.4975439E+003	5.372739864273171E+001
-8.007926716154579E-002	-6.8939465E-001	-6.8908793E-001	8.6089033E+003	5.392739863767929E+001
-7.931759298933244E-002	-6.9143915E-001	-6.9108784E-001	8.7173496E+003	5.412739863262686E+001
-7.852254845117485E-002	-6.9339991E-001	-6.9308776E-001	8.8305830E+003	5.432739862757444E+001
-7.776262859609018E-002	-6.9542849E-001	-6.9508767E-001	8.9429648E+003	5.452739862252201E+001
-7.705504364701482E-002	-6.9744551E-001	-6.9708759E-001	9.0512637E+003	5.472739861746959E+001
-7.642338561134909E-002	-6.9941437E-001	-6.9908744E-001	9.1518369E+003	5.492739861241716E+001
-7.569927091038731E-002	-7.0144510E-001	-7.0108736E-001	9.2662070E+003	5.512739860736474E+001
-7.509477591604519E-002	-7.0341557E-001	-7.0308727E-001	9.3670371E+003	5.532739860231231E+001
-7.452134755566764E-002	-7.0539725E-001	-7.0508718E-001	9.4657070E+003	5.552739859725989E+001
-7.390920075433771E-002	-7.0743078E-001	-7.0708704E-001	9.5716201E+003	5.572739859220746E+001
-7.346091216035133E-002	-7.0942640E-001	-7.0908695E-001	9.6571953E+003	5.592739858715504E+001
-7.295937329433588E-002	-7.1138513E-001	-7.1108687E-001	9.7504277E+003	5.612739858210261E+001
-7.251320750127349E-002	-7.1338296E-001	-7.1308678E-001	9.8379727E+003	5.632739857705019E+001
-7.216113171300731E-002	-7.1540505E-001	-7.1508718E-001	9.9139941E+003	5.652729857200029E+001
-7.167109681764283E-002	-7.1743625E-001	-7.1708655E-001	1.0010120E+004	5.672719856695039E+001
-7.141029339942606E-002	-7.1945769E-001	-7.1908647E-001	1.0074985E+004	5.692719856189797E+001
-7.119692689126689E-002	-7.2139549E-001	-7.2108638E-001	1.0132396E+004	5.712719855684554E+001
-7.088168789981081E-002	-7.2342879E-001	-7.2308630E-001	1.0206145E+004	5.732719855179312E+001
-7.058241102493878E-002	-7.2540283E-001	-7.2508615E-001	1.0277388E+004	5.752719854674069E+001
-7.044418734105506E-002	-7.2738951E-001	-7.2708601E-001	1.0325756E+004	5.772719854168827E+001
-7.025354295966896E-002	-7.2943681E-001	-7.2908598E-001	1.0382919E+004	5.792719853663584E+001
-7.005485636604480E-002	-7.3138273E-001	-7.3108578E-001	1.0440144E+004	5.812719853158342E+001
-6.998858606873631E-002	-7.3340815E-001	-7.3308581E-001	1.0478968E+004	5.832719852653099E+001
-6.997432490829725E-002	-7.3543322E-001	-7.3508561E-001	1.0510044E+004	5.852719852147857E+001
-6.993208069918147E-002	-7.3741531E-001	-7.3708558E-001	1.0544735E+004	5.872719851642614E+001
-6.980934686263973E-002	-7.3940456E-001	-7.3908550E-001	1.0591771E+004	5.892719851137372E+001
-6.987812394295290E-002	-7.4145627E-001	-7.4108529E-001	1.0610707E+004	5.912719850632129E+001
-6.987511501024513E-002	-7.4338347E-001	-7.4308527E-001	1.0638744E+004	5.932719850126887E+001
-6.994953136331483E-002	-7.4542016E-001	-7.4508512E-001	1.0656543E+004	5.952719849621644E+001
-6.999283540484980E-002	-7.4743354E-001	-7.4708509E-001	1.0678715E+004	5.972719849116402E+001
-7.007890165458214E-002	-7.4934947E-001	-7.4908489E-001	1.0692939E+004	5.992719848611159E+001
-7.021418309774752E-002	-7.5141793E-001	-7.5108480E-001	1.0701797E+004	6.012719848105917E+001
-7.032825108121260E-002	-7.5343281E-001	-7.5308472E-001	1.0713089E+004	6.032719847600674E+001
-7.049704186194794E-002	-7.5537664E-001	-7.5508535E-001	1.0715012E+004	6.052709847095684E+001
-7.065880532342694E-002	-7.5741571E-001	-7.5708455E-001	1.0719339E+004	6.072699846590695E+001
-7.091834519085893E-002	-7.5937444E-001	-7.5908440E-001	1.0707729E+004	6.092699846085452E+001
-7.114417950280638E-002	-7.6142555E-001	-7.6108432E-001	1.0702570E+004	6.112699845580210E+001
-7.131347977799163E-002	-7.6339054E-001	-7.6308423E-001	1.0704716E+004	6.132699845074967E+001
-7.174278944128865E-002	-7.6539606E-001	-7.6508421E-001	1.0668613E+004	6.152699844569725E+001
-7.188689958487893E-002	-7.6743108E-001	-7.6708400E-001	1.0675534E+004	6.172699844064482E+001
-7.231471797001576E-002	-7.6939631E-001	-7.6908392E-001	1.0639554E+004	6.192699843559240E+001
-7.264007830436925E-002	-7.7139032E-001	-7.7108383E-001	1.0619349E+004	6.212699843053997E+001
-7.293690633569294E-002	-7.7341515E-001	-7.7308375E-001	1.0603893E+004	6.232699842548755E+001
-7.319099332159495E-002	-7.7542543E-001	-7.7508366E-001	1.0594547E+004	6.252699842043512E+001
-7.363966841920118E-002	-7.7740151E-001	-7.7708352E-001	1.0556831E+004	6.272699841538270E+001
-7.401827741002485E-002	-7.7944356E-001	-7.7908343E-001	1.0530420E+004	6.292699841033027E+001
-7.432795275433499E-002	-7.8134882E-001	-7.8108335E-001	1.0512180E+004	6.312699840527785E+001
-7.480943221187068E-002	-7.8346217E-001	-7.8308326E-001	1.0472772E+004	6.332699840022542E+001
-7.529762161994880E-002	-7.8537899E-001	-7.8508323E-001	1.0430329E+004	6.352699839517300E+001
-7.579628548156214E-002	-7.8739935E-001	-7.8708303E-001	1.0388363E+004	6.372699839012057E+001
-7.615296703725294E-002	-7.8943050E-001	-7.8908294E-001	1.0366379E+004	6.392699838506815E+001
-7.663791418305754E-002	-7.9140568E-001	-7.9108286E-001	1.0326556E+004	6.412699838001572E+001
-7.711488014887494E-002	-7.9336214E-001	-7.9308277E-001	1.0288055E+004	6.432699837496330E+001
-7.752497638916878E-002	-7.9545355E-001	-7.9508334E-001	1.0260610E+004	6.452689836991340E+001
-7.723382128035113E-002	-7.9736578E-001	-7.9708266E-001	1.0324050E+004	6.472679836486350E+001
-7.607287321400202E-002	-7.9937744E-001	-7.9908246E-001	1.0508049E+004	6.492679835981107E+001
-7.643506881440931E-002	-8.0140382E-001	-8.0108237E-001	1.0484767E+004	6.512679835475865E+001
-7.717714708587775E-002	-8.0339044E-001	-8.0308235E-001	1.0409693E+004	6.532679834970622E+001
-7.784491266090177E-002	-8.0537885E-001	-8.0508214E-001	1.0345940E+004	6.552679834465380E+001
-7.847719615517515E-002	-8.0740452E-001	-8.0708206E-001	1.0288396E+004	6.572679833960137E+001
-7.901150961892256E-002	-8.0937982E-001	-8.0908197E-001	1.0243821E+004	6.592679833454895E+001
-7.953084047985093E-002	-8.1138784E-001	-8.1108189E-001	1.0202179E+004	6.612679832949652E+001
-8.014128452732916E-002	-8.1336200E-001	-8.1308174E-001	1.0149102E+004	6.632679832444410E+001
-8.085105432062289E-002	-8.1539303E-001	-8.1508166E-001	1.0085126E+004	6.652679831939167E+001
-8.116454779394311E-002	-8.1740618E-001	-8.1708157E-001	1.0070976E+004	6.672679831433925E+001
-8.188332430859946E-002	-8.1942028E-001	-8.1908149E-001	1.0007169E+004	6.692679830928682E+001
-8.247158872100924E-002	-8.2145685E-001	-8.2108134E-001	9.9604824E+003	6.712679830423440E+001
-8.311622690931086E-002	-8.2341588E-001	-8.2308125E-001	9.9068008E+003	6.732679829918197E+001
-8.348810902739712E-002	-8.2539618E-001	-8.2508117E-001	9.8863916E+003	6.752679829412955E+001
-8.383974934613470E-002	-8.2739085E-001	-8.2708097E-001	9.8687178E+003	6.772679828907712E+001
-8.409868330006298E-002	-8.2945532E-001	-8.2908100E-001	9.8628809E+003	6.792679828402470E+001
-8.484142296472358E-002	-8.3140159E-001	-8.3108085E-001	9.7994775E+003	6.812679827897227E+001
-8.495933044059800E-002	-8.3336723E-001	-8.3308077E-001	9.8090137E+003	6.832679827391985E+001
-8.489512152666889E-002	-8.3542931E-001	-8.3508044E-001	9.8407227E+003	6.852669826886995E+001
-8.567946227193501E-002	-8.3739930E-001	-8.3708048E-001	9.7736289E+003	6.872659826382005E+001
-8.630932715368755E-002	-8.3937925E-001	-8.3908051E-001	9.7252441E+003	6.892659825876763E+001
-8.726040028719861E-002	-8.4142172E-001	-8.4108037E-001	9.6426523E+003	6.912659825371520E+001
-8.801240853219872E-002	-8.4341186E-001	-8.4308028E-001	9.5828740E+003	6.932659824866278E+001
-8.853429170745653E-002	-8.4539914E-001	-8.4508008E-001	9.5488330E+003	6.952659824361035E+001
-8.943153618699773E-002	-8.4739399E-001	-8.4708011E-001	9.4753379E+003	6.972659823855793E+001
-8.966861976798479E-002	-8.4942204E-001	-8.4907997E-001	9.4729023E+003	6.992659823350550E+001
-9.030533352626069E-002	-8.5145664E-001	-8.5107988E-001	9.4286416E+003	7.012659822845308E+001
-9.133433450811657E-002	-8.5337913E-001	-8.5307974E-001	9.3434648E+003	7.032659822340065E+001
-9.265020392547962E-002	-8.5538536E-001	-8.5507959E-001	9.2324180E+003	7.052659821834823E+001
-9.394853542582036E-002	-8.5740227E-001	-8.5707963E-001	9.1262969E+003	7.072659821329580E+001
-9.573240961843599E-002	-8.5940933E-001	-8.5907942E-001	8.9772031E+003	7.092659820824338E+001
-9.746826235563955E-002	-8.6141640E-001	-8.6107939E-001	8.8379170E+003	7.112659820319095E+001
-9.962248160184906E-002	-8.6339247E-001	-8.6307919E-001	8.6666426E+003	7.132659819813853E+001
-1.016597361324979E-001	-8.6538023E-001	-8.6507922E-001	8.5125166E+003	7.152659819308610E+001
-1.024659447004497E-001	-8.6747897E-001	-8.6707908E-001	8.4660225E+003	7.172659818803368E+001
-1.047638531736270E-001	-8.6934853E-001	-8.6907899E-001	8.2981729E+003	7.192659818298125E+001
-1.080303936605414E-001	-8.7143123E-001	-8.7107885E-001	8.0665376E+003	7.212659817792883E+001
-1.115029196364721E-001	-8.7348413E-001	-8.7307870E-001	7.8337334E+003	7.232659817287640E+001
-1.156466896678743E-001	-8.7535447E-001	-8.7507874E-001	7.5692134E+003	7.252649816782650E+001
-1.206576417574068E-001	-8.7742269E-001	-8.7707853E-001	7.2720024E+003	7.272639816277660E+001
-1.260733733844865E-001	-8.7945938E-001	-8.7907851E-001	6.9757739E+003	7.292639815772418E+001
-1.317902024911377E-001	-8.8140005E-001	-8.8107830E-001	6.6879028E+003	7.312639815267175E+001
-1.380597607300209E-001	-8.8339895E-001	-8.8307834E-001	6.3986709E+003	7.332639814761933E+001
-1.446428350616431E-001	-8.8538659E-001	-8.8507813E-001	6.1211924E+003	7.352639814256690E+001
-1.493304235134222E-001	-8.8741291E-001	-8.8707811E-001	5.9426128E+003	7.372639813751448E+001
-1.552914658343825E-001	-8.8940185E-001	-8.8907796E-001	5.7273066E+003	7.392639813246205E+001
-1.619639438080718E-001	-8.9135087E-001	-8.9107782E-001	5.5033906E+003	7.412639812740963E+001
-1.686928593268502E-001	-8.9338678E-001	-8.9307785E-001	5.2959370E+003	7.432639812235720E+001
-1.749874549672907E-001	-8.9540160E-001	-8.9507765E-001	5.1169473E+003	7.452639811730478E+001
-1.808468505292460E-001	-8.9740306E-001	-8.9707762E-001	4.9622266E+003	7.472639811225235E+001
-1.886483299854272E-001	-8.9936447E-001	-8.9907742E-001	4.7674131E+003	7.492639810719993E+001
-1.978083865605126E-001	-9.0144211E-001	-9.0107733E-001	4.5571479E+003	7.512639810214750E+001
-2.075611255458996E-001	-9.0340126E-001	-9.0307724E-001	4.3524590E+003	7.532639809709508E+001
-2.187387842786359E-001	-9.0540755E-001	-9.0507716E-001	4.1392183E+003	7.552639809204265E+001
-2.309986683086005E-001	-9.0741456E-001	-9.0707707E-001	3.9282241E+003	7.572639808699023E+001
-2.468176219705276E-001	-9.0940130E-001	-9.0907693E-001	3.6845071E+003	7.592639808193780E+001
-2.653812249138321E-001	-9.1141379E-001	-9.1107684E-001	3.4343567E+003	7.612639807688538E+001
-2.860217005512817E-001	-9.1340750E-001	-9.1307676E-001	3.1934902E+003	7.632639807183295E+001
-3.101723215261760E-001	-9.1539276E-001	-9.1507673E-001	2.9512393E+003	7.652629806678306E+001
-3.380566472272113E-001	-9.1741371E-001	-9.1707659E-001	2.7137869E+003	7.672619806173316E+001
-3.699472885528192E-001	-9.1944176E-001	-9.1907644E-001	2.4853318E+003	7.692619805668073E+001
-4.067887023108208E-001	-9.2141420E-001	-9.2107636E-001	2.2650928E+003	7.712619805162831E+001
-4.491372231242003E-001	-9.2341924E-001	-9.2307627E-001	2.0559846E+003	7.732619804657588E+001
-4.974416565707527E-001	-9.2542601E-001	-9.2507619E-001	1.8603710E+003	7.752619804152346E+001
-5.522524256749159E-001	-9.2741388E-001	-9.2707604E-001	1.6793297E+003	7.772619803647103E+001
-6.147394343332113E-001	-9.2940861E-001	-9.2907596E-001	1.5118740E+003	7.792619803141861E+001
-6.855391685865690E-001	-9.3142861E-001	-9.3107587E-001	1.3586804E+003	7.812619802636618E+001
-7.643403683001360E-001	-9.3341154E-001	-9.3307579E-001	1.2211989E+003	7.832619802131376E+001
-8.514749793982048E-001	-9.3545806E-001	-9.3507570E-001	1.0986324E+003	7.852619801626133E+001
-9.506234453564444E-001	-9.3740660E-001	-9.3707556E-001	9.8609668E+002	7.872619801120891E+001
-1.061885739946039E+000	-9.3951392E-001	-9.3917555E-001	8.8475989E+002	7.893619800590386E+001
-1.188025842777655E+000	-9.4158679E-001	-9.4127536E-001	7.9256421E+002	7.914619800059882E+001
-1.323538659110900E+000	-9.4358748E-001	-9.4327527E-001	7.1292780E+002	7.934619799554639E+001
-1.469553593605282E+000	-9.4556957E-001	-9.4527513E-001	6.4344000E+002	7.954619799049397E+001
-1.629733524996940E+000	-9.4758505E-001	-9.4727510E-001	5.8143555E+002	7.974619798544154E+001
-1.806976543380417E+000	-9.4960880E-001	-9.4927502E-001	5.2552362E+002	7.994619798038912E+001
-1.997393805643455E+000	-9.5159882E-001	-9.5127487E-001	4.7642023E+002	8.014619797533669E+001
-2.201717799178866E+000	-9.5358473E-001	-9.5327473E-001	4.3310944E+002	8.034619797028427E+001
-2.422503426881192E+000	-9.5556402E-001	-9.5527422E-001	3.9445313E+002	8.054599796523689E+001
-2.658052130976102E+000	-9.5762849E-001	-9.5727462E-001	3.6027454E+002	8.074599796018447E+001
-2.909825632665438E+000	-9.5958495E-001	-9.5927447E-001	3.2977405E+002	8.094599795513204E+001
-3.176553183216221E+000	-9.6154892E-001	-9.6127433E-001	3.0270197E+002	8.114599795007962E+001
-3.460551574724882E+000	-9.6360576E-001	-9.6327424E-001	2.7845438E+002	8.134599794502719E+001
-3.758818211232459E+000	-9.6561593E-001	-9.6527410E-001	2.5689349E+002	8.154599793997477E+001
-4.069983928618520E+000	-9.6758580E-001	-9.6727413E-001	2.3773701E+002	8.174599793492234E+001
-4.399405087000126E+000	-9.6961045E-001	-9.6927392E-001	2.2039581E+002	8.194599792986992E+001
-4.746934572990810E+000	-9.7158790E-001	-9.7127384E-001	2.0467691E+002	8.214599792481749E+001
-5.107937219664613E+000	-9.7361928E-001	-9.7327375E-001	1.9060910E+002	8.234599791976507E+001
-5.480680382677491E+000	-9.7561353E-001	-9.7527361E-001	1.7800957E+002	8.254599791471264E+001
-5.864400803569772E+000	-9.7757530E-001	-9.7727352E-001	1.6669653E+002	8.274599790966022E+001
-6.264801296111969E+000	-9.7964489E-001	-9.7927344E-001	1.5637286E+002	8.294599790460779E+001
-6.681955125799533E+000	-9.8159039E-001	-9.8127335E-001	1.4690167E+002	8.314599789955537E+001
-7.109009370376725E+000	-9.8359203E-001	-9.8327321E-001	1.3835852E+002	8.334599789450294E+001
-7.549137781131293E+000	-9.8560619E-001	-9.8527324E-001	1.3055878E+002	8.354599788945052E+001
-8.002066482424453E+000	-9.8762542E-001	-9.8727304E-001	1.2342130E+002	8.374599788439809E+001
-8.467477082800741E+000	-9.8961258E-001	-9.8927295E-001	1.1687219E+002	8.394599787934567E+001
-8.942912090595108E+000	-9.9159753E-001	-9.9127287E-001	1.1088083E+002	8.414599787429324E+001
-9.426949370542573E+000	-9.9360693E-001	-9.9327272E-001	1.0540069E+002	8.434599786924082E+001
-9.924311744610620E+000	-9.9564213E-001	-9.9527222E-001	1.0032355E+002	8.454579786419345E+001
-1.043102726029429E+001	-9.9762928E-001	-9.9727255E-001	9.5640556E+001	8.474579785914102E+001
-1.097981476674278E+001	-9.9973965E-001	-9.9937248E-001	9.1052505E+001	8.495579785383597E+001
-1.154318273520261E+001	-1.0017864E+000	-1.0014724E+000	8.6785973E+001	8.516579784853093E+001
-1.207555410333502E+001	-1.0038340E+000	-1.0034723E+000	8.3129440E+001	8.536579784347850E+001
-1.261443197997517E+001	-1.0058155E+000	-1.0054721E+000	7.9735298E+001	8.556579783842608E+001
-1.316592792264457E+001	-1.0078259E+000	-1.0074720E+000	7.6548027E+001	8.576579783337365E+001
-1.372276877397314E+001	-1.0097804E+000	-1.0094719E+000	7.3584305E+001	8.596579782832123E+001
-1.429577096357366E+001	-1.0118102E+000	-1.0114717E+000	7.0776886E+001	8.616579782326880E+001
-1.487829162690645E+001	-1.0138218E+000	-1.0134718E+000	6.8141014E+001	8.636579781821638E+001
-1.546364213874279E+001	-1.0158241E+000	-1.0154716E+000	6.5691124E+001	8.656579781316395E+001
-1.606020494153438E+001	-1.0177737E+000	-1.0174716E+000	6.3372402E+001	8.676579780811153E+001
-1.666799216083939E+001	-1.0198238E+000	-1.0194714E+000	6.1184563E+001	8.696579780305910E+001
-1.728343038831980E+001	-1.0218184E+000	-1.0214713E+000	5.9121273E+001	8.716579779800668E+001
-1.790265083745488E+001	-1.0237520E+000	-1.0234712E+000	5.7184380E+001	8.736579779295425E+001
-1.852784675684109E+001	-1.0258049E+000	-1.0254711E+000	5.5365574E+001	8.756579778790183E+001
-1.916260510926341E+001	-1.0278348E+000	-1.0274711E+000	5.3637527E+001	8.776579778284940E+001
-1.979849498612543E+001	-1.0298233E+000	-1.0294709E+000	5.2015232E+001	8.796579777779698E+001
-2.043853756521832E+001	-1.0318220E+000	-1.0314708E+000	5.0484138E+001	8.816579777274455E+001
-2.108410708523405E+001	-1.0338261E+000	-1.0334698E+000	4.9033432E+001	8.836569776769466E+001
-2.174036022890100E+001	-1.0358063E+000	-1.0354710E+000	4.7644394E+001	8.856569776264223E+001
-2.240638058864067E+001	-1.0378280E+000	-1.0374706E+000	4.6318413E+001	8.876559775759233E+001
-2.307900935681778E+001	-1.0398309E+000	-1.0394704E+000	4.5055267E+001	8.896559775253991E+001
-2.376047103353639E+001	-1.0418113E+000	-1.0414703E+000	4.3846409E+001	8.916559774748748E+001
-2.445510103048384E+001	-1.0438558E+000	-1.0434703E+000	4.2684582E+001	8.936559774243506E+001
-2.516536989436406E+001	-1.0458525E+000	-1.0454701E+000	4.1559196E+001	8.956559773738263E+001
-2.588386828991293E+001	-1.0478076E+000	-1.0474701E+000	4.0481106E+001	8.976559773233021E+001
-2.661994242343769E+001	-1.0498233E+000	-1.0494699E+000	3.9437473E+001	8.996559772727778E+001
-2.737777502358358E+001	-1.0518080E+000	-1.0514698E+000	3.8418316E+001	9.016559772222536E+001
-2.814400907817080E+001	-1.0538267E+000	-1.0534698E+000	3.7444084E+001	9.036559771717293E+001
-2.890814871041937E+001	-1.0558172E+000	-1.0554696E+000	3.6523170E+001	9.056559771212051E+001
-2.966100695992801E+001	-1.0578284E+000	-1.0574695E+000	3.5663940E+001	9.076559770706808E+001
-3.041396658274596E+001	-1.0598294E+000	-1.0594693E+000	3.4846798E+001	9.096559770201566E+001
-3.121882361376350E+001	-1.0617956E+000	-1.0614693E+000	3.4011391E+001	9.116559769696323E+001
-3.204406383248414E+001	-1.0638437E+000	-1.0634693E+000	3.3199402E+001	9.136559769191081E+001
-3.287521357790413E+001	-1.0658013E+000	-1.0654690E+000	3.2419601E+001	9.156559768685838E+001
-3.373219721198350E+001	-1.0678391E+000	-1.0674690E+000	3.1656376E+001	9.176559768180596E+001
-3.456742427868102E+001	-1.0697991E+000	-1.0694690E+000	3.0948185E+001	9.196559767675353E+001
-3.542806197996853E+001	-1.0718188E+000	-1.0714688E+000	3.0253386E+001	9.216559767170111E+001
-3.625451599551434E+001	-1.0738324E+000	-1.0734687E+000	2.9619272E+001	9.236559766664868E+001
-3.705340530809212E+001	-1.0758181E+000	-1.0754693E+000	2.9034256E+001	9.256549766159878E+001
-3.792615124725147E+001	-1.0778347E+000	-1.0774685E+000	2.8419302E+001	9.276539765654888E+001
-3.879868345249818E+001	-1.0798116E+000	-1.0794685E+000	2.7831139E+001	9.296539765149646E+001
-3.965593649362495E+001	-1.0818288E+000	-1.0814683E+000	2.7280375E+001	9.316539764644403E+001
-4.049506761373566E+001	-1.0838226E+000	-1.0834682E+000	2.6764311E+001	9.336539764139161E+001
-4.135633948762938E+001	-1.0858337E+000	-1.0854682E+000	2.6255556E+001	9.356539763633918E+001
-4.222352984784123E+001	-1.0878021E+000	-1.0874680E+000	2.5762936E+001	9.376539763128676E+001
-4.307005759242440E+001	-1.0897915E+000	-1.0894680E+000	2.5302765E+001	9.396539762623433E+001
-4.391019737396118E+001	-1.0917962E+000	-1.0914677E+000	2.4864296E+001	9.416539762118191E+001
-4.477799374959886E+001	-1.0937874E+000	-1.0934677E+000	2.4426897E+001	9.436539761612949E+001
-4.561081493063045E+001	-1.0957910E+000	-1.0954676E+000	2.4024807E+001	9.456539761107706E+001
-4.639355693490575E+001	-1.0978197E+000	-1.0974675E+000	2.3663193E+001	9.476539760602464E+001
-4.715438681611113E+001	-1.0998007E+000	-1.0994674E+000	2.3323402E+001	9.496539760097221E+001
-4.805530757076883E+001	-1.1018139E+000	-1.1014673E+000	2.2928038E+001	9.516539759591979E+001
-4.889499897643304E+001	-1.1038120E+000	-1.1034672E+000	2.2575151E+001	9.536539759086736E+001
-4.973964755659472E+001	-1.1058341E+000	-1.1054672E+000	2.2232449E+001	9.556539758581494E+001
-5.052135939879213E+001	-1.1078039E+000	-1.1074671E+000	2.1927437E+001	9.576539758076251E+001
-5.139162302990371E+001	-1.1098052E+000	-1.1094669E+000	2.1595060E+001	9.596539757571009E+001
-5.223620763116946E+001	-1.1118040E+000	-1.1114668E+000	2.1284164E+001	9.616539757065766E+001
-5.305805896034389E+001	-1.1138020E+000	-1.1134661E+000	2.0992136E+001	9.636529756560776E+001
-5.383525721351805E+001	-1.1158321E+000	-1.1154671E+000	2.0726789E+001	9.656529756055534E+001
-5.460463668267462E+001	-1.1178257E+000	-1.1174666E+000	2.0471260E+001	9.676519755550544E+001
-5.540684407584536E+001	-1.1198026E+000	-1.1194664E+000	2.0210546E+001	9.696519755045301E+001
-5.629646466648774E+001	-1.1218231E+000	-1.1214664E+000	1.9927061E+001	9.716519754540059E+001
-5.722349833685234E+001	-1.1237816E+000	-1.1234663E+000	1.9638464E+001	9.736519754034816E+001
-5.801018285210716E+001	-1.1258255E+000	-1.1254662E+000	1.9407377E+001	9.756519753529574E+001
-5.880849500956739E+001	-1.1278049E+000	-1.1274660E+000	1.9177584E+001	9.776519753024331E+001
-5.962958140384045E+001	-1.1297898E+000	-1.1294659E+000	1.8946802E+001	9.796519752519089E+001
-6.067077408896557E+001	-1.1318818E+000	-1.1314658E+000	1.8656130E+001	9.816519752013846E+001
-6.153287112902097E+001	-1.1338382E+000	-1.1334658E+000	1.8426544E+001	9.836519751508604E+001
-6.235455393683088E+001	-1.1358234E+000	-1.1354656E+000	1.8215565E+001	9.856519751003361E+001
-6.308249068152054E+001	-1.1378387E+000	-1.1374655E+000	1.8037315E+001	9.876519750498119E+001
-6.376762581412231E+001	-1.1398114E+000	-1.1394655E+000	1.7874453E+001	9.896519749992876E+001
-6.460022571027400E+001	-1.1418332E+000	-1.1414654E+000	1.7675375E+001	9.916519749487634E+001
-6.538419923976971E+001	-1.1438133E+000	-1.1434653E+000	1.7493727E+001	9.936519748982391E+001
-6.625301387034318E+001	-1.1458199E+000	-1.1454651E+000	1.7294607E+001	9.956519748477149E+001
-6.717232500452562E+001	-1.1478086E+000	-1.1474650E+000	1.7087523E+001	9.976519747971906E+001
-6.794592259584354E+001	-1.1498185E+000	-1.1494650E+000	1.6922554E+001	9.996519747466664E+001
-6.902384410423497E+001	-1.1518434E+000	-1.1514648E+000	1.6687616E+001	1.001651974696142E+002
-7.018327205275557E+001	-1.1537937E+000	-1.1534650E+000	1.6439726E+001	1.003651974645618E+002
-7.101205186232005E+001	-1.1558456E+000	-1.1554652E+000	1.6276752E+001	1.005650974595119E+002
-7.175633424966520E+001	-1.1578683E+000	-1.1574646E+000	1.6136112E+001	1.007649974544620E+002
-7.254885855607714E+001	-1.1598704E+000	-1.1594644E+000	1.5987438E+001	1.009649974494096E+002
-7.347240445781438E+001	-1.1618357E+000	-1.1614643E+000	1.5813225E+001	1.011649974443571E+002
-7.432671171359164E+001	-1.1638318E+000	-1.1634642E+000	1.5658325E+001	1.013649974393047E+002
-7.518425876645563E+001	-1.1658460E+000	-1.1654642E+000	1.5506517E+001	1.015649974342523E+002
-7.606091247556424E+001	-1.1678241E+000	-1.1674639E+000	1.5353802E+001	1.017649974291999E+002
-7.694607766847776E+001	-1.1698298E+000	-1.1694640E+000	1.5203242E+001	1.019649974241474E+002
-7.775708633107115E+001	-1.1718129E+000	-1.1714638E+000	1.5070175E+001	1.021649974190950E+002
-7.842070728743153E+001	-1.1738455E+000	-1.1734637E+000	1.4968566E+001	1.023649974140426E+002
-7.914853039944796E+001	-1.1758156E+000	-1.1754636E+000	1.4855811E+001	1.025649974089902E+002
-7.993363751359516E+001	-1.1778344E+000	-1.1774635E+000	1.4735153E+001	1.027649974039377E+002
-8.095327838964772E+001	-1.1798378E+000	-1.1794634E+000	1.4574306E+001	1.029649973988853E+002
-8.186109364762592E+001	-1.1818094E+000	-1.1814634E+000	1.4436766E+001	1.031649973938329E+002
-8.267729906592496E+001	-1.1838195E+000	-1.1834632E+000	1.4318556E+001	1.033649973887805E+002
-8.374253151205954E+001	-1.1858122E+000	-1.1854632E+000	1.4160214E+001	1.035649973837280E+002
-8.466658987317783E+001	-1.1877949E+000	-1.1874630E+000	1.4029087E+001	1.037649973786756E+002
-8.555287331031866E+001	-1.1898128E+000	-1.1894629E+000	1.3907339E+001	1.039649973736232E+002
-8.656144577089083E+001	-1.1918007E+000	-1.1914628E+000	1.3768263E+001	1.041649973685708E+002
-8.729303510590807E+001	-1.1937258E+000	-1.1934620E+000	1.3674927E+001	1.043648973635209E+002
-8.793807758632647E+001	-1.1958355E+000	-1.1954622E+000	1.3598608E+001	1.045647973584710E+002
-8.880733564381126E+001	-1.1978317E+000	-1.1974626E+000	1.3487982E+001	1.047647973534185E+002
-8.968733463427930E+001	-1.1998147E+000	-1.1994624E+000	1.3377749E+001	1.049647973483661E+002
-9.053489421392510E+001	-1.2018168E+000	-1.2014624E+000	1.3274625E+001	1.051647973433137E+002
-9.140189369735802E+001	-1.2038255E+000	-1.2034622E+000	1.3170684E+001	1.053647973382613E+002
-9.215881657762566E+001	-1.2058047E+000	-1.2054622E+000	1.3083986E+001	1.055647973332088E+002
-9.319525803027523E+001	-1.2078056E+000	-1.2074620E+000	1.2959948E+001	1.057647973281564E+002
-9.409406673394619E+001	-1.2098105E+000	-1.2094619E+000	1.2857458E+001	1.059647973231040E+002
-9.486978819689210E+001	-1.2117682E+000	-1.2114617E+000	1.2772962E+001	1.061647973180516E+002
-9.593939501520163E+001	-1.2138659E+000	-1.2134616E+000	1.2652424E+001	1.063647973129991E+002
-9.664811033294319E+001	-1.2158163E+000	-1.2154616E+000	1.2579824E+001	1.065647973079467E+002
-9.730631613190781E+001	-1.2178316E+000	-1.2174615E+000	1.2515443E+001	1.067647973028943E+002
-9.808132719452965E+001	-1.2197883E+000	-1.2194614E+000	1.2436499E+001	1.069647972978419E+002
-9.920241304860429E+001	-1.2217994E+000	-1.2214614E+000	1.2316226E+001	1.071647972927894E+002
-1.010539336009904E+002	-1.2238129E+000	-1.2234612E+000	1.2110493E+001	1.073647972877370E+002
-1.016893726119652E+002	-1.2258040E+000	-1.2254611E+000	1.2054396E+001	1.075647972826846E+002
-1.023277106068847E+002	-1.2278373E+000	-1.2274610E+000	1.1999069E+001	1.077647972776322E+002
-1.031639751479738E+002	-1.2298329E+000	-1.2294610E+000	1.1921146E+001	1.079647972725797E+002
-1.040663036186411E+002	-1.2318583E+000	-1.2314608E+000	1.1837244E+001	1.081647972675273E+002
-1.051496620482062E+002	-1.2338930E+000	-1.2334610E+000	1.1734636E+001	1.083647972624749E+002
-1.061617469200110E+002	-1.2358589E+000	-1.2354606E+000	1.1641283E+001	1.085645972574275E+002
-1.071448289510071E+002	-1.2378614E+000	-1.2374605E+000	1.1553161E+001	1.087645972523751E+002
-1.085082371813373E+002	-1.2398726E+000	-1.2394603E+000	1.1426530E+001	1.089645972473227E+002
-1.091135378965168E+002	-1.2418741E+000	-1.2414603E+000	1.1381485E+001	1.091645972422702E+002
-1.097892067422667E+002	-1.2439930E+000	-1.2435601E+000	1.1330741E+001	1.093745972369652E+002
-1.108023820626219E+002	-1.2460191E+000	-1.2456601E+000	1.1245419E+001	1.095845972316602E+002
-1.114295455020033E+002	-1.2480280E+000	-1.2476599E+000	1.1200153E+001	1.097845972266077E+002
-1.124716653034536E+002	-1.2500844E+000	-1.2496599E+000	1.1114660E+001	1.099845972215553E+002
-1.135235991110339E+002	-1.2520527E+000	-1.2516599E+000	1.1029008E+001	1.101845972165029E+002
-1.142505961837679E+002	-1.2540591E+000	-1.2536597E+000	1.0976390E+001	1.103845972114505E+002
-1.150247663294646E+002	-1.2560159E+000	-1.2556596E+000	1.0919526E+001	1.105845972063980E+002
-1.157063858092774E+002	-1.2580560E+000	-1.2576596E+000	1.0872831E+001	1.107845972013456E+002
-1.165265238171528E+002	-1.2600513E+000	-1.2596594E+000	1.0813429E+001	1.109845971962932E+002
-1.175494122526816E+002	-1.2620360E+000	-1.2616594E+000	1.0736217E+001	1.111845971912408E+002
-1.190321066471458E+002	-1.2640768E+000	-1.2636592E+000	1.0619629E+001	1.113845971861883E+002
-1.198588596644586E+002	-1.2660507E+000	-1.2656591E+000	1.0562846E+001	1.115845971811359E+002
-1.207485225638566E+002	-1.2680669E+000	-1.2676591E+000	1.0501718E+001	1.117845971760835E+002
-1.218536761623389E+002	-1.2700677E+000	-1.2696589E+000	1.0422892E+001	1.119845971710311E+002
-1.227049364492191E+002	-1.2720593E+000	-1.2716588E+000	1.0366815E+001	1.121845971659786E+002
-1.242461506374002E+002	-1.2740430E+000	-1.2736585E+000	1.0254185E+001	1.123844971609287E+002
-1.254025250294624E+002	-1.2760597E+000	-1.2756594E+000	1.0175710E+001	1.125844971558763E+002
-1.260468944940978E+002	-1.2780371E+000	-1.2776585E+000	1.0139378E+001	1.127843971508264E+002
-1.267056628246696E+002	-1.2800732E+000	-1.2796583E+000	1.0102731E+001	1.129843971457740E+002
-1.273848518946816E+002	-1.2820697E+000	-1.2816583E+000	1.0064538E+001	1.131843971407216E+002
-1.283463934143654E+002	-1.2840859E+000	-1.2836581E+000	1.0004846E+001	1.133843971356691E+002
-1.291393282375642E+002	-1.2860279E+000	-1.2856581E+000	9.9584532E+000	1.135843971306167E+002
-1.308596636616451E+002	-1.2880830E+000	-1.2876581E+000	9.8432388E+000	1.137843971255643E+002
-1.322459753246262E+002	-1.2900548E+000	-1.2896578E+000	9.7549648E+000	1.139843971205119E+002
-1.328572036457704E+002	-1.2920339E+000	-1.2916578E+000	9.7249823E+000	1.141843971154594E+002
-1.336447581671805E+002	-1.2940687E+000	-1.2936577E+000	9.6828985E+000	1.143843971104070E+002
-1.343928487230587E+002	-1.2960119E+000	-1.2956576E+000	9.6434593E+000	1.145843971053546E+002
-1.348105644271491E+002	-1.2980620E+000	-1.2976575E+000	9.6287851E+000	1.147843971003022E+002
-1.360266305627206E+002	-1.3000494E+000	-1.2996573E+000	9.5573158E+000	1.149843970952497E+002
-1.366748324348814E+002	-1.3020220E+000	-1.3016572E+000	9.5264206E+000	1.151843970901973E+002
-1.378128934544495E+002	-1.3040320E+000	-1.3036572E+000	9.4623365E+000	1.153843970851449E+002
-1.394657998247217E+002	-1.3060316E+000	-1.3056571E+000	9.3645296E+000	1.155843970800925E+002
-1.400589300877929E+002	-1.3080558E+000	-1.3076570E+000	9.3393240E+000	1.157843970750400E+002
-1.405160634717704E+002	-1.3100520E+000	-1.3096569E+000	9.3231478E+000	1.159843970699876E+002
-1.419698645933414E+002	-1.3120264E+000	-1.3116568E+000	9.2415838E+000	1.161843970649352E+002
-1.435002389738975E+002	-1.3140378E+000	-1.3136563E+000	9.1570425E+000	1.163842970598853E+002
-1.441854380566513E+002	-1.3160605E+000	-1.3156565E+000	9.1275549E+000	1.165841970548354E+002
-1.453167923605097E+002	-1.3180522E+000	-1.3176565E+000	9.0701990E+000	1.167841970497830E+002
-1.461998326827061E+002	-1.3200136E+000	-1.3196564E+000	9.0288315E+000	1.169841970447305E+002
-1.470740470161782E+002	-1.3220251E+000	-1.3216563E+000	8.9888401E+000	1.171841970396781E+002
-1.487651974673712E+002	-1.3240893E+000	-1.3236562E+000	8.9005308E+000	1.173841970346257E+002
-1.493216284872999E+002	-1.3260614E+000	-1.3256561E+000	8.8805714E+000	1.175841970295733E+002
-1.502079792076765E+002	-1.3280736E+000	-1.3276560E+000	8.8415651E+000	1.177841970245208E+002
-1.507649282976613E+002	-1.3300481E+000	-1.3296559E+000	8.8219995E+000	1.179841970194684E+002
-1.517300430630888E+002	-1.3320594E+000	-1.3316559E+000	8.7791405E+000	1.181841970144160E+002
-1.525686304844962E+002	-1.3340930E+000	-1.3336557E+000	8.7442150E+000	1.183841970093636E+002
-1.534266629878621E+002	-1.3360672E+000	-1.3356556E+000	8.7081814E+000	1.185841970043111E+002
-1.541812723975063E+002	-1.3381041E+000	-1.3376554E+000	8.6787720E+000	1.187841969992587E+002
-1.551555778174716E+002	-1.3400748E+000	-1.3396554E+000	8.6369743E+000	1.189841969942063E+002
-1.557701707351237E+002	-1.3420577E+000	-1.3416553E+000	8.6156273E+000	1.191841969891539E+002
-1.566591753775838E+002	-1.3440669E+000	-1.3436552E+000	8.5795603E+000	1.193841969841014E+002
-1.576394973644598E+002	-1.3460639E+000	-1.3456551E+000	8.5388746E+000	1.195841969790490E+002
-1.584338037627078E+002	-1.3480824E+000	-1.3476551E+000	8.5088053E+000	1.197841969739966E+002
-1.593864409928958E+002	-1.3500645E+000	-1.3496549E+000	8.4703846E+000	1.199841969689442E+002
-1.613986349300470E+002	-1.3520826E+000	-1.3516548E+000	8.3772869E+000	1.201841969638917E+002
-1.636094185093916E+002	-1.3540664E+000	-1.3536547E+000	8.2762127E+000	1.203840969588418E+002
-1.648661348587938E+002	-1.3560574E+000	-1.3556556E+000	8.2252026E+000	1.205840969537894E+002
-1.657846067335599E+002	-1.3580797E+000	-1.3576545E+000	8.1918325E+000	1.207839969487395E+002
-1.666273612327318E+002	-1.3600699E+000	-1.3596544E+000	8.1623440E+000	1.209839969436871E+002
-1.677524730234728E+002	-1.3620430E+000	-1.3616543E+000	8.1193619E+000	1.211839969386347E+002
-1.692460747424707E+002	-1.3640525E+000	-1.3636543E+000	8.0595818E+000	1.213839969335822E+002
-1.694465334009957E+002	-1.3660710E+000	-1.3656540E+000	8.0619593E+000	1.215839969285298E+002
-1.702738621856622E+002	-1.3680859E+000	-1.3676541E+000	8.0346203E+000	1.217839969234774E+002
-1.714911394400397E+002	-1.3700742E+000	-1.3696539E+000	7.9891834E+000	1.219839969184250E+002
-1.724859005653390E+002	-1.3720905E+000	-1.3716538E+000	7.9547977E+000	1.221839969133725E+002
-1.731423947697597E+002	-1.3740727E+000	-1.3736537E+000	7.9360843E+000	1.223839969083201E+002
-1.740763743761718E+002	-1.3760587E+000	-1.3756536E+000	7.9049134E+000	1.225839969032677E+002
-1.749045518855660E+002	-1.3780625E+000	-1.3776535E+000	7.8789401E+000	1.227839968982153E+002
-1.760594504760775E+002	-1.3800579E+000	-1.3796535E+000	7.8385906E+000	1.229839968931628E+002
-1.769344486422553E+002	-1.3820902E+000	-1.3816533E+000	7.8113122E+000	1.231839968881104E+002
-1.773367768544996E+002	-1.3840928E+000	-1.3836533E+000	7.8048830E+000	1.233839968830580E+002
-1.793375911647777E+002	-1.3860515E+000	-1.3856530E+000	7.7287283E+000	1.235839968780056E+002
-1.801846950665083E+002	-1.3880764E+000	-1.3876530E+000	7.7036309E+000	1.237839968729531E+002
-1.813851728374461E+002	-1.3900551E+000	-1.3896530E+000	7.6635542E+000	1.239839968679007E+002
-1.823863477306859E+002	-1.3920692E+000	-1.3916528E+000	7.6325297E+000	1.241839968628483E+002
-1.833317026032973E+002	-1.3940800E+000	-1.3936527E+000	7.6041408E+000	1.243838968577984E+002
-1.858734227232389E+002	-1.3960788E+000	-1.3956527E+000	7.5109115E+000	1.245837968527485E+002
-1.871958053063372E+002	-1.3980764E+000	-1.3976525E+000	7.4685245E+000	1.247837968476961E+002
-1.872674498255292E+002	-1.4000723E+000	-1.3996525E+000	7.4763250E+000	1.249837968426436E+002
-1.877314894875160E+002	-1.4020512E+000	-1.4016522E+000	7.4683857E+000	1.251837968375912E+002
-1.881906983122535E+002	-1.4040481E+000	-1.4036523E+000	7.4607730E+000	1.253837968325388E+002
-1.892763485530063E+002	-1.4060767E+000	-1.4056522E+000	7.4286971E+000	1.255837968274864E+002
-1.905816161562259E+002	-1.4081308E+000	-1.4076520E+000	7.3885970E+000	1.257837968224339E+002
-1.921910575566110E+002	-1.4100755E+000	-1.4096518E+000	7.3368425E+000	1.259837968173815E+002
-1.929516484537357E+002	-1.4121275E+000	-1.4116518E+000	7.3185563E+000	1.261837968123291E+002
-1.941492397314828E+002	-1.4140939E+000	-1.4136516E+000	7.2835407E+000	1.263837968072767E+002
-1.954240624261283E+002	-1.4160881E+000	-1.4156517E+000	7.2462320E+000	1.265837968022242E+002
-1.961678536624868E+002	-1.4180924E+000	-1.4176515E+000	7.2289743E+000	1.267837967971718E+002
-1.970814310071687E+002	-1.4200777E+000	-1.4196515E+000	7.2055378E+000	1.269837967921194E+002
-1.983060724048660E+002	-1.4220881E+000	-1.4216512E+000	7.1711779E+000	1.271837967870670E+002
-1.997506470290982E+002	-1.4240973E+000	-1.4236512E+000	7.1293750E+000	1.273837967820145E+002
-2.009180994617700E+002	-1.4260830E+000	-1.4256510E+000	7.0978322E+000	1.275837967769621E+002
-2.023670357771197E+002	-1.4280975E+000	-1.4276510E+000	7.0569668E+000	1.277837967719097E+002
-2.033503456937497E+002	-1.4300417E+000	-1.4296510E+000	7.0324035E+000	1.279837967668573E+002
-2.048782578282553E+002	-1.4320996E+000	-1.4316500E+000	6.9900026E+000	1.281836967618074E+002
-2.049669951309221E+002	-1.4340851E+000	-1.4336509E+000	6.9966636E+000	1.283836967567549E+002
-2.053751739471682E+002	-1.4360811E+000	-1.4356507E+000	6.9924765E+000	1.285835967517050E+002
-2.068047274202463E+002	-1.4380966E+000	-1.4376504E+000	6.9538865E+000	1.287835967466526E+002
-2.084369103265194E+002	-1.4400786E+000	-1.4396505E+000	6.9089422E+000	1.289835967416002E+002
-2.095981665111731E+002	-1.4421021E+000	-1.4416504E+000	6.8803182E+000	1.291835967365478E+002
-2.100417478911727E+002	-1.4440434E+000	-1.4436502E+000	6.8750305E+000	1.293835967314953E+002
-2.109468711130746E+002	-1.4461100E+000	-1.4456500E+000	6.8553281E+000	1.295835967264429E+002
-2.121261597717703E+002	-1.4481617E+000	-1.4476501E+000	6.8268890E+000	1.297835967213905E+002
-2.138357094680370E+002	-1.4500886E+000	-1.4496498E+000	6.7813210E+000	1.299835967163381E+002
-2.143837958376953E+002	-1.4520860E+000	-1.4516499E+000	6.7733011E+000	1.301835967112856E+002
-2.148969002764784E+002	-1.4540553E+000	-1.4536496E+000	6.7662926E+000	1.303835967062332E+002
-2.151958367419074E+002	-1.4560887E+000	-1.4556495E+000	6.7663422E+000	1.305835967011808E+002
-2.157867501425371E+002	-1.4581000E+000	-1.4576495E+000	6.7571340E+000	1.307835966961284E+002
-2.177310556013836E+002	-1.4600981E+000	-1.4596494E+000	6.7059712E+000	1.309835966910759E+002
-2.185761203506358E+002	-1.4621128E+000	-1.4616492E+000	6.6892614E+000	1.311835966860235E+002
-2.194684230216226E+002	-1.4641056E+000	-1.4636492E+000	6.6711445E+000	1.313835966809711E+002
-2.201411713040056E+002	-1.4661500E+000	-1.4656490E+000	6.6600447E+000	1.315835966759187E+002
-2.207521291503554E+002	-1.4681110E+000	-1.4676491E+000	6.6504955E+000	1.317835966708662E+002
-2.226271484227950E+002	-1.4700563E+000	-1.4696490E+000	6.6032209E+000	1.319835966658138E+002
-2.239932629245741E+002	-1.4720963E+000	-1.4716487E+000	6.5720563E+000	1.321835966607614E+002
-2.250773127786958E+002	-1.4740988E+000	-1.4736491E+000	6.5492997E+000	1.323834966557115E+002
-2.267965756825033E+002	-1.4761137E+000	-1.4756485E+000	6.5085359E+000	1.325833966506616E+002
-2.276717758113828E+002	-1.4781170E+000	-1.4776485E+000	6.4923153E+000	1.327833966456092E+002
-2.287522221498211E+002	-1.4801351E+000	-1.4796485E+000	6.4704728E+000	1.329833966405567E+002
-2.299386144106074E+002	-1.4821340E+000	-1.4816482E+000	6.4457812E+000	1.331833966355043E+002
-2.324735573662653E+002	-1.4841335E+000	-1.4836482E+000	6.3840957E+000	1.333833966304519E+002
-2.328305043503811E+002	-1.4861107E+000	-1.4856480E+000	6.3828006E+000	1.335833966253995E+002
-2.334348677983362E+002	-1.4880922E+000	-1.4876481E+000	6.3747640E+000	1.337833966203470E+002
-2.352716131686084E+002	-1.4901202E+000	-1.4896479E+000	6.3336167E+000	1.339833966152946E+002
-2.350072783212813E+002	-1.4921424E+000	-1.4916477E+000	6.3493457E+000	1.341833966102422E+002
-2.361859075563580E+002	-1.4941167E+000	-1.4936477E+000	6.3260198E+000	1.343833966051898E+002
-2.365794242287975E+002	-1.4961042E+000	-1.4956475E+000	6.3238983E+000	1.345833966001373E+002
-2.369570667932894E+002	-1.4981037E+000	-1.4976474E+000	6.3222580E+000	1.347833965950849E+002
-2.374910072707271E+002	-1.5001299E+000	-1.4996474E+000	6.3165755E+000	1.349833965900325E+002
-2.380777661113784E+002	-1.5021254E+000	-1.5016472E+000	6.3093896E+000	1.351833965849801E+002
-2.390010929323926E+002	-1.5041245E+000	-1.5036472E+000	6.2933793E+000	1.353833965799276E+002
-2.424029437603599E+002	-1.5061040E+000	-1.5056472E+000	6.2132249E+000	1.355833965748752E+002
-2.431903513478037E+002	-1.5081050E+000	-1.5076469E+000	6.2013359E+000	1.357833965698228E+002
-2.436004142307102E+002	-1.5101519E+000	-1.5096469E+000	6.1992993E+000	1.359833965647704E+002
-2.442547285105238E+002	-1.5120887E+000	-1.5116459E+000	6.1906219E+000	1.361832965597205E+002
-2.464033561133688E+002	-1.5140892E+000	-1.5136468E+000	6.1447592E+000	1.363832965546681E+002
-2.477355025955349E+002	-1.5161322E+000	-1.5156466E+000	6.1199636E+000	1.365831965496182E+002
-2.484571068346367E+002	-1.5180951E+000	-1.5176464E+000	6.1100893E+000	1.367831965445657E+002
-2.485153974351431E+002	-1.5201222E+000	-1.5196464E+000	6.1168127E+000	1.369831965395133E+002
-2.487093676115111E+002	-1.5221239E+000	-1.5216463E+000	6.1200910E+000	1.371831965344609E+002
-2.503125385210892E+002	-1.5241297E+000	-1.5236462E+000	6.0889068E+000	1.373831965294085E+002
-2.510311690090466E+002	-1.5260936E+000	-1.5256461E+000	6.0792994E+000	1.375831965243560E+002
-2.516607091843127E+002	-1.5280755E+000	-1.5276459E+000	6.0719666E+000	1.377831965193036E+002
-2.532113212382167E+002	-1.5301310E+000	-1.5296459E+000	6.0429010E+000	1.379831965142512E+002
-2.534061331392145E+002	-1.5321367E+000	-1.5316458E+000	6.0461702E+000	1.381831965091988E+002
-2.543793860606324E+002	-1.5340801E+000	-1.5336457E+000	6.0306778E+000	1.383831965041463E+002
-2.581335959099306E+002	-1.5361263E+000	-1.5356456E+000	5.9508963E+000	1.385831964990939E+002
-2.583599347895233E+002	-1.5381049E+000	-1.5376455E+000	5.9533415E+000	1.387831964940415E+002
-2.597268362239903E+002	-1.5401211E+000	-1.5396454E+000	5.9297724E+000	1.389831964889891E+002
-2.623308089163297E+002	-1.5421352E+000	-1.5416453E+000	5.8785901E+000	1.391831964839366E+002
-2.633918797888725E+002	-1.5441248E+000	-1.5436451E+000	5.8624620E+000	1.393831964788842E+002
-2.640495979153375E+002	-1.5461067E+000	-1.5456451E+000	5.8553648E+000	1.395831964738318E+002
-2.637912367995923E+002	-1.5481229E+000	-1.5476449E+000	5.8687425E+000	1.397831964687794E+002
-2.636886577649451E+002	-1.5501927E+000	-1.5496449E+000	5.8788753E+000	1.399831964637269E+002
-2.655603587676060E+002	-1.5521411E+000	-1.5516448E+000	5.8447771E+000	1.401831964586745E+002
-2.667105448095385E+002	-1.5540754E+000	-1.5536455E+000	5.8268237E+000	1.403830964536246E+002
-2.679222661729832E+002	-1.5561451E+000	-1.5556446E+000	5.8081961E+000	1.405829964485747E+002
-2.695326007747872E+002	-1.5581285E+000	-1.5576445E+000	5.7808533E+000	1.407829964435223E+002
-2.691562284028450E+002	-1.5601218E+000	-1.5596445E+000	5.7963428E+000	1.409829964384699E+002
-2.720951911121801E+002	-1.5621511E+000	-1.5616443E+000	5.7411933E+000	1.411829964334174E+002
-2.730387903719527E+002	-1.5641166E+000	-1.5636442E+000	5.7285509E+000	1.413829964283650E+002
-2.732481891325006E+002	-1.5661505E+000	-1.5656441E+000	5.7316046E+000	1.415829964233126E+002
-2.736473010986579E+002	-1.5681107E+000	-1.5676440E+000	5.7304082E+000	1.417829964182602E+002
-2.749525127994764E+002	-1.5700886E+000	-1.5696440E+000	5.7103992E+000	1.419829964132077E+002
-2.751135907897615E+002	-1.5721501E+000	-1.5716438E+000	5.7145491E+000	1.421829964081553E+002
-2.774113135608136E+002	-1.5741727E+000	-1.5736437E+000	5.6745081E+000	1.423829964031029E+002
-2.795451643699416E+002	-1.5761895E+000	-1.5756438E+000	5.6384072E+000	1.425829963980505E+002
-2.800731128813713E+002	-1.5781215E+000	-1.5776435E+000	5.6346769E+000	1.427829963929980E+002
-2.803394419308966E+002	-1.5801457E+000	-1.5796434E+000	5.6365442E+000	1.429829963879456E+002
-2.830165942877602E+002	-1.5821311E+000	-1.5816433E+000	5.5902414E+000	1.431829963828932E+002
-2.842180765026549E+002	-1.5841405E+000	-1.5836432E+000	5.5736799E+000	1.433829963778408E+002
-2.844779124897896E+002	-1.5861517E+000	-1.5856432E+000	5.5756588E+000	1.435829963727883E+002
-2.855398532538718E+002	-1.5881288E+000	-1.5876430E+000	5.5618463E+000	1.437829963677359E+002
-2.868260738584713E+002	-1.5901575E+000	-1.5896429E+000	5.5439782E+000	1.439829963626835E+002
-2.879828549863932E+002	-1.5921096E+000	-1.5916424E+000	5.5284872E+000	1.441828963576336E+002
-2.879102794154293E+002	-1.5941310E+000	-1.5936434E+000	5.5369020E+000	1.443828963525812E+002
-2.881701313222075E+002	-1.5961138E+000	-1.5956427E+000	5.5387897E+000	1.445827963475313E+002
-2.889208960111444E+002	-1.5981078E+000	-1.5976425E+000	5.5312986E+000	1.447827963424788E+002
-2.908580924313077E+002	-1.6001251E+000	-1.5996424E+000	5.5013943E+000	1.449827963374264E+002
-2.923940990171191E+002	-1.6021585E+000	-1.6016424E+000	5.4794488E+000	1.451827963323740E+002
-2.922045573496214E+002	-1.6041497E+000	-1.6036422E+000	5.4898176E+000	1.453827963273216E+002
-2.931393825764562E+002	-1.6061317E+000	-1.6056422E+000	5.4790716E+000	1.455827963222691E+002
-2.930159304374461E+002	-1.6081393E+000	-1.6076421E+000	5.4882317E+000	1.457827963172167E+002
-2.932434462181841E+002	-1.6101716E+000	-1.6096419E+000	5.4909039E+000	1.459827963121643E+002
-2.969811951816750E+002	-1.6121074E+000	-1.6116416E+000	5.4283147E+000	1.461827963071119E+002
-2.975971323951835E+002	-1.6141608E+000	-1.6136417E+000	5.4239798E+000	1.463827963020594E+002
-2.985889039569433E+002	-1.6161958E+000	-1.6156416E+000	5.4127793E+000	1.465827962970070E+002
-3.017591910005422E+002	-1.6181667E+000	-1.6176416E+000	5.3624439E+000	1.467827962919546E+002
-3.022550586670163E+002	-1.6201556E+000	-1.6196414E+000	5.3602266E+000	1.469827962869022E+002
-3.037988370216353E+002	-1.6221665E+000	-1.6216414E+000	5.3396072E+000	1.471827962818497E+002
-3.054775984714348E+002	-1.6241552E+000	-1.6236413E+000	5.3167734E+000	1.473827962767973E+002
-3.062505507198863E+002	-1.6261522E+000	-1.6256411E+000	5.3098750E+000	1.475827962717449E+002
-3.073453096337855E+002	-1.6281687E+000	-1.6276408E+000	5.2975225E+000	1.477827962666925E+002
-3.069507165182201E+002	-1.6301576E+000	-1.6296409E+000	5.3108120E+000	1.479827962616400E+002
-3.083327322278653E+002	-1.6321640E+000	-1.6316410E+000	5.2935152E+000	1.481827962565876E+002
-3.093909640338570E+002	-1.6341170E+000	-1.6336415E+000	5.2817216E+000	1.483826962515377E+002
-3.111394978369703E+002	-1.6361172E+000	-1.6356406E+000	5.2584686E+000	1.485825962464878E+002
-3.121172862388116E+002	-1.6381685E+000	-1.6376406E+000	5.2485671E+000	1.487825962414354E+002
-3.131697646657899E+002	-1.6402395E+000	-1.6396405E+000	5.2375412E+000	1.489825962363830E+002
-3.159371101310198E+002	-1.6421846E+000	-1.6416402E+000	5.1978211E+000	1.491825962313305E+002
-3.166640057206960E+002	-1.6441858E+000	-1.6436402E+000	5.1922092E+000	1.493825962262781E+002
-3.162212454283308E+002	-1.6462021E+000	-1.6456401E+000	5.2058554E+000	1.495825962212257E+002
-3.168996581641983E+002	-1.6481818E+000	-1.6476399E+000	5.2009578E+000	1.497825962161733E+002
-3.185887195171958E+002	-1.6501744E+000	-1.6496400E+000	5.1796384E+000	1.499825962111208E+002
-3.181415667155425E+002	-1.6521479E+000	-1.6516398E+000	5.1931219E+000	1.501825962060684E+002
-3.219700568538674E+002	-1.6541721E+000	-1.6536398E+000	5.1376581E+000	1.503825962010160E+002
-3.236355275113018E+002	-1.6561859E+000	-1.6556396E+000	5.1174417E+000	1.505825961959636E+002
-3.232473215505379E+002	-1.6581987E+000	-1.6576396E+000	5.1298141E+000	1.507825961909111E+002
-3.242145972716830E+002	-1.6601831E+000	-1.6596394E+000	5.1206303E+000	1.509825961858587E+002
-3.252326127547522E+002	-1.6621919E+000	-1.6616393E+000	5.1107788E+000	1.511825961808063E+002
-3.270613470185649E+002	-1.6641710E+000	-1.6636391E+000	5.0882535E+000	1.513825961757539E+002
-3.278961216435678E+002	-1.6661904E+000	-1.6656392E+000	5.0814581E+000	1.515825961707014E+002
-3.286293425203176E+002	-1.6682305E+000	-1.6676391E+000	5.0763288E+000	1.517825961656490E+002
-3.292420730698959E+002	-1.6702137E+000	-1.6696390E+000	5.0729046E+000	1.519825961605966E+002
-3.292395248694202E+002	-1.6722033E+000	-1.6716388E+000	5.0789871E+000	1.521825961555442E+002
-3.293917603036748E+002	-1.6742004E+000	-1.6736389E+000	5.0827026E+000	1.523825961504917E+002
-3.307596338405956E+002	-1.6762016E+000	-1.6756383E+000	5.0677333E+000	1.525823961454444E+002
-3.332838192245576E+002	-1.6782268E+000	-1.6776384E+000	5.0354285E+000	1.527823961403919E+002
-3.351816417516771E+002	-1.6802188E+000	-1.6796384E+000	5.0128603E+000	1.529823961353395E+002
-3.363882476434687E+002	-1.6821797E+000	-1.6816382E+000	5.0007091E+000	1.531823961302871E+002
-3.380882918904977E+002	-1.6842085E+000	-1.6836381E+000	4.9815640E+000	1.533823961252347E+002
-3.387564084146022E+002	-1.6862010E+000	-1.6856382E+000	4.9776211E+000	1.535823961201822E+002
-3.420997694755097E+002	-1.6881865E+000	-1.6876382E+000	4.9347782E+000	1.537823961151298E+002
-3.415486999909626E+002	-1.6901776E+000	-1.6896380E+000	4.9485698E+000	1.539823961100774E+002
-3.413541656373045E+002	-1.6921856E+000	-1.6916378E+000	4.9572725E+000	1.541823961050250E+002
-3.434602582697962E+002	-1.6941805E+000	-1.6936378E+000	4.9326825E+000	1.543823960999725E+002
-3.429926150380334E+002	-1.6961695E+000	-1.6956376E+000	4.9452071E+000	1.545823960949201E+002
-3.431248146952416E+002	-1.6981947E+000	-1.6976374E+000	4.9492040E+000	1.547823960898677E+002
-3.433958505729975E+002	-1.7001995E+000	-1.6996373E+000	4.9511356E+000	1.549823960848153E+002
-3.438091970538881E+002	-1.7021517E+000	-1.7016373E+000	4.9508615E+000	1.551823960797628E+002
-3.473927102726893E+002	-1.7041522E+000	-1.7036374E+000	4.9055495E+000	1.553823960747104E+002
-3.486959322369294E+002	-1.7061608E+000	-1.7056372E+000	4.8929758E+000	1.555823960696580E+002
-3.491961926613799E+002	-1.7081840E+000	-1.7076370E+000	4.8917599E+000	1.557823960646056E+002
-3.521304646424974E+002	-1.7101781E+000	-1.7096370E+000	4.8566604E+000	1.559823960595531E+002
-3.544271221701520E+002	-1.7121692E+000	-1.7116368E+000	4.8308072E+000	1.561823960545007E+002
-3.536774057442622E+002	-1.7141659E+000	-1.7136362E+000	4.8466935E+000	1.563822960494508E+002
-3.538358475291616E+002	-1.7161878E+000	-1.7156373E+000	4.8502374E+000	1.565822960443984E+002
-3.552802445656054E+002	-1.7181679E+000	-1.7176365E+000	4.8360920E+000	1.567821960393485E+002
-3.557730610192230E+002	-1.7202570E+000	-1.7196363E+000	4.8352652E+000	1.569821960342961E+002
-3.561772361612657E+002	-1.7222370E+000	-1.7216364E+000	4.8353372E+000	1.571821960292436E+002
-3.569976992899065E+002	-1.7241955E+000	-1.7236362E+000	4.8297105E+000	1.573821960241912E+002
-3.600844867321366E+002	-1.7262143E+000	-1.7256362E+000	4.7939148E+000	1.575821960191388E+002
-3.624155245367901E+002	-1.7282022E+000	-1.7276360E+000	4.7685657E+000	1.577821960140864E+002
-3.645464758948667E+002	-1.7302067E+000	-1.7296358E+000	4.7461896E+000	1.579821960090339E+002
-3.647005977695485E+002	-1.7322083E+000	-1.7316358E+000	4.7496719E+000	1.581821960039815E+002
-3.666544312500901E+002	-1.7341856E+000	-1.7336357E+000	4.7297549E+000	1.583821959989291E+002
-3.655321504891326E+002	-1.7362205E+000	-1.7356355E+000	4.7498436E+000	1.585821959938767E+002
-3.643933132111074E+002	-1.7382209E+000	-1.7376355E+000	4.7701778E+000	1.587821959888242E+002
-3.651616047255848E+002	-1.7401849E+000	-1.7396353E+000	4.7655201E+000	1.589821959837718E+002
-3.668834056032483E+002	-1.7421535E+000	-1.7416354E+000	4.7485209E+000	1.591821959787194E+002
-3.654549991689837E+002	-1.7442189E+000	-1.7436352E+000	4.7727323E+000	1.593821959736670E+002
-3.648870173430487E+002	-1.7462306E+000	-1.7456350E+000	4.7856746E+000	1.595821959686145E+002
-3.681359746158814E+002	-1.7482165E+000	-1.7476350E+000	4.7488337E+000	1.597821959635621E+002
-3.689341294273509E+002	-1.7501962E+000	-1.7496349E+000	4.7439260E+000	1.599821959585097E+002
-3.679707451861432E+002	-1.7521888E+000	-1.7516348E+000	4.7617612E+000	1.601821959534573E+002
-3.724102907096476E+002	-1.7542058E+000	-1.7536345E+000	4.7104115E+000	1.603820959484074E+002
-3.769824448064342E+002	-1.7562151E+000	-1.7556345E+000	4.6586123E+000	1.605819959433575E+002
-3.778196006956559E+002	-1.7581948E+000	-1.7576346E+000	4.6535301E+000	1.607819959383050E+002
-3.783073218404024E+002	-1.7602084E+000	-1.7596344E+000	4.6528530E+000	1.609819959332526E+002
-3.769155460409565E+002	-1.7622212E+000	-1.7616343E+000	4.6753740E+000	1.611819959282002E+002
-3.774805769931172E+002	-1.7642256E+000	-1.7636342E+000	4.6736856E+000	1.613819959231478E+002
-3.786795475434265E+002	-1.7661533E+000	-1.7656341E+000	4.6639786E+000	1.615819959180953E+002
-3.824247266570464E+002	-1.7681859E+000	-1.7676340E+000	4.6236181E+000	1.617819959130429E+002
-3.840194804846851E+002	-1.7702198E+000	-1.7696339E+000	4.6097136E+000	1.619819959079905E+002
-3.862062844473221E+002	-1.7721982E+000	-1.7716336E+000	4.5887346E+000	1.621819959029381E+002
-3.860112364481361E+002	-1.7741778E+000	-1.7736337E+000	4.5961819E+000	1.623819958978856E+002
-3.879151801457483E+002	-1.7762206E+000	-1.7756336E+000	4.5788889E+000	1.625819958928332E+002
-3.914174837406540E+002	-1.7782102E+000	-1.7776335E+000	4.5430012E+000	1.627819958877808E+002
-3.928713856673294E+002	-1.7802052E+000	-1.7796334E+000	4.5312672E+000	1.629819958827284E+002
-3.924452085386856E+002	-1.7821667E+000	-1.7816333E+000	4.5411859E+000	1.631819958776759E+002
-3.912110654761736E+002	-1.7842088E+000	-1.7836332E+000	4.5607319E+000	1.633819958726235E+002
-3.913085038429483E+002	-1.7862333E+000	-1.7856331E+000	4.5647697E+000	1.635819958675711E+002
-3.949530443334261E+002	-1.7882224E+000	-1.7876331E+000	4.5276837E+000	1.637819958625187E+002
-3.964156381667617E+002	-1.7902167E+000	-1.7896329E+000	4.5160093E+000	1.639819958574662E+002
-3.974970789561203E+002	-1.7922099E+000	-1.7916328E+000	4.5087371E+000	1.641819958524138E+002
-3.957387403899779E+002	-1.7941973E+000	-1.7936325E+000	4.5337925E+000	1.643818958473639E+002
-3.959327656556266E+002	-1.7961890E+000	-1.7956336E+000	4.5366011E+000	1.645818958423115E+002
-3.973053076802480E+002	-1.7982055E+000	-1.7976327E+000	4.5260043E+000	1.647817958372616E+002
-4.000694371264526E+002	-1.8001735E+000	-1.7996325E+000	4.4996529E+000	1.649817958322092E+002
-4.022209256836086E+002	-1.8022102E+000	-1.8016325E+000	4.4806476E+000	1.651817958271567E+002
-4.016432659728744E+002	-1.8042186E+000	-1.8036323E+000	4.4920921E+000	1.653817958221043E+002
-4.036421716521381E+002	-1.8062103E+000	-1.8056321E+000	4.4747810E+000	1.655817958170519E+002
-4.042940582396486E+002	-1.8081810E+000	-1.8076319E+000	4.4724402E+000	1.657817958119995E+002
-4.049066602140319E+002	-1.8102038E+000	-1.8096318E+000	4.4706693E+000	1.659817958069470E+002
-4.057876116131993E+002	-1.8122082E+000	-1.8116318E+000	4.4659033E+000	1.661817958018946E+002
-4.048528471447178E+002	-1.8141675E+000	-1.8136318E+000	4.4810543E+000	1.663817957968422E+002
-4.057128443426027E+002	-1.8161927E+000	-1.8156317E+000	4.4765472E+000	1.665817957917898E+002
-4.088152225390572E+002	-1.8181950E+000	-1.8176317E+000	4.4474740E+000	1.667817957867373E+002
-4.096774640115755E+002	-1.8202243E+000	-1.8196315E+000	4.4430666E+000	1.669817957816849E+002
-4.105627661767730E+002	-1.8221946E+000	-1.8216313E+000	4.4382849E+000	1.671817957766325E+002
-4.093744999373066E+002	-1.8242078E+000	-1.8236313E+000	4.4560857E+000	1.673817957715801E+002
-4.091463478287324E+002	-1.8261667E+000	-1.8256310E+000	4.4633584E+000	1.675817957665276E+002
-4.090392282793073E+002	-1.8282355E+000	-1.8276309E+000	4.4695849E+000	1.677817957614752E+002
-4.124432202942517E+002	-1.8302615E+000	-1.8296307E+000	4.4376082E+000	1.679817957564228E+002
-4.143689723890657E+002	-1.8322042E+000	-1.8316308E+000	4.4216733E+000	1.681817957513704E+002
-4.166625559893273E+002	-1.8342260E+000	-1.8336303E+000	4.4021859E+000	1.683816957463205E+002
-4.182871359784031E+002	-1.8362114E+000	-1.8356307E+000	4.3898349E+000	1.685815957412706E+002
-4.202475536069624E+002	-1.8382111E+000	-1.8376307E+000	4.3741150E+000	1.687815957362182E+002
-4.221669188951400E+002	-1.8402063E+000	-1.8396305E+000	4.3589544E+000	1.689815957311657E+002
-4.231344286514245E+002	-1.8422226E+000	-1.8416303E+000	4.3537526E+000	1.691815957261133E+002
-4.267566225609805E+002	-1.8442217E+000	-1.8436301E+000	4.3214836E+000	1.693815957210609E+002
-4.283873792505583E+002	-1.8462502E+000	-1.8456300E+000	4.3097677E+000	1.695815957160085E+002
-4.302331002553306E+002	-1.8482412E+000	-1.8476300E+000	4.2959065E+000	1.697815957109560E+002
-4.292186300403141E+002	-1.8502343E+000	-1.8496300E+000	4.3107038E+000	1.699815957059036E+002
-4.289347434357460E+002	-1.8522178E+000	-1.8516299E+000	4.3181810E+000	1.701815957008512E+002
-4.290393685797173E+002	-1.8542613E+000	-1.8536297E+000	4.3218908E+000	1.703815956957988E+002
-4.291994402705959E+002	-1.8562500E+000	-1.8556297E+000	4.3249125E+000	1.705815956907463E+002
-4.292456891931370E+002	-1.8582106E+000	-1.8576295E+000	4.3290138E+000	1.707815956856939E+002
-4.304369367871986E+002	-1.8602436E+000	-1.8596295E+000	4.3217564E+000	1.709815956806415E+002
-4.288739478485386E+002	-1.8622589E+000	-1.8616292E+000	4.3422055E+000	1.711815956755891E+002
-4.336243866382008E+002	-1.8642434E+000	-1.8636291E+000	4.2992125E+000	1.713815956705366E+002
-4.394172806296501E+002	-1.8661996E+000	-1.8656290E+000	4.2469873E+000	1.715815956654842E+002
-4.378996029505638E+002	-1.8682860E+000	-1.8676291E+000	4.2664709E+000	1.717815956604318E+002
-4.389424416332292E+002	-1.8702654E+000	-1.8696290E+000	4.2608442E+000	1.719815956553794E+002
-4.385805551524581E+002	-1.8722538E+000	-1.8716289E+000	4.2688937E+000	1.721815956503269E+002
-4.391362199223549E+002	-1.8742828E+000	-1.8736287E+000	4.2681127E+000	1.723814956452770E+002
-4.402446425360940E+002	-1.8762535E+000	-1.8756295E+000	4.2618427E+000	1.725814956402246E+002
-4.402682481969040E+002	-1.8782450E+000	-1.8776284E+000	4.2661376E+000	1.727813956351747E+002
-4.427897784390952E+002	-1.8802633E+000	-1.8796283E+000	4.2464018E+000	1.729813956301223E+002
-4.451584377678100E+002	-1.8822680E+000	-1.8816283E+000	4.2283101E+000	1.731813956250699E+002
-4.492146316536968E+002	-1.8842371E+000	-1.8836281E+000	4.1945138E+000	1.733813956200174E+002
-4.472396430666522E+002	-1.8862194E+000	-1.8856282E+000	4.2174692E+000	1.735813956149650E+002
-4.481872395452701E+002	-1.8882458E+000	-1.8876281E+000	4.2130737E+000	1.737813956099126E+002
-4.517089117746509E+002	-1.8902401E+000	-1.8896279E+000	4.1846418E+000	1.739813956048602E+002
-4.525040819466526E+002	-1.8922095E+000	-1.8916279E+000	4.1816406E+000	1.741813955998077E+002
-4.542004702475066E+002	-1.8942881E+000	-1.8936278E+000	4.1705990E+000	1.743813955947553E+002
-4.537781696968336E+002	-1.8962826E+000	-1.8956277E+000	4.1788754E+000	1.745813955897029E+002
-4.536071285758162E+002	-1.8982632E+000	-1.8976275E+000	4.1848178E+000	1.747813955846505E+002
-4.548917782928388E+002	-1.9002535E+000	-1.8996273E+000	4.1773748E+000	1.749813955795980E+002
-4.552520984770758E+002	-1.9022342E+000	-1.9016272E+000	4.1784196E+000	1.751813955745456E+002
-4.569444314044067E+002	-1.9042548E+000	-1.9036273E+000	4.1673660E+000	1.753813955694932E+002
-4.588504061233978E+002	-1.9062281E+000	-1.9056270E+000	4.1543565E+000	1.755813955644408E+002
-4.618157443870505E+002	-1.9082192E+000	-1.9076271E+000	4.1319923E+000	1.757813955593883E+002
-4.629962831916723E+002	-1.9102352E+000	-1.9096270E+000	4.1258111E+000	1.759813955543359E+002
-4.625989326165650E+002	-1.9122587E+000	-1.9116269E+000	4.1337295E+000	1.761813955492835E+002
-4.670868701739319E+002	-1.9142991E+000	-1.9136270E+000	4.0983791E+000	1.763812955442336E+002
-4.681615977427869E+002	-1.9162571E+000	-1.9156265E+000	4.0931530E+000	1.765811955391837E+002
-4.688201261766919E+002	-1.9182662E+000	-1.9176265E+000	4.0916891E+000	1.767811955341313E+002
-4.691003503475058E+002	-1.9202479E+000	-1.9196264E+000	4.0934691E+000	1.769811955290788E+002
-4.685423101438155E+002	-1.9222503E+000	-1.9216262E+000	4.1026182E+000	1.771811955240264E+002
-4.706727093979907E+002	-1.9242899E+000	-1.9236262E+000	4.0883822E+000	1.773811955189740E+002
-4.696601732604368E+002	-1.9262424E+000	-1.9256262E+000	4.1013532E+000	1.775811955139216E+002
-4.684095347441216E+002	-1.9282533E+000	-1.9276261E+000	4.1165972E+000	1.777811955088691E+002
-4.755756075982326E+002	-1.9302553E+000	-1.9296260E+000	4.0587769E+000	1.779811955038167E+002
-4.780785018073193E+002	-1.9323026E+000	-1.9316257E+000	4.0418100E+000	1.781811954987643E+002
-4.775363887951225E+002	-1.9342992E+000	-1.9336257E+000	4.0505795E+000	1.783811954937119E+002
-4.780362521796540E+002	-1.9362410E+000	-1.9356256E+000	4.0504065E+000	1.785811954886594E+002
-4.784372154330995E+002	-1.9382836E+000	-1.9376253E+000	4.0512810E+000	1.787811954836070E+002
-4.770696572846573E+002	-1.9402755E+000	-1.9396255E+000	4.0670695E+000	1.789811954785546E+002
-4.768999439464405E+002	-1.9422834E+000	-1.9416252E+000	4.0727272E+000	1.791811954735022E+002
-4.780562540517094E+002	-1.9442464E+000	-1.9436253E+000	4.0669823E+000	1.793811954684497E+002
-4.786754918087609E+002	-1.9462838E+000	-1.9456251E+000	4.0659776E+000	1.795811954633973E+002
-4.805083117322865E+002	-1.9482821E+000	-1.9476252E+000	4.0546274E+000	1.797811954583449E+002
-4.802025909553577E+002	-1.9502746E+000	-1.9496249E+000	4.0613580E+000	1.799811954532925E+002
-4.787897157777188E+002	-1.9522254E+000	-1.9516248E+000	4.0774174E+000	1.801811954482400E+002
-4.813379094222264E+002	-1.9542903E+000	-1.9536250E+000	4.0601211E+000	1.803810954431901E+002
-4.826414208141853E+002	-1.9562548E+000	-1.9556246E+000	4.0532260E+000	1.805809954381402E+002
-4.839376397078831E+002	-1.9582886E+000	-1.9576244E+000	4.0465722E+000	1.807809954330878E+002
-4.873531902166178E+002	-1.9602560E+000	-1.9596244E+000	4.0222492E+000	1.809809954280354E+002
-4.859458088517995E+002	-1.9622676E+000	-1.9616245E+000	4.0380378E+000	1.811809954229830E+002
-4.919396495689343E+002	-1.9642817E+000	-1.9636244E+000	3.9929323E+000	1.813809954179305E+002
-4.976272712975660E+002	-1.9662684E+000	-1.9656242E+000	3.9512875E+000	1.815809954128781E+002
-4.974807920045050E+002	-1.9682901E+000	-1.9676239E+000	3.9565148E+000	1.817809954078257E+002
-4.974581391643778E+002	-1.9702325E+000	-1.9696239E+000	3.9605997E+000	1.819809954027733E+002
-4.981679583525729E+002	-1.9722577E+000	-1.9716238E+000	3.9590216E+000	1.821809953977208E+002
-4.982532399884699E+002	-1.9743022E+000	-1.9736235E+000	3.9624472E+000	1.823809953926684E+002
-4.976241387174769E+002	-1.9762547E+000	-1.9756236E+000	3.9713802E+000	1.825809953876160E+002
-4.987835270455626E+002	-1.9782467E+000	-1.9776235E+000	3.9661429E+000	1.827809953825636E+002
-4.976874539987293E+002	-1.9802696E+000	-1.9796236E+000	3.9789422E+000	1.829809953775111E+002
-5.003610039362829E+002	-1.9822568E+000	-1.9816233E+000	3.9616532E+000	1.831809953724587E+002
-5.066459956439436E+002	-1.9842739E+000	-1.9836234E+000	3.9164898E+000	1.833809953674063E+002
-5.056966152666910E+002	-1.9862943E+000	-1.9856231E+000	3.9278378E+000	1.835809953623539E+002
-5.036939387548534E+002	-1.9882725E+000	-1.9876230E+000	3.9473822E+000	1.837809953573014E+002
-5.046828096480604E+002	-1.9902810E+000	-1.9896227E+000	3.9436274E+000	1.839809953522490E+002
-5.042371480816337E+002	-1.9922777E+000	-1.9916227E+000	3.9510729E+000	1.841809953471966E+002
-5.030444443549477E+002	-1.9942737E+000	-1.9936230E+000	3.9644084E+000	1.843808953421467E+002
-5.056043506544447E+002	-1.9962480E+000	-1.9956226E+000	3.9482415E+000	1.845807953370968E+002
-5.115433664170523E+002	-1.9982642E+000	-1.9976227E+000	3.9063437E+000	1.847807953320444E+002
-5.111860989940421E+002	-2.0002804E+000	-1.9996226E+000	3.9130180E+000	1.849807953269919E+002
-5.136378013498379E+002	-2.0022466E+000	-2.0016224E+000	3.8981683E+000	1.851807953219395E+002
-5.153250912906369E+002	-2.0042586E+000	-2.0036223E+000	3.8893092E+000	1.853807953168871E+002
-5.141559338818306E+002	-2.0062521E+000	-2.0056221E+000	3.9020302E+000	1.855807953118347E+002
-5.189343166610852E+002	-2.0082624E+000	-2.0076220E+000	3.8699741E+000	1.857807953067822E+002
-5.214177896279061E+002	-2.0102487E+000	-2.0096219E+000	3.8553512E+000	1.859807953017298E+002
-5.221138456002927E+002	-2.0122800E+000	-2.0116217E+000	3.8541019E+000	1.861807952966774E+002
-5.225374677575883E+002	-2.0142062E+000	-2.0136218E+000	3.8546636E+000	1.863807952916250E+002
-5.211996997175829E+002	-2.0162592E+000	-2.0156219E+000	3.8684964E+000	1.865807952865725E+002
-5.213260653229809E+002	-2.0182526E+000	-2.0176218E+000	3.8713825E+000	1.867807952815201E+002
-5.240039197830929E+002	-2.0202327E+000	-2.0196214E+000	3.8553770E+000	1.869807952764677E+002
-5.221360006137738E+002	-2.0222638E+000	-2.0216215E+000	3.8730595E+000	1.871807952714153E+002
-5.208415972521525E+002	-2.0242469E+000	-2.0236213E+000	3.8864925E+000	1.873807952663628E+002
-5.235024508348688E+002	-2.0262506E+000	-2.0256209E+000	3.8705657E+000	1.875807952613104E+002
-5.257840669679535E+002	-2.0282571E+000	-2.0276210E+000	3.8575857E+000	1.877807952562580E+002
-5.316651567608596E+002	-2.0302565E+000	-2.0296214E+000	3.8186750E+000	1.879807952512056E+002
-5.300795896008926E+002	-2.0322297E+000	-2.0316205E+000	3.8338199E+000	1.881806952461557E+002
-5.283484621943981E+002	-2.0342190E+000	-2.0336204E+000	3.8501465E+000	1.883805952411058E+002
-5.311106774466407E+002	-2.0362668E+000	-2.0356207E+000	3.8339782E+000	1.885805952360533E+002
-5.319109345433944E+002	-2.0382400E+000	-2.0376205E+000	3.8319197E+000	1.887805952310009E+002
-5.293036090695168E+002	-2.0402801E+000	-2.0396204E+000	3.8546498E+000	1.889805952259485E+002
-5.343412576316441E+002	-2.0422621E+000	-2.0416205E+000	3.8220184E+000	1.891805952208961E+002
-5.342788583015908E+002	-2.0442550E+000	-2.0436201E+000	3.8261948E+000	1.893805952158436E+002
-5.320761586489862E+002	-2.0462415E+000	-2.0456200E+000	3.8457682E+000	1.895805952107912E+002
-5.356411608741373E+002	-2.0482533E+000	-2.0476203E+000	3.8239281E+000	1.897805952057388E+002
-5.425089087799824E+002	-2.0502744E+000	-2.0496199E+000	3.7792456E+000	1.899805952006864E+002
-5.433182925875208E+002	-2.0523336E+000	-2.0516198E+000	3.7774057E+000	1.901805951956339E+002
-5.478510079632547E+002	-2.0543370E+000	-2.0536199E+000	3.7498097E+000	1.903805951905815E+002
-5.447229636791355E+002	-2.0563126E+000	-2.0556200E+000	3.7749696E+000	1.905805951855291E+002
-5.448920896664225E+002	-2.0582826E+000	-2.0576196E+000	3.7774134E+000	1.907805951804767E+002
-5.447838260884200E+002	-2.0602891E+000	-2.0596194E+000	3.7818472E+000	1.909805951754242E+002
-5.418264765966494E+002	-2.0622647E+000	-2.0616193E+000	3.8061349E+000	1.911805951703718E+002
-5.456016717897783E+002	-2.0642788E+000	-2.0636191E+000	3.7834907E+000	1.913805951653194E+002
-5.454912904579378E+002	-2.0663097E+000	-2.0656190E+000	3.7879794E+000	1.915805951602670E+002
-5.446852940756144E+002	-2.0682719E+000	-2.0676191E+000	3.7971869E+000	1.917805951552145E+002
-5.439442555319438E+002	-2.0702963E+000	-2.0696194E+000	3.8060818E+000	1.919805951501621E+002
-5.437426224448254E+002	-2.0722487E+000	-2.0716190E+000	3.8110838E+000	1.921804951451122E+002
-5.468720533797841E+002	-2.0742784E+000	-2.0736187E+000	3.7929866E+000	1.923803951400623E+002
-5.529594181346251E+002	-2.0762930E+000	-2.0756187E+000	3.7548740E+000	1.925803951350099E+002
-5.585150959464736E+002	-2.0782998E+000	-2.0776184E+000	3.7211165E+000	1.927803951299575E+002
-5.614691918950502E+002	-2.0802982E+000	-2.0796185E+000	3.7050977E+000	1.929803951249050E+002
-5.620417295529442E+002	-2.0822990E+000	-2.0816183E+000	3.7048833E+000	1.931803951198526E+002
-5.627675320069529E+002	-2.0842624E+000	-2.0836179E+000	3.7035940E+000	1.933803951148002E+002
-5.624309183756513E+002	-2.0854142E+000	-2.0847178E+000	3.7078583E+000	1.934727951124660E+002