EC-Lab ASCII FILE
Nb header lines : 61                          

Linear Sweep Voltammetry

Run on channel : 1 (SN 1340)
User : 
Electrode connection : standard
Potential control : Ewe
Ewe ctrl range : min = -5.00 V, max = 5.00 V
Ewe,I filtering : 50 kHz
Channel : Grounded
Acquisition started on : 11/23/2025 16:54:20.116
Technique started on : 11/23/2025 16:54:22.953
Loaded Setting File :  NONE
Saved on :
	File : PtPdCoNiCr_Test5_IR_02_LSV_C01.mpr
	Directory : C:\Users\volt\Documents\Platalytix\
	Host : 127.0.0.1
Device : SP-200 (SN 0262)
Address : USB
EC-LAB for windows v11.60 (software)
Internet server v11.60 (firmware)
Command interpretor v11.60 (firmware)
Electrode material : PtPdCoNiCr
Initial state : 
Electrolyte : KOH (1 M)
Comments : 
Cable : standard
Reference electrode : Hg/HgO (0.140 V)
Electrode surface area : 10.000 cm˛
Characteristic mass : 0.001 g
Equivalent Weight : 0.000 g/eq.
Density : 0.000 g/cm3
Volume (V) : 0.001 cmł
Cycle Definition : Charge/Discharge alternance
tR (h:m:s)          0:00:5.0000         
dER/dt (mV/h)       0.0                 
dER (mV)            0                   
dtR (s)             0.0000              
dE/dt               10.000              
dE/dt unit          mV/s                
Ei (V)              -0.200              
vs.                 Ref                 
EL (V)              -2.500              
vs.                 Ref                 
record              <I>                 
dI                  0.000               
unit dI             µA                  
tI (s)              0.0000              
step percent        50                  
N                   10                  
E range min (V)     -5.000              
E range max (V)     5.000               
I Range             Auto                
I Range min         Unset               
I Range max         Unset               
I Range init        Unset               
Bandwidth           8                   

<I>/mA	Ewe/V	control/V	Rwe/Ohm	time/s	
0.000000000000000E+000	-1.3152505E-001	0.0000000E+000	0.0000000E+000	2.837400134740165E+000
0.000000000000000E+000	-3.1657066E-002	-1.9984360E-001	0.0000000E+000	7.837200008434593E+000
-6.014841756267422E-002	-2.0096621E-001	-2.0114338E-001	3.3411721E+003	7.977200004897895E+000
-2.120998875592939E-001	-2.0215786E-001	-2.0234343E-001	9.5312573E+002	8.097200001866440E+000
-2.138070204145275E-001	-2.0426242E-001	-2.0444341E-001	9.5535883E+002	8.307199996561394E+000
-2.043683146001962E-001	-2.0625998E-001	-2.0644343E-001	1.0092562E+003	8.507199991508969E+000
-1.969193930879165E-001	-2.0827770E-001	-2.0844342E-001	1.0576801E+003	8.707199986456544E+000
-1.910996517576198E-001	-2.1026592E-001	-2.1044342E-001	1.1002947E+003	8.907199981404119E+000
-1.865662963334427E-001	-2.1227212E-001	-2.1244340E-001	1.1377838E+003	9.107199976351694E+000
-1.828575240429111E-001	-2.1428274E-001	-2.1444327E-001	1.1718563E+003	9.307199971299269E+000
-1.798276863622639E-001	-2.1627018E-001	-2.1644317E-001	1.2026523E+003	9.507199966246844E+000
-1.772804446961911E-001	-2.1827611E-001	-2.1844305E-001	1.2312476E+003	9.707199961194419E+000
-1.751371805002817E-001	-2.2026168E-001	-2.2044294E-001	1.2576523E+003	9.907199956141994E+000
-1.732871216846438E-001	-2.2227950E-001	-2.2244282E-001	1.2827238E+003	1.010719995108957E+001
-1.717050932411128E-001	-2.2426973E-001	-2.2444272E-001	1.3061333E+003	1.030719994603714E+001
-1.702983228757967E-001	-2.2628924E-001	-2.2644259E-001	1.3287814E+003	1.050719994098472E+001
-1.690368852345805E-001	-2.2826143E-001	-2.2844248E-001	1.3503646E+003	1.070719993593229E+001
-1.679128875613827E-001	-2.3027393E-001	-2.3044237E-001	1.3713893E+003	1.090719993087987E+001
-1.669595107592451E-001	-2.3227602E-001	-2.3244226E-001	1.3912117E+003	1.110719992582744E+001
-1.660367815381509E-001	-2.3428452E-001	-2.3444216E-001	1.4110399E+003	1.130719992077502E+001
-1.651929765696848E-001	-2.3627728E-001	-2.3644201E-001	1.4303107E+003	1.150719991572259E+001
-1.644136166451353E-001	-2.3828490E-001	-2.3844190E-001	1.4493015E+003	1.170719991067017E+001
-1.637292383048612E-001	-2.4028257E-001	-2.4044180E-001	1.4675605E+003	1.190719990561774E+001
-1.630606903964003E-001	-2.4227828E-001	-2.4244079E-001	1.4858165E+003	1.210709990056785E+001
-1.624821600622490E-001	-2.4426176E-001	-2.4444158E-001	1.5033143E+003	1.230699989551795E+001
-1.619086109963401E-001	-2.4627659E-001	-2.4644144E-001	1.5210840E+003	1.250699989046552E+001
-1.613336819553505E-001	-2.4827997E-001	-2.4844132E-001	1.5389221E+003	1.270699988541310E+001
-1.608446259273306E-001	-2.5028613E-001	-2.5044122E-001	1.5560740E+003	1.290699988036067E+001
-1.603622269508366E-001	-2.5227529E-001	-2.5244114E-001	1.5731591E+003	1.310699987530825E+001
-1.598647982747952E-001	-2.5426444E-001	-2.5444102E-001	1.5904967E+003	1.330699987025582E+001
-1.593960925995828E-001	-2.5626549E-001	-2.5644091E-001	1.6077275E+003	1.350699986520340E+001
-1.590310222851519E-001	-2.5826231E-001	-2.5844076E-001	1.6239744E+003	1.370699986015097E+001
-1.586057258497444E-001	-2.6024127E-001	-2.6044065E-001	1.6408063E+003	1.390699985509855E+001
-1.582131687881183E-001	-2.6225740E-001	-2.6244056E-001	1.6576205E+003	1.410699985004612E+001
-1.578091236238958E-001	-2.6424721E-001	-2.6444045E-001	1.6744736E+003	1.430699984499370E+001
-1.574485998330402E-001	-2.6622915E-001	-2.6644033E-001	1.6908956E+003	1.450699983994127E+001
-1.570631124664211E-001	-2.6824123E-001	-2.6844022E-001	1.7078563E+003	1.470699983488885E+001
-1.566712231335148E-001	-2.7024847E-001	-2.7044007E-001	1.7249401E+003	1.490699982983642E+001
-1.563239513015764E-001	-2.7223697E-001	-2.7243999E-001	1.7414924E+003	1.510699982478400E+001
-1.559693698724842E-001	-2.7425015E-001	-2.7443987E-001	1.7583590E+003	1.530699981973157E+001
-1.556960308550523E-001	-2.7624416E-001	-2.7643976E-001	1.7742531E+003	1.550699981467915E+001
-1.555420360557718E-001	-2.7824420E-001	-2.7844009E-001	1.7888682E+003	1.570689980962925E+001
-1.551925700449307E-001	-2.8025052E-001	-2.8043950E-001	1.8058243E+003	1.590679980457935E+001
-1.548772448760429E-001	-2.8224647E-001	-2.8243941E-001	1.8223883E+003	1.610679979952693E+001
-1.545552711663531E-001	-2.8424689E-001	-2.8443930E-001	1.8391278E+003	1.630679979447450E+001
-1.542104190276706E-001	-2.8625727E-001	-2.8643918E-001	1.8562771E+003	1.650679978942208E+001
-1.538717407709966E-001	-2.8824434E-001	-2.8843907E-001	1.8732766E+003	1.670679978436965E+001
-1.535190055463589E-001	-2.9025787E-001	-2.9043892E-001	1.8906967E+003	1.690679977931723E+001
-1.531867356168402E-001	-2.9223749E-001	-2.9243883E-001	1.9077206E+003	1.710679977426480E+001
-1.528563454563474E-001	-2.9424700E-001	-2.9443872E-001	1.9249905E+003	1.730679976921238E+001
-1.525178409420172E-001	-2.9624659E-001	-2.9643860E-001	1.9423733E+003	1.750679976415995E+001
-1.521252346132163E-001	-2.9822791E-001	-2.9843849E-001	1.9604105E+003	1.770679975910753E+001
-1.517931814569466E-001	-3.0025843E-001	-3.0043834E-001	1.9780758E+003	1.790679975405510E+001
-1.514495481270242E-001	-3.0224162E-001	-3.0243826E-001	1.9956588E+003	1.810679974900268E+001
-1.511505046202601E-001	-3.0425882E-001	-3.0443814E-001	2.0129528E+003	1.830679974395025E+001
-1.508079605111576E-001	-3.0624315E-001	-3.0643803E-001	2.0306830E+003	1.850679973889783E+001
-1.504833697354051E-001	-3.0825287E-001	-3.0843791E-001	2.0484182E+003	1.870679973384540E+001
-1.501082644434630E-001	-3.1026134E-001	-3.1043777E-001	2.0669170E+003	1.890679972879298E+001
-1.497233322643243E-001	-3.1224501E-001	-3.1243747E-001	2.0854800E+003	1.910669972374308E+001
-1.493253899081406E-001	-3.1424332E-001	-3.1443757E-001	2.1044199E+003	1.930659971869318E+001
-1.489241259761755E-001	-3.1624776E-001	-3.1643745E-001	2.1235496E+003	1.950659971364075E+001
-1.485341611104993E-001	-3.1825152E-001	-3.1843734E-001	2.1426150E+003	1.970659970858833E+001
-1.484794910403724E-001	-3.2024494E-001	-3.2043722E-001	2.1568293E+003	1.990659970353590E+001
-1.482816917764739E-001	-3.2224113E-001	-3.2243711E-001	2.1731687E+003	2.010659969848348E+001
-1.479504658479471E-001	-3.2425126E-001	-3.2443699E-001	2.1916204E+003	2.030659969343105E+001
-1.474108896059851E-001	-3.2624936E-001	-3.2643688E-001	2.2131973E+003	2.050659968837863E+001
-1.469399929817454E-001	-3.2827547E-001	-3.2843676E-001	2.2340784E+003	2.070659968332620E+001
-1.464974103789016E-001	-3.3025739E-001	-3.3043665E-001	2.2543564E+003	2.090659967827378E+001
-1.460570875595402E-001	-3.3225420E-001	-3.3243653E-001	2.2748242E+003	2.110659967322135E+001
-1.456322860017067E-001	-3.3427137E-001	-3.3443642E-001	2.2953108E+003	2.130659966816893E+001
-1.451633968306050E-001	-3.3626392E-001	-3.3643630E-001	2.3164512E+003	2.150659966311650E+001
-1.446683086822327E-001	-3.3828366E-001	-3.3843619E-001	2.3383398E+003	2.170659965806408E+001
-1.442129800873313E-001	-3.4026903E-001	-3.4043607E-001	2.3594895E+003	2.190659965301165E+001
-1.437005542214459E-001	-3.4225649E-001	-3.4243596E-001	2.3817339E+003	2.210659964795923E+001
-1.431986695987567E-001	-3.4425855E-001	-3.4443584E-001	2.4040625E+003	2.230659964290680E+001
-1.426671484541471E-001	-3.4626743E-001	-3.4643483E-001	2.4270999E+003	2.250649963785690E+001
-1.421874862157919E-001	-3.4827298E-001	-3.4843561E-001	2.4493926E+003	2.270639963280701E+001
-1.416866743320473E-001	-3.5027128E-001	-3.5043553E-001	2.4721541E+003	2.290639962775458E+001
-1.412088168392174E-001	-3.5226169E-001	-3.5243538E-001	2.4946155E+003	2.310639962270216E+001
-1.407269433345610E-001	-3.5427299E-001	-3.5443529E-001	2.5174497E+003	2.330639961764973E+001
-1.402974388036293E-001	-3.5627294E-001	-3.5643515E-001	2.5394116E+003	2.350639961259731E+001
-1.398063112533907E-001	-3.5826150E-001	-3.5843503E-001	2.5625559E+003	2.370639960754488E+001
-1.393136967991453E-001	-3.6026910E-001	-3.6043495E-001	2.5860278E+003	2.390639960249246E+001
-1.388255073424943E-001	-3.6225930E-001	-3.6243480E-001	2.6094578E+003	2.410639959744003E+001
-1.382740874956367E-001	-3.6424446E-001	-3.6443472E-001	2.6342207E+003	2.430639959238761E+001
-1.377413430728457E-001	-3.6625928E-001	-3.6643457E-001	2.6590366E+003	2.450639958733518E+001
-1.371704885374969E-001	-3.6823997E-001	-3.6843446E-001	2.6845422E+003	2.470639958228276E+001
-1.366255238130609E-001	-3.7023488E-001	-3.7043437E-001	2.7098516E+003	2.490639957723033E+001
-1.362770783805759E-001	-3.7224910E-001	-3.7243423E-001	2.7315605E+003	2.510639957217791E+001
-1.358307449732087E-001	-3.7425628E-001	-3.7443414E-001	2.7553135E+003	2.530639956712548E+001
-1.352221679687918E-001	-3.7623569E-001	-3.7643400E-001	2.7823523E+003	2.550639956207306E+001
-1.345558604510612E-001	-3.7823418E-001	-3.7843388E-001	2.8109827E+003	2.570639955702063E+001
-1.338764530418612E-001	-3.8024202E-001	-3.8043380E-001	2.8402456E+003	2.590639955196821E+001
-1.332107029135751E-001	-3.8225770E-001	-3.8243413E-001	2.8695720E+003	2.610629954691831E+001
-1.326215098212877E-001	-3.8424093E-001	-3.8443357E-001	2.8972747E+003	2.630619954186841E+001
-1.319798864118016E-001	-3.8625664E-001	-3.8643342E-001	2.9266326E+003	2.650619953681598E+001
-1.313111739552024E-001	-3.8826913E-001	-3.8843331E-001	2.9568628E+003	2.670619953176356E+001
-1.306456961709155E-001	-3.9024916E-001	-3.9043322E-001	2.9870801E+003	2.690619952671113E+001
-1.299915277259736E-001	-3.9225766E-001	-3.9243308E-001	3.0175632E+003	2.710619952165871E+001
-1.292999106355841E-001	-3.9425740E-001	-3.9443293E-001	3.0491699E+003	2.730619951660628E+001
-1.286475556245810E-001	-3.9624235E-001	-3.9643288E-001	3.0800613E+003	2.750619951155386E+001
-1.279644861399221E-001	-3.9826441E-001	-3.9843273E-001	3.1123042E+003	2.770619950650143E+001
-1.275455228363473E-001	-4.0025339E-001	-4.0043265E-001	3.1381218E+003	2.790619950144901E+001
-1.268166911517969E-001	-4.0226099E-001	-4.0243250E-001	3.1719878E+003	2.810619949639658E+001
-1.260980763018567E-001	-4.0423593E-001	-4.0443236E-001	3.2057263E+003	2.830619949134416E+001
-1.254013596216628E-001	-4.0626517E-001	-4.0643230E-001	3.2397190E+003	2.850619948629173E+001
-1.246483738401110E-001	-4.0825605E-001	-4.0843216E-001	3.2752617E+003	2.870619948123931E+001
-1.239055678873511E-001	-4.1025904E-001	-4.1043207E-001	3.3110623E+003	2.890619947618688E+001
-1.232256548713608E-001	-4.1228536E-001	-4.1243193E-001	3.3457754E+003	2.910619947113446E+001
-1.225054648360597E-001	-4.1429484E-001	-4.1443178E-001	3.3818479E+003	2.930619946608203E+001
-1.217148347164470E-001	-4.1628632E-001	-4.1643086E-001	3.4201772E+003	2.950609946103214E+001
-1.210005773672762E-001	-4.1827452E-001	-4.1843161E-001	3.4567979E+003	2.970599945598224E+001
-1.202443502030321E-001	-4.2027405E-001	-4.2043149E-001	3.4951667E+003	2.990599945092981E+001
-1.194834740549462E-001	-4.2227638E-001	-4.2243135E-001	3.5341824E+003	3.010599944587739E+001
-1.186894883935989E-001	-4.2427462E-001	-4.2443120E-001	3.5746604E+003	3.030599944082496E+001
-1.179738717328952E-001	-4.2628825E-001	-4.2643115E-001	3.6134124E+003	3.050599943577254E+001
-1.171778720495225E-001	-4.2829579E-001	-4.2843097E-001	3.6550911E+003	3.070599943072011E+001
-1.164811562985402E-001	-4.3029433E-001	-4.3043092E-001	3.6941111E+003	3.090599942566769E+001
-1.157659766224137E-001	-4.3229353E-001	-4.3243077E-001	3.7342019E+003	3.110599942061526E+001
-1.152265266306236E-001	-4.3429938E-001	-4.3443069E-001	3.7690920E+003	3.130599941556284E+001
-1.146995946184191E-001	-4.3629941E-001	-4.3643057E-001	3.8038445E+003	3.150599941051041E+001
-1.140271958603594E-001	-4.3830237E-001	-4.3843046E-001	3.8438406E+003	3.170599940545799E+001
-1.133103004821455E-001	-4.4029430E-001	-4.4043034E-001	3.8857393E+003	3.190599940040556E+001
-1.122309147166995E-001	-4.4229171E-001	-4.4243020E-001	3.9409080E+003	3.210599939535314E+001
-1.113129660271768E-001	-4.4428366E-001	-4.4443011E-001	3.9913020E+003	3.230599939030071E+001
-1.104595405081303E-001	-4.4628933E-001	-4.4643000E-001	4.0402969E+003	3.250599938524829E+001
-1.096053388700429E-001	-4.4828323E-001	-4.4842988E-001	4.0899761E+003	3.270599938019586E+001
-1.088015031462317E-001	-4.5027766E-001	-4.5042980E-001	4.1385244E+003	3.290599937514344E+001
-1.082759069626982E-001	-4.5229277E-001	-4.5243010E-001	4.1772246E+003	3.310589937009354E+001
-1.076400463961389E-001	-4.5428908E-001	-4.5442954E-001	4.2204468E+003	3.330579936504364E+001
-1.067741395854929E-001	-4.5629463E-001	-4.5642942E-001	4.2734565E+003	3.350579935999122E+001
-1.058624426859631E-001	-4.5826891E-001	-4.5842931E-001	4.3289092E+003	3.370579935493879E+001
-1.049503932861175E-001	-4.6029839E-001	-4.6042919E-001	4.3858662E+003	3.390579934988637E+001
-1.040924697884207E-001	-4.6230435E-001	-4.6242905E-001	4.4412852E+003	3.410579934483394E+001
-1.032071794792927E-001	-4.6427435E-001	-4.6442896E-001	4.4984692E+003	3.430579933978152E+001
-1.024013434372035E-001	-4.6626019E-001	-4.6642885E-001	4.5532627E+003	3.450579933472909E+001
-1.015781878204403E-001	-4.6827498E-001	-4.6842873E-001	4.6099956E+003	3.470579932967667E+001
-1.007835746799803E-001	-4.7027031E-001	-4.7042862E-001	4.6661401E+003	3.490579932462424E+001
-9.990519447497126E-002	-4.7227538E-001	-4.7242847E-001	4.7272354E+003	3.510579931957182E+001
-9.907508324493852E-002	-4.7427344E-001	-4.7442839E-001	4.7870103E+003	3.530579931451939E+001
-9.825995684518984E-002	-4.7626773E-001	-4.7642827E-001	4.8470176E+003	3.550579930946697E+001
-9.744769042091761E-002	-4.7827068E-001	-4.7842816E-001	4.9079736E+003	3.570579930441454E+001
-9.661998926522530E-002	-4.8027092E-001	-4.8042804E-001	4.9707202E+003	3.590579929936212E+001
-9.583241405871490E-002	-4.8225984E-001	-4.8242790E-001	5.0323247E+003	3.610579929430969E+001
-9.502411350795792E-002	-4.8426452E-001	-4.8442781E-001	5.0962275E+003	3.630579928925727E+001
-9.424254762293405E-002	-4.8627421E-001	-4.8642728E-001	5.1598159E+003	3.650569928420737E+001
-9.341223768957452E-002	-4.8827848E-001	-4.8842758E-001	5.2271362E+003	3.670559927915747E+001
-9.273168328693326E-002	-4.9025860E-001	-4.9042746E-001	5.2868511E+003	3.690559927410504E+001
-9.192889530893833E-002	-4.9227038E-001	-4.9242732E-001	5.3549038E+003	3.710559926905262E+001
-9.117869476686402E-002	-4.9426249E-001	-4.9442723E-001	5.4208110E+003	3.730559926400019E+001
-9.042363916946150E-002	-4.9626380E-001	-4.9642712E-001	5.4882085E+003	3.750559925894777E+001
-8.969981227568492E-002	-4.9825931E-001	-4.9842700E-001	5.5547417E+003	3.770559925389534E+001
-8.899202444875698E-002	-5.0026715E-001	-5.0042695E-001	5.6214829E+003	3.790559924884292E+001
-8.831404810116700E-002	-5.0226128E-001	-5.0242680E-001	5.6872183E+003	3.810559924379049E+001
-8.766299804678912E-002	-5.0427884E-001	-5.0442672E-001	5.7524707E+003	3.830559923873807E+001
-8.698076558723855E-002	-5.0627416E-001	-5.0642657E-001	5.8205303E+003	3.850559923368564E+001
-8.638138085964853E-002	-5.0827438E-001	-5.0842649E-001	5.8840732E+003	3.870559922863322E+001
-8.573048808316264E-002	-5.1026797E-001	-5.1042640E-001	5.9520015E+003	3.890559922358079E+001
-8.517190899811833E-002	-5.1226389E-001	-5.1242626E-001	6.0144702E+003	3.910559921852837E+001
-8.457645971292127E-002	-5.1426160E-001	-5.1442617E-001	6.0804341E+003	3.930559921347594E+001
-8.398404935598691E-002	-5.1625842E-001	-5.1642597E-001	6.1471006E+003	3.950559920842352E+001
-8.342059608654484E-002	-5.1825643E-001	-5.1842588E-001	6.2125718E+003	3.970559920337109E+001
-8.289532881264683E-002	-5.2026600E-001	-5.2042603E-001	6.2761797E+003	3.990559919831867E+001
-8.235302716331705E-002	-5.2226728E-001	-5.2242565E-001	6.3418105E+003	4.010539919327130E+001
-8.185119997148249E-002	-5.2424949E-001	-5.2442563E-001	6.4049092E+003	4.030539918821887E+001
-8.130775630376963E-002	-5.2625668E-001	-5.2642542E-001	6.4724043E+003	4.050539918316645E+001
-8.089049665897186E-002	-5.2824843E-001	-5.2842534E-001	6.5304141E+003	4.070539917811402E+001
-8.044453049363692E-002	-5.3026134E-001	-5.3042525E-001	6.5916396E+003	4.090539917306160E+001
-7.996137345858034E-002	-5.3224522E-001	-5.3242511E-001	6.6562793E+003	4.110539916800917E+001
-7.957342815640356E-002	-5.3426635E-001	-5.3442502E-001	6.7141304E+003	4.130539916295675E+001
-7.920820210255719E-002	-5.3627843E-001	-5.3642488E-001	6.7704912E+003	4.150539915790432E+001
-7.881903772183241E-002	-5.3825980E-001	-5.3842473E-001	6.8290581E+003	4.170539915285190E+001
-7.845674441650086E-002	-5.4026228E-001	-5.4042464E-001	6.8861167E+003	4.190539914779947E+001
-7.808615276674494E-002	-5.4225212E-001	-5.4242450E-001	6.9442803E+003	4.210539914274705E+001
-7.775476453994767E-002	-5.4426098E-001	-5.4442447E-001	6.9997124E+003	4.230539913769462E+001
-7.744671944307036E-002	-5.4625505E-001	-5.4642427E-001	7.0533013E+003	4.250539913264220E+001
-7.717556682787030E-002	-5.4826057E-001	-5.4842418E-001	7.1040693E+003	4.270539912758977E+001
-7.689670663139037E-002	-5.5026245E-001	-5.5042410E-001	7.1558652E+003	4.290539912253735E+001
-7.663364773573966E-002	-5.5226028E-001	-5.5242395E-001	7.2064985E+003	4.310539911748492E+001
-7.636666065873898E-002	-5.5426157E-001	-5.5442387E-001	7.2578999E+003	4.330539911243250E+001
-7.617655337135060E-002	-5.5624521E-001	-5.5642390E-001	7.3020527E+003	4.350529910738260E+001
-7.606847615502876E-002	-5.5826306E-001	-5.5842358E-001	7.3389541E+003	4.370519910233270E+001
-7.581138696158285E-002	-5.6026214E-001	-5.6042349E-001	7.3902109E+003	4.390519909728027E+001
-7.557904718986465E-002	-5.6225491E-001	-5.6242335E-001	7.4392959E+003	4.410519909222785E+001
-7.539867810153167E-002	-5.6426555E-001	-5.6442332E-001	7.4837593E+003	4.430519908717542E+001
-7.521863429291831E-002	-5.6624317E-001	-5.6642312E-001	7.5279639E+003	4.450519908212300E+001
-7.509117082549110E-002	-5.6825024E-001	-5.6842309E-001	7.5674707E+003	4.470519907707057E+001
-7.497203533955832E-002	-5.7023853E-001	-5.7042295E-001	7.6060166E+003	4.490519907201815E+001
-7.483643242696530E-002	-5.7225358E-001	-5.7242280E-001	7.6467246E+003	4.510519906696572E+001
-7.475241157437462E-002	-5.7424676E-001	-5.7442272E-001	7.6819829E+003	4.530519906191330E+001
-7.466091350398874E-002	-5.7624888E-001	-5.7642257E-001	7.7182139E+003	4.550519905686087E+001
-7.457515372907397E-002	-5.7824063E-001	-5.7842243E-001	7.7537974E+003	4.570519905180845E+001
-7.450493458920324E-002	-5.8024740E-001	-5.8042234E-001	7.7880400E+003	4.590519904675602E+001
-7.441331690986175E-002	-5.8224404E-001	-5.8242220E-001	7.8244604E+003	4.610519904170360E+001
-7.435948639271817E-002	-5.8424079E-001	-5.8442217E-001	7.8569771E+003	4.630519903665117E+001
-7.424460360284046E-002	-5.8623379E-001	-5.8642197E-001	7.8959785E+003	4.650519903159875E+001
-7.425708394886221E-002	-5.8824372E-001	-5.8842194E-001	7.9217188E+003	4.670519902654632E+001
-7.422310088145045E-002	-5.9025407E-001	-5.9042221E-001	7.9524307E+003	4.690519902149390E+001
-7.417688322783600E-002	-5.9223729E-001	-5.9242165E-001	7.9841221E+003	4.710499901644653E+001
-7.413298786404532E-002	-5.9424555E-001	-5.9442157E-001	8.0159395E+003	4.730499901139410E+001
-7.410486886497447E-002	-5.9624177E-001	-5.9642142E-001	8.0459189E+003	4.750499900634168E+001
-7.409592182058744E-002	-5.9824997E-001	-5.9842128E-001	8.0739932E+003	4.770499900128925E+001
-7.409331815786091E-002	-6.0025257E-001	-6.0042119E-001	8.1013052E+003	4.790499899623683E+001
-7.409712506559518E-002	-6.0223478E-001	-6.0242105E-001	8.1276401E+003	4.810499899118440E+001
-7.412369735697344E-002	-6.0425127E-001	-6.0442102E-001	8.1519312E+003	4.830499898613198E+001
-7.417445800577593E-002	-6.0625547E-001	-6.0642081E-001	8.1733726E+003	4.850499898107955E+001
-7.418082547933702E-002	-6.0823578E-001	-6.0842079E-001	8.1993662E+003	4.870499897602713E+001
-7.419833728553660E-002	-6.1022389E-001	-6.1042064E-001	8.2242256E+003	4.890499897097470E+001
-7.427292300151687E-002	-6.1223167E-001	-6.1242050E-001	8.2430000E+003	4.910499896592228E+001
-7.434648215662992E-002	-6.1424249E-001	-6.1442041E-001	8.2618906E+003	4.930499896086985E+001
-7.441903537565886E-002	-6.1624062E-001	-6.1642027E-001	8.2806855E+003	4.950499895581743E+001
-7.449982802503974E-002	-6.1827368E-001	-6.1842012E-001	8.2989951E+003	4.970499895076500E+001
-7.451062901536876E-002	-6.2025774E-001	-6.2042004E-001	8.3244199E+003	4.990499894571258E+001
-7.460440618784275E-002	-6.2227345E-001	-6.2241989E-001	8.3409746E+003	5.010499894066015E+001
-7.470659682022429E-002	-6.2426066E-001	-6.2441987E-001	8.3561650E+003	5.030499893560773E+001
-7.481083245550055E-002	-6.2626874E-001	-6.2641948E-001	8.3713643E+003	5.050479893056036E+001
-7.494592649731227E-002	-6.2826002E-001	-6.2841964E-001	8.3828438E+003	5.070479892550793E+001
-7.504674918261145E-002	-6.3025260E-001	-6.3041949E-001	8.3981328E+003	5.090479892045551E+001
-7.525194325439943E-002	-6.3224852E-001	-6.3241935E-001	8.4017568E+003	5.110479891540308E+001
-7.544721155522449E-002	-6.3425761E-001	-6.3441926E-001	8.4066406E+003	5.130479891035066E+001
-7.574492702345072E-002	-6.3624001E-001	-6.3641912E-001	8.3997705E+003	5.150479890529823E+001
-7.584951200117029E-002	-6.3824451E-001	-6.3841909E-001	8.4146162E+003	5.170479890024581E+001
-7.603867116960727E-002	-6.4024597E-001	-6.4041889E-001	8.4200049E+003	5.190479889519338E+001
-7.630674359747669E-002	-6.4224637E-001	-6.4241880E-001	8.4166396E+003	5.210479889014096E+001
-7.660275013101575E-002	-6.4423400E-001	-6.4441866E-001	8.4100635E+003	5.230479888508853E+001
-7.696887958993370E-002	-6.4622933E-001	-6.4641851E-001	8.3959824E+003	5.250479888003611E+001
-7.731436307504003E-002	-6.4825118E-001	-6.4841843E-001	8.3846152E+003	5.270479887498368E+001
-7.771698891632894E-002	-6.5025347E-001	-6.5041834E-001	8.3669414E+003	5.290479886993126E+001
-7.812551249139610E-002	-6.5224481E-001	-6.5241820E-001	8.3486787E+003	5.310479886487883E+001
-7.858958737101029E-002	-6.5424687E-001	-6.5441811E-001	8.3248545E+003	5.330479885982641E+001
-7.909984937330500E-002	-6.5626341E-001	-6.5641797E-001	8.2966455E+003	5.350479885477398E+001
-7.968582107227218E-002	-6.5826660E-001	-6.5841794E-001	8.2607744E+003	5.370479884972156E+001
-8.026859240237899E-002	-6.6025782E-001	-6.6041774E-001	8.2256064E+003	5.390469884467166E+001
-8.089812912940192E-002	-6.6226041E-001	-6.6241765E-001	8.1863501E+003	5.410459883962176E+001
-8.161089620489620E-002	-6.6424638E-001	-6.6441751E-001	8.1391875E+003	5.430459883456933E+001
-8.232933904103434E-002	-6.6627467E-001	-6.6641736E-001	8.0927974E+003	5.450459882951691E+001
-8.309000185870374E-002	-6.6826993E-001	-6.6841727E-001	8.0427236E+003	5.470459882446448E+001
-8.385957092048829E-002	-6.7026883E-001	-6.7041719E-001	7.9927529E+003	5.490459881941206E+001
-8.469838730129237E-002	-6.7224038E-001	-6.7241704E-001	7.9368735E+003	5.510459881435963E+001
-8.559727738136258E-002	-6.7423958E-001	-6.7441696E-001	7.8768809E+003	5.530459880930721E+001
-8.656297420793546E-002	-6.7625862E-001	-6.7641681E-001	7.8123311E+003	5.550459880425478E+001
-8.750499540395129E-002	-6.7824209E-001	-6.7841673E-001	7.7508955E+003	5.570459879920236E+001
-8.852674428251106E-002	-6.8026394E-001	-6.8041658E-001	7.6842759E+003	5.590459879414993E+001
-8.955682642322815E-002	-6.8226671E-001	-6.8241644E-001	7.6182549E+003	5.610459878909751E+001
-9.066595434994706E-002	-6.8426263E-001	-6.8441635E-001	7.5470737E+003	5.630459878404508E+001
-9.175289313196933E-002	-6.8625647E-001	-6.8641621E-001	7.4793989E+003	5.650459877899266E+001
-9.290667285069887E-002	-6.8826258E-001	-6.8841612E-001	7.4081069E+003	5.670459877394023E+001
-9.409413854707704E-002	-6.9026947E-001	-6.9041604E-001	7.3359453E+003	5.690459876888781E+001
-9.534325775724195E-002	-6.9226003E-001	-6.9241589E-001	7.2607129E+003	5.710459876383538E+001
-9.663388317282384E-002	-6.9426161E-001	-6.9441605E-001	7.1844531E+003	5.730459875878296E+001
-9.801892853551070E-002	-6.9626319E-001	-6.9641566E-001	7.1033545E+003	5.750439875373559E+001
-9.930933214504434E-002	-6.9824171E-001	-6.9841558E-001	7.0309780E+003	5.770439874868316E+001
-1.007313558012415E-001	-7.0025176E-001	-7.0041549E-001	6.9516763E+003	5.790439874363074E+001
-1.021292628994939E-001	-7.0225745E-001	-7.0241529E-001	6.8761631E+003	5.810439873857831E+001
-1.036463279568518E-001	-7.0424336E-001	-7.0441520E-001	6.7946772E+003	5.830439873352589E+001
-1.051536418503900E-001	-7.0625103E-001	-7.0641512E-001	6.7163726E+003	5.850439872847346E+001
-1.066709797197944E-001	-7.0825565E-001	-7.0841503E-001	6.6396284E+003	5.870439872342104E+001
-1.083464038045128E-001	-7.1026456E-001	-7.1041489E-001	6.5554976E+003	5.890439871836861E+001
-1.099461064940050E-001	-7.1224529E-001	-7.1241474E-001	6.4781309E+003	5.910439871331619E+001
-1.116476185195348E-001	-7.1423930E-001	-7.1441472E-001	6.3972642E+003	5.930439870826376E+001
-1.133911602807289E-001	-7.1626502E-001	-7.1641451E-001	6.3167622E+003	5.950439870321134E+001
-1.151419900993391E-001	-7.1825987E-001	-7.1841443E-001	6.2380361E+003	5.970439869815891E+001
-1.169193261376922E-001	-7.2026408E-001	-7.2041434E-001	6.1603511E+003	5.990439869310649E+001
-1.187113479493596E-001	-7.2225696E-001	-7.2241414E-001	6.0841440E+003	6.010439868805406E+001
-1.205137391129083E-001	-7.2426903E-001	-7.2441405E-001	6.0098462E+003	6.030439868300164E+001
-1.223282194105053E-001	-7.2624475E-001	-7.2641397E-001	5.9368535E+003	6.050439867794921E+001
-1.242309870048428E-001	-7.2825938E-001	-7.2841388E-001	5.8621396E+003	6.070439867289679E+001
-1.260977134378658E-001	-7.3025030E-001	-7.3041421E-001	5.7911460E+003	6.090429866784689E+001
-1.278907634368560E-001	-7.3225743E-001	-7.3241359E-001	5.7256475E+003	6.110419866279699E+001
-1.298348321463244E-001	-7.3425114E-001	-7.3441356E-001	5.6552710E+003	6.130419865774456E+001
-1.316775207433112E-001	-7.3623300E-001	-7.3641336E-001	5.5911821E+003	6.150419865269214E+001
-1.335681098071928E-001	-7.3825276E-001	-7.3841327E-001	5.5271636E+003	6.170419864763971E+001
-1.355313686083774E-001	-7.4026293E-001	-7.4041319E-001	5.4619307E+003	6.190419864258729E+001
-1.374574186060740E-001	-7.4223590E-001	-7.4241298E-001	5.3997515E+003	6.210419863753486E+001
-1.393021475449796E-001	-7.4426991E-001	-7.4441290E-001	5.3428457E+003	6.230419863248244E+001
-1.411529159038212E-001	-7.4625164E-001	-7.4641281E-001	5.2868311E+003	6.250419862743001E+001
-1.430433882852329E-001	-7.4824548E-001	-7.4841273E-001	5.2308989E+003	6.270419862237759E+001
-1.449572113120832E-001	-7.5024438E-001	-7.5041258E-001	5.1756265E+003	6.290419861732516E+001
-1.468615574274397E-001	-7.5224411E-001	-7.5241244E-001	5.1221309E+003	6.310419861227274E+001
-1.487812961498165E-001	-7.5424379E-001	-7.5441241E-001	5.0694800E+003	6.330419860722031E+001
-1.507812732843313E-001	-7.5625271E-001	-7.5641221E-001	5.0155610E+003	6.350419860216789E+001
-1.527695083091041E-001	-7.5825882E-001	-7.5841212E-001	4.9634175E+003	6.370419859711546E+001
-1.547771943986520E-001	-7.6026362E-001	-7.6041204E-001	4.9119873E+003	6.390419859206304E+001
-1.566994793791230E-001	-7.6225537E-001	-7.6241183E-001	4.8644409E+003	6.410419858701061E+001
-1.585636118209193E-001	-7.6424730E-001	-7.6441133E-001	4.8198149E+003	6.430409858196072E+001
-1.605968323458081E-001	-7.6626348E-001	-7.6641166E-001	4.7713486E+003	6.450399857691082E+001
-1.625263430885631E-001	-7.6824516E-001	-7.6841158E-001	4.7268965E+003	6.470399857185839E+001
-1.645273128957355E-001	-7.7024508E-001	-7.7041143E-001	4.6815635E+003	6.490399856680597E+001
-1.666062787162510E-001	-7.7223694E-001	-7.7241129E-001	4.6351011E+003	6.510399856175354E+001
-1.687364575881802E-001	-7.7423835E-001	-7.7441126E-001	4.5884473E+003	6.530399855670112E+001
-1.706960192309214E-001	-7.7623594E-001	-7.7641106E-001	4.5474751E+003	6.550399855164869E+001
-1.727824321569971E-001	-7.7822131E-001	-7.7841097E-001	4.5040532E+003	6.570399854659627E+001
-1.745015471981515E-001	-7.8021127E-001	-7.8041089E-001	4.4710850E+003	6.590399854154384E+001
-1.760442459178657E-001	-7.8222185E-001	-7.8241080E-001	4.4433252E+003	6.610399853649142E+001
-1.778166723878982E-001	-7.8422576E-001	-7.8441072E-001	4.4103052E+003	6.630399853143899E+001
-1.798058692957194E-001	-7.8622794E-001	-7.8641051E-001	4.3726489E+003	6.650399852638657E+001
-1.817743099165776E-001	-7.8821975E-001	-7.8841043E-001	4.3362549E+003	6.670399852133414E+001
-1.838626814657682E-001	-7.9024208E-001	-7.9041040E-001	4.2980015E+003	6.690399851628172E+001
-1.857642168506484E-001	-7.9224306E-001	-7.9241043E-001	4.2647773E+003	6.710399851122929E+001
-1.870679708267402E-001	-7.9424065E-001	-7.9441154E-001	4.2457329E+003	6.730399850617687E+001
-1.887496042882617E-001	-7.9623854E-001	-7.9641151E-001	4.2184912E+003	6.750399850112444E+001
-1.905697843708229E-001	-7.9825252E-001	-7.9841149E-001	4.1887676E+003	6.770399849607202E+001
-1.923215399388554E-001	-8.0024129E-001	-8.0041158E-001	4.1609551E+003	6.790399849101959E+001
-1.941334610285401E-001	-8.0223536E-001	-8.0241156E-001	4.1323911E+003	6.810399848596717E+001
-1.965388024717889E-001	-8.0423993E-001	-8.0441153E-001	4.0920161E+003	6.830399848091474E+001
-1.986451080161857E-001	-8.0622774E-001	-8.0641150E-001	4.0586338E+003	6.850399847586232E+001
-2.008245586504199E-001	-8.0824244E-001	-8.0841148E-001	4.0246196E+003	6.870399847080989E+001
-2.029192906692450E-001	-8.1024599E-001	-8.1041157E-001	3.9929470E+003	6.890399846575747E+001
-2.050176275061978E-001	-8.1225079E-001	-8.1241149E-001	3.9618584E+003	6.910399846070504E+001
-2.073929235613701E-001	-8.1423849E-001	-8.1441158E-001	3.9260669E+003	6.930399845565262E+001
-2.096242232167924E-001	-8.1623924E-001	-8.1641161E-001	3.8938213E+003	6.950399845060019E+001
-2.116314170379485E-001	-8.1824327E-001	-8.1841141E-001	3.8663601E+003	6.970399844554777E+001
-2.135772278000203E-001	-8.2022232E-001	-8.2041156E-001	3.8404016E+003	6.990399844049534E+001
-2.154370743354730E-001	-8.2225335E-001	-8.2241154E-001	3.8166753E+003	7.010399843544292E+001
-2.172179639385907E-001	-8.2424462E-001	-8.2441151E-001	3.7945508E+003	7.030399843039049E+001
-2.182142488286747E-001	-8.2624280E-001	-8.2641149E-001	3.7863833E+003	7.050399842533807E+001
-2.199657801728776E-001	-8.2825071E-001	-8.2841158E-001	3.7653616E+003	7.070399842028564E+001
-2.219538139432760E-001	-8.3024549E-001	-8.3041155E-001	3.7406228E+003	7.090399841523322E+001
-2.240616333630783E-001	-8.3223927E-001	-8.3241147E-001	3.7143318E+003	7.110399841018079E+001
-2.262262902402084E-001	-8.3424979E-001	-8.3441156E-001	3.6876785E+003	7.130399840512837E+001
-2.291588734227177E-001	-8.3626980E-001	-8.3641154E-001	3.6493015E+003	7.150399840007594E+001
-2.314568343266104E-001	-8.3826143E-001	-8.3841151E-001	3.6216750E+003	7.170399839502352E+001
-2.337765037599531E-001	-8.4025687E-001	-8.4041148E-001	3.5942742E+003	7.190399838997109E+001
-2.369646150238660E-001	-8.4227139E-001	-8.4241158E-001	3.5544185E+003	7.210399838491867E+001
-2.403465894340222E-001	-8.4424216E-001	-8.4441155E-001	3.5126030E+003	7.230399837986624E+001
-2.426291939606067E-001	-8.4626633E-001	-8.4641153E-001	3.4878999E+003	7.250399837481382E+001
-2.441006058789021E-001	-8.4828502E-001	-8.4841162E-001	3.4751450E+003	7.270399836976139E+001
-2.453275547001752E-001	-8.5027313E-001	-8.5041159E-001	3.4658689E+003	7.290399836470897E+001
-2.463384945042715E-001	-8.5226339E-001	-8.5241145E-001	3.4597249E+003	7.310399835965654E+001
-2.480938069737793E-001	-8.5426748E-001	-8.5441154E-001	3.4433245E+003	7.330399835460412E+001
-2.502485611930059E-001	-8.5627711E-001	-8.5641164E-001	3.4217063E+003	7.350399834955169E+001
-2.524408648833796E-001	-8.5825562E-001	-8.5841149E-001	3.3998284E+003	7.370399834449927E+001
-2.546000757725591E-001	-8.6026764E-001	-8.6041152E-001	3.3788977E+003	7.390399833944684E+001
-2.566312874483603E-001	-8.6227387E-001	-8.6241156E-001	3.3599717E+003	7.410399833439442E+001
-2.595146821575263E-001	-8.6428016E-001	-8.6441153E-001	3.3303711E+003	7.430399832934199E+001
-2.633236114024409E-001	-8.6625946E-001	-8.6641151E-001	3.2897144E+003	7.450399832428957E+001
-2.669809683903921E-001	-8.6826879E-001	-8.6841154E-001	3.2521748E+003	7.470399831923714E+001
-2.703774805009660E-001	-8.7026280E-001	-8.7041157E-001	3.2186956E+003	7.490399831418472E+001
-2.736778482393509E-001	-8.7228656E-001	-8.7241149E-001	3.1872749E+003	7.510399830913229E+001
-2.781739598013400E-001	-8.7424523E-001	-8.7441146E-001	3.1428003E+003	7.530399830407987E+001
-2.841918710703686E-001	-8.7626487E-001	-8.7641162E-001	3.0833564E+003	7.550399829902744E+001
-2.889119086960268E-001	-8.7825322E-001	-8.7841153E-001	3.0398650E+003	7.570399829397502E+001
-2.946846257819211E-001	-8.8025403E-001	-8.8041151E-001	2.9871055E+003	7.590399828892259E+001
-3.009459170113713E-001	-8.8224840E-001	-8.8241160E-001	2.9315845E+003	7.610399828387017E+001
-3.076139635294517E-001	-8.8425732E-001	-8.8441157E-001	2.8745681E+003	7.630399827881774E+001
-3.152339085873184E-001	-8.8624644E-001	-8.8641143E-001	2.8113931E+003	7.650399827376532E+001
-3.223812315389174E-001	-8.8825315E-001	-8.8841152E-001	2.7552881E+003	7.670399826871289E+001
-3.294378520599871E-001	-8.9023584E-001	-8.9041162E-001	2.7022876E+003	7.690399826366047E+001
-3.381317206964636E-001	-8.9224511E-001	-8.9241147E-001	2.6387500E+003	7.710399825860804E+001
-3.464544800082727E-001	-8.9426553E-001	-8.9441156E-001	2.5811919E+003	7.730399825355562E+001
-3.553249538472757E-001	-8.9625067E-001	-8.9641154E-001	2.5223408E+003	7.750399824850319E+001
-3.645830463064722E-001	-8.9826888E-001	-8.9841151E-001	2.4638252E+003	7.770399824345077E+001
-3.779600739664906E-001	-9.0026140E-001	-9.0041149E-001	2.3818955E+003	7.790399823839834E+001
-3.886553044504832E-001	-9.0224832E-001	-9.0241152E-001	2.3214614E+003	7.810399823334592E+001
-3.998522743236380E-001	-9.0425628E-001	-9.0441155E-001	2.2614758E+003	7.830399822829349E+001
-4.133438457166772E-001	-9.0625995E-001	-9.0641153E-001	2.1925085E+003	7.850399822324107E+001
-4.287230169903200E-001	-9.0824288E-001	-9.0841156E-001	2.1184841E+003	7.870399821818864E+001
-4.478983819577627E-001	-9.1026443E-001	-9.1041160E-001	2.0323013E+003	7.890399821313622E+001
-4.747755101199793E-001	-9.1226661E-001	-9.1241151E-001	1.9214694E+003	7.910399820808379E+001
-4.931711420889862E-001	-9.1425455E-001	-9.1441154E-001	1.8538281E+003	7.930399820303137E+001
-5.188343504279032E-001	-9.1626221E-001	-9.1641158E-001	1.7660015E+003	7.950399819797894E+001
-5.491998808969503E-001	-9.1825658E-001	-9.1841161E-001	1.6719897E+003	7.970399819292652E+001
-5.851699098598319E-001	-9.2025119E-001	-9.2041153E-001	1.5726222E+003	7.990399818787409E+001
-6.214568698546445E-001	-9.2226738E-001	-9.2241150E-001	1.4840409E+003	8.010399818282167E+001
-6.569060774566475E-001	-9.2425799E-001	-9.2441159E-001	1.4069866E+003	8.030399817776924E+001
-6.994062155366869E-001	-9.2626315E-001	-9.2641157E-001	1.3243564E+003	8.050399817271682E+001
-7.522562428033339E-001	-9.2824405E-001	-9.2841148E-001	1.2339467E+003	8.070399816766439E+001
-8.112050089351595E-001	-9.3025655E-001	-9.3041164E-001	1.1467589E+003	8.090399816261197E+001
-8.708638561691009E-001	-9.3223560E-001	-9.3241149E-001	1.0704723E+003	8.110399815755954E+001
-9.386392026767982E-001	-9.3423474E-001	-9.3441159E-001	9.9530762E+002	8.130399815250712E+001
-1.014705869582503E+000	-9.3623620E-001	-9.3641156E-001	9.2266760E+002	8.150399814745469E+001
-1.098258264839465E+000	-9.3831307E-001	-9.3851161E-001	8.5436469E+002	8.171399814214965E+001
-1.203506249283983E+000	-9.4038182E-001	-9.4061154E-001	7.8136847E+002	8.192399813684460E+001
-1.304890057397268E+000	-9.4240892E-001	-9.4261152E-001	7.2221326E+002	8.212399813179218E+001
-1.421191063775023E+000	-9.4440436E-001	-9.4461161E-001	6.6451611E+002	8.232399812673975E+001
-1.549604254675486E+000	-9.4640613E-001	-9.4661146E-001	6.1074054E+002	8.252399812168733E+001
-1.683129693003472E+000	-9.4840896E-001	-9.4861150E-001	5.6347943E+002	8.272399811663490E+001
-1.832887485285461E+000	-9.5041138E-001	-9.5061153E-001	5.1853229E+002	8.292399811158248E+001
-1.996784560669571E+000	-9.5241112E-001	-9.5261151E-001	4.7697238E+002	8.312399810653005E+001
-2.171949825674087E+000	-9.5441687E-001	-9.5461148E-001	4.3942859E+002	8.332399810147763E+001
-2.358195983059272E+000	-9.5640552E-001	-9.5661157E-001	4.0556659E+002	8.352399809642520E+001
-2.560164977937866E+000	-9.5841396E-001	-9.5861155E-001	3.7435632E+002	8.372399809137278E+001
-2.775668162911662E+000	-9.6040982E-001	-9.6061152E-001	3.4601031E+002	8.392399808632035E+001
-3.011403190322611E+000	-9.6242088E-001	-9.6261156E-001	3.1959216E+002	8.412399808126793E+001
-3.259234002962412E+000	-9.6441644E-001	-9.6461159E-001	2.9590280E+002	8.432399807621550E+001
-3.525986197584067E+000	-9.6641588E-001	-9.6661156E-001	2.7408386E+002	8.452399807116308E+001
-3.804838928505941E+000	-9.6843100E-001	-9.6861148E-001	2.5452615E+002	8.472399806611065E+001
-4.102177060887122E+000	-9.7043306E-001	-9.7061157E-001	2.3656537E+002	8.492399806105823E+001
-4.409184422048298E+000	-9.7242302E-001	-9.7261161E-001	2.2054488E+002	8.512399805600580E+001
-4.745042359207222E+000	-9.7441018E-001	-9.7461152E-001	2.0535332E+002	8.532399805095338E+001
-5.096463229752183E+000	-9.7639865E-001	-9.7661150E-001	1.9158357E+002	8.552399804590095E+001
-5.465509498470773E+000	-9.7842026E-001	-9.7861159E-001	1.7901721E+002	8.572399804084853E+001
-5.841524381148332E+000	-9.8040825E-001	-9.8061156E-001	1.6783432E+002	8.592399803579610E+001
-6.240913442777412E+000	-9.8240775E-001	-9.8261148E-001	1.5741409E+002	8.612399803074368E+001
-6.659751756323686E+000	-9.8440862E-001	-9.8461163E-001	1.4781461E+002	8.632399802569125E+001
-7.089736085427333E+000	-9.8641884E-001	-9.8661149E-001	1.3913336E+002	8.652399802063883E+001
-7.533723565996894E+000	-9.8841190E-001	-9.8861158E-001	1.3119832E+002	8.672399801558640E+001
-7.993489888519946E+000	-9.9042827E-001	-9.9061155E-001	1.2390437E+002	8.692399801053398E+001
-8.484969997014034E+000	-9.9243140E-001	-9.9261147E-001	1.1696346E+002	8.712399800548155E+001
-8.975595420517863E+000	-9.9444705E-001	-9.9461144E-001	1.1079455E+002	8.732399800042913E+001
-9.502591081217009E+000	-9.9643856E-001	-9.9661154E-001	1.0485967E+002	8.752399799537670E+001
-1.001886943739556E+001	-9.9843550E-001	-9.9861151E-001	9.9655502E+001	8.772399799032428E+001
-1.058807680372600E+001	-1.0004455E+000	-1.0006131E+000	9.4487930E+001	8.792419798526680E+001
-1.121275987338215E+001	-1.0025131E+000	-1.0027163E+000	8.9408234E+001	8.813449797995418E+001
-1.181656974627904E+001	-1.0046054E+000	-1.0048183E+000	8.5016670E+001	8.834469797464408E+001
-1.239651629288176E+001	-1.0066046E+000	-1.0068195E+000	8.1200600E+001	8.854479796958913E+001
-1.298276935586921E+001	-1.0086063E+000	-1.0088203E+000	7.7688072E+001	8.874489796453418E+001
-1.358638804766076E+001	-1.0106128E+000	-1.0108224E+000	7.4384216E+001	8.894509795947670E+001
-1.423369830726710E+001	-1.0126219E+000	-1.0128243E+000	7.1142570E+001	8.914529795441922E+001
-1.487838555029841E+001	-1.0146382E+000	-1.0148263E+000	6.8195450E+001	8.934549794936174E+001
-1.556512029438596E+001	-1.0166309E+000	-1.0168276E+000	6.5314682E+001	8.954559794430679E+001
-1.621421640061926E+001	-1.0186331E+000	-1.0188283E+000	6.2823456E+001	8.974569793925184E+001
-1.686790211444480E+001	-1.0206299E+000	-1.0208310E+000	6.0507221E+001	8.994599793419184E+001
-1.753758821925344E+001	-1.0226529E+000	-1.0228336E+000	5.8312057E+001	9.014619792913436E+001
-1.823944251630252E+001	-1.0246464E+000	-1.0248351E+000	5.6177505E+001	9.034639792407688E+001
-1.901161339933645E+001	-1.0266577E+000	-1.0268384E+000	5.4001610E+001	9.054669791901688E+001
-1.972179035227739E+001	-1.0286572E+000	-1.0288404E+000	5.2158409E+001	9.074689791395940E+001
-2.043403573256137E+001	-1.0306504E+000	-1.0308423E+000	5.0437927E+001	9.094709790890192E+001
-2.117506073755172E+001	-1.0326774E+000	-1.0328443E+000	4.8768570E+001	9.114729790384445E+001
-2.193291801389921E+001	-1.0346706E+000	-1.0348456E+000	4.7174324E+001	9.134739789878950E+001
-2.268551640621392E+001	-1.0366560E+000	-1.0368456E+000	4.5696823E+001	9.154739789373707E+001
-2.351059819867663E+001	-1.0386686E+000	-1.0388463E+000	4.4178741E+001	9.174749788868212E+001
-2.430656133419791E+001	-1.0406610E+000	-1.0408474E+000	4.2813995E+001	9.194759788362717E+001
-2.510661157718806E+001	-1.0426741E+000	-1.0428482E+000	4.1529861E+001	9.214769787857222E+001
-2.589365021928363E+001	-1.0446624E+000	-1.0448495E+000	4.0344345E+001	9.234779787351727E+001
-2.670602988575052E+001	-1.0466621E+000	-1.0468496E+000	3.9191975E+001	9.254779786846484E+001
-2.753478511209300E+001	-1.0486652E+000	-1.0488504E+000	3.8085106E+001	9.274789786340989E+001
-2.838035325587737E+001	-1.0506625E+000	-1.0508516E+000	3.7020771E+001	9.294799785835494E+001
-2.924502376870097E+001	-1.0526551E+000	-1.0528524E+000	3.5994331E+001	9.314809785329999E+001
-3.012297548485441E+001	-1.0546765E+000	-1.0548534E+000	3.5012363E+001	9.334819784824504E+001
-3.104610765439861E+001	-1.0566746E+000	-1.0568535E+000	3.4035656E+001	9.354819784319261E+001
-3.194245979052289E+001	-1.0586929E+000	-1.0588562E+000	3.3143749E+001	9.374849783813261E+001
-3.280558699815441E+001	-1.0606844E+000	-1.0608575E+000	3.2332432E+001	9.394859783307766E+001
-3.374667461442834E+001	-1.0626858E+000	-1.0628575E+000	3.1490091E+001	9.414859782802523E+001
-3.470297743812853E+001	-1.0646788E+000	-1.0648583E+000	3.0679754E+001	9.434869782297028E+001
-3.571955065824554E+001	-1.0666891E+000	-1.0668596E+000	2.9862894E+001	9.454879781791533E+001
-3.665438857105133E+001	-1.0686955E+000	-1.0688605E+000	2.9156006E+001	9.474889781286038E+001
-3.766950095970344E+001	-1.0706974E+000	-1.0708616E+000	2.8423456E+001	9.494899780780543E+001
-3.866122805207216E+001	-1.0726905E+000	-1.0728616E+000	2.7745897E+001	9.514899780275300E+001
-3.975788425399060E+001	-1.0747139E+000	-1.0748615E+000	2.7031467E+001	9.534899779770058E+001
-4.082580914960147E+001	-1.0766901E+000	-1.0768635E+000	2.6372780E+001	9.554919779264310E+001
-4.192777143574631E+001	-1.0787152E+000	-1.0788654E+000	2.5727940E+001	9.574939778758562E+001
-4.293723400225190E+001	-1.0807059E+000	-1.0808675E+000	2.5169434E+001	9.594959778252814E+001
-4.402670314955327E+001	-1.0827274E+000	-1.0828676E+000	2.4592516E+001	9.614959777747572E+001
-4.504856207433784E+001	-1.0847228E+000	-1.0848683E+000	2.4078964E+001	9.634969777242077E+001
-4.614526616502587E+001	-1.0867339E+000	-1.0868703E+000	2.3550280E+001	9.654989776736329E+001
-4.724067848343202E+001	-1.0887158E+000	-1.0888723E+000	2.3046150E+001	9.675009776230581E+001
-4.826873397583854E+001	-1.0907183E+000	-1.0908736E+000	2.2596786E+001	9.695019775725086E+001
-4.932150724748658E+001	-1.0927274E+000	-1.0928744E+000	2.2155191E+001	9.715029775219591E+001
-5.050201558370304E+001	-1.0947208E+000	-1.0948764E+000	2.1676775E+001	9.735049774713843E+001
-5.157549461411509E+001	-1.0967453E+000	-1.0968784E+000	2.1264853E+001	9.755069774208096E+001
-5.262034072884194E+001	-1.0987341E+000	-1.0988804E+000	2.0880407E+001	9.775089773702348E+001
-5.382030027170089E+001	-1.1007293E+000	-1.1008824E+000	2.0451937E+001	9.795109773196600E+001
-5.508028190692789E+001	-1.1027570E+000	-1.1028836E+000	2.0020903E+001	9.815119772691105E+001
-5.637181604895204E+001	-1.1047431E+000	-1.1048844E+000	1.9597437E+001	9.835129772185610E+001
-5.754279505992292E+001	-1.1067359E+000	-1.1068864E+000	1.9233267E+001	9.855149771679862E+001
-5.866344369552314E+001	-1.1087391E+000	-1.1088884E+000	1.8900002E+001	9.875169771174114E+001
-6.001970489387350E+001	-1.1107345E+000	-1.1108896E+000	1.8506163E+001	9.895179770668619E+001
-6.132783355410174E+001	-1.1127294E+000	-1.1128895E+000	1.8143955E+001	9.915179770163377E+001
-6.259512270330674E+001	-1.1147408E+000	-1.1148905E+000	1.7808750E+001	9.935189769657882E+001
-6.380049973266716E+001	-1.1167238E+000	-1.1168925E+000	1.7503370E+001	9.955209769152134E+001
-6.519198541414170E+001	-1.1187266E+000	-1.1188935E+000	1.7160494E+001	9.975219768646639E+001
-6.645909692046337E+001	-1.1207243E+000	-1.1208935E+000	1.6863369E+001	9.995219768141396E+001
-6.822129053161270E+001	-1.1227529E+000	-1.1228936E+000	1.6457516E+001	1.001521976763615E+002
-6.923486395319890E+001	-1.1247356E+000	-1.1248944E+000	1.6245220E+001	1.003522976713066E+002
-7.033467604500288E+001	-1.1267473E+000	-1.1268964E+000	1.6019796E+001	1.005524976662491E+002
-7.155166672064496E+001	-1.1287432E+000	-1.1288984E+000	1.5775218E+001	1.007526976611916E+002
-7.292161761549096E+001	-1.1307526E+000	-1.1309011E+000	1.5506411E+001	1.009529976561316E+002
-7.411727051197255E+001	-1.1327773E+000	-1.1329043E+000	1.5283582E+001	1.011532976510716E+002
-7.577686845398830E+001	-1.1347721E+000	-1.1349064E+000	1.4975178E+001	1.013534976460141E+002
-7.731715223423305E+001	-1.1367658E+000	-1.1369084E+000	1.4702635E+001	1.015536976409567E+002
-7.835344516990688E+001	-1.1387659E+000	-1.1389105E+000	1.4533706E+001	1.017538976358992E+002
-7.946680486391449E+001	-1.1407692E+000	-1.1409115E+000	1.4355292E+001	1.019539976308442E+002
-8.111438180551909E+001	-1.1427971E+000	-1.1429131E+000	1.4088712E+001	1.021541976257868E+002
-8.231208995732027E+001	-1.1448131E+000	-1.1449164E+000	1.3908200E+001	1.023544976207268E+002
-8.473818066133822E+001	-1.1468258E+000	-1.1469183E+000	1.3533755E+001	1.025546976156693E+002
-8.595112760071686E+001	-1.1488165E+000	-1.1489203E+000	1.3365927E+001	1.027548976106118E+002
-8.772569312175517E+001	-1.1508287E+000	-1.1509223E+000	1.3118491E+001	1.029550976055543E+002
-8.875998603347182E+001	-1.1528105E+000	-1.1529244E+000	1.2987952E+001	1.031552976004969E+002
-9.000903796563762E+001	-1.1548222E+000	-1.1549270E+000	1.2830070E+001	1.033555975954368E+002
-9.170974739567913E+001	-1.1568172E+000	-1.1569303E+000	1.2613895E+001	1.035558975903768E+002
-9.327074633650250E+001	-1.1588318E+000	-1.1589315E+000	1.2424387E+001	1.037559975853219E+002
-9.480663775896801E+001	-1.1608316E+000	-1.1609324E+000	1.2244202E+001	1.039560975802669E+002
-9.664212709489601E+001	-1.1628275E+000	-1.1629336E+000	1.2032305E+001	1.041561975752120E+002
-9.812603307905647E+001	-1.1648419E+000	-1.1649334E+000	1.1870875E+001	1.043561975701596E+002
-9.896071263425756E+001	-1.1668357E+000	-1.1669343E+000	1.1790898E+001	1.045562975651046E+002
-1.003312835731201E+002	-1.1688275E+000	-1.1689355E+000	1.1649682E+001	1.047563975600497E+002
-1.019130959586491E+002	-1.1708432E+000	-1.1709356E+000	1.1488644E+001	1.049563975549972E+002
-1.034791448651522E+002	-1.1728487E+000	-1.1729356E+000	1.1334155E+001	1.051563975499448E+002
-1.051347068669843E+002	-1.1748382E+000	-1.1749356E+000	1.1174599E+001	1.053563975448924E+002
-1.064736955228086E+002	-1.1768427E+000	-1.1769364E+000	1.1052896E+001	1.055564975398374E+002
-1.088842925419883E+002	-1.1788328E+000	-1.1789376E+000	1.0826472E+001	1.057565975347825E+002
-1.120647236700770E+002	-1.1809993E+000	-1.1811376E+000	1.0538547E+001	1.059765975292248E+002
-1.136336995695724E+002	-1.1830157E+000	-1.1831375E+000	1.0410782E+001	1.061765975241724E+002
-1.154979598765472E+002	-1.1849964E+000	-1.1851375E+000	1.0259890E+001	1.063765975191200E+002
-1.171918435449365E+002	-1.1870118E+000	-1.1871383E+000	1.0128792E+001	1.065766975140650E+002
-1.192762552594377E+002	-1.1890215E+000	-1.1891395E+000	9.9686356E+000	1.067767975090101E+002
-1.205928068199246E+002	-1.1910163E+000	-1.1911403E+000	9.8763466E+000	1.069768975039551E+002
-1.221877168877461E+002	-1.1930190E+000	-1.1931424E+000	9.7638216E+000	1.071770974988976E+002
-1.228305285793311E+002	-1.1950350E+000	-1.1951436E+000	9.7291365E+000	1.073771974938427E+002
-1.241093169481010E+002	-1.1970345E+000	-1.1971443E+000	9.6450014E+000	1.075772974887877E+002
-1.249769616873082E+002	-1.1990485E+000	-1.1991456E+000	9.5941563E+000	1.077773974837328E+002
-1.262794051461897E+002	-1.2010306E+000	-1.2011464E+000	9.5108986E+000	1.079774974786778E+002
-1.302592188100464E+002	-1.2030320E+000	-1.2031484E+000	9.2356768E+000	1.081776974736204E+002
-1.318435025280025E+002	-1.2050203E+000	-1.2051495E+000	9.1397781E+000	1.083777974685654E+002
-1.325147960563258E+002	-1.2070354E+000	-1.2071503E+000	9.1086845E+000	1.085778974635105E+002
-1.353915905119884E+002	-1.2090360E+000	-1.2091515E+000	8.9299192E+000	1.087779974584555E+002
-1.377976862092135E+002	-1.2110361E+000	-1.2111515E+000	8.7885084E+000	1.089779974534031E+002
-1.403506272979871E+002	-1.2130512E+000	-1.2131515E+000	8.6430054E+000	1.091779974483507E+002
-1.410209311887520E+002	-1.2150326E+000	-1.2151515E+000	8.6159735E+000	1.093779974432982E+002
-1.419309724409839E+002	-1.2170626E+000	-1.2171516E+000	8.5750313E+000	1.095779974382458E+002
-1.427106016910319E+002	-1.2190537E+000	-1.2191534E+000	8.5421391E+000	1.097781974331883E+002
-1.457633094474031E+002	-1.2210461E+000	-1.2211535E+000	8.3769102E+000	1.099781974281359E+002
-1.476582334176757E+002	-1.2230538E+000	-1.2231535E+000	8.2830048E+000	1.101781974230835E+002
-1.518786929361939E+002	-1.2250473E+000	-1.2251536E+000	8.0659590E+000	1.103781974180311E+002
-1.528652159405406E+002	-1.2270432E+000	-1.2271537E+000	8.0269613E+000	1.105781974129786E+002
-1.551639840740404E+002	-1.2290611E+000	-1.2291543E+000	7.9210463E+000	1.107782974079237E+002
-1.589353296102438E+002	-1.2310386E+000	-1.2311563E+000	7.7455311E+000	1.109784974028662E+002
-1.616887104732918E+002	-1.2330564E+000	-1.2331575E+000	7.6261134E+000	1.111785973978112E+002
-1.634144736222944E+002	-1.2350577E+000	-1.2351575E+000	7.5578232E+000	1.113785973927588E+002
-1.641689022122596E+002	-1.2370805E+000	-1.2371576E+000	7.5354128E+000	1.115785973877064E+002
-1.645648781566663E+002	-1.2390629E+000	-1.2391576E+000	7.5293279E+000	1.117785973826540E+002
-1.649937696790771E+002	-1.2410561E+000	-1.2411582E+000	7.5218363E+000	1.119786973775990E+002
-1.692665506381750E+002	-1.2430561E+000	-1.2431602E+000	7.3437786E+000	1.121788973725415E+002
-1.720173638964454E+002	-1.2450544E+000	-1.2451615E+000	7.2379575E+000	1.123789973674866E+002
-1.737421855872446E+002	-1.2470664E+000	-1.2471616E+000	7.1776834E+000	1.125789973624342E+002
-1.759772311759907E+002	-1.2490473E+000	-1.2491616E+000	7.0977778E+000	1.127789973573817E+002
-1.807866196308003E+002	-1.2510724E+000	-1.2511616E+000	6.9201603E+000	1.129789973523293E+002
-1.819801611921951E+002	-1.2530704E+000	-1.2531615E+000	6.8857527E+000	1.131789973472769E+002
-1.824362249352762E+002	-1.2550730E+000	-1.2551616E+000	6.8795161E+000	1.133789973422245E+002
-1.854730333152643E+002	-1.2570685E+000	-1.2571635E+000	6.7776351E+000	1.135791973371670E+002
-1.884424803698794E+002	-1.2590823E+000	-1.2591662E+000	6.6815205E+000	1.137794973321070E+002
-1.895949655529012E+002	-1.2611115E+000	-1.2611684E+000	6.6516085E+000	1.139796973270495E+002
-1.906400388644124E+002	-1.2630718E+000	-1.2631695E+000	6.6254277E+000	1.141797973219946E+002
-1.908635633786525E+002	-1.2650822E+000	-1.2651695E+000	6.6282020E+000	1.143797973169421E+002
-1.930721967842032E+002	-1.2670780E+000	-1.2671696E+000	6.5627160E+000	1.145797973118897E+002
-1.965622982773380E+002	-1.2691103E+000	-1.2691696E+000	6.4565296E+000	1.147797973068373E+002
-2.010160309030352E+002	-1.2710956E+000	-1.2711695E+000	6.3233547E+000	1.149797973017849E+002
-2.017887220425955E+002	-1.2730978E+000	-1.2731696E+000	6.3090630E+000	1.151797972967324E+002
-2.016889113586658E+002	-1.2751096E+000	-1.2751703E+000	6.3221602E+000	1.153798972916775E+002
-2.017652206035227E+002	-1.2770901E+000	-1.2771723E+000	6.3295846E+000	1.155800972866200E+002
-2.030304478963653E+002	-1.2790897E+000	-1.2791744E+000	6.2999897E+000	1.157802972815625E+002
-2.079372006414155E+002	-1.2810980E+000	-1.2811756E+000	6.1609850E+000	1.159803972765076E+002
-2.107904865063201E+002	-1.2831011E+000	-1.2831753E+000	6.0870919E+000	1.161803972714551E+002
-2.099697511417794E+002	-1.2851121E+000	-1.2851756E+000	6.1204634E+000	1.163803972664027E+002
-2.093560701465394E+002	-1.2871025E+000	-1.2871755E+000	6.1479111E+000	1.165803972613503E+002
-2.110821621347732E+002	-1.2891159E+000	-1.2891756E+000	6.1071758E+000	1.167803972562979E+002
-2.174200623722040E+002	-1.2911161E+000	-1.2911756E+000	5.9383488E+000	1.169803972512454E+002
-2.208191421426613E+002	-1.2931261E+000	-1.2931756E+000	5.8560419E+000	1.171803972461930E+002
-2.230014812097527E+002	-1.2951260E+000	-1.2951756E+000	5.8077011E+000	1.173803972411406E+002
-2.269267525791856E+002	-1.2971051E+000	-1.2971755E+000	5.7159638E+000	1.175803972360882E+002
-2.321845612536749E+002	-1.2991147E+000	-1.2991755E+000	5.5951815E+000	1.177803972310357E+002
-2.341579322397502E+002	-1.3011279E+000	-1.3011764E+000	5.5566254E+000	1.179804972259808E+002
-2.345680622373297E+002	-1.3031089E+000	-1.3031776E+000	5.5553555E+000	1.181805972209258E+002
-2.368311612395203E+002	-1.3051294E+000	-1.3051776E+000	5.5108008E+000	1.183805972158734E+002
-2.380990322939110E+002	-1.3071431E+000	-1.3071775E+000	5.4899135E+000	1.185805972108210E+002
-2.398524586994422E+002	-1.3091462E+000	-1.3091811E+000	5.4581313E+000	1.187809972057585E+002
-2.416617063773197E+002	-1.3111558E+000	-1.3111836E+000	5.4255838E+000	1.189811972007010E+002
-2.427513880307977E+002	-1.3131417E+000	-1.3131835E+000	5.4094095E+000	1.191811971956486E+002
-2.453640163058819E+002	-1.3151517E+000	-1.3151844E+000	5.3600025E+000	1.193812971905936E+002
-2.474135303800069E+002	-1.3171411E+000	-1.3171855E+000	5.3236418E+000	1.195813971855387E+002
-2.475785997697830E+002	-1.3191506E+000	-1.3191855E+000	5.3282094E+000	1.197813971804862E+002
-2.474536893781781E+002	-1.3211648E+000	-1.3211863E+000	5.3390388E+000	1.199814971754313E+002
-2.509610469779195E+002	-1.3231694E+000	-1.3231876E+000	5.2724094E+000	1.201815971703763E+002
-2.535571959835061E+002	-1.3251404E+000	-1.3251877E+000	5.2261992E+000	1.203815971653239E+002
-2.538844424595879E+002	-1.3271478E+000	-1.3271883E+000	5.2273698E+000	1.205816971602690E+002
-2.543473280606086E+002	-1.3291336E+000	-1.3291895E+000	5.2256637E+000	1.207817971552140E+002
-2.576105039946889E+002	-1.3311259E+000	-1.3311895E+000	5.1672034E+000	1.209817971501616E+002
-2.604055826961317E+002	-1.3331515E+000	-1.3331896E+000	5.1195197E+000	1.211817971451092E+002
-2.618611232584326E+002	-1.3351505E+000	-1.3351904E+000	5.0986967E+000	1.213818971400542E+002
-2.646659187457913E+002	-1.3371521E+000	-1.3371924E+000	5.0522265E+000	1.215820971349967E+002
-2.718071302148210E+002	-1.3391582E+000	-1.3391944E+000	4.9268694E+000	1.217822971299393E+002
-2.759308541767173E+002	-1.3411720E+000	-1.3411956E+000	4.8605366E+000	1.219823971248843E+002
-2.766614075939668E+002	-1.3431652E+000	-1.3431956E+000	4.8549061E+000	1.221823971198319E+002
-2.788713066039019E+002	-1.3449835E+000	-1.3449965E+000	4.8229537E+000	1.223624971152822E+002
-2.785831827552502E+002	-1.3466887E+000	-1.3466970E+000	4.8340635E+000	1.225325971109851E+002
-2.798910601781745E+002	-1.3483982E+000	-1.3484012E+000	4.8175821E+000	1.227029971066804E+002
-2.801098995565762E+002	-1.3499016E+000	-1.3499045E+000	4.8191853E+000	1.228533971028810E+002
-2.802237857756317E+002	-1.3513049E+000	-1.3513093E+000	4.8222346E+000	1.229938970993317E+002
-2.850745336003738E+002	-1.3527936E+000	-1.3528136E+000	4.7454033E+000	1.231442970955322E+002
-2.860285360083394E+002	-1.3543198E+000	-1.3543189E+000	4.7349114E+000	1.232947970917303E+002
-2.858415474914264E+002	-1.3556904E+000	-1.3557228E+000	4.7428036E+000	1.234351970881835E+002
-2.881755849010569E+002	-1.3571051E+000	-1.3571267E+000	4.7092996E+000	1.235755970846367E+002
-2.937432530370234E+002	-1.3586341E+000	-1.3586328E+000	4.6252437E+000	1.237261970808322E+002
-2.935275925731717E+002	-1.3602254E+000	-1.3602366E+000	4.6340632E+000	1.238864970767827E+002
-2.931191012900681E+002	-1.3618109E+000	-1.3618386E+000	4.6459303E+000	1.240467970727332E+002
-2.932717876847107E+002	-1.3634272E+000	-1.3634419E+000	4.6490226E+000	1.242070970686837E+002
-2.932930971856308E+002	-1.3650197E+000	-1.3650458E+000	4.6541147E+000	1.243674970646316E+002
-2.935350106533319E+002	-1.3667264E+000	-1.3667498E+000	4.6560931E+000	1.245378970603269E+002
-2.940767131955063E+002	-1.3685364E+000	-1.3685538E+000	4.6536713E+000	1.247182970557697E+002
-2.990365555746598E+002	-1.3703394E+000	-1.3703580E+000	4.5825148E+000	1.248986970512124E+002
-3.063089113731548E+002	-1.3719271E+000	-1.3719627E+000	4.4789004E+000	1.250591970471578E+002
-3.110826715649437E+002	-1.3732401E+000	-1.3732679E+000	4.4143896E+000	1.251896970438611E+002
-3.073564360535256E+002	-1.3749636E+000	-1.3749727E+000	4.4735150E+000	1.253601970395539E+002
-3.054239400731294E+002	-1.3765579E+000	-1.3765780E+000	4.5070400E+000	1.255206970354993E+002
-3.095264714842260E+002	-1.3780394E+000	-1.3780810E+000	4.4520888E+000	1.256709970317024E+002
-3.139714936855951E+002	-1.3796725E+000	-1.3796848E+000	4.3942604E+000	1.258313970276504E+002
-3.145001408287271E+002	-1.3811822E+000	-1.3811883E+000	4.3916745E+000	1.259816970238535E+002
-3.144437551908752E+002	-1.3825761E+000	-1.3825898E+000	4.3968949E+000	1.261218970203117E+002
-3.192620348366163E+002	-1.3840896E+000	-1.3840933E+000	4.3352776E+000	1.262721970165148E+002
-3.214124178204206E+002	-1.3857985E+000	-1.3857960E+000	4.3115897E+000	1.264424970122127E+002
-3.232381783509627E+002	-1.3875986E+000	-1.3876005E+000	4.2928057E+000	1.266229970076529E+002
-3.225836553647632E+002	-1.3893987E+000	-1.3894042E+000	4.3070955E+000	1.268032970030981E+002
-3.237753494196422E+002	-1.3911084E+000	-1.3911062E+000	4.2965236E+000	1.269734969987985E+002
-3.242132431497575E+002	-1.3926072E+000	-1.3926115E+000	4.2953434E+000	1.271240969949940E+002
-3.240206696473397E+002	-1.3942974E+000	-1.3943144E+000	4.3031125E+000	1.272942969906944E+002
-3.255005857995170E+002	-1.3961084E+000	-1.3961170E+000	4.2891116E+000	1.274745969861397E+002
-3.280582400115018E+002	-1.3976014E+000	-1.3976206E+000	4.2602234E+000	1.276249969823402E+002
-3.310088995551223E+002	-1.3991066E+000	-1.3991251E+000	4.2267947E+000	1.277753969785408E+002
-3.370227787702142E+002	-1.4007182E+000	-1.4007289E+000	4.1561527E+000	1.279357969744888E+002
-3.350086330954084E+002	-1.4022286E+000	-1.4022349E+000	4.1856489E+000	1.280863969706843E+002
-3.368791772707746E+002	-1.4038113E+000	-1.4038388E+000	4.1671062E+000	1.282467969666322E+002
-3.385882074760930E+002	-1.4056367E+000	-1.4056429E+000	4.1514635E+000	1.284271969620750E+002
-3.385177061638642E+002	-1.4072484E+000	-1.4072443E+000	4.1570892E+000	1.285873969580280E+002
-3.362656286244094E+002	-1.4087430E+000	-1.4087491E+000	4.1893754E+000	1.287377969542285E+002
-3.376468732064759E+002	-1.4103518E+000	-1.4103510E+000	4.1770024E+000	1.288979969501816E+002
-3.436318375242862E+002	-1.4120451E+000	-1.4120547E+000	4.1091800E+000	1.290683969458769E+002
-3.539281083979349E+002	-1.4134521E+000	-1.4134616E+000	3.9936137E+000	1.292090969423225E+002
-3.530351545197033E+002	-1.4148732E+000	-1.4148657E+000	4.0077405E+000	1.293494969387757E+002
-3.649008634237798E+002	-1.4161971E+000	-1.4162698E+000	3.8810461E+000	1.294898969352289E+002
-3.789891185828719E+002	-1.4176610E+000	-1.4176747E+000	3.7406375E+000	1.296303969316796E+002
-3.761288180728691E+002	-1.4190009E+000	-1.4189785E+000	3.7726460E+000	1.297607969283854E+002
-3.747934761883416E+002	-1.4202703E+000	-1.4202818E+000	3.7894745E+000	1.298910969250937E+002
-3.762679853511763E+002	-1.4217774E+000	-1.4217856E+000	3.7786295E+000	1.300414969212943E+002
-3.759416385687682E+002	-1.4234787E+000	-1.4234891E+000	3.7864354E+000	1.302117969169922E+002
-3.770258484568764E+002	-1.4250851E+000	-1.4250916E+000	3.7798073E+000	1.303720969129427E+002
-3.798456958939300E+002	-1.4265772E+000	-1.4265956E+000	3.7556756E+000	1.305224969091432E+002
-3.803276466839525E+002	-1.4280068E+000	-1.4280016E+000	3.7546751E+000	1.306630969055914E+002
-3.793709141908935E+002	-1.4296877E+000	-1.4297045E+000	3.7685750E+000	1.308333969012892E+002
-3.772872821936971E+002	-1.4313343E+000	-1.4313080E+000	3.7937517E+000	1.309936968972397E+002
-3.759282023868736E+002	-1.4327182E+000	-1.4327123E+000	3.8111484E+000	1.311341968936904E+002
-3.747217886829885E+002	-1.4342201E+000	-1.4342184E+000	3.8274264E+000	1.312847968898859E+002
-3.753105950349764E+002	-1.4354227E+000	-1.4354235E+000	3.8246260E+000	1.314052968868418E+002
-3.752372728233677E+002	-1.4368294E+000	-1.4368271E+000	3.8291223E+000	1.315455968832975E+002
-3.733868976419858E+002	-1.4384345E+000	-1.4384321E+000	3.8523967E+000	1.317060968792430E+002
-3.740630270727670E+002	-1.4401323E+000	-1.4401345E+000	3.8499722E+000	1.318763968749408E+002
-3.745514661793613E+002	-1.4416308E+000	-1.4416388E+000	3.8489525E+000	1.320267968711414E+002
-3.814627112642006E+002	-1.4431489E+000	-1.4431423E+000	3.7831976E+000	1.321771968673420E+002
-3.834831459627767E+002	-1.4445723E+000	-1.4445506E+000	3.7669773E+000	1.323179968637851E+002
-3.864546164884537E+002	-1.4463830E+000	-1.4463549E+000	3.7426982E+000	1.324983968592278E+002
-3.848686603952992E+002	-1.4480867E+000	-1.4480599E+000	3.7625477E+000	1.326688968549206E+002
-3.830709384549064E+002	-1.4495981E+000	-1.4495646E+000	3.7841504E+000	1.328193968511187E+002
-3.835606046121236E+002	-1.4509097E+000	-1.4508709E+000	3.7827392E+000	1.329499968478194E+002
-3.856270116310463E+002	-1.4522021E+000	-1.4521767E+000	3.7658205E+000	1.330805968445202E+002
-3.899939966362335E+002	-1.4536709E+000	-1.4536780E+000	3.7274187E+000	1.332306968407283E+002
-3.909748164230105E+002	-1.4553968E+000	-1.4553819E+000	3.7224822E+000	1.334010968364237E+002
-3.983028019036469E+002	-1.4568895E+000	-1.4568865E+000	3.6577435E+000	1.335515968326217E+002
-4.050046830750525E+002	-1.4584177E+000	-1.4583925E+000	3.6009896E+000	1.337021968288173E+002
-4.162734235804428E+002	-1.4600143E+000	-1.4599978E+000	3.5073445E+000	1.338626968247627E+002
-4.132290604684977E+002	-1.4615293E+000	-1.4615009E+000	3.5368502E+000	1.340129968209658E+002
-4.159431374186424E+002	-1.4632336E+000	-1.4632045E+000	3.5178692E+000	1.341833968166611E+002
-4.193376768123112E+002	-1.4647386E+000	-1.4647098E+000	3.4929812E+000	1.343338968128592E+002
-4.174292513885803E+002	-1.4665383E+000	-1.4665145E+000	3.5132620E+000	1.345143968082994E+002
-4.178149648339986E+002	-1.4684671E+000	-1.4684204E+000	3.5146351E+000	1.347049968034844E+002
-4.239809496456214E+002	-1.4701617E+000	-1.4701250E+000	3.4675183E+000	1.348753967991797E+002
-4.240464441405693E+002	-1.4717540E+000	-1.4717308E+000	3.4707377E+000	1.350359967951226E+002
-4.261027906042582E+002	-1.4735614E+000	-1.4735363E+000	3.4582298E+000	1.352164967905628E+002
-4.265866244064928E+002	-1.4750388E+000	-1.4750409E+000	3.4577708E+000	1.353669967867609E+002
-4.318914885765234E+002	-1.4767654E+000	-1.4767420E+000	3.4192972E+000	1.355370967824638E+002
-4.345188391958209E+002	-1.4785789E+000	-1.4785441E+000	3.4027958E+000	1.357172967779115E+002
-4.343018344039847E+002	-1.4802693E+000	-1.4802439E+000	3.4083884E+000	1.358872967736170E+002
-4.349709936953277E+002	-1.4820800E+000	-1.4820453E+000	3.4073076E+000	1.360673967690673E+002
-4.334872174595221E+002	-1.4834824E+000	-1.4834468E+000	3.4222054E+000	1.362075967655255E+002
-4.390329318977003E+002	-1.4850912E+000	-1.4850490E+000	3.3826420E+000	1.363677967614785E+002
-4.378174470878791E+002	-1.4866819E+000	-1.4866537E+000	3.3956664E+000	1.365282967574240E+002
-4.394448698059960E+002	-1.4882952E+000	-1.4882568E+000	3.3867621E+000	1.366885967533744E+002
-4.382699032208238E+002	-1.4900025E+000	-1.4899606E+000	3.3997374E+000	1.368589967490698E+002
-4.380257709251464E+002	-1.4914840E+000	-1.4914671E+000	3.4050143E+000	1.370095967452653E+002
-4.408855366714270E+002	-1.4928756E+000	-1.4928706E+000	3.3860843E+000	1.371499967417185E+002
-4.458407051136574E+002	-1.4944030E+000	-1.4943756E+000	3.3518765E+000	1.373004967379165E+002
-4.433907350569198E+002	-1.4959862E+000	-1.4959815E+000	3.3739681E+000	1.374610967338594E+002
-4.431827814572171E+002	-1.4978167E+000	-1.4977878E+000	3.3796816E+000	1.376416967292971E+002
-4.437173766297140E+002	-1.4996238E+000	-1.4995944E+000	3.3796823E+000	1.378222967247348E+002
-4.427121955676539E+002	-1.5012286E+000	-1.5011941E+000	3.3909807E+000	1.379822967206928E+002
-4.420527916955114E+002	-1.5027162E+000	-1.5026979E+000	3.3994043E+000	1.381326967168934E+002
-4.511541548204887E+002	-1.5044293E+000	-1.5044017E+000	3.3346238E+000	1.383030967125887E+002
-4.525784714890469E+002	-1.5062312E+000	-1.5062071E+000	3.3281105E+000	1.384835967080289E+002
-4.509280464925905E+002	-1.5081466E+000	-1.5081117E+000	3.3445394E+000	1.386740967032165E+002
-4.611864643414299E+002	-1.5099514E+000	-1.5099185E+000	3.2740583E+000	1.388547966986516E+002
-4.754840984936251E+002	-1.5117445E+000	-1.5117242E+000	3.1793797E+000	1.390352966940918E+002
-4.780046678359851E+002	-1.5135689E+000	-1.5135231E+000	3.1664312E+000	1.392151966895472E+002
-4.861538804674910E+002	-1.5154717E+000	-1.5154234E+000	3.1172676E+000	1.394051966847474E+002
-4.889947482042028E+002	-1.5174811E+000	-1.5174233E+000	3.1032667E+000	1.396051966796949E+002
-4.909566945423616E+002	-1.5193604E+000	-1.5193232E+000	3.0946934E+000	1.397951966748951E+002
-5.008608290258544E+002	-1.5208991E+000	-1.5208260E+000	3.0365701E+000	1.399454966710982E+002
-4.934306191381665E+002	-1.5226947E+000	-1.5226275E+000	3.0859349E+000	1.401255966665485E+002
-4.959893494344343E+002	-1.5246863E+000	-1.5246273E+000	3.0740304E+000	1.403255966614961E+002
-5.000162582429348E+002	-1.5265011E+000	-1.5264270E+000	3.0529029E+000	1.405055966569489E+002
-5.005048931136271E+002	-1.5279958E+000	-1.5279281E+000	3.0529089E+000	1.406556966531571E+002
-4.969921889608233E+002	-1.5297965E+000	-1.5297282E+000	3.0781097E+000	1.408356966486099E+002
-5.053174020165825E+002	-1.5314796E+000	-1.5314270E+000	3.0307281E+000	1.410055966443178E+002
-5.083069221730125E+002	-1.5332950E+000	-1.5332273E+000	3.0164747E+000	1.411855966397707E+002
-5.119479202671173E+002	-1.5352215E+000	-1.5351272E+000	2.9987845E+000	1.413755966349709E+002
-5.094463626505540E+002	-1.5368118E+000	-1.5367281E+000	3.0166314E+000	1.415356966309264E+002
-5.104718149002456E+002	-1.5383016E+000	-1.5382270E+000	3.0134897E+000	1.416855966271396E+002
-5.171224844600520E+002	-1.5396675E+000	-1.5396280E+000	2.9773748E+000	1.418256966236004E+002
-5.163886790137622E+002	-1.5412983E+000	-1.5412284E+000	2.9847639E+000	1.419856966195584E+002
-5.206198031611793E+002	-1.5429926E+000	-1.5429270E+000	2.9637609E+000	1.421555966152664E+002
-5.154482887330250E+002	-1.5447184E+000	-1.5446280E+000	2.9968445E+000	1.423256966109693E+002
-5.144266808524990E+002	-1.5465130E+000	-1.5464294E+000	3.0062845E+000	1.425057966064196E+002
-5.137265117769748E+002	-1.5483916E+000	-1.5483291E+000	3.0140388E+000	1.426957966016198E+002
-5.169396828818899E+002	-1.5502069E+000	-1.5501291E+000	2.9988158E+000	1.428757965970726E+002
-5.197967080394246E+002	-1.5519087E+000	-1.5518303E+000	2.9856071E+000	1.430458965927755E+002
-5.164730635277429E+002	-1.5536131E+000	-1.5535301E+000	3.0081203E+000	1.432158965884810E+002
-5.158965441904929E+002	-1.5554979E+000	-1.5554293E+000	3.0151353E+000	1.434057965836837E+002
-5.161999406901086E+002	-1.5571898E+000	-1.5571289E+000	3.0166409E+000	1.435757965793891E+002
-5.162211858701817E+002	-1.5588973E+000	-1.5588293E+000	3.0198243E+000	1.437457965750946E+002
-5.220894066384571E+002	-1.5608900E+000	-1.5608294E+000	2.9896986E+000	1.439457965700421E+002
-5.319191665849048E+002	-1.5626657E+000	-1.5626302E+000	2.9377880E+000	1.441258965654924E+002
-5.381254341618105E+002	-1.5643797E+000	-1.5643314E+000	2.9070911E+000	1.442959965611954E+002
-5.424788191066588E+002	-1.5660405E+000	-1.5660323E+000	2.8868234E+000	1.444660965568983E+002
-5.617074762014217E+002	-1.5678908E+000	-1.5678314E+000	2.7912941E+000	1.446459965523536E+002
-5.561036312193260E+002	-1.5697995E+000	-1.5697322E+000	2.8228543E+000	1.448360965475513E+002
-5.505388887719719E+002	-1.5716069E+000	-1.5715313E+000	2.8546700E+000	1.450159965430066E+002
-5.512162420810691E+002	-1.5729868E+000	-1.5729320E+000	2.8536656E+000	1.451560965394674E+002
-5.519346281352796E+002	-1.5735947E+000	-1.5735310E+000	2.8510528E+000	1.451999965383584E+002