EC-Lab ASCII FILE
Nb header lines : 61                          

Linear Sweep Voltammetry

Run on channel : 1 (SN 1340)
User : 
Electrode connection : standard
Potential control : Ewe
Ewe ctrl range : min = -5.00 V, max = 5.00 V
Ewe,I filtering : <None>
Channel : Grounded
Acquisition started on : 01/29/2026 17:59:32.515
Technique started on : 01/29/2026 17:59:35.353
Loaded Setting File :  NONE
Saved on :
	File : PtPdCo_oxidized_IR_02_LSV_C01.mpr
	Directory : C:\Users\volt\Documents\Platalytix\
	Host : 127.0.0.1
Device : SP-200 (SN 0262)
Address : USB
EC-LAB for windows v11.60 (software)
Internet server v11.60 (firmware)
Command interpretor v11.60 (firmware)
Electrode material : PtPdNiCoCr
Initial state : 
Electrolyte : KOH (1 M)
Comments : 
Cable : standard
Reference electrode : Hg/HgO (0.140 V)
Electrode surface area : 1.000 cm˛
Characteristic mass : 0.001 g
Equivalent Weight : 0.000 g/eq.
Density : 0.000 g/cm3
Volume (V) : 0.001 cmł
Cycle Definition : Charge/Discharge alternance
tR (h:m:s)          0:00:5.0000         
dER/dt (mV/h)       0.0                 
dER (mV)            0                   
dtR (s)             0.0000              
dE/dt               10.000              
dE/dt unit          mV/s                
Ei (V)              -0.200              
vs.                 Ref                 
EL (V)              -2.000              
vs.                 Ref                 
record              <I>                 
dI                  0.000               
unit dI             µA                  
tI (s)              0.0000              
step percent        50                  
N                   10                  
E range min (V)     -5.000              
E range max (V)     5.000               
I Range             Auto                
I Range min         Unset               
I Range max         Unset               
I Range init        Unset               
Bandwidth           8                   

Rwe/Ohm	time/s	Ewe/V	<I>/mA	Pwe/W	control/V	error	
0.0000000E+000	2.838400134787662E+000	-1.3544025E-001	0.000000000000000E+000	0.0000000E+000	0.0000000E+000	0
0.0000000E+000	7.838200008482090E+000	3.9824262E-002	0.000000000000000E+000	0.0000000E+000	-1.9984457E-001	0
4.3318124E+002	8.038200003429665E+000	-2.0169774E-001	-4.656197395920756E-001	9.3914445E-005	-2.0174435E-001	0
4.9398917E+002	8.158200000398210E+000	-2.0297202E-001	-4.108835447028428E-001	8.3397863E-005	-2.0294440E-001	0
6.0274316E+002	8.368199995093164E+000	-2.0506088E-001	-3.402127124086167E-001	6.9764319E-005	-2.0504431E-001	0
6.7220544E+002	8.568199990040739E+000	-2.0711286E-001	-3.081094595052440E-001	6.3813430E-005	-2.0704423E-001	0
7.2592975E+002	8.768199984988314E+000	-2.0908210E-001	-2.880197423372994E-001	6.0219772E-005	-2.0904413E-001	0
7.7031750E+002	8.968199979935889E+000	-2.1111242E-001	-2.740589682004351E-001	5.7857254E-005	-2.1104403E-001	0
8.0871014E+002	9.168199974883464E+000	-2.1306379E-001	-2.634612661627993E-001	5.6134057E-005	-2.1304397E-001	0
8.4422333E+002	9.368199969831039E+000	-2.1509999E-001	-2.547903899694726E-001	5.4805412E-005	-2.1504439E-001	0
8.7447961E+002	9.568199964778614E+000	-2.1706064E-001	-2.482169214509380E-001	5.3878124E-005	-2.1704440E-001	0
9.0251996E+002	9.768199959726189E+000	-2.1908130E-001	-2.427439913892799E-001	5.3180669E-005	-2.1904442E-001	0
9.2867883E+002	9.968199954673764E+000	-2.2111599E-001	-2.380973713455593E-001	5.2647138E-005	-2.2104438E-001	0
9.5257794E+002	1.016819994962134E+001	-2.2305155E-001	-2.341556961113871E-001	5.2228792E-005	-2.2304441E-001	0
9.7577441E+002	1.036819994456891E+001	-2.2505718E-001	-2.306446832775766E-001	5.1908242E-005	-2.2504441E-001	0
9.9773175E+002	1.056819993951649E+001	-2.2706571E-001	-2.275819183747508E-001	5.1676052E-005	-2.2704440E-001	0
1.0187844E+003	1.076819993446406E+001	-2.2908768E-001	-2.248637548514778E-001	5.1513514E-005	-2.2904441E-001	0
1.0388660E+003	1.096819992941164E+001	-2.3108944E-001	-2.224439402172118E-001	5.1404448E-005	-2.3104441E-001	0
1.0588721E+003	1.116819992435921E+001	-2.3314513E-001	-2.201825373060576E-001	5.1334486E-005	-2.3304442E-001	0
1.0773634E+003	1.136819991930679E+001	-2.3507498E-001	-2.181946966045298E-001	5.1292114E-005	-2.3504439E-001	0
1.0955863E+003	1.156819991425436E+001	-2.3709567E-001	-2.164098395250083E-001	5.1309835E-005	-2.3704442E-001	0
1.1132594E+003	1.176819990920194E+001	-2.3907898E-001	-2.147558731979400E-001	5.1343617E-005	-2.3904438E-001	0
1.1309155E+003	1.196819990414951E+001	-2.4111345E-001	-2.132019948746482E-001	5.1405870E-005	-2.4104439E-001	0
1.1476948E+003	1.216819989909709E+001	-2.4303842E-001	-2.117622253715217E-001	5.1466355E-005	-2.4304442E-001	0
1.1647417E+003	1.236819989404466E+001	-2.4507585E-001	-2.104121872335836E-001	5.1566945E-005	-2.4504438E-001	0
1.1813479E+003	1.256819988899224E+001	-2.4708253E-001	-2.091530706763026E-001	5.1678071E-005	-2.4704440E-001	0
1.1969142E+003	1.276819988393981E+001	-2.4907559E-001	-2.080981171037366E-001	5.1832161E-005	-2.4904440E-001	0
1.2132712E+003	1.296819987888739E+001	-2.5106487E-001	-2.069321858977515E-001	5.1953401E-005	-2.5104439E-001	0
1.2295906E+003	1.316819987383496E+001	-2.5312373E-001	-2.058601777413500E-001	5.2108095E-005	-2.5304440E-001	0
1.2451382E+003	1.336819986878254E+001	-2.5506377E-001	-2.048477682363141E-001	5.2249245E-005	-2.5504440E-001	0
1.2606202E+003	1.356819986373011E+001	-2.5709507E-001	-2.039433156357666E-001	5.2432821E-005	-2.5704440E-001	0
1.2759341E+003	1.376819985867769E+001	-2.5906479E-001	-2.030393273385904E-001	5.2600342E-005	-2.5904441E-001	0
1.2905677E+003	1.396819985362527E+001	-2.6103941E-001	-2.022671010134030E-001	5.2799685E-005	-2.6104441E-001	0
1.3066460E+003	1.416819984857284E+001	-2.6308811E-001	-2.013461228160196E-001	5.2971769E-005	-2.6304439E-001	0
1.3223774E+003	1.436819984352042E+001	-2.6508245E-001	-2.004590006228404E-001	5.3138163E-005	-2.6504442E-001	0
1.3373284E+003	1.456819983846799E+001	-2.6701978E-001	-1.996665836254863E-001	5.3314929E-005	-2.6704440E-001	0
1.3528055E+003	1.476819983341557E+001	-2.6906821E-001	-1.988964427913000E-001	5.3516709E-005	-2.6904440E-001	0
1.3686104E+003	1.496819982836314E+001	-2.7106556E-001	-1.980589830027268E-001	5.3686970E-005	-2.7104440E-001	0
1.3847195E+003	1.516819982331072E+001	-2.7310172E-001	-1.972252940822425E-001	5.3862568E-005	-2.7304441E-001	0
1.4006436E+003	1.536819981825829E+001	-2.7505597E-001	-1.963782793696538E-001	5.4015018E-005	-2.7504441E-001	0
1.4166997E+003	1.556819981320587E+001	-2.7707767E-001	-1.955796714836229E-001	5.4190761E-005	-2.7704442E-001	0
1.4324114E+003	1.576819980815344E+001	-2.7910283E-001	-1.948482327515895E-001	5.4382694E-005	-2.7904439E-001	0
1.4478169E+003	1.596819980310102E+001	-2.8103924E-001	-1.941124170051378E-001	5.4553206E-005	-2.8104439E-001	0
1.4626953E+003	1.616819979804859E+001	-2.8305802E-001	-1.935180926900308E-001	5.4776847E-005	-2.8304440E-001	0
1.4779957E+003	1.636819979299617E+001	-2.8509712E-001	-1.928944162973742E-001	5.4993641E-005	-2.8504440E-001	0
1.4932821E+003	1.656819978794374E+001	-2.8709468E-001	-1.922575051604840E-001	5.5196106E-005	-2.8704438E-001	0
1.5086040E+003	1.676819978289132E+001	-2.8907397E-001	-1.916168737531447E-001	5.5391451E-005	-2.8904438E-001	0
1.5242893E+003	1.696819977783889E+001	-2.9106343E-001	-1.909502521695785E-001	5.5578636E-005	-2.9104441E-001	0
1.5414182E+003	1.716819977278647E+001	-2.9309028E-001	-1.901432579898548E-001	5.5729142E-005	-2.9304439E-001	0
1.5581927E+003	1.736819976773404E+001	-2.9506680E-001	-1.893647710418920E-001	5.5875258E-005	-2.9504439E-001	0
1.5753011E+003	1.756819976268162E+001	-2.9708683E-001	-1.885905018944278E-001	5.6027755E-005	-2.9704440E-001	0
1.5939535E+003	1.776819975762919E+001	-2.9907739E-001	-1.876324462596646E-001	5.6116623E-005	-2.9904440E-001	0
1.6118505E+003	1.796819975257677E+001	-3.0105412E-001	-1.867754658929108E-001	5.6229524E-005	-3.0104440E-001	0
1.6314702E+003	1.816819974752434E+001	-3.0305594E-001	-1.857563452974662E-001	5.6294564E-005	-3.0304444E-001	0
1.6515966E+003	1.836819974247192E+001	-3.0510905E-001	-1.847358287856951E-001	5.6364574E-005	-3.0504438E-001	0
1.6709811E+003	1.856819973741949E+001	-3.0709916E-001	-1.837837482895490E-001	5.6439836E-005	-3.0704439E-001	0
1.6916537E+003	1.876819973236707E+001	-3.0912557E-001	-1.827357284410045E-001	5.6488287E-005	-3.0904439E-001	0
1.7124515E+003	1.896819972731464E+001	-3.1105518E-001	-1.816432093420057E-001	5.6501063E-005	-3.1104439E-001	0
1.7341865E+003	1.916819972226222E+001	-3.1307036E-001	-1.805286505227888E-001	5.6518169E-005	-3.1304440E-001	0
1.7571610E+003	1.936819971720979E+001	-3.1509337E-001	-1.793195764183607E-001	5.6502409E-005	-3.1504440E-001	0
1.7802059E+003	1.956819971215737E+001	-3.1709284E-001	-1.781214293147400E-001	5.6481029E-005	-3.1704441E-001	0
1.8036022E+003	1.976819970710494E+001	-3.1909037E-001	-1.769183731781500E-001	5.6452947E-005	-3.1904441E-001	0
1.8276909E+003	1.996819970205252E+001	-3.2103950E-001	-1.756530608485565E-001	5.6391571E-005	-3.2104442E-001	0
1.8526630E+003	2.016819969700009E+001	-3.2307801E-001	-1.743857458660423E-001	5.6340199E-005	-3.2304439E-001	0
1.8777955E+003	2.036819969194767E+001	-3.2511353E-001	-1.731357436865781E-001	5.6288773E-005	-3.2504442E-001	0
1.9032827E+003	2.056819968689524E+001	-3.2707629E-001	-1.718485035728710E-001	5.6207569E-005	-3.2704440E-001	0
1.9308461E+003	2.076819968184282E+001	-3.2916930E-001	-1.704793123215814E-001	5.6116558E-005	-3.2904440E-001	0
1.9564630E+003	2.096819967679039E+001	-3.3106160E-001	-1.692143402531185E-001	5.6020370E-005	-3.3104441E-001	0
1.9847511E+003	2.116819967173797E+001	-3.3307803E-001	-1.678185358394337E-001	5.5896668E-005	-3.3304441E-001	0
2.0126465E+003	2.136819966668554E+001	-3.3510187E-001	-1.664981234675088E-001	5.5793833E-005	-3.3504441E-001	0
2.0413239E+003	2.156819966163312E+001	-3.3706844E-001	-1.651224755225893E-001	5.5657576E-005	-3.3704442E-001	0
2.0709487E+003	2.176819965658069E+001	-3.3907956E-001	-1.637315105302619E-001	5.5518009E-005	-3.3904439E-001	0
2.1003406E+003	2.196819965152827E+001	-3.4107411E-001	-1.623899042342364E-001	5.5386990E-005	-3.4104440E-001	0
2.1312542E+003	2.216819964647584E+001	-3.4310162E-001	-1.609857777036439E-001	5.5234483E-005	-3.4304440E-001	0
2.1620842E+003	2.236819964142342E+001	-3.4510466E-001	-1.596166601208147E-001	5.5084452E-005	-3.4504440E-001	0
2.1936775E+003	2.256819963637099E+001	-3.4711045E-001	-1.582322097689657E-001	5.4924054E-005	-3.4704438E-001	0
2.2259824E+003	2.276819963131857E+001	-3.4908599E-001	-1.568233349134556E-001	5.4744829E-005	-3.4904441E-001	0
2.2591670E+003	2.296819962626614E+001	-3.5111085E-001	-1.554160681257515E-001	5.4568267E-005	-3.5104442E-001	0
2.2941157E+003	2.316819962121372E+001	-3.5303834E-001	-1.538886314895758E-001	5.4328586E-005	-3.5304442E-001	0
2.3292666E+003	2.336819961616129E+001	-3.5513821E-001	-1.524678321910050E-001	5.4147153E-005	-3.5504442E-001	0
2.3648521E+003	2.356819961110887E+001	-3.5707992E-001	-1.509946154582560E-001	5.3917145E-005	-3.5704440E-001	0
2.4015305E+003	2.376819960605644E+001	-3.5906053E-001	-1.495132099302769E-001	5.3684293E-005	-3.5904443E-001	0
2.4377322E+003	2.396819960100402E+001	-3.6106378E-001	-1.481146259009507E-001	5.3478827E-005	-3.6104441E-001	0
2.4757151E+003	2.416819959595159E+001	-3.6307999E-001	-1.466566203140962E-001	5.3248084E-005	-3.6304444E-001	0
2.5147290E+003	2.436819959089917E+001	-3.6508432E-001	-1.451783951840733E-001	5.3002357E-005	-3.6504441E-001	0
2.5545044E+003	2.456819958584674E+001	-3.6704832E-001	-1.436867133277109E-001	5.2739968E-005	-3.6704439E-001	0
2.5955024E+003	2.476819958079432E+001	-3.6906984E-001	-1.421959208569525E-001	5.2480227E-005	-3.6904439E-001	0
2.6362207E+003	2.496819957574189E+001	-3.7108183E-001	-1.407628084317503E-001	5.2234522E-005	-3.7104440E-001	0
2.6779136E+003	2.516819957068947E+001	-3.7306049E-001	-1.393101321345362E-001	5.1971107E-005	-3.7304443E-001	0
2.7226436E+003	2.536819956563704E+001	-3.7508303E-001	-1.377642800547862E-001	5.1673043E-005	-3.7504441E-001	0
2.7654941E+003	2.556819956058462E+001	-3.7706676E-001	-1.363469696194015E-001	5.1411909E-005	-3.7704441E-001	0
2.8117700E+003	2.576819955553219E+001	-3.7907878E-001	-1.348185561155977E-001	5.1106854E-005	-3.7904444E-001	0
2.8566753E+003	2.596819955047977E+001	-3.8104722E-001	-1.333883581809754E-001	5.0827264E-005	-3.8104442E-001	0
2.9043491E+003	2.616819954542734E+001	-3.8306749E-001	-1.318944412349066E-001	5.0524472E-005	-3.8304439E-001	0
2.9519902E+003	2.636819954037492E+001	-3.8508797E-001	-1.304502795078706E-001	5.0234834E-005	-3.8504443E-001	0
3.0030564E+003	2.656819953532249E+001	-3.8712943E-001	-1.289118034089332E-001	4.9905553E-005	-3.8704440E-001	0
3.0511145E+003	2.676819953027007E+001	-3.8908070E-001	-1.275208451586631E-001	4.9615901E-005	-3.8904440E-001	0
3.0999749E+003	2.696819952521764E+001	-3.9105618E-001	-1.261481817435819E-001	4.9331025E-005	-3.9104438E-001	0
3.1516382E+003	2.716819952016522E+001	-3.9310023E-001	-1.247288628086416E-001	4.9030947E-005	-3.9304444E-001	0
3.2037554E+003	2.736819951511279E+001	-3.9506081E-001	-1.233117914443957E-001	4.8715658E-005	-3.9504442E-001	0
3.2573066E+003	2.756819951006037E+001	-3.9708763E-001	-1.219067439329211E-001	4.8407659E-005	-3.9704436E-001	0
3.3111882E+003	2.776819950500794E+001	-3.9908719E-001	-1.205268848524805E-001	4.8100737E-005	-3.9904431E-001	0
3.3645566E+003	2.796819949995552E+001	-4.0107316E-001	-1.192053544109102E-001	4.7810066E-005	-4.0104416E-001	0
3.4218997E+003	2.816819949490309E+001	-4.0309098E-001	-1.177974255774549E-001	4.7483081E-005	-4.0304407E-001	0
3.4774800E+003	2.836819948985067E+001	-4.0505826E-001	-1.164804053452719E-001	4.7181351E-005	-4.0504399E-001	0
3.5344792E+003	2.856819948479824E+001	-4.0706399E-001	-1.151694364068596E-001	4.6881330E-005	-4.0704387E-001	0
3.5930886E+003	2.876819947974582E+001	-4.0910959E-001	-1.138601454994864E-001	4.6581277E-005	-4.0904379E-001	0
3.6524133E+003	2.896819947469339E+001	-4.1107547E-001	-1.125490029454406E-001	4.6266134E-005	-4.1104373E-001	0
3.7086982E+003	2.916819946964097E+001	-4.1309983E-001	-1.113867418378036E-001	4.6013844E-005	-4.1304359E-001	0
3.7686753E+003	2.936819946458854E+001	-4.1511807E-001	-1.101495978610414E-001	4.5725090E-005	-4.1504347E-001	0
3.8277114E+003	2.956819945953612E+001	-4.1709960E-001	-1.089683994143999E-001	4.5450673E-005	-4.1704342E-001	0
3.8882117E+003	2.976819945448369E+001	-4.1912377E-001	-1.077934532572016E-001	4.5178800E-005	-4.1904330E-001	0
3.9480452E+003	2.996819944943127E+001	-4.2110929E-001	-1.066627364770397E-001	4.4916669E-005	-4.2104319E-001	0
4.0099009E+003	3.016819944437884E+001	-4.2313433E-001	-1.055223929797150E-001	4.4650147E-005	-4.2304304E-001	0
4.0725854E+003	3.036819943932642E+001	-4.2510885E-001	-1.043830418319369E-001	4.4374156E-005	-4.2504299E-001	0
4.1306025E+003	3.056819943427399E+001	-4.2710444E-001	-1.034000396544781E-001	4.4162618E-005	-4.2704290E-001	0
4.1927378E+003	3.076819942922157E+001	-4.2907530E-001	-1.023377383406570E-001	4.3910597E-005	-4.2904279E-001	0
4.2562397E+003	3.096819942416914E+001	-4.3109569E-001	-1.012855733696232E-001	4.3663775E-005	-4.3104270E-001	0
4.3154717E+003	3.116809941911924E+001	-4.3310800E-001	-1.003616862805541E-001	4.3467451E-005	-4.3304279E-001	0
4.3681211E+003	3.136799941406935E+001	-4.3505386E-001	-9.959748072461005E-002	4.3330267E-005	-4.3504250E-001	0
4.4195605E+003	3.156799940901692E+001	-4.3709779E-001	-9.890073072904348E-002	4.3229291E-005	-4.3704236E-001	0
4.4784131E+003	3.176799940396450E+001	-4.3909582E-001	-9.804719360967651E-002	4.3052114E-005	-4.3904230E-001	0
4.5398018E+003	3.196799939891207E+001	-4.4111237E-001	-9.716556263589188E-002	4.2860931E-005	-4.4104216E-001	0
4.5980845E+003	3.216799939385965E+001	-4.4310215E-001	-9.636668844862306E-002	4.2700289E-005	-4.4304210E-001	0
4.6552017E+003	3.236799938880722E+001	-4.4509473E-001	-9.561234387799411E-002	4.2556552E-005	-4.4504195E-001	0
4.7134580E+003	3.256799938375480E+001	-4.4708624E-001	-9.485312617255104E-002	4.2407530E-005	-4.4704190E-001	0
4.7732764E+003	3.276799937870237E+001	-4.4909236E-001	-9.408471778577901E-002	4.2252726E-005	-4.4904175E-001	0
4.8293657E+003	3.296799937364995E+001	-4.5110318E-001	-9.340837339674257E-002	4.2136813E-005	-4.5104167E-001	0
4.8855415E+003	3.316799936859752E+001	-4.5312461E-001	-9.274808227775116E-002	4.2026440E-005	-4.5304161E-001	0
4.9416792E+003	3.336799936354510E+001	-4.5512146E-001	-9.209854726609923E-002	4.1916024E-005	-4.5504147E-001	0
4.9957310E+003	3.356799935849267E+001	-4.5710763E-001	-9.149965374200408E-002	4.1825191E-005	-4.5704141E-001	0
5.0460723E+003	3.376799935344025E+001	-4.5913622E-001	-9.098883441442407E-002	4.1776268E-005	-4.5904127E-001	0
5.0993594E+003	3.396799934838782E+001	-4.6113345E-001	-9.042967940509616E-002	4.1700150E-005	-4.6104118E-001	0
5.1507114E+003	3.416799934333540E+001	-4.6309799E-001	-8.990952221237403E-002	4.1636918E-005	-4.6304107E-001	0
5.2000591E+003	3.436799933828297E+001	-4.6511921E-001	-8.944498250617872E-002	4.1602580E-005	-4.6504098E-001	0
5.2524614E+003	3.456799933323055E+001	-4.6710074E-001	-8.892987256599372E-002	4.1539210E-005	-4.6704090E-001	0
5.3013301E+003	3.476799932817812E+001	-4.6907082E-001	-8.848172487995160E-002	4.1504194E-005	-4.6904078E-001	0
5.3493052E+003	3.496799932312570E+001	-4.7111514E-001	-8.807034592266683E-002	4.1491272E-005	-4.7104073E-001	0
5.3930293E+003	3.516789931807580E+001	-4.7307578E-001	-8.771986242979724E-002	4.1498140E-005	-4.7304103E-001	0
5.4382881E+003	3.536779931302590E+001	-4.7509456E-001	-8.736104947248746E-002	4.1504758E-005	-4.7504053E-001	0
5.4826943E+003	3.556779930797347E+001	-4.7711217E-001	-8.702148173359170E-002	4.1519008E-005	-4.7704038E-001	0
5.5238213E+003	3.576779930292105E+001	-4.7910833E-001	-8.673494479190302E-002	4.1555435E-005	-4.7904029E-001	0
5.5708960E+003	3.596779929786862E+001	-4.8113829E-001	-8.636640753943348E-002	4.1554187E-005	-4.8104018E-001	0
5.6069414E+003	3.616779929281620E+001	-4.8311335E-001	-8.616343712383501E-002	4.1626707E-005	-4.8304006E-001	0
5.6477402E+003	3.636779928776377E+001	-4.8514521E-001	-8.590076213793363E-002	4.1674342E-005	-4.8504001E-001	0
5.6887642E+003	3.656779928271135E+001	-4.8707521E-001	-8.562056913332006E-002	4.1703657E-005	-4.8703986E-001	0
5.7240942E+003	3.676779927765892E+001	-4.8907813E-001	-8.544201309615307E-002	4.1787822E-005	-4.8903981E-001	0
5.7630181E+003	3.696779927260650E+001	-4.9110574E-001	-8.521676105774426E-002	4.1850439E-005	-4.9103966E-001	0
5.8019663E+003	3.716779926755407E+001	-4.9312839E-001	-8.499332507354201E-002	4.1912623E-005	-4.9303961E-001	0
5.8396753E+003	3.736779926250165E+001	-4.9511865E-001	-8.478530322607025E-002	4.1978783E-005	-4.9503946E-001	0
5.8760620E+003	3.756779925744922E+001	-4.9715510E-001	-8.460684868247335E-002	4.2062726E-005	-4.9703938E-001	0
5.9143843E+003	3.776779925239680E+001	-4.9908149E-001	-8.438435384144150E-002	4.2114669E-005	-4.9903929E-001	0
5.9449634E+003	3.796779924734437E+001	-5.0106943E-001	-8.428469273713676E-002	4.2232481E-005	-5.0103921E-001	0
5.9798877E+003	3.816779924229195E+001	-5.0306576E-001	-8.412628802217426E-002	4.2321055E-005	-5.0303912E-001	0
6.0125063E+003	3.836779923723952E+001	-5.0511140E-001	-8.401012288294551E-002	4.2434469E-005	-5.0503898E-001	0
6.0483657E+003	3.856779923218710E+001	-5.0710374E-001	-8.384144906790869E-002	4.2516313E-005	-5.0703895E-001	0
6.0822764E+003	3.876779922713467E+001	-5.0917292E-001	-8.371420092553372E-002	4.2625004E-005	-5.0903881E-001	0
6.1112251E+003	3.896769922208478E+001	-5.1111943E-001	-8.363616626454817E-002	4.2748070E-005	-5.1103830E-001	0
6.1417256E+003	3.916759921703488E+001	-5.1311982E-001	-8.354652483573788E-002	4.2869378E-005	-5.1303858E-001	0
6.1747568E+003	3.936759921198245E+001	-5.1510197E-001	-8.342061108907450E-002	4.2970121E-005	-5.1503855E-001	0
6.2063760E+003	3.956759920693003E+001	-5.1707309E-001	-8.331320529049702E-002	4.3079017E-005	-5.1703840E-001	0
6.2380649E+003	3.976759920187760E+001	-5.1908076E-001	-8.321182401544602E-002	4.3193657E-005	-5.1903832E-001	0
6.2633311E+003	3.996759919682518E+001	-5.2107012E-001	-8.319376918219024E-002	4.3349788E-005	-5.2103817E-001	0
6.2970596E+003	4.016759919177275E+001	-5.2306885E-001	-8.306556882636629E-002	4.3449010E-005	-5.2303809E-001	0
6.3293428E+003	4.036759918672033E+001	-5.2509254E-001	-8.296162482824099E-002	4.3562530E-005	-5.2503806E-001	0
6.3594824E+003	4.056759918166790E+001	-5.2708852E-001	-8.288230192573054E-002	4.3686308E-005	-5.2703792E-001	0
6.3840488E+003	4.076759917661548E+001	-5.2912784E-001	-8.288279990190439E-002	4.3855598E-005	-5.2903777E-001	0
6.4188457E+003	4.096759917156305E+001	-5.3106666E-001	-8.273553677524115E-002	4.3938086E-005	-5.3103769E-001	0
6.4474106E+003	4.116759916651063E+001	-5.3313774E-001	-8.269020920944606E-002	4.4085271E-005	-5.3303760E-001	0
6.4722378E+003	4.136759916145820E+001	-5.3506666E-001	-8.267104690746657E-002	4.4234523E-005	-5.3503752E-001	0
6.5041108E+003	4.156759915640578E+001	-5.3708047E-001	-8.257554271554102E-002	4.4349712E-005	-5.3703737E-001	0
6.5258525E+003	4.176759915135335E+001	-5.3910547E-001	-8.261073378280090E-002	4.4535900E-005	-5.3903735E-001	0
6.5511387E+003	4.196759914630093E+001	-5.4112643E-001	-8.260036510037372E-002	4.4697241E-005	-5.4103714E-001	0
6.5810059E+003	4.216759914124850E+001	-5.4309291E-001	-8.252430145202183E-002	4.4818364E-005	-5.4303718E-001	0
6.6108535E+003	4.236759913619608E+001	-5.4513621E-001	-8.246079008485652E-002	4.4952361E-005	-5.4503697E-001	0
6.6314224E+003	4.256759913114365E+001	-5.4708719E-001	-8.249922163305151E-002	4.5134268E-005	-5.4703689E-001	0
6.6591387E+003	4.276759912609123E+001	-5.4913002E-001	-8.246261836451985E-002	4.5282701E-005	-5.4903680E-001	0
6.6884053E+003	4.296749912104133E+001	-5.5109978E-001	-8.239629021297379E-002	4.5408578E-005	-5.5103624E-001	0
6.7092109E+003	4.316739911599143E+001	-5.5311304E-001	-8.244084631876347E-002	4.5599107E-005	-5.5303663E-001	0
6.7345376E+003	4.336739911093900E+001	-5.5508989E-001	-8.242435115569036E-002	4.5752924E-005	-5.5503643E-001	0
6.7605889E+003	4.356739910588658E+001	-5.5708981E-001	-8.240255553226716E-002	4.5905625E-005	-5.5703640E-001	0
6.7842983E+003	4.376739910083415E+001	-5.5912149E-001	-8.241404707030342E-002	4.6079465E-005	-5.5903625E-001	0
6.8080552E+003	4.396739909578173E+001	-5.6111759E-001	-8.241965851214283E-002	4.6247122E-005	-5.6103623E-001	0
6.8299639E+003	4.416739909072930E+001	-5.6307286E-001	-8.244155508692019E-002	4.6420602E-005	-5.6303608E-001	0
6.8538716E+003	4.436739908567688E+001	-5.6514603E-001	-8.245646859236166E-002	4.6599947E-005	-5.6503606E-001	0
6.8791387E+003	4.456739908062445E+001	-5.6708682E-001	-8.243572953275424E-002	4.6748217E-005	-5.6703591E-001	0
6.9030400E+003	4.476739907557203E+001	-5.6907982E-001	-8.243901211115834E-002	4.6914378E-005	-5.6903577E-001	0
6.9212134E+003	4.496739907051960E+001	-5.7108188E-001	-8.251181435127197E-002	4.7121001E-005	-5.7103574E-001	0
6.9424502E+003	4.516739906546718E+001	-5.7304031E-001	-8.254150944062921E-002	4.7299611E-005	-5.7303554E-001	0
6.9608511E+003	4.536739906041475E+001	-5.7505262E-001	-8.261240078843812E-002	4.7506477E-005	-5.7503551E-001	0
6.9808389E+003	4.556739905536233E+001	-5.7704514E-001	-8.266129185310467E-002	4.7699297E-005	-5.7703537E-001	0
6.9957808E+003	4.576739905030990E+001	-5.7906938E-001	-8.277408980770784E-002	4.7931939E-005	-5.7903534E-001	0
7.0148726E+003	4.596739904525748E+001	-5.8109438E-001	-8.283748454783849E-002	4.8136397E-005	-5.8103520E-001	0
7.0326626E+003	4.616739904020505E+001	-5.8307630E-001	-8.290974967405529E-002	4.8342710E-005	-5.8303511E-001	0
7.0513667E+003	4.636739903515263E+001	-5.8507264E-001	-8.297294412439693E-002	4.8545200E-005	-5.8503503E-001	0
7.0645908E+003	4.656739903010021E+001	-5.8710086E-001	-8.310472251912865E-002	4.8790855E-005	-5.8703488E-001	0
7.0816558E+003	4.676739902504778E+001	-5.8909923E-001	-8.318665125481184E-002	4.9005193E-005	-5.8903480E-001	0
7.0908853E+003	4.696729901999788E+001	-5.9108257E-001	-8.335808076697504E-002	4.9271508E-005	-5.9103495E-001	0
7.1036611E+003	4.716719901494798E+001	-5.9307754E-001	-8.348899461960435E-002	4.9515449E-005	-5.9303463E-001	0
7.1166577E+003	4.736719900989556E+001	-5.9509623E-001	-8.362018423632245E-002	4.9762057E-005	-5.9503448E-001	0
7.1272437E+003	4.756719900484313E+001	-5.9708196E-001	-8.377459681700589E-002	5.0020299E-005	-5.9703439E-001	0
7.1364648E+003	4.776719899979071E+001	-5.9907150E-001	-8.394513422435312E-002	5.0289138E-005	-5.9903425E-001	0
7.1467134E+003	4.796719899473828E+001	-6.0110837E-001	-8.410976096552725E-002	5.0559083E-005	-6.0103422E-001	0
7.1524268E+003	4.816719898968586E+001	-6.0309398E-001	-8.432018852427337E-002	5.0852999E-005	-6.0303414E-001	0
7.1692412E+003	4.836719898463343E+001	-6.0512710E-001	-8.440601916576168E-002	5.1076368E-005	-6.0503399E-001	0
7.1733252E+003	4.856719897958101E+001	-6.0705405E-001	-8.462659313603244E-002	5.1372917E-005	-6.0703391E-001	0
7.1812168E+003	4.876719897452858E+001	-6.0909039E-001	-8.481715421790015E-002	5.1661315E-005	-6.0903376E-001	0
7.1852446E+003	4.896719896947616E+001	-6.1106575E-001	-8.504452786245764E-002	5.1967796E-005	-6.1103374E-001	0
7.1903677E+003	4.916719896442373E+001	-6.1310673E-001	-8.526778811020763E-002	5.2278254E-005	-6.1303359E-001	0
7.1933135E+003	4.936719895937131E+001	-6.1510116E-001	-8.551012707004112E-002	5.2597377E-005	-6.1503351E-001	0
7.1942285E+003	4.956719895431888E+001	-6.1715305E-001	-8.578446564526465E-002	5.2942145E-005	-6.1703336E-001	0
7.1976675E+003	4.976719894926646E+001	-6.1910748E-001	-8.601501465684258E-002	5.3252541E-005	-6.1903328E-001	0
7.2025942E+003	4.996719894421403E+001	-6.2113267E-001	-8.623735548277950E-002	5.3564840E-005	-6.2103319E-001	0
7.2027095E+003	5.016719893916161E+001	-6.2311405E-001	-8.651106275909504E-002	5.3906260E-005	-6.2303305E-001	0
7.2088564E+003	5.036719893410918E+001	-6.2511736E-001	-8.671519249179260E-002	5.4207172E-005	-6.2503302E-001	0
7.2061904E+003	5.056719892905676E+001	-6.2709934E-001	-8.702231252718046E-002	5.4571636E-005	-6.2703288E-001	0
7.2089253E+003	5.076719892400433E+001	-6.2907708E-001	-8.726363969373319E-002	5.4895554E-005	-6.2903285E-001	0
7.2084414E+003	5.096709891895443E+001	-6.3112378E-001	-8.755343139939686E-002	5.5257053E-005	-6.3103294E-001	0
7.2089805E+003	5.116699891390454E+001	-6.3313580E-001	-8.782598573678624E-002	5.5605775E-005	-6.3303262E-001	0
7.2096538E+003	5.136699890885211E+001	-6.3510549E-001	-8.809098098458712E-002	5.5947065E-005	-6.3503247E-001	0
7.2059170E+003	5.156699890379969E+001	-6.3714278E-001	-8.841939038246460E-002	5.6335775E-005	-6.3703239E-001	0
7.1993164E+003	5.176699889874726E+001	-6.3910270E-001	-8.877269294569101E-002	5.6734869E-005	-6.3903230E-001	0
7.1989219E+003	5.196699889369484E+001	-6.4110714E-001	-8.905599433179012E-002	5.7094436E-005	-6.4103216E-001	0
7.1876079E+003	5.216699888864241E+001	-6.4317101E-001	-8.948331784727270E-002	5.7553076E-005	-6.4303213E-001	0
7.1831499E+003	5.236699888358999E+001	-6.4513338E-001	-8.981204717504487E-002	5.7940750E-005	-6.4503199E-001	0
7.1731807E+003	5.256699887853756E+001	-6.4714104E-001	-9.021674623858589E-002	5.8382961E-005	-6.4703196E-001	0
7.1717905E+003	5.276699887348514E+001	-6.4912492E-001	-9.051085581323015E-002	5.8752852E-005	-6.4903176E-001	0
7.1609224E+003	5.296699886843271E+001	-6.5111834E-001	-9.092660312954748E-002	5.9203980E-005	-6.5103173E-001	0
7.1461055E+003	5.316699886338029E+001	-6.5311384E-001	-9.139437479380952E-002	5.9690930E-005	-6.5303159E-001	0
7.1344438E+003	5.336699885832786E+001	-6.5511209E-001	-9.182384891895845E-002	6.0154915E-005	-6.5503144E-001	0
7.1205454E+003	5.356699885327544E+001	-6.5712714E-001	-9.228606977185327E-002	6.0643681E-005	-6.5703142E-001	0
7.1110469E+003	5.376699884822301E+001	-6.5912670E-001	-9.269052820413248E-002	6.1094805E-005	-6.5903127E-001	0
7.0926919E+003	5.396699884317059E+001	-6.6111845E-001	-9.321121678290623E-002	6.1623658E-005	-6.6103125E-001	0
7.0803486E+003	5.416699883811816E+001	-6.6311347E-001	-9.365548423064851E-002	6.2104213E-005	-6.6303110E-001	0
7.0568818E+003	5.436699883306574E+001	-6.6513366E-001	-9.425319267158105E-002	6.2690968E-005	-6.6503096E-001	0
7.0342393E+003	5.456699882801331E+001	-6.6714978E-001	-9.484320396954438E-002	6.3274623E-005	-6.6703087E-001	0
7.0165962E+003	5.476699882296089E+001	-6.6914088E-001	-9.536545080462222E-002	6.3812920E-005	-6.6903085E-001	0
6.9927842E+003	5.496679881791351E+001	-6.7111719E-001	-9.597281399828883E-002	6.4409003E-005	-6.7103028E-001	0
6.9654443E+003	5.516679881286109E+001	-6.7313701E-001	-9.663949552353301E-002	6.5051623E-005	-6.7303061E-001	0
6.9414629E+003	5.536679880780866E+001	-6.7511261E-001	-9.725797244784773E-002	6.5660082E-005	-6.7503047E-001	0
6.9147808E+003	5.556679880275624E+001	-6.7710710E-001	-9.792170252507404E-002	6.6303481E-005	-6.7703032E-001	0
6.8878525E+003	5.576679879770381E+001	-6.7913383E-001	-9.859877637146131E-002	6.6961766E-005	-6.7903036E-001	0
6.8557959E+003	5.596679879265139E+001	-6.8111855E-001	-9.934930130417019E-002	6.7668654E-005	-6.8103021E-001	0
6.8233413E+003	5.616679878759896E+001	-6.8308753E-001	-1.001104150366570E-001	6.8384179E-005	-6.8303007E-001	0
6.7948628E+003	5.636679878254654E+001	-6.8511039E-001	-1.008277040538794E-001	6.9078109E-005	-6.8502998E-001	0
6.7607749E+003	5.656679877749411E+001	-6.8710256E-001	-1.016307434176942E-001	6.9830741E-005	-6.8702984E-001	0
6.7237158E+003	5.676679877244169E+001	-6.8914729E-001	-1.024950041811563E-001	7.0634153E-005	-6.8902981E-001	0
6.6899868E+003	5.696679876738926E+001	-6.9111425E-001	-1.033057748718089E-001	7.1396091E-005	-6.9102967E-001	0
6.6464639E+003	5.716679876233684E+001	-6.9308835E-001	-1.042792591997037E-001	7.2274743E-005	-6.9302958E-001	0
6.6122300E+003	5.736679875728441E+001	-6.9512266E-001	-1.051268151342502E-001	7.3076029E-005	-6.9502944E-001	0
6.5711440E+003	5.756679875223199E+001	-6.9711667E-001	-1.060875629617613E-001	7.3955409E-005	-6.9702935E-001	0
6.5275923E+003	5.776679874717956E+001	-6.9908744E-001	-1.070972896706895E-001	7.4870368E-005	-6.9902927E-001	0
6.4878379E+003	5.796679874212714E+001	-7.0115250E-001	-1.080718245631812E-001	7.5774828E-005	-7.0102918E-001	0
6.4448525E+003	5.816679873707471E+001	-7.0315832E-001	-1.091038617284337E-001	7.6717290E-005	-7.0302916E-001	0
6.3978389E+003	5.836679873202229E+001	-7.0507300E-001	-1.102048662098339E-001	7.7702476E-005	-7.0502895E-001	0
6.3520278E+003	5.856679872696986E+001	-7.0713919E-001	-1.113249494297145E-001	7.8722238E-005	-7.0702887E-001	0
6.3043208E+003	5.876679872191744E+001	-7.0914996E-001	-1.124863332293741E-001	7.9769678E-005	-7.0902878E-001	0
6.2561509E+003	5.896659871687007E+001	-7.1109438E-001	-1.136632428532641E-001	8.0825295E-005	-7.1102828E-001	0
6.2052246E+003	5.916659871181764E+001	-7.1311134E-001	-1.149211184506023E-001	8.1951555E-005	-7.1302855E-001	0
6.1564937E+003	5.936659870676522E+001	-7.1511132E-001	-1.161556195936542E-001	8.3064195E-005	-7.1502846E-001	0
6.1072764E+003	5.956659870171279E+001	-7.1706587E-001	-1.174117267541509E-001	8.4191939E-005	-7.1702838E-001	0
6.0577651E+003	5.976659869666037E+001	-7.1909857E-001	-1.187069124105028E-001	8.5361971E-005	-7.1902829E-001	0
6.0049116E+003	5.996659869160794E+001	-7.2109663E-001	-1.200844739276552E-001	8.6592510E-005	-7.2102821E-001	0
5.9564136E+003	6.016659868655552E+001	-7.2311038E-001	-1.214002990829095E-001	8.7785818E-005	-7.2302806E-001	0
5.9026821E+003	6.036659868150309E+001	-7.2512656E-001	-1.228469580532285E-001	8.9079593E-005	-7.2502846E-001	0
5.8482563E+003	6.056659867645067E+001	-7.2708791E-001	-1.243255859665373E-001	9.0395632E-005	-7.2702855E-001	0
5.7961255E+003	6.076659867139824E+001	-7.2911173E-001	-1.257929517095590E-001	9.1717120E-005	-7.2902846E-001	0
5.7438779E+003	6.096659866634582E+001	-7.3112941E-001	-1.272884653638333E-001	9.3064344E-005	-7.3102844E-001	0
5.6879453E+003	6.116659866129339E+001	-7.3307687E-001	-1.288825462829921E-001	9.4480813E-005	-7.3302847E-001	0
5.6362163E+003	6.136659865624097E+001	-7.3508984E-001	-1.304225787074811E-001	9.5872310E-005	-7.3502851E-001	0
5.5839429E+003	6.156659865118854E+001	-7.3714203E-001	-1.320110306232456E-001	9.7310876E-005	-7.3702848E-001	0
5.5300718E+003	6.176659864613612E+001	-7.3910153E-001	-1.336513436515552E-001	9.8781915E-005	-7.3902845E-001	0
5.4745786E+003	6.196659864108369E+001	-7.4112946E-001	-1.353765259868553E-001	1.0033153E-004	-7.4102855E-001	0
5.4225195E+003	6.216659863603127E+001	-7.4308199E-001	-1.370362936436721E-001	1.0182920E-004	-7.4302852E-001	0
5.3650146E+003	6.236659863097884E+001	-7.4510139E-001	-1.388815184495504E-001	1.0348082E-004	-7.4502838E-001	0
5.3132539E+003	6.256659862592642E+001	-7.4712038E-001	-1.406144646277271E-001	1.0505593E-004	-7.4702847E-001	0
5.2600586E+003	6.276659862087399E+001	-7.4908733E-001	-1.424104583094871E-001	1.0667787E-004	-7.4902844E-001	0
5.2048467E+003	6.296659861582157E+001	-7.5112778E-001	-1.443131433518987E-001	1.0839761E-004	-7.5102842E-001	0
5.1506626E+003	6.316659861076914E+001	-7.5310558E-001	-1.462152877604999E-001	1.1011555E-004	-7.5302851E-001	0
5.0967461E+003	6.336659860571672E+001	-7.5513828E-001	-1.481608626550981E-001	1.1188194E-004	-7.5502849E-001	0
5.0441475E+003	6.356659860066429E+001	-7.5713438E-001	-1.501015545937603E-001	1.1364705E-004	-7.5702846E-001	0
4.9900991E+003	6.376659859561187E+001	-7.5911731E-001	-1.521246887652657E-001	1.1548048E-004	-7.5902843E-001	0
4.9391104E+003	6.396659859055944E+001	-7.6110822E-001	-1.540982457766911E-001	1.1728544E-004	-7.6102853E-001	0
4.8857979E+003	6.416659858550702E+001	-7.6311791E-001	-1.561910467034382E-001	1.1919218E-004	-7.6302844E-001	0
4.8367329E+003	6.436659858045459E+001	-7.6512319E-001	-1.581900907646614E-001	1.2103491E-004	-7.6502842E-001	0
4.7822778E+003	6.456659857540217E+001	-7.6713336E-001	-1.604117117959440E-001	1.2305718E-004	-7.6702851E-001	0
4.7296489E+003	6.476659857034974E+001	-7.6909709E-001	-1.626118727539437E-001	1.2506431E-004	-7.6902848E-001	0
4.6785146E+003	6.496659856529732E+001	-7.7110910E-001	-1.648192158646791E-001	1.2709360E-004	-7.7102846E-001	0
4.6272930E+003	6.516659856024489E+001	-7.7305937E-001	-1.670651476705651E-001	1.2915127E-004	-7.7302843E-001	0
4.5751050E+003	6.536659855519247E+001	-7.7509713E-001	-1.694162459125370E-001	1.3131405E-004	-7.7502853E-001	0
4.5270298E+003	6.556659855014004E+001	-7.7711111E-001	-1.716602631958621E-001	1.3339909E-004	-7.7702850E-001	0
4.4734453E+003	6.576659854508762E+001	-7.7907997E-001	-1.741565801329958E-001	1.3568190E-004	-7.7902848E-001	0
4.4241328E+003	6.596659854003519E+001	-7.8108108E-001	-1.765501074537281E-001	1.3789994E-004	-7.8102845E-001	0
4.3776753E+003	6.616659853498277E+001	-7.8310627E-001	-1.788863319377771E-001	1.4008701E-004	-7.8302854E-001	0
4.3304043E+003	6.636659852993034E+001	-7.8509951E-001	-1.812993565018877E-001	1.4233803E-004	-7.8502840E-001	0
4.2848037E+003	6.656659852487792E+001	-7.8710240E-001	-1.836962618563076E-001	1.4458777E-004	-7.8702849E-001	0
4.2368726E+003	6.676659851982549E+001	-7.8909612E-001	-1.862449571067923E-001	1.4696518E-004	-7.8902858E-001	0
4.1896235E+003	6.696659851477307E+001	-7.9110783E-001	-1.888255244881227E-001	1.4938135E-004	-7.9102844E-001	0
4.1420630E+003	6.716659850972064E+001	-7.9311246E-001	-1.914776352037793E-001	1.5186329E-004	-7.9302853E-001	0
4.0908447E+003	6.736659850466822E+001	-7.9514223E-001	-1.943711560914325E-001	1.5455272E-004	-7.9502851E-001	0
4.0376255E+003	6.756659849961579E+001	-7.9709345E-001	-1.974163875216091E-001	1.5735930E-004	-7.9702848E-001	0
3.9890496E+003	6.776659849456337E+001	-7.9912138E-001	-2.003287713227118E-001	1.6008700E-004	-7.9902846E-001	0
3.9436353E+003	6.796659848951094E+001	-8.0114096E-001	-2.031478354825627E-001	1.6275005E-004	-8.0102849E-001	0
3.8982976E+003	6.816659848445852E+001	-8.0312437E-001	-2.060192541457938E-001	1.6545909E-004	-8.0302858E-001	0
3.8519336E+003	6.836659847940609E+001	-8.0514008E-001	-2.090223094178123E-001	1.6829224E-004	-8.0502850E-001	0
3.8074080E+003	6.856659847435367E+001	-8.0713826E-001	-2.119915368491594E-001	1.7110648E-004	-8.0702841E-001	0
3.7611575E+003	6.876659846930124E+001	-8.0913097E-001	-2.151281785921055E-001	1.7406687E-004	-8.0902857E-001	0
3.7154761E+003	6.896659846424882E+001	-8.1111705E-001	-2.183077114986887E-001	1.7707310E-004	-8.1102854E-001	0
3.6720681E+003	6.916659845919639E+001	-8.1309891E-001	-2.214280629737508E-001	1.8004292E-004	-8.1302845E-001	0
3.6291482E+003	6.936659845414397E+001	-8.1510425E-001	-2.245993243082678E-001	1.8307187E-004	-8.1502849E-001	0
3.5847644E+003	6.956659844909154E+001	-8.1710815E-001	-2.279391440450979E-001	1.8625094E-004	-8.1702852E-001	0
3.5440388E+003	6.976659844403912E+001	-8.1908554E-001	-2.311164083554833E-001	1.8930410E-004	-8.1902850E-001	0
3.5030222E+003	6.996659843898669E+001	-8.2109791E-001	-2.343970040247987E-001	1.9246289E-004	-8.2102847E-001	0
3.4647283E+003	7.016659843393427E+001	-8.2311207E-001	-2.375690110952777E-001	1.9554592E-004	-8.2302856E-001	0
3.4274805E+003	7.036659842888184E+001	-8.2509840E-001	-2.407302938110272E-001	1.9862618E-004	-8.2502842E-001	0
3.3877590E+003	7.056659842382942E+001	-8.2714206E-001	-2.441561110085404E-001	2.0195179E-004	-8.2702851E-001	0
3.3516611E+003	7.076659841877699E+001	-8.2915920E-001	-2.473875482095704E-001	2.0512367E-004	-8.2902849E-001	0
3.3034783E+003	7.096659841372457E+001	-8.3107930E-001	-2.515770518759477E-001	2.0908048E-004	-8.3102846E-001	0
3.2733079E+003	7.116659840867214E+001	-8.3311367E-001	-2.545173529962126E-001	2.1204188E-004	-8.3302855E-001	0
3.2410818E+003	7.136659840361972E+001	-8.3513963E-001	-2.576731109522836E-001	2.1519302E-004	-8.3502847E-001	0
3.2104958E+003	7.156659839856729E+001	-8.3713698E-001	-2.607500585759075E-001	2.1828352E-004	-8.3702862E-001	0
3.1831045E+003	7.176659839351487E+001	-8.3907229E-001	-2.636018751607256E-001	2.2118104E-004	-8.3902848E-001	0
3.1565620E+003	7.196659838846244E+001	-8.4110147E-001	-2.664612583064239E-001	2.2412096E-004	-8.4102839E-001	0
3.1327729E+003	7.216659838341002E+001	-8.4310651E-001	-2.691246804584848E-001	2.2690077E-004	-8.4302855E-001	0
3.1214883E+003	7.236659837835759E+001	-8.4509850E-001	-2.707357490118474E-001	2.2879838E-004	-8.4502852E-001	0
3.1092659E+003	7.256659837330517E+001	-8.4718049E-001	-2.724696181718764E-001	2.3083095E-004	-8.4702849E-001	0
3.0883225E+003	7.276659836825274E+001	-8.4912539E-001	-2.749471154629912E-001	2.3346457E-004	-8.4902853E-001	0
3.0692534E+003	7.296659836320032E+001	-8.5109073E-001	-2.772956827292199E-001	2.3600379E-004	-8.5102850E-001	0
3.0524976E+003	7.316659835814789E+001	-8.5310453E-001	-2.794775388302826E-001	2.3842356E-004	-8.5302848E-001	0
3.0338044E+003	7.336659835309547E+001	-8.5511780E-001	-2.818631854715019E-001	2.4102622E-004	-8.5502845E-001	0
3.0281697E+003	7.356659834804304E+001	-8.5713083E-001	-2.830524365660523E-001	2.4261296E-004	-8.5702854E-001	0
3.0196672E+003	7.376659834299062E+001	-8.5911989E-001	-2.845081326059677E-001	2.4442660E-004	-8.5902852E-001	0
3.0037329E+003	7.396659833793819E+001	-8.6113042E-001	-2.866867482324306E-001	2.4687467E-004	-8.6102849E-001	0
2.9837498E+003	7.416659833288577E+001	-8.6314154E-001	-2.892808074896096E-001	2.4969029E-004	-8.6302847E-001	0
2.9655774E+003	7.436659832783334E+001	-8.6513078E-001	-2.917242382997285E-001	2.5237963E-004	-8.6502844E-001	0
2.9507476E+003	7.456659832278092E+001	-8.6716348E-001	-2.938792402782137E-001	2.5484135E-004	-8.6702853E-001	0
2.9325288E+003	7.476659831772849E+001	-8.6912709E-001	-2.963746205804331E-001	2.5758721E-004	-8.6902845E-001	0
2.9086353E+003	7.496659831267607E+001	-8.7112832E-001	-2.994972666167959E-001	2.6090056E-004	-8.7102860E-001	0
2.8862007E+003	7.516659830762364E+001	-8.7309402E-001	-3.025063555054115E-001	2.6411650E-004	-8.7302858E-001	0
2.8653479E+003	7.536659830257122E+001	-8.7511092E-001	-3.054117628873718E-001	2.6726918E-004	-8.7502843E-001	0
2.8414285E+003	7.556659829751879E+001	-8.7710220E-001	-3.086835446148738E-001	2.7074703E-004	-8.7702852E-001	0
2.8178074E+003	7.576659829246637E+001	-8.7909067E-001	-3.119768545943860E-001	2.7425593E-004	-8.7902850E-001	0
2.7904536E+003	7.596659828741394E+001	-8.8108480E-001	-3.157496715699428E-001	2.7820223E-004	-8.8102847E-001	0
2.7656309E+003	7.616659828236152E+001	-8.8308549E-001	-3.193070616218310E-001	2.8197543E-004	-8.8302851E-001	0
2.7396240E+003	7.636659827730909E+001	-8.8508326E-001	-3.230674042495263E-001	2.8594155E-004	-8.8502854E-001	0
2.7102351E+003	7.656659827225667E+001	-8.8709611E-001	-3.273133433882212E-001	2.9035838E-004	-8.8702852E-001	0
2.6836921E+003	7.676659826720424E+001	-8.8910806E-001	-3.313003273537207E-001	2.9456179E-004	-8.8902849E-001	0
2.6481917E+003	7.696659826215182E+001	-8.9105409E-001	-3.364764501651125E-001	2.9981873E-004	-8.9102852E-001	0
2.6131877E+003	7.716659825709939E+001	-8.9309686E-001	-3.417652747646613E-001	3.0522951E-004	-8.9302850E-001	0
2.5778542E+003	7.736659825204697E+001	-8.9506680E-001	-3.472139021643610E-001	3.1077964E-004	-8.9502847E-001	0
2.5426421E+003	7.756659824699454E+001	-8.9710629E-001	-3.528244364605442E-001	3.1652101E-004	-8.9702851E-001	0
2.5037539E+003	7.776659824194212E+001	-8.9908218E-001	-3.590936795713349E-001	3.2285473E-004	-8.9902854E-001	0
2.4633835E+003	7.796659823688969E+001	-9.0111119E-001	-3.658022156551217E-001	3.2962847E-004	-9.0102851E-001	0
2.4189087E+003	7.816659823183727E+001	-9.0310782E-001	-3.733534334890560E-001	3.3717841E-004	-9.0302849E-001	0
2.3552295E+003	7.836659822678484E+001	-9.0513897E-001	-3.843102872312567E-001	3.4785422E-004	-9.0502858E-001	0
2.3125195E+003	7.856659822173242E+001	-9.0709686E-001	-3.922547814805828E-001	3.5581307E-004	-9.0702862E-001	0
2.2591055E+003	7.876659821668000E+001	-9.0908647E-001	-4.024099234635194E-001	3.6582543E-004	-9.0902853E-001	0
2.2076941E+003	7.896659821162757E+001	-9.1108072E-001	-4.126843112539902E-001	3.7598872E-004	-9.1102850E-001	0
2.1566096E+003	7.916659820657515E+001	-9.1312468E-001	-4.234074774006054E-001	3.8662381E-004	-9.1302860E-001	0
2.1054924E+003	7.936659820152272E+001	-9.1511548E-001	-4.346325071042834E-001	3.9773894E-004	-9.1502845E-001	0
2.0498086E+003	7.956659819647030E+001	-9.1710091E-001	-4.474080645662983E-001	4.1031835E-004	-9.1702849E-001	0
1.9957034E+003	7.976659819141787E+001	-9.1912478E-001	-4.605517877295391E-001	4.2330456E-004	-9.1902852E-001	0
1.9404202E+003	7.996659818636545E+001	-9.2108053E-001	-4.746809598700441E-001	4.3721939E-004	-9.2102849E-001	0
1.8816056E+003	8.016659818131302E+001	-9.2307836E-001	-4.905801568045138E-001	4.5284393E-004	-9.2302847E-001	0
1.8179478E+003	8.036659817626060E+001	-9.2509055E-001	-5.088653060060651E-001	4.7074648E-004	-9.2502850E-001	0
1.7556156E+003	8.056659817120817E+001	-9.2714012E-001	-5.280997309402959E-001	4.8962247E-004	-9.2702848E-001	0
1.7002429E+003	8.076659816615575E+001	-9.2909098E-001	-5.464460194457201E-001	5.0769805E-004	-9.2902845E-001	0
1.6435114E+003	8.096659816110332E+001	-9.3109506E-001	-5.665278997686156E-001	5.2749133E-004	-9.3102854E-001	0
1.5867059E+003	8.116659815605090E+001	-9.3311691E-001	-5.880843349890839E-001	5.4875144E-004	-9.3302858E-001	0
1.5322694E+003	8.136659815099847E+001	-9.3511260E-001	-6.102795117110231E-001	5.7068007E-004	-9.3502849E-001	0
1.4764016E+003	8.156659814594605E+001	-9.3709958E-001	-6.347186131626703E-001	5.9479452E-004	-9.3702853E-001	0
1.4165491E+003	8.176659814089362E+001	-9.3909043E-001	-6.629424164844648E-001	6.2256289E-004	-9.3902856E-001	0
1.3652936E+003	8.196659813584120E+001	-9.4110757E-001	-6.893078604979150E-001	6.4871286E-004	-9.4102859E-001	0
1.3152516E+003	8.216659813078877E+001	-9.4311607E-001	-7.170613484452915E-001	6.7627209E-004	-9.4302851E-001	0
1.2678472E+003	8.236659812573635E+001	-9.4510823E-001	-7.454433353985275E-001	7.0452463E-004	-9.4502848E-001	0
1.2152361E+003	8.256659812068392E+001	-9.4708914E-001	-7.793457864059317E-001	7.3810993E-004	-9.4702858E-001	0
1.1701809E+003	8.276659811563150E+001	-9.4911921E-001	-8.110875828178941E-001	7.6981878E-004	-9.4902843E-001	0
1.1284230E+003	8.296659811057907E+001	-9.5114094E-001	-8.428939959021697E-001	8.0171099E-004	-9.5102847E-001	0
1.0869053E+003	8.316659810552665E+001	-9.5313042E-001	-8.769213355520193E-001	8.3582039E-004	-9.5302850E-001	0
1.0419783E+003	8.336659810047422E+001	-9.5513374E-001	-9.166541437949984E-001	8.7552727E-004	-9.5502847E-001	0
1.0026614E+003	8.356659809542180E+001	-9.5714009E-001	-9.545995319122760E-001	9.1368548E-004	-9.5702845E-001	0
9.6715466E+002	8.376659809036937E+001	-9.5910496E-001	-9.916768963797153E-001	9.5112220E-004	-9.5902854E-001	0
9.3007111E+002	8.396659808531695E+001	-9.6112216E-001	-1.033385644170569E+000	9.9320989E-004	-9.6102852E-001	0
8.9298291E+002	8.417659808001190E+001	-9.6321434E-001	-1.078648115697828E+000	1.0389694E-003	-9.6312857E-001	0
8.5922595E+002	8.438659807470685E+001	-9.6527404E-001	-1.123422836483606E+000	1.0844109E-003	-9.6522850E-001	0
8.2616705E+002	8.458659806965443E+001	-9.6731544E-001	-1.170847282100833E+000	1.1325787E-003	-9.6722859E-001	0
7.9793475E+002	8.478659806460200E+001	-9.6928197E-001	-1.214738365879405E+000	1.1774240E-003	-9.6922845E-001	0
7.7149652E+002	8.498659805954958E+001	-9.7128683E-001	-1.258964679755120E+000	1.2228158E-003	-9.7122848E-001	0
7.4216339E+002	8.518659805449715E+001	-9.7328568E-001	-1.311417009706808E+000	1.2763834E-003	-9.7322851E-001	0
7.1763599E+002	8.538659804944473E+001	-9.7526848E-001	-1.359001651026155E+000	1.3253915E-003	-9.7522849E-001	0
6.9420081E+002	8.558659804439230E+001	-9.7728068E-001	-1.407778083095476E+000	1.3757943E-003	-9.7722852E-001	0
6.6975830E+002	8.578659803933988E+001	-9.7928220E-001	-1.462142619103737E+000	1.4318503E-003	-9.7922850E-001	0
6.4881824E+002	8.598659803428745E+001	-9.8128676E-001	-1.512421644438493E+000	1.4841193E-003	-9.8122847E-001	0
6.2609753E+002	8.618659802923503E+001	-9.8329592E-001	-1.570515489345102E+000	1.5442815E-003	-9.8322850E-001	0
6.0667352E+002	8.638659802418260E+001	-9.8525417E-001	-1.624026954765370E+000	1.6000794E-003	-9.8522854E-001	0
5.8691516E+002	8.658659801913018E+001	-9.8729265E-001	-1.682172603989677E+000	1.6607967E-003	-9.8722857E-001	0
5.6859589E+002	8.678659801407775E+001	-9.8923403E-001	-1.739784010430447E+000	1.7210535E-003	-9.8922849E-001	0
5.5130444E+002	8.698659800902533E+001	-9.9128002E-001	-1.798062808000712E+000	1.7823838E-003	-9.9122846E-001	0
5.3391229E+002	8.718659800397290E+001	-9.9326253E-001	-1.860347717223256E+000	1.8478137E-003	-9.9322855E-001	0
5.1876489E+002	8.738659799892048E+001	-9.9531329E-001	-1.918621151727070E+000	1.9096291E-003	-9.9522859E-001	0
5.0218854E+002	8.758659799386805E+001	-9.9731904E-001	-1.985945472928812E+000	1.9806211E-003	-9.9722844E-001	0
4.8785956E+002	8.778659798881563E+001	-9.9928153E-001	-2.048297467060777E+000	2.0468258E-003	-9.9922848E-001	0
4.7263889E+002	8.798659798376320E+001	-1.0012696E+000	-2.118466362238879E+000	2.1211558E-003	-1.0012286E+000	0
4.5892432E+002	8.818659797871078E+001	-1.0032908E+000	-2.186179121842191E+000	2.1933734E-003	-1.0032284E+000	0
4.4457813E+002	8.838659797365835E+001	-1.0052867E+000	-2.261214920148564E+000	2.2731693E-003	-1.0052285E+000	0
4.3172583E+002	8.858659796860593E+001	-1.0073181E+000	-2.333235682898504E+000	2.3503106E-003	-1.0072285E+000	0
4.1961670E+002	8.878659796355350E+001	-1.0093094E+000	-2.405312853284578E+000	2.4277049E-003	-1.0092285E+000	0
4.0710641E+002	8.898659795850108E+001	-1.0112695E+000	-2.484041974303267E+000	2.5120357E-003	-1.0112286E+000	0
3.9562479E+002	8.918659795344865E+001	-1.0132625E+000	-2.561170386923411E+000	2.5951380E-003	-1.0132285E+000	0
3.8402277E+002	8.938659794839623E+001	-1.0152922E+000	-2.643833361329538E+000	2.6842633E-003	-1.0152285E+000	0
3.7324240E+002	8.958659794334380E+001	-1.0173224E+000	-2.725634543922080E+000	2.7728491E-003	-1.0172285E+000	0
3.6271884E+002	8.978659793829138E+001	-1.0193212E+000	-2.810223945397524E+000	2.8645208E-003	-1.0192286E+000	0
3.5217786E+002	8.998659793323895E+001	-1.0212860E+000	-2.899915338204579E+000	2.9616430E-003	-1.0212286E+000	0
3.4232733E+002	9.018659792818653E+001	-1.0233181E+000	-2.989297061753120E+000	3.0590016E-003	-1.0232285E+000	0
3.3339389E+002	9.038659792313410E+001	-1.0253249E+000	-3.075416130847948E+000	3.1533008E-003	-1.0252285E+000	0
3.2405432E+002	9.058659791808168E+001	-1.0273244E+000	-3.170222786008098E+000	3.2568474E-003	-1.0272286E+000	0
3.1524890E+002	9.078659791302925E+001	-1.0293386E+000	-3.265161603047190E+000	3.3609569E-003	-1.0292286E+000	0
3.0658209E+002	9.098659790797683E+001	-1.0313184E+000	-3.363922628415676E+000	3.4692753E-003	-1.0312285E+000	0
2.9823282E+002	9.118659790292440E+001	-1.0333194E+000	-3.464807739874126E+000	3.5802529E-003	-1.0332285E+000	0
2.8966904E+002	9.138659789787198E+001	-1.0353117E+000	-3.574119421528835E+000	3.7003276E-003	-1.0352286E+000	0
2.8183072E+002	9.158659789281955E+001	-1.0373224E+000	-3.680657748935445E+000	3.8180288E-003	-1.0372285E+000	0
2.7462863E+002	9.178659788776713E+001	-1.0393156E+000	-3.784439876405301E+000	3.9332272E-003	-1.0392284E+000	0
2.6687134E+002	9.198659788271470E+001	-1.0413245E+000	-3.901972197013087E+000	4.0632193E-003	-1.0412285E+000	0
2.5970300E+002	9.218659787766228E+001	-1.0432972E+000	-4.017270496102419E+000	4.1912068E-003	-1.0432286E+000	0
2.5273325E+002	9.238659787260985E+001	-1.0453424E+000	-4.136149369670154E+000	4.3236925E-003	-1.0452285E+000	0
2.4566110E+002	9.258659786755743E+001	-1.0473489E+000	-4.263389085392010E+000	4.4652559E-003	-1.0472285E+000	0
2.3904929E+002	9.278659786250500E+001	-1.0493225E+000	-4.389565379643919E+000	4.6060695E-003	-1.0492285E+000	0
2.3267804E+002	9.298659785745258E+001	-1.0513657E+000	-4.518543078380375E+000	4.7506415E-003	-1.0512286E+000	0
2.2643935E+002	9.318659785240015E+001	-1.0533210E+000	-4.651669558010937E+000	4.8997011E-003	-1.0532285E+000	0
2.2035670E+002	9.338659784734773E+001	-1.0553349E+000	-4.789211861535819E+000	5.0542224E-003	-1.0552285E+000	0
2.1481818E+002	9.358659784229530E+001	-1.0573614E+000	-4.922122331061601E+000	5.2044620E-003	-1.0572286E+000	0
2.0904500E+002	9.378659783724288E+001	-1.0593530E+000	-5.067583412438822E+000	5.3683599E-003	-1.0592284E+000	0
2.0354259E+002	9.398659783219045E+001	-1.0613270E+000	-5.214274736083254E+000	5.5340505E-003	-1.0612285E+000	0
1.9829926E+002	9.418659782713803E+001	-1.0633214E+000	-5.362205576329018E+000	5.7017477E-003	-1.0632286E+000	0
1.9322815E+002	9.438659782208561E+001	-1.0653317E+000	-5.513336031446372E+000	5.8735316E-003	-1.0652285E+000	0
1.8829430E+002	9.458659781703318E+001	-1.0673351E+000	-5.668441059806980E+000	6.0501262E-003	-1.0672284E+000	0
1.8366757E+002	9.478659781198076E+001	-1.0693388E+000	-5.822142754147109E+000	6.2258430E-003	-1.0692285E+000	0
1.7881316E+002	9.498659780692833E+001	-1.0713333E+000	-5.991356092921208E+000	6.4187394E-003	-1.0712286E+000	0
1.7417789E+002	9.518659780187591E+001	-1.0733458E+000	-6.162353971377513E+000	6.6143367E-003	-1.0732286E+000	0
1.6964441E+002	9.538659779682348E+001	-1.0753185E+000	-6.338661278253767E+000	6.8160794E-003	-1.0752285E+000	0
1.6532491E+002	9.558659779177106E+001	-1.0773376E+000	-6.516487309992186E+000	7.0204567E-003	-1.0772284E+000	0
1.6075417E+002	9.578659778671863E+001	-1.0792835E+000	-6.713875493022016E+000	7.2461748E-003	-1.0792285E+000	0
1.5655307E+002	9.598659778166621E+001	-1.0812894E+000	-6.906855351057175E+000	7.4683097E-003	-1.0812285E+000	0
1.5256966E+002	9.618659777661378E+001	-1.0833050E+000	-7.100395884170524E+000	7.6918942E-003	-1.0832285E+000	0
1.4880434E+002	9.638659777156136E+001	-1.0853270E+000	-7.293651896269125E+000	7.9159979E-003	-1.0852284E+000	0
1.4476982E+002	9.658659776650893E+001	-1.0873299E+000	-7.510749323770831E+000	8.1666624E-003	-1.0872285E+000	0
1.4097887E+002	9.678659776145651E+001	-1.0893269E+000	-7.726880813401863E+000	8.4170988E-003	-1.0892285E+000	0
1.3743034E+002	9.698659775640408E+001	-1.0912857E+000	-7.940646396269869E+000	8.6655142E-003	-1.0912286E+000	0
1.3389735E+002	9.718659775135166E+001	-1.0933510E+000	-8.165591264663055E+000	8.9278575E-003	-1.0932286E+000	0
1.3044911E+002	9.738659774629923E+001	-1.0953203E+000	-8.396533850842289E+000	9.1968942E-003	-1.0952286E+000	0
1.2727807E+002	9.758659774124681E+001	-1.0973316E+000	-8.621529485565745E+000	9.4606774E-003	-1.0972285E+000	0
1.2370184E+002	9.778659773619438E+001	-1.0993260E+000	-8.886901631512032E+000	9.7696017E-003	-1.0992285E+000	0
1.2017123E+002	9.798659773114196E+001	-1.1013391E+000	-9.164748939189167E+000	1.0093496E-002	-1.1012286E+000	0
1.1710654E+002	9.818659772608953E+001	-1.1033235E+000	-9.421536303701771E+000	1.0395002E-002	-1.1032286E+000	0
1.1410619E+002	9.838659772103711E+001	-1.1053101E+000	-9.686679767035017E+000	1.0706785E-002	-1.1052285E+000	0
1.1114059E+002	9.858659771598468E+001	-1.1073354E+000	-9.963376213904112E+000	1.1032799E-002	-1.1072285E+000	0
1.0812453E+002	9.878659771093226E+001	-1.1093427E+000	-1.025986105852387E+001	1.1381702E-002	-1.1092285E+000	0
1.0528549E+002	9.898659770587983E+001	-1.1113265E+000	-1.055536195946664E+001	1.1730453E-002	-1.1112286E+000	0
1.0236124E+002	9.919659770057478E+001	-1.1134489E+000	-1.087764062394901E+001	1.2111696E-002	-1.1133286E+000	0
9.9252945E+001	9.940659769526974E+001	-1.1155329E+000	-1.123929253612522E+001	1.2537801E-002	-1.1154286E+000	0
9.6784576E+001	9.960659769021731E+001	-1.1175301E+000	-1.154657218961762E+001	1.2903642E-002	-1.1174285E+000	0
9.4039543E+001	9.980659768516489E+001	-1.1194829E+000	-1.190438424020397E+001	1.3326754E-002	-1.1194285E+000	0
9.1409416E+001	1.000065976801125E+002	-1.1214669E+000	-1.226861471356715E+001	1.3758845E-002	-1.1214286E+000	0
8.9034828E+001	1.002065976750600E+002	-1.1234998E+000	-1.261865430299929E+001	1.4177055E-002	-1.1234286E+000	0
8.6637512E+001	1.004065976700076E+002	-1.1254650E+000	-1.299050539704947E+001	1.4620360E-002	-1.1254286E+000	0
8.4432907E+001	1.006065976649552E+002	-1.1275183E+000	-1.335401528952071E+001	1.5056897E-002	-1.1274285E+000	0
8.2067642E+001	1.008065976599028E+002	-1.1294830E+000	-1.376283014861369E+001	1.5544882E-002	-1.1294285E+000	0
7.9892113E+001	1.010065976548503E+002	-1.1314951E+000	-1.416278887416775E+001	1.6025126E-002	-1.1314286E+000	0
7.7840668E+001	1.012065976497979E+002	-1.1334739E+000	-1.456146090519945E+001	1.6505035E-002	-1.1334286E+000	0
7.5701393E+001	1.014065976447455E+002	-1.1354890E+000	-1.499957826388940E+001	1.7031856E-002	-1.1354284E+000	0
7.3615608E+001	1.016065976396931E+002	-1.1375015E+000	-1.545190597148165E+001	1.7576566E-002	-1.1374285E+000	0
7.1514328E+001	1.018065976346406E+002	-1.1395495E+000	-1.593456191432718E+001	1.8158222E-002	-1.1394285E+000	0
6.9480324E+001	1.020065976295882E+002	-1.1414609E+000	-1.642854835819489E+001	1.8752545E-002	-1.1414286E+000	0
6.7619484E+001	1.022065976245358E+002	-1.1435260E+000	-1.691119002430892E+001	1.9338384E-002	-1.1434286E+000	0
6.5830482E+001	1.024065976194834E+002	-1.1455169E+000	-1.740101017135609E+001	1.9933151E-002	-1.1454285E+000	0
6.3975723E+001	1.026065976144309E+002	-1.1475278E+000	-1.793692551678274E+001	2.0583121E-002	-1.1474284E+000	0
6.2208279E+001	1.028065976093785E+002	-1.1495173E+000	-1.847852643493081E+001	2.1241385E-002	-1.1494286E+000	0
6.0475315E+001	1.030065976043261E+002	-1.1514924E+000	-1.904070087233367E+001	2.1925222E-002	-1.1514286E+000	0
5.8811138E+001	1.032065975992737E+002	-1.1534853E+000	-1.961338224216382E+001	2.2623748E-002	-1.1534284E+000	0
5.7191383E+001	1.034065975942212E+002	-1.1555154E+000	-2.020436289737552E+001	2.3346454E-002	-1.1554285E+000	0
5.5589497E+001	1.036065975891688E+002	-1.1574997E+000	-2.082227344037184E+001	2.4101775E-002	-1.1574285E+000	0
5.3939636E+001	1.038065975841164E+002	-1.1595426E+000	-2.149704037934475E+001	2.4926733E-002	-1.1594286E+000	0
5.2438114E+001	1.040065975790640E+002	-1.1614845E+000	-2.214962347578296E+001	2.5726443E-002	-1.1614286E+000	0
5.0868282E+001	1.042065975740115E+002	-1.1634916E+000	-2.287263390023156E+001	2.6612118E-002	-1.1634284E+000	0
4.9357262E+001	1.044065975689591E+002	-1.1655129E+000	-2.361380880287186E+001	2.7522199E-002	-1.1654285E+000	0
4.7840458E+001	1.046065975639067E+002	-1.1675489E+000	-2.440505189041426E+001	2.8494092E-002	-1.1674285E+000	0
4.6502186E+001	1.048065975588543E+002	-1.1695350E+000	-2.515010925917949E+001	2.9413935E-002	-1.1694285E+000	0
4.5180248E+001	1.050065975538018E+002	-1.1714995E+000	-2.592946122887457E+001	3.0376351E-002	-1.1714286E+000	0
4.3881432E+001	1.052065975487494E+002	-1.1735290E+000	-2.674317920451262E+001	3.1383898E-002	-1.1734285E+000	0
4.2526306E+001	1.054065975436970E+002	-1.1755426E+000	-2.764271598851599E+001	3.2495189E-002	-1.1754285E+000	0
4.1269657E+001	1.056065975386446E+002	-1.1775355E+000	-2.853271859357152E+001	3.3598289E-002	-1.1774285E+000	0
4.0001316E+001	1.058065975335921E+002	-1.1794926E+000	-2.948634604856255E+001	3.4778927E-002	-1.1794286E+000	0
3.8846600E+001	1.060065975285397E+002	-1.1815563E+000	-3.041595352858360E+001	3.5938162E-002	-1.1814286E+000	0
3.7577274E+001	1.062065975234873E+002	-1.1835687E+000	-3.149692703401699E+001	3.7278779E-002	-1.1834285E+000	0
3.6457623E+001	1.064065975184349E+002	-1.1855656E+000	-3.251900428493008E+001	3.8553413E-002	-1.1854285E+000	0
3.5320957E+001	1.066065975133824E+002	-1.1875597E+000	-3.362195642383722E+001	3.9928082E-002	-1.1874285E+000	0
3.4206078E+001	1.068065975083300E+002	-1.1895781E+000	-3.477680481264099E+001	4.1369725E-002	-1.1894286E+000	0
3.3173492E+001	1.070065975032776E+002	-1.1915588E+000	-3.591900362584602E+001	4.2799607E-002	-1.1914285E+000	0
3.2163887E+001	1.072065974982252E+002	-1.1935402E+000	-3.710808302783107E+001	4.4289991E-002	-1.1934285E+000	0
3.1188225E+001	1.074065974931727E+002	-1.1955497E+000	-3.833337006655412E+001	4.5829449E-002	-1.1954285E+000	0
3.0201992E+001	1.076065974881203E+002	-1.1975405E+000	-3.965104328856177E+001	4.7483731E-002	-1.1974285E+000	0
2.9257858E+001	1.078065974830679E+002	-1.1995699E+000	-4.099992382039807E+001	4.9182277E-002	-1.1994286E+000	0
2.8330532E+001	1.080065974780155E+002	-1.2015890E+000	-4.241321694634678E+001	5.0963253E-002	-1.2014285E+000	0
2.7447361E+001	1.082065974729630E+002	-1.2035676E+000	-4.385003218548098E+001	5.2776478E-002	-1.2034285E+000	0
2.6565853E+001	1.084065974679106E+002	-1.2055526E+000	-4.537977907500840E+001	5.4707710E-002	-1.2054285E+000	0
2.5738527E+001	1.086065974628582E+002	-1.2075789E+000	-4.691717064542848E+001	5.6656186E-002	-1.2074286E+000	0
2.4936981E+001	1.088065974578058E+002	-1.2095799E+000	-4.850546840583399E+001	5.8671243E-002	-1.2094285E+000	0
2.4142612E+001	1.090065974527533E+002	-1.2115961E+000	-5.018496188095651E+001	6.0803905E-002	-1.2114285E+000	0
2.3418369E+001	1.092065974477009E+002	-1.2135854E+000	-5.182194134113191E+001	6.2890351E-002	-1.2134286E+000	0
2.2674343E+001	1.094065974426485E+002	-1.2155786E+000	-5.361031078859787E+001	6.5167546E-002	-1.2154285E+000	0
2.1982954E+001	1.096065974375961E+002	-1.2175828E+000	-5.538759127225444E+001	6.7438982E-002	-1.2174284E+000	0
2.1245811E+001	1.098065974325436E+002	-1.2195336E+000	-5.740112969394170E+001	7.0002601E-002	-1.2194285E+000	0
2.0558249E+001	1.100065974274912E+002	-1.2215804E+000	-5.942044861895164E+001	7.2586857E-002	-1.2214286E+000	0
1.9920122E+001	1.102065974224388E+002	-1.2235931E+000	-6.142498075664741E+001	7.5159185E-002	-1.2234285E+000	0
1.9303062E+001	1.104065974173864E+002	-1.2256197E+000	-6.349353543863288E+001	7.7818923E-002	-1.2254285E+000	0
1.8702452E+001	1.106065974123339E+002	-1.2276160E+000	-6.563930647875998E+001	8.0579862E-002	-1.2274286E+000	0
1.8094482E+001	1.108065974072815E+002	-1.2295907E+000	-6.795390278682135E+001	8.3555482E-002	-1.2294285E+000	0
1.7547894E+001	1.110065974022291E+002	-1.2316173E+000	-7.018604787839490E+001	8.6442351E-002	-1.2314285E+000	0
1.7011276E+001	1.112065973971767E+002	-1.2336016E+000	-7.251669944116577E+001	8.9456715E-002	-1.2334285E+000	0
1.6506548E+001	1.114065973921242E+002	-1.2356163E+000	-7.485613152499639E+001	9.2493460E-002	-1.2354285E+000	0
1.6027342E+001	1.116065973870718E+002	-1.2375511E+000	-7.721498871714600E+001	9.5557496E-002	-1.2374284E+000	0
1.5579944E+001	1.118065973820194E+002	-1.2396051E+000	-7.956415770383614E+001	9.8628134E-002	-1.2394285E+000	0
1.5126807E+001	1.120065973769670E+002	-1.2415980E+000	-8.207931762595831E+001	1.0190952E-001	-1.2414286E+000	0
1.4722128E+001	1.122065973719145E+002	-1.2436069E+000	-8.447195475712383E+001	1.0504991E-001	-1.2434285E+000	0
1.4277425E+001	1.124065973668621E+002	-1.2456045E+000	-8.724294200830150E+001	1.0867020E-001	-1.2454284E+000	0
1.3900425E+001	1.126065973618097E+002	-1.2476131E+000	-8.975359247114659E+001	1.1197776E-001	-1.2474285E+000	0
1.3503460E+001	1.128065973567573E+002	-1.2495728E+000	-9.253722553080183E+001	1.1563200E-001	-1.2494285E+000	0
1.3127155E+001	1.130065973517048E+002	-1.2515845E+000	-9.534316430718980E+001	1.1933003E-001	-1.2514285E+000	0
1.2795294E+001	1.132065973466524E+002	-1.2536072E+000	-9.797407962838042E+001	1.2282101E-001	-1.2534286E+000	0
1.2455541E+001	1.134065973416000E+002	-1.2556040E+000	-1.008068655223806E+002	1.2657350E-001	-1.2554286E+000	0
1.2136534E+001	1.136065973365476E+002	-1.2576456E+000	-1.036247773797606E+002	1.3032325E-001	-1.2574285E+000	0
1.1851704E+001	1.138065973314951E+002	-1.2596118E+000	-1.062810789041246E+002	1.3387291E-001	-1.2594285E+000	0
1.1548090E+001	1.140165973261901E+002	-1.2616662E+000	-1.092532309035871E+002	1.3784111E-001	-1.2615286E+000	0
1.1189832E+001	1.142265973208850E+002	-1.2637779E+000	-1.129398433324161E+002	1.4273088E-001	-1.2636285E+000	0
1.0925138E+001	1.144265973158326E+002	-1.2658043E+000	-1.158616281647801E+002	1.4665815E-001	-1.2656285E+000	0
1.0692712E+001	1.146265973107802E+002	-1.2677737E+000	-1.185642817707026E+002	1.5031268E-001	-1.2676286E+000	0
1.0461231E+001	1.148265973057278E+002	-1.2697829E+000	-1.213798737980075E+002	1.5412609E-001	-1.2696285E+000	0
1.0227253E+001	1.150265973006753E+002	-1.2718042E+000	-1.243544256865578E+002	1.5815449E-001	-1.2716285E+000	0
9.9829454E+000	1.152265972956229E+002	-1.2737989E+000	-1.275975118461918E+002	1.6253358E-001	-1.2736286E+000	0
9.7198458E+000	1.154265972905705E+002	-1.2758154E+000	-1.312588053690328E+002	1.6746201E-001	-1.2756286E+000	0
9.5264263E+000	1.156265972855181E+002	-1.2778114E+000	-1.341333455963742E+002	1.7139712E-001	-1.2776285E+000	0
9.3421211E+000	1.158265972804656E+002	-1.2797738E+000	-1.369896389881228E+002	1.7531575E-001	-1.2796285E+000	0
9.1536312E+000	1.160265972754132E+002	-1.2817928E+000	-1.400310703318676E+002	1.7949080E-001	-1.2816285E+000	0
8.9631433E+000	1.162265972703608E+002	-1.2838168E+000	-1.432328825321331E+002	1.8388478E-001	-1.2836286E+000	0
8.8242970E+000	1.164265972653084E+002	-1.2857516E+000	-1.457058368734761E+002	1.8734151E-001	-1.2856286E+000	0
8.6640434E+000	1.166265972602559E+002	-1.2877443E+000	-1.486308615126582E+002	1.9139855E-001	-1.2876285E+000	0
8.5051889E+000	1.168265972552035E+002	-1.2897828E+000	-1.516465744993844E+002	1.9559114E-001	-1.2896286E+000	0
8.3304987E+000	1.170265972501511E+002	-1.2917787E+000	-1.550661963605555E+002	2.0031121E-001	-1.2916286E+000	0
8.1356897E+000	1.172265972450987E+002	-1.2937956E+000	-1.590271570590612E+002	2.0574863E-001	-1.2936286E+000	0
7.9742765E+000	1.174265972400462E+002	-1.2958130E+000	-1.624991291515412E+002	2.1056847E-001	-1.2956285E+000	0
7.7864089E+000	1.176265972349938E+002	-1.2977674E+000	-1.666708547047203E+002	2.1630000E-001	-1.2976285E+000	0
7.6557736E+000	1.178265972299414E+002	-1.2997776E+000	-1.697774318232289E+002	2.2067291E-001	-1.2996285E+000	0
7.5213566E+000	1.180265972248890E+002	-1.3017467E+000	-1.730733948943298E+002	2.2529772E-001	-1.3016286E+000	0
7.3145757E+000	1.182265972198365E+002	-1.3038069E+000	-1.782477889882731E+002	2.3240070E-001	-1.3036284E+000	0
7.2316957E+000	1.184265972147841E+002	-1.3057975E+000	-1.805658768645226E+002	2.3578246E-001	-1.3056285E+000	0
7.1416683E+000	1.186265972097317E+002	-1.3078141E+000	-1.831244566662253E+002	2.3949274E-001	-1.3076285E+000	0
6.9792480E+000	1.188265972046793E+002	-1.3097315E+000	-1.876608361765366E+002	2.4578531E-001	-1.3096286E+000	0
6.8182397E+000	1.190265971996268E+002	-1.3118263E+000	-1.923995601141528E+002	2.5239483E-001	-1.3116286E+000	0
6.7323914E+000	1.192265971945744E+002	-1.3138202E+000	-1.951491208638734E+002	2.5639087E-001	-1.3136286E+000	0
6.6471457E+000	1.194265971895220E+002	-1.3158338E+000	-1.979547166089078E+002	2.6047552E-001	-1.3156285E+000	0
6.5643387E+000	1.196265971844696E+002	-1.3177787E+000	-2.007481290175001E+002	2.6454160E-001	-1.3176285E+000	0
6.4730825E+000	1.198265971794171E+002	-1.3198128E+000	-2.038924724055531E+002	2.6909989E-001	-1.3196286E+000	0
6.3842430E+000	1.200265971743647E+002	-1.3218046E+000	-2.070417128539129E+002	2.7366871E-001	-1.3216286E+000	0
6.3032603E+000	1.202267971693072E+002	-1.3238026E+000	-2.100187022521118E+002	2.7802330E-001	-1.3236301E+000	0
6.2419519E+000	1.204072971647474E+002	-1.3256336E+000	-2.123748480705699E+002	2.8153124E-001	-1.3254343E+000	0
6.1185980E+000	1.205879971601826E+002	-1.3274341E+000	-2.169506889961945E+002	2.8798774E-001	-1.3272418E+000	0
5.9997072E+000	1.207786971553651E+002	-1.3293749E+000	-2.215732933858994E+002	2.9455397E-001	-1.3291488E+000	0
5.9579372E+000	1.209591971508053E+002	-1.3311691E+000	-2.234278483346229E+002	2.9742026E-001	-1.3309540E+000	0
5.8941813E+000	1.211495971459954E+002	-1.3330548E+000	-2.261645302171310E+002	3.0148971E-001	-1.3328578E+000	0
5.8257723E+000	1.213499971409328E+002	-1.3350916E+000	-2.291698961717743E+002	3.0596280E-001	-1.3348621E+000	0
5.7620835E+000	1.215504971358678E+002	-1.3370696E+000	-2.320462118671076E+002	3.1026193E-001	-1.3368671E+000	0
5.7077522E+000	1.217407971310604E+002	-1.3389987E+000	-2.345929924970328E+002	3.1411970E-001	-1.3387699E+000	0
5.6470313E+000	1.219314971262429E+002	-1.3408774E+000	-2.374481978855183E+002	3.1838894E-001	-1.3406765E+000	0
5.6089754E+000	1.221219971214305E+002	-1.3428015E+000	-2.394022778884050E+002	3.2146972E-001	-1.3425820E+000	0
5.5545850E+000	1.223021971168782E+002	-1.3445958E+000	-2.420695345371265E+002	3.2548568E-001	-1.3443843E+000	0
5.5074248E+000	1.224923971120734E+002	-1.3464880E+000	-2.444859556257416E+002	3.2919741E-001	-1.3462861E+000	0
5.4607286E+000	1.226926971070134E+002	-1.3484795E+000	-2.469413066359384E+002	3.3299530E-001	-1.3482894E+000	0
5.3472910E+000	1.228930971019508E+002	-1.3504871E+000	-2.525553808305203E+002	3.4107280E-001	-1.3502928E+000	0
5.2289629E+000	1.230934970968883E+002	-1.3525255E+000	-2.586603681507518E+002	3.4984472E-001	-1.3522973E+000	0
5.1347008E+000	1.232839970920759E+002	-1.3544372E+000	-2.637811531499951E+002	3.5727501E-001	-1.3542017E+000	0
5.0560303E+000	1.234741970872710E+002	-1.3562752E+000	-2.682490203537363E+002	3.6381948E-001	-1.3561046E+000	0
5.0202560E+000	1.236643970824662E+002	-1.3582280E+000	-2.705495495048508E+002	3.6746797E-001	-1.3580056E+000	0
4.9959869E+000	1.238548970776537E+002	-1.3601092E+000	-2.722403512135402E+002	3.7027660E-001	-1.3599112E+000	0
4.9045286E+000	1.240550970725963E+002	-1.3621278E+000	-2.777285767415714E+002	3.7830180E-001	-1.3619132E+000	0
4.8354154E+000	1.242454970677863E+002	-1.3640369E+000	-2.820930276574936E+002	3.8478529E-001	-1.3638170E+000	0
4.8024325E+000	1.244158970634817E+002	-1.3657007E+000	-2.843768704255135E+002	3.8837370E-001	-1.3655208E+000	0
4.7689266E+000	1.245962970589244E+002	-1.3675127E+000	-2.867548149967947E+002	3.9214087E-001	-1.3673248E+000	0
4.7215824E+000	1.247968970538568E+002	-1.3695215E+000	-2.900556241927952E+002	3.9723742E-001	-1.3693309E+000	0
4.5918341E+000	1.249775970492919E+002	-1.3713421E+000	-2.986479862144247E+002	4.0954855E-001	-1.3711377E+000	0
4.5475621E+000	1.251680970444795E+002	-1.3732312E+000	-3.019708459339790E+002	4.1467577E-001	-1.3730426E+000	0
4.5266767E+000	1.253488970399121E+002	-1.3750777E+000	-3.037720297569385E+002	4.1771016E-001	-1.3748509E+000	0
4.4180675E+000	1.255393970350997E+002	-1.3769995E+000	-3.116746170411270E+002	4.2917579E-001	-1.3767562E+000	0
4.3753734E+000	1.257396970300397E+002	-1.3790069E+000	-3.151746854707035E+002	4.3462804E-001	-1.3787591E+000	0
4.3557687E+000	1.259400970249771E+002	-1.3810059E+000	-3.170521631101665E+002	4.3785089E-001	-1.3807627E+000	0
4.3484182E+000	1.261405970199121E+002	-1.3829534E+000	-3.180359553104840E+002	4.3982890E-001	-1.3827684E+000	0
4.3186021E+000	1.263308970151047E+002	-1.3849282E+000	-3.206890264047863E+002	4.4413128E-001	-1.3846710E+000	0
4.2960744E+000	1.265011970108026E+002	-1.3866427E+000	-3.227697201586352E+002	4.4756627E-001	-1.3863739E+000	0
4.2699261E+000	1.266614970067531E+002	-1.3882034E+000	-3.251117908521423E+002	4.5132127E-001	-1.3879771E+000	0
4.2617240E+000	1.268616970016956E+002	-1.3902230E+000	-3.262114338182291E+002	4.5350665E-001	-1.3899795E+000	0
4.2322946E+000	1.270520969968857E+002	-1.3921180E+000	-3.289274645885280E+002	4.5790583E-001	-1.3918828E+000	0
4.1802821E+000	1.272325969923259E+002	-1.3939319E+000	-3.334540178012367E+002	4.6481219E-001	-1.3936881E+000	0
4.1562924E+000	1.274227969875210E+002	-1.3958063E+000	-3.358296496300495E+002	4.6875316E-001	-1.3955899E+000	0
4.1259198E+000	1.276231969824585E+002	-1.3978409E+000	-3.387949629252889E+002	4.7358143E-001	-1.3975942E+000	0
4.1066747E+000	1.277937969781487E+002	-1.3995522E+000	-3.407993758330849E+002	4.7696653E-001	-1.3992995E+000	0
4.0785422E+000	1.279742969735889E+002	-1.4012861E+000	-3.435752325765407E+002	4.8144722E-001	-1.4011047E+000	0
4.0576186E+000	1.281548969690266E+002	-1.4031867E+000	-3.458153154282172E+002	4.8524344E-001	-1.4029108E+000	0
4.0510101E+000	1.283251969647245E+002	-1.4048235E+000	-3.467835032631524E+002	4.8716962E-001	-1.4046142E+000	0
4.0157943E+000	1.285055969601672E+002	-1.4066764E+000	-3.502859818153039E+002	4.9273902E-001	-1.4064174E+000	0
3.9003673E+000	1.286763969558524E+002	-1.4083606E+000	-3.610841040528248E+002	5.0853664E-001	-1.4081259E+000	0
3.7593908E+000	1.288568969512926E+002	-1.4101700E+000	-3.751059683355797E+002	5.2896315E-001	-1.4099312E+000	0
3.7031472E+000	1.290469969464903E+002	-1.4120566E+000	-3.813125704280892E+002	5.3843492E-001	-1.4118322E+000	0
3.6593602E+000	1.292369969416905E+002	-1.4139695E+000	-3.863980138934651E+002	5.4635501E-001	-1.4137321E+000	0
3.6408386E+000	1.294169969371433E+002	-1.4157693E+000	-3.888580211535545E+002	5.5053324E-001	-1.4155320E+000	0
3.6322744E+000	1.295969969325961E+002	-1.4175568E+000	-3.902669919892228E+002	5.5322564E-001	-1.4173321E+000	0
3.6112511E+000	1.297869969277963E+002	-1.4194763E+000	-3.930705000040498E+002	5.5795425E-001	-1.4192324E+000	0
3.6018608E+000	1.299869969227439E+002	-1.4214852E+000	-3.946529980614050E+002	5.6099337E-001	-1.4212323E+000	0
3.5822809E+000	1.301869969176914E+002	-1.4234830E+000	-3.973677797490518E+002	5.6564629E-001	-1.4232324E+000	0
3.5792620E+000	1.303869969126390E+002	-1.4254938E+000	-3.982647231722622E+002	5.6772393E-001	-1.4252323E+000	0
3.5783300E+000	1.305869969075866E+002	-1.4274480E+000	-3.989145816642960E+002	5.6942981E-001	-1.4272324E+000	0
3.5618596E+000	1.307769969027868E+002	-1.4294217E+000	-4.013133002167833E+002	5.7364595E-001	-1.4291320E+000	0
3.5535147E+000	1.309669968979870E+002	-1.4313240E+000	-4.027910740305235E+002	5.7652456E-001	-1.4310323E+000	0
3.5444913E+000	1.311669968929345E+002	-1.4333500E+000	-4.043880743774935E+002	5.7962966E-001	-1.4330324E+000	0
3.5394909E+000	1.313570968881322E+002	-1.4352528E+000	-4.054969499781897E+002	5.8199060E-001	-1.4349333E+000	0
3.5304856E+000	1.315469968833349E+002	-1.4371085E+000	-4.070569057060929E+002	5.8498496E-001	-1.4368323E+000	0
3.5255358E+000	1.317369968785351E+002	-1.4390218E+000	-4.081710973204517E+002	5.8736712E-001	-1.4387320E+000	0
3.5147409E+000	1.319269968737353E+002	-1.4409318E+000	-4.099681288098527E+002	5.9073609E-001	-1.4406323E+000	0
3.4579904E+000	1.321269968686829E+002	-1.4428999E+000	-4.172654531829203E+002	6.0207230E-001	-1.4426323E+000	0
3.4342971E+000	1.323170968638806E+002	-1.4448572E+000	-4.207141186368699E+002	6.0787183E-001	-1.4445332E+000	0
3.4059241E+000	1.324971968593309E+002	-1.4466238E+000	-4.247375289735683E+002	6.1443543E-001	-1.4463341E+000	0
3.3845205E+000	1.326871968545311E+002	-1.4485432E+000	-4.279906631781131E+002	6.1996299E-001	-1.4482344E+000	0
3.3468297E+000	1.328672968499814E+002	-1.4503174E+000	-4.333406502429680E+002	6.2848151E-001	-1.4500353E+000	0
3.2389421E+000	1.330571968451841E+002	-1.4521824E+000	-4.483508418117044E+002	6.5108722E-001	-1.4519341E+000	0
3.2438114E+000	1.332271968408895E+002	-1.4539156E+000	-4.482121214539980E+002	6.5166259E-001	-1.4536340E+000	0
3.1695175E+000	1.334071968363423E+002	-1.4557248E+000	-4.592890999073888E+002	6.6859853E-001	-1.4554343E+000	0
3.1830473E+000	1.336071968312899E+002	-1.4577594E+000	-4.579760218769516E+002	6.6761887E-001	-1.4574344E+000	0
3.1827371E+000	1.338071968262375E+002	-1.4597145E+000	-4.586349808742665E+002	6.6947615E-001	-1.4594343E+000	0
3.1831040E+000	1.340071968211851E+002	-1.4616951E+000	-4.592043075648007E+002	6.7121667E-001	-1.4614344E+000	0
3.1712120E+000	1.341971968163853E+002	-1.4636109E+000	-4.615304619368085E+002	6.7550099E-001	-1.4633342E+000	0
3.1479132E+000	1.343771968118381E+002	-1.4653970E+000	-4.655137705507800E+002	6.8216246E-001	-1.4651341E+000	0
3.1463373E+000	1.345572968072884E+002	-1.4671948E+000	-4.663183553753611E+002	6.8417984E-001	-1.4669352E+000	0
3.1223168E+000	1.347372968027412E+002	-1.4690397E+000	-4.704966661887652E+002	6.9117826E-001	-1.4687350E+000	0
3.0730355E+000	1.349273967979389E+002	-1.4714260E+000	-4.788184169760625E+002	7.0454586E-001	-1.4706362E+000	0
2.9770689E+000	1.351273967928864E+002	-1.4734529E+000	-4.949341209999848E+002	7.2926211E-001	-1.4726363E+000	0
2.9108069E+000	1.353273967878340E+002	-1.4754574E+000	-5.068894809498033E+002	7.4789387E-001	-1.4746364E+000	0
2.9254727E+000	1.355273967827816E+002	-1.4774566E+000	-5.050317282946999E+002	7.4616247E-001	-1.4766363E+000	0
2.9307306E+000	1.357273967777292E+002	-1.4794916E+000	-5.048200784021519E+002	7.4687707E-001	-1.4786363E+000	0
2.9380093E+000	1.359273967726767E+002	-1.4814628E+000	-5.042403363511139E+002	7.4701333E-001	-1.4806362E+000	0
2.9271643E+000	1.361074967681270E+002	-1.4833207E+000	-5.067432152356578E+002	7.5166273E-001	-1.4824373E+000	0
2.9076242E+000	1.363073967630771E+002	-1.4852601E+000	-5.108157194487903E+002	7.5869423E-001	-1.4844364E+000	0
2.8816121E+000	1.364973967582773E+002	-1.4871953E+000	-5.160983432356388E+002	7.6753902E-001	-1.4863360E+000	0
2.8787446E+000	1.366773967537301E+002	-1.4889920E+000	-5.172365731895536E+002	7.7016109E-001	-1.4881361E+000	0
2.8807526E+000	1.368673967489303E+002	-1.4909477E+000	-5.175549371074935E+002	7.7164733E-001	-1.4900362E+000	0
2.8713014E+000	1.370673967438779E+002	-1.4929081E+000	-5.199412971288984E+002	7.7622461E-001	-1.4920363E+000	0
2.8790491E+000	1.372673967388255E+002	-1.4948602E+000	-5.192201002774036E+002	7.7616143E-001	-1.4940362E+000	0
2.7993243E+000	1.374673967337731E+002	-1.4969282E+000	-5.347462903669366E+002	8.0047679E-001	-1.4960363E+000	0
2.7726333E+000	1.376673967287206E+002	-1.4988947E+000	-5.406032755758756E+002	8.1030738E-001	-1.4980363E+000	0
2.7867162E+000	1.378673967236682E+002	-1.5008986E+000	-5.385904013099598E+002	8.0836958E-001	-1.5000362E+000	0
2.7710819E+000	1.380673967186158E+002	-1.5028937E+000	-5.423490466163248E+002	8.1509298E-001	-1.5020363E+000	0
2.7700231E+000	1.382673967135634E+002	-1.5049281E+000	-5.432908166163070E+002	8.1761360E-001	-1.5040364E+000	0
2.7889175E+000	1.384673967085109E+002	-1.5068663E+000	-5.403050946994717E+002	8.1416756E-001	-1.5060363E+000	0
2.7833369E+000	1.386673967034585E+002	-1.5088869E+000	-5.421143758605094E+002	8.1798929E-001	-1.5080363E+000	0
2.7137966E+000	1.388673966984061E+002	-1.5109084E+000	-5.567507497393945E+002	8.4119934E-001	-1.5100362E+000	0
2.6822860E+000	1.390673966933537E+002	-1.5128794E+000	-5.640261331675028E+002	8.5330349E-001	-1.5120363E+000	0
2.6031027E+000	1.392673966883012E+002	-1.5149363E+000	-5.819733220617240E+002	8.8165253E-001	-1.5140364E+000	0
2.5653505E+000	1.394573966835014E+002	-1.5168297E+000	-5.912758331545992E+002	8.9686477E-001	-1.5159360E+000	0
2.5686638E+000	1.396473966787016E+002	-1.5187303E+000	-5.912530085548533E+002	8.9795387E-001	-1.5178363E+000	0
2.5555086E+000	1.397774966754150E+002	-1.5200448E+000	-5.948110936415414E+002	9.0413952E-001	-1.5191369E+000	0
2.5387187E+000	1.398181966743869E+002	-1.5204248E+000	-5.988945465087891E+002	9.1057414E-001	-1.5197361E+000	1