EC-Lab ASCII FILE
Nb header lines : 63                          

Linear Sweep Voltammetry

Run on channel : 1 (SN 1340)
User : 
Electrode connection : standard
Potential control : Ewe
Ewe ctrl range : min = -5.00 V, max = 5.00 V
Ewe,I filtering : <None>
Safety Limits :
	Do not start on E overload
Channel : Floating
Acquisition started on : 02/18/2026 18:11:14.991
Technique started on : 02/18/2026 18:11:17.828
Loaded Setting File :  C:\Users\volt\Documents\Platalytix\Ni10Co10_2-17_01_ZIR_C01.mpr
Saved on :
	File : Co40_2_18_02_02_LSV_C01.mpr
	Directory : C:\Users\volt\Documents\Platalytix\
	Host : 127.0.0.1
Device : SP-200 (SN 0262)
Address : USB
EC-LAB for windows v11.60 (software)
Internet server v11.60 (firmware)
Command interpretor v11.60 (firmware)
Electrode material : Co40
Initial state : 
Electrolyte : KOH (1M)
Comments : 
Cable : standard
Reference electrode : Hg/HgO (0.140 V)
Electrode surface area : 1.000 cm˛
Characteristic mass : 0.001 g
Equivalent Weight : 0.000 g/eq.
Density : 0.000 g/cm3
Volume (V) : 0.001 cmł
Cycle Definition : Charge/Discharge alternance
tR (h:m:s)          0:00:5.0000         
dER/dt (mV/h)       0.0                 
dER (mV)            0                   
dtR (s)             0.0000              
dE/dt               10.000              
dE/dt unit          mV/s                
Ei (V)              0.200               
vs.                 Ref                 
EL (V)              -2.500              
vs.                 Ref                 
record              <I>                 
dI                  0.000               
unit dI             µA                  
tI (s)              0.0000              
step percent        50                  
N                   10                  
E range min (V)     -5.000              
E range max (V)     5.000               
I Range             Auto                
I Range min         Unset               
I Range max         Unset               
I Range init        Unset               
Bandwidth           8                   

Rwe/Ohm	time/s	Ewe/V	<I>/mA	Pwe/W	control/V	error	
0.0000000E+000	2.837400134740165E+000	-1.7050280E-001	0.000000000000000E+000	0.0000000E+000	0.0000000E+000	0
0.0000000E+000	7.837200008434593E+000	-4.8605856E-002	0.000000000000000E+000	0.0000000E+000	2.0005000E-001	0
3.3349277E+002	8.037200003382168E+000	1.9828828E-001	5.945804256200784E-001	1.1789833E-004	1.9815022E-001	0
6.9965405E+002	8.157200000350713E+000	1.9707204E-001	2.816706906034783E-001	5.5509419E-005	1.9695015E-001	0
1.2506703E+003	8.367199995045667E+000	1.9497795E-001	1.558987655140490E-001	3.0396823E-005	1.9485013E-001	0
1.6998771E+003	8.567199989993242E+000	1.9298914E-001	1.135312303923948E-001	2.1910295E-005	1.9285017E-001	0
2.1181040E+003	8.767199984940817E+000	1.9096339E-001	9.015769783202598E-002	1.7216820E-005	1.9085014E-001	0
2.5204438E+003	8.967199979888392E+000	1.8896012E-001	7.497096896517907E-002	1.4166523E-005	1.8885013E-001	0
2.8971875E+003	9.167199974835967E+000	1.8698697E-001	6.454086061218600E-002	1.2068300E-005	1.8685015E-001	0
3.2937581E+003	9.367199969783542E+000	1.8498605E-001	5.616261039188974E-002	1.0389300E-005	1.8485014E-001	0
3.6768860E+003	9.567199964731117E+000	1.8298960E-001	4.976754807819617E-002	9.1069433E-006	1.8285014E-001	0
4.0351548E+003	9.767199959678692E+000	1.8096256E-001	4.484649743571185E-002	8.1155367E-006	1.8085016E-001	0
4.3785791E+003	9.967199954626267E+000	1.7893404E-001	4.086577912867534E-002	7.3122787E-006	1.7885016E-001	0
4.7414404E+003	1.016719994957384E+001	1.7696428E-001	3.732289338580516E-002	6.6048192E-006	1.7685015E-001	0
5.0837515E+003	1.036719994452142E+001	1.7491627E-001	3.440692707027210E-002	6.0183311E-006	1.7485017E-001	0
5.4531440E+003	1.056719993946899E+001	1.7298196E-001	3.172150932758183E-002	5.4872489E-006	1.7285016E-001	0
5.8150098E+003	1.076719993441657E+001	1.7096747E-001	2.940106474426973E-002	5.0266258E-006	1.7085014E-001	0
6.1552368E+003	1.096719992936414E+001	1.6896844E-001	2.745116846039339E-002	4.6383811E-006	1.6885017E-001	0
6.5289775E+003	1.116719992431172E+001	1.6693357E-001	2.556810214325722E-002	4.2681745E-006	1.6685015E-001	0
6.8848184E+003	1.136719991925929E+001	1.6494006E-001	2.395706839952932E-002	3.9514803E-006	1.6485015E-001	0
7.2435815E+003	1.156719991420687E+001	1.6294380E-001	2.249492077426696E-002	3.6654078E-006	1.6285017E-001	0
7.5639810E+003	1.176719990915444E+001	1.6093628E-001	2.127666400598738E-002	3.4241871E-006	1.6085015E-001	0
7.9574814E+003	1.196719990410202E+001	1.5893835E-001	1.997344903917159E-002	3.1745469E-006	1.5885016E-001	0
8.3003135E+003	1.216719989904959E+001	1.5694992E-001	1.890891576645157E-002	2.9677528E-006	1.5685016E-001	0
8.6178076E+003	1.236719989399717E+001	1.5493393E-001	1.797834645493207E-002	2.7854558E-006	1.5485016E-001	0
8.8822988E+003	1.256719988894474E+001	1.5294848E-001	1.721947070629852E-002	2.6336920E-006	1.5285017E-001	0
9.2025332E+003	1.276719988389232E+001	1.5094776E-001	1.640284956061192E-002	2.4759734E-006	1.5085016E-001	0
9.5469814E+003	1.296719987883989E+001	1.4891522E-001	1.559814605798546E-002	2.3228013E-006	1.4885016E-001	0
9.9480156E+003	1.316719987378747E+001	1.4697647E-001	1.477445053744986E-002	2.1714966E-006	1.4685015E-001	0
1.0339282E+004	1.336719986873504E+001	1.4493884E-001	1.401826969541661E-002	2.0317918E-006	1.4485018E-001	0
1.0605569E+004	1.356719986368262E+001	1.4295572E-001	1.347930597478220E-002	1.9269439E-006	1.4285016E-001	0
1.0946562E+004	1.376719985863019E+001	1.4095670E-001	1.287680127406642E-002	1.8150714E-006	1.4085016E-001	0
1.1343107E+004	1.396719985357777E+001	1.3896511E-001	1.225106246030813E-002	1.7024703E-006	1.3885017E-001	0
1.1810308E+004	1.416719984852534E+001	1.3693914E-001	1.159488306805287E-002	1.5877933E-006	1.3685016E-001	0
1.1993859E+004	1.436719984347292E+001	1.3496771E-001	1.125306758034159E-002	1.5188008E-006	1.3485014E-001	0
1.2302169E+004	1.456719983842049E+001	1.3291776E-001	1.080441671480897E-002	1.4360988E-006	1.3285017E-001	0
1.2657714E+004	1.476719983336807E+001	1.3096033E-001	1.034628588194393E-002	1.3549530E-006	1.3085015E-001	0
1.3073032E+004	1.496719982831564E+001	1.2892461E-001	9.861874617116184E-003	1.2714384E-006	1.2885018E-001	0
1.3403309E+004	1.516719982326322E+001	1.2696272E-001	9.472490921539983E-003	1.2026533E-006	1.2685017E-001	0
1.3794281E+004	1.536719981821079E+001	1.2491979E-001	9.055911341857348E-003	1.1312625E-006	1.2485017E-001	0
1.4117818E+004	1.556719981315837E+001	1.2294178E-001	8.708270005575530E-003	1.0706102E-006	1.2285016E-001	0
1.4561796E+004	1.576719980810594E+001	1.2094955E-001	8.305950380469523E-003	1.0046010E-006	1.2085018E-001	0
1.4931727E+004	1.596719980305352E+001	1.1897557E-001	7.967971568563381E-003	9.4799395E-007	1.1885016E-001	0
1.5072899E+004	1.616719979800109E+001	1.1693326E-001	7.757847494331699E-003	9.0715037E-007	1.1685016E-001	0
1.5431846E+004	1.636719979294867E+001	1.1491195E-001	7.446416352821186E-003	8.5568223E-007	1.1485017E-001	0
1.5614392E+004	1.656719978789624E+001	1.1296917E-001	7.234939046298086E-003	8.1732509E-007	1.1285017E-001	0
1.6257437E+004	1.676719978284382E+001	1.1095170E-001	6.824673594571134E-003	7.5720914E-007	1.1085016E-001	0
1.6497555E+004	1.696719977779139E+001	1.0892190E-001	6.602305431888254E-003	7.1913564E-007	1.0885018E-001	0
1.6628547E+004	1.716719977273897E+001	1.0694984E-001	6.431700361170856E-003	6.8786932E-007	1.0685018E-001	0
1.6838385E+004	1.736719976768654E+001	1.0494381E-001	6.232415539565717E-003	6.5405345E-007	1.0485018E-001	0
1.6966979E+004	1.756719976263412E+001	1.0293134E-001	6.066568512794232E-003	6.2444002E-007	1.0285020E-001	0
1.7705434E+004	1.776719975758169E+001	1.0096478E-001	5.702474342254960E-003	5.7574903E-007	1.0085018E-001	0
1.7835313E+004	1.796719975252927E+001	9.8967701E-002	5.548975042674889E-003	5.4916933E-007	9.8850220E-002	0
1.7949797E+004	1.816719974747684E+001	9.6955299E-002	5.401470348180344E-003	5.2370115E-007	9.6850209E-002	0
1.8300240E+004	1.836719974242442E+001	9.4934821E-002	5.187627073148252E-003	4.9248644E-007	9.4850175E-002	0
1.8703893E+004	1.856719973737199E+001	9.2937060E-002	4.968861922274040E-003	4.6179142E-007	9.2850171E-002	0
1.8734188E+004	1.876719973231957E+001	9.0935081E-002	4.853964757612185E-003	4.4139568E-007	9.0850189E-002	0
1.5649076E+004	1.900719972625666E+001	8.8573195E-002	5.659963171161728E-003	5.0132104E-007	8.8450186E-002	0
1.5161534E+004	1.920719972120423E+001	8.6540848E-002	5.707921576620215E-003	4.9396840E-007	8.6450182E-002	0
1.5252727E+004	1.940719971615181E+001	8.4568366E-002	5.544475273841889E-003	4.6888721E-007	8.4450193E-002	0
1.5143795E+004	1.960719971109938E+001	8.2626410E-002	5.456123194086254E-003	4.5081987E-007	8.2450181E-002	0
1.5034285E+004	1.980719970604696E+001	8.0573075E-002	5.359288667885119E-003	4.3181436E-007	8.0450177E-002	0
1.5219592E+004	2.000719970099453E+001	7.8613944E-002	5.165312309357920E-003	4.0606557E-007	7.8450188E-002	0
1.5986335E+004	2.020719969594211E+001	7.6556996E-002	4.788902217677062E-003	3.6662396E-007	7.6450177E-002	0
1.6026717E+004	2.040719969088968E+001	7.4530818E-002	4.650410856673351E-003	3.4659891E-007	7.4450172E-002	0
1.5913321E+004	2.060719968583726E+001	7.2627708E-002	4.563956506470583E-003	3.3146969E-007	7.2450183E-002	0
1.5355709E+004	2.080719968078483E+001	7.0563547E-002	4.595264675317526E-003	3.2425817E-007	7.0450179E-002	0
1.6022763E+004	2.100719967573241E+001	6.8544373E-002	4.277937139044646E-003	2.9322851E-007	6.8450175E-002	0
1.5699325E+004	2.120719967067998E+001	6.6557229E-002	4.239496147930580E-003	2.8216911E-007	6.6450186E-002	0
1.5801481E+004	2.140719966562756E+001	6.4524047E-002	4.083417667086170E-003	2.6347863E-007	6.4450189E-002	0
1.5747802E+004	2.160719966057513E+001	6.2524602E-002	3.970370181140624E-003	2.4824581E-007	6.2450182E-002	0
1.5549289E+004	2.180719965552271E+001	6.0513068E-002	3.891693578247035E-003	2.3549832E-007	6.0450189E-002	0
1.5331790E+004	2.200719965047028E+001	5.8573682E-002	3.820407207031654E-003	2.2377532E-007	5.8450185E-002	0
1.4926406E+004	2.220719964541786E+001	5.6566164E-002	3.789670612018486E-003	2.1436713E-007	5.6450177E-002	0
1.5434218E+004	2.240719964036543E+001	5.4526411E-002	3.532826430866337E-003	1.9263234E-007	5.4450188E-002	0
1.5294564E+004	2.260719963531301E+001	5.2577682E-002	3.437671027564218E-003	1.8074478E-007	5.2450184E-002	0
1.5559718E+004	2.280719963026058E+001	5.0551496E-002	3.248869778175095E-003	1.6423523E-007	5.0450183E-002	0
1.5885038E+004	2.300719962520816E+001	4.8648819E-002	3.062555969572632E-003	1.4898973E-007	4.8450191E-002	0
1.5690981E+004	2.320719962015573E+001	4.6589755E-002	2.969205888056548E-003	1.3833457E-007	4.6450183E-002	0
1.5109921E+004	2.340719961510331E+001	4.4581603E-002	2.950485458398350E-003	1.3153738E-007	4.4450190E-002	0
1.5866097E+004	2.360719961005088E+001	4.2551819E-002	2.681933656841759E-003	1.1412116E-007	4.2450193E-002	0
1.6214077E+004	2.380719960499846E+001	4.0555343E-002	2.501242766242431E-003	1.0143876E-007	4.0450193E-002	0
1.5639577E+004	2.400719959994603E+001	3.8562909E-002	2.465725830084049E-003	9.5085561E-008	3.8450189E-002	0
1.5664438E+004	2.420719959489361E+001	3.6577467E-002	2.335064071250757E-003	8.5410726E-008	3.6450192E-002	0
1.5993820E+004	2.440719958984118E+001	3.4584817E-002	2.162386208275613E-003	7.4785731E-008	3.4450192E-002	0
1.5871284E+004	2.460719958478876E+001	3.2592796E-002	2.053570218737975E-003	6.6931598E-008	3.2450192E-002	0
1.5254061E+004	2.480719957973633E+001	3.0577864E-002	2.004572167514162E-003	6.1295538E-008	3.0450195E-002	0
1.4375081E+004	2.500719957468391E+001	2.8528977E-002	1.984613258594055E-003	5.6618987E-008	2.8450193E-002	0
1.3438397E+004	2.520719956963148E+001	2.6546085E-002	1.975390751210532E-003	5.2438892E-008	2.6450193E-002	0
1.3902450E+004	2.540719956457906E+001	2.4575287E-002	1.767694681950732E-003	4.3441606E-008	2.4450196E-002	0
1.3858597E+004	2.560719955952663E+001	2.2554412E-002	1.627467279854439E-003	3.6706567E-008	2.2450196E-002	0
1.3968549E+004	2.580719955447421E+001	2.0565156E-002	1.472247147781283E-003	3.0276993E-008	2.0450197E-002	0
1.2642181E+004	2.600719954942178E+001	1.8558923E-002	1.468015924269215E-003	2.7244795E-008	1.8450197E-002	0
1.2982238E+004	2.620719954436936E+001	1.6574120E-002	1.276676582778274E-003	2.1159790E-008	1.6450197E-002	0
1.2495361E+004	2.640719953931693E+001	1.4561098E-002	1.165320314936005E-003	1.6968343E-008	1.4450198E-002	0
1.1480298E+004	2.660719953426451E+001	1.2533643E-002	1.091752420622458E-003	1.3683636E-008	1.2450199E-002	0
1.1086472E+004	2.680719952921208E+001	1.0538233E-002	9.505488265702036E-004	1.0017104E-008	1.0450198E-002	0
1.1634521E+004	2.700719952415966E+001	8.5160844E-003	7.319669722925717E-004	6.2334924E-009	8.4501998E-003	0
9.2752754E+003	2.720719951910723E+001	6.5705390E-003	7.083928484588158E-004	4.6545230E-009	6.4502000E-003	0
8.5440078E+003	2.740719951405481E+001	4.5600617E-003	5.337146038790061E-004	2.4337716E-009	4.4502006E-003	0
6.5282632E+003	2.760719950900238E+001	2.5427935E-003	3.895053701044654E-004	9.9043174E-010	2.4502007E-003	0
1.9376638E+003	2.780719950394996E+001	5.3634727E-004	2.768009995397570E-004	1.4846147E-010	4.5020133E-004	0
9.7608555E+003	2.800719949889753E+001	-1.4817701E-003	1.518073971544630E-004	-2.2494366E-010	-1.5497986E-003	0
2.6992020E+006	2.820719949384511E+001	-3.4428055E-003	-1.275490071717345E-006	4.3912643E-012	-3.5497991E-003	0
3.5633313E+004	2.840719948879268E+001	-5.4532844E-003	-1.530389372419454E-004	8.3456486E-010	-5.5497987E-003	0
2.6020313E+004	2.860719948374026E+001	-7.4264146E-003	-2.854083518626935E-004	2.1195607E-009	-7.5497995E-003	0
2.1074363E+004	2.880719947868783E+001	-9.4290432E-003	-4.474177069147328E-004	4.2187209E-009	-9.5497994E-003	0
1.7636762E+004	2.900719947363541E+001	-1.1415543E-002	-6.472584328020749E-004	7.3888065E-009	-1.1549799E-002	0
1.6453088E+004	2.920719946858299E+001	-1.3428567E-002	-8.161730587488720E-004	1.0960035E-008	-1.3549800E-002	0
1.6411191E+004	2.940719946353056E+001	-1.5473210E-002	-9.428450265059861E-004	1.4588839E-008	-1.5549798E-002	0
1.4552696E+004	2.960719945847814E+001	-1.7453980E-002	-1.199363940004937E-003	2.0933674E-008	-1.7549800E-002	0
1.3940783E+004	2.980719945342571E+001	-1.9430082E-002	-1.393758314432027E-003	2.7080839E-008	-1.9549802E-002	0
1.3623439E+004	3.000719944837329E+001	-2.1439498E-002	-1.573721453408894E-003	3.3739799E-008	-2.1549800E-002	0
1.2560925E+004	3.020719944332086E+001	-2.3472046E-002	-1.868655951205882E-003	4.3861178E-008	-2.3549799E-002	0
1.2011547E+004	3.040719943826844E+001	-2.5437539E-002	-2.117757183181569E-003	5.3870533E-008	-2.5549805E-002	0
1.1640112E+004	3.060719943321601E+001	-2.7457567E-002	-2.358874753624231E-003	6.4768962E-008	-2.7549801E-002	0
1.0872455E+004	3.080719942816359E+001	-2.9450860E-002	-2.708758896224357E-003	7.9775276E-008	-2.9549802E-002	0
1.0803853E+004	3.100719942311116E+001	-3.1464733E-002	-2.912362321519384E-003	9.1636700E-008	-3.1549804E-002	0
1.0206070E+004	3.120719941805874E+001	-3.3431705E-002	-3.275668799597252E-003	1.0951119E-007	-3.3549804E-002	0
9.9989727E+003	3.140719941300631E+001	-3.5470407E-002	-3.547405056092814E-003	1.2582790E-007	-3.5549801E-002	0
9.5018994E+003	3.160719940795389E+001	-3.7415531E-002	-3.937689679296488E-003	1.4733075E-007	-3.7549805E-002	0
9.1404385E+003	3.180719940290146E+001	-3.9486274E-002	-4.319954192244219E-003	1.7057890E-007	-3.9549805E-002	0
8.7631016E+003	3.200719939784904E+001	-4.1397866E-002	-4.724111095508521E-003	1.9556812E-007	-4.1549798E-002	0
8.4790459E+003	3.220719939279661E+001	-4.3465640E-002	-5.126241636756835E-003	2.2281537E-007	-4.3549806E-002	0
8.2184766E+003	3.240719938774419E+001	-4.5455318E-002	-5.530868863464919E-003	2.5140741E-007	-4.5549806E-002	0
7.8349541E+003	3.260719938269176E+001	-4.7447972E-002	-6.055934936409532E-003	2.8734183E-007	-4.7549799E-002	0
7.5587495E+003	3.280719937763934E+001	-4.9470127E-002	-6.544750226849524E-003	3.2376963E-007	-4.9549811E-002	0
7.2716538E+003	3.300719937258691E+001	-5.1442407E-002	-7.074375015729911E-003	3.6392288E-007	-5.1549807E-002	0
6.9623267E+003	3.320719936753449E+001	-5.3451821E-002	-7.677293107649558E-003	4.1036529E-007	-5.3549800E-002	0
6.7290400E+003	3.340719936248206E+001	-5.5405010E-002	-8.233716984951539E-003	4.5618916E-007	-5.5549812E-002	0
6.4857749E+003	3.360719935742964E+001	-5.7448592E-002	-8.857629557832869E-003	5.0885836E-007	-5.7549812E-002	0
6.1967119E+003	3.380719935237721E+001	-5.9446335E-002	-9.593205790583426E-003	5.7028092E-007	-5.9549805E-002	0
5.9540508E+003	3.400719934732479E+001	-6.1431557E-002	-1.031760712665808E-002	6.3382669E-007	-6.1549809E-002	0
5.7367178E+003	3.420719934227236E+001	-6.3433342E-002	-1.105742735328638E-002	7.0140959E-007	-6.3549809E-002	0
5.5076514E+003	3.440719933721994E+001	-6.5434694E-002	-1.188068931914135E-002	7.7740930E-007	-6.5549798E-002	0
5.3191997E+003	3.460719933216751E+001	-6.7415476E-002	-1.267398797836712E-002	8.5442292E-007	-6.7549810E-002	0
5.1008047E+003	3.480719932711509E+001	-6.9425523E-002	-1.361070042016735E-002	9.4492998E-007	-6.9549814E-002	0
4.9254741E+003	3.500719932206266E+001	-7.1433455E-002	-1.450285790374616E-002	1.0359893E-006	-7.1549803E-002	0
4.7574878E+003	3.520719931701024E+001	-7.3427379E-002	-1.543406496255272E-002	1.1332829E-006	-7.3549807E-002	0
4.5929878E+003	3.540719931195781E+001	-7.5448893E-002	-1.642697493615933E-002	1.2393971E-006	-7.5549811E-002	0
4.4318462E+003	3.560719930690539E+001	-7.7420115E-002	-1.746904441509745E-002	1.3524555E-006	-7.7549808E-002	0
4.2756353E+003	3.580719930185296E+001	-7.9409584E-002	-1.857258143421370E-002	1.4748409E-006	-7.9549812E-002	0
4.1412139E+003	3.600719929680054E+001	-8.1415609E-002	-1.965984206949206E-002	1.6006180E-006	-8.1549816E-002	0
4.0229109E+003	3.620719929174811E+001	-8.3498657E-002	-2.075578064233800E-002	1.7330798E-006	-8.3549798E-002	0
3.9102437E+003	3.640719928669569E+001	-8.5421063E-002	-2.184545761291062E-002	1.8660622E-006	-8.5549809E-002	0
3.7989382E+003	3.660719928164326E+001	-8.7444276E-002	-2.301808333596167E-002	2.0127995E-006	-8.7549813E-002	0
3.6928630E+003	3.680719927659084E+001	-8.9465149E-002	-2.422650064203935E-002	2.1674275E-006	-8.9549802E-002	0
3.6046584E+003	3.700719927153841E+001	-9.1481581E-002	-2.537871053829882E-002	2.3216846E-006	-9.1549814E-002	0
3.5152356E+003	3.720719926648599E+001	-9.3476772E-002	-2.659189434512999E-002	2.4857245E-006	-9.3549818E-002	0
3.4349182E+003	3.740719926143356E+001	-9.5438451E-002	-2.778478011582888E-002	2.6517364E-006	-9.5549807E-002	0
3.3579409E+003	3.760719925638114E+001	-9.7424746E-002	-2.901323914713738E-002	2.8266074E-006	-9.7549811E-002	0
3.2837017E+003	3.780719925132871E+001	-9.9421851E-002	-3.027736971919294E-002	3.0102321E-006	-9.9549815E-002	0
3.2280139E+003	3.800719924627629E+001	-1.0142766E-001	-3.142107162907581E-002	3.1869658E-006	-1.0154980E-001	0
3.1648267E+003	3.820719924122386E+001	-1.0343432E-001	-3.268245883341958E-002	3.3804879E-006	-1.0354982E-001	0
3.1087283E+003	3.840719923617144E+001	-1.0545350E-001	-3.392174937144610E-002	3.5771673E-006	-1.0554982E-001	0
3.0578909E+003	3.860719923111901E+001	-1.0742833E-001	-3.513151163403205E-002	3.7741195E-006	-1.0754980E-001	0
3.0110029E+003	3.880719922606659E+001	-1.0943647E-001	-3.634551956102924E-002	3.9775255E-006	-1.0954981E-001	0
2.9697578E+003	3.900719922101416E+001	-1.1145926E-001	-3.753142926869424E-002	4.1832250E-006	-1.1154981E-001	0
2.9369001E+003	3.920719921596174E+001	-1.1343154E-001	-3.862287780104207E-002	4.3810523E-006	-1.1354981E-001	0
2.8964426E+003	3.940719921090931E+001	-1.1544964E-001	-3.985911661013530E-002	4.6017208E-006	-1.1554981E-001	0
2.8686748E+003	3.960719920585689E+001	-1.1743445E-001	-4.093682816697725E-002	4.8073939E-006	-1.1754981E-001	0
2.8380876E+003	3.980719920080446E+001	-1.1945936E-001	-4.209149991692195E-002	5.0282238E-006	-1.1954981E-001	0
2.8118079E+003	4.000719919575204E+001	-1.2143145E-001	-4.318625527479464E-002	5.2441696E-006	-1.2154981E-001	0
2.7852217E+003	4.020719919069961E+001	-1.2343491E-001	-4.431780572117949E-002	5.4703642E-006	-1.2354982E-001	0
2.7682458E+003	4.040719918564719E+001	-1.2548868E-001	-4.533147934482118E-002	5.6885879E-006	-1.2554981E-001	0
2.7477759E+003	4.060719918059476E+001	-1.2745756E-001	-4.638571912093337E-002	5.9122103E-006	-1.2754981E-001	0
2.7285293E+003	4.080719917554234E+001	-1.2945150E-001	-4.744368835981688E-002	6.1416567E-006	-1.2954980E-001	0
2.7167397E+003	4.100719917048991E+001	-1.3149613E-001	-4.840218140785924E-002	6.3646994E-006	-1.3154981E-001	0
2.7009014E+003	4.120719916543749E+001	-1.3343702E-001	-4.940462675285584E-002	6.5924064E-006	-1.3354982E-001	0
2.6893171E+003	4.140719916038506E+001	-1.3543753E-001	-5.036131153094370E-002	6.8208119E-006	-1.3554983E-001	0
2.6844043E+003	4.160719915533264E+001	-1.3745946E-001	-5.120668989445709E-002	7.0388437E-006	-1.3754980E-001	0
2.6727627E+003	4.180719915028021E+001	-1.3943748E-001	-5.216979366503338E-002	7.2744247E-006	-1.3954982E-001	0
2.6717292E+003	4.200719914522779E+001	-1.4146344E-001	-5.294826951526244E-002	7.4902446E-006	-1.4154983E-001	0
2.6670378E+003	4.220719914017536E+001	-1.4346224E-001	-5.379085504986314E-002	7.7169570E-006	-1.4354981E-001	0
2.6624480E+003	4.240719913512294E+001	-1.4541778E-001	-5.461807297056942E-002	7.9424390E-006	-1.4554982E-001	0
2.6612058E+003	4.260719913007051E+001	-1.4746156E-001	-5.541156142762105E-002	8.1710750E-006	-1.4754982E-001	0
2.6597397E+003	4.280719912501809E+001	-1.4946951E-001	-5.619704147405902E-002	8.3997438E-006	-1.4954981E-001	0
2.6622668E+003	4.300719911996566E+001	-1.5147467E-001	-5.689687771160901E-002	8.6184355E-006	-1.5154982E-001	0
2.6657400E+003	4.320719911491324E+001	-1.5347388E-001	-5.757271262126507E-002	8.8359075E-006	-1.5354982E-001	0
2.6658557E+003	4.340719910986081E+001	-1.5549923E-001	-5.832995233799654E-002	9.0702633E-006	-1.5554981E-001	0
2.6685264E+003	4.360719910480839E+001	-1.5746664E-001	-5.900883448918393E-002	9.2919227E-006	-1.5754981E-001	0
2.6738252E+003	4.380719909975596E+001	-1.5946989E-001	-5.964110257545441E-002	9.5109599E-006	-1.5954983E-001	0
2.6822241E+003	4.400719909470354E+001	-1.6142243E-001	-6.018230644616446E-002	9.7147740E-006	-1.6154981E-001	0
2.6872922E+003	4.420719908965111E+001	-1.6339917E-001	-6.080439267732859E-002	9.9353874E-006	-1.6354983E-001	0
2.6944307E+003	4.440719908459869E+001	-1.6541581E-001	-6.139174876724079E-002	1.0155166E-005	-1.6554981E-001	0
2.7051790E+003	4.460719907954626E+001	-1.6746724E-001	-6.190615732913352E-002	1.0367253E-005	-1.6754980E-001	0
2.7134358E+003	4.480719907449384E+001	-1.6944419E-001	-6.244635847956792E-002	1.0581172E-005	-1.6954981E-001	0
2.7256975E+003	4.500719906944141E+001	-1.7145087E-001	-6.290164668389631E-002	1.0784542E-005	-1.7154983E-001	0
2.7339802E+003	4.520719906438899E+001	-1.7342654E-001	-6.343372221592636E-002	1.1001091E-005	-1.7354980E-001	0
2.7453486E+003	4.540719905933656E+001	-1.7547923E-001	-6.391874001395215E-002	1.1216412E-005	-1.7554983E-001	0
2.7600388E+003	4.560719905428414E+001	-1.7744814E-001	-6.429190222013426E-002	1.1408479E-005	-1.7754984E-001	0
2.7727915E+003	4.580719904923171E+001	-1.7943038E-001	-6.471109958608412E-002	1.1611137E-005	-1.7954981E-001	0
2.7847617E+003	4.600719904417929E+001	-1.8144085E-001	-6.515488999709951E-002	1.1821759E-005	-1.8154982E-001	0
2.8017156E+003	4.620719903912686E+001	-1.8348572E-001	-6.549048577192451E-002	1.2016569E-005	-1.8354984E-001	0
2.8183669E+003	4.640719903407444E+001	-1.8545863E-001	-6.580358094592798E-002	1.2203842E-005	-1.8554981E-001	0
2.8362937E+003	4.660719902902201E+001	-1.8747082E-001	-6.609711095388768E-002	1.2391280E-005	-1.8754981E-001	0
2.8526108E+003	4.680719902396959E+001	-1.8941996E-001	-6.640231371709349E-002	1.2577923E-005	-1.8954982E-001	0
2.8711074E+003	4.700719901891716E+001	-1.9149324E-001	-6.669665062472696E-002	1.2771958E-005	-1.9154981E-001	0
2.8871130E+003	4.720719901386474E+001	-1.9348420E-001	-6.701649927065345E-002	1.2966634E-005	-1.9354981E-001	0
2.9052793E+003	4.740719900881231E+001	-1.9549192E-001	-6.728851271565173E-002	1.3154361E-005	-1.9554985E-001	0
2.9267688E+003	4.760719900375989E+001	-1.9746462E-001	-6.746847147772464E-002	1.3322636E-005	-1.9754982E-001	0
2.9493418E+003	4.780719899870746E+001	-1.9945557E-001	-6.762714793561397E-002	1.3488611E-005	-1.9954982E-001	0
2.9681685E+003	4.800719899365504E+001	-2.0144060E-001	-6.786697316025717E-002	1.3671164E-005	-2.0154986E-001	0
2.9907290E+003	4.820719898860261E+001	-2.0352897E-001	-6.805329965564821E-002	1.3850818E-005	-2.0354982E-001	0
3.0138584E+003	4.840719898355019E+001	-2.0546646E-001	-6.817389336201313E-002	1.4007449E-005	-2.0554982E-001	0
3.0362068E+003	4.860719897849776E+001	-2.0747884E-001	-6.833488429852191E-002	1.4178042E-005	-2.0754984E-001	0
3.0620527E+003	4.880719897344534E+001	-2.0949906E-001	-6.841784669086343E-002	1.4333475E-005	-2.0954983E-001	0
3.0878596E+003	4.900719896839291E+001	-2.1149448E-001	-6.849225534837849E-002	1.4485734E-005	-2.1154983E-001	0
3.1125308E+003	4.920719896334049E+001	-2.1350814E-001	-6.859631347153261E-002	1.4645871E-005	-2.1354984E-001	0
3.1384644E+003	4.940719895828806E+001	-2.1546812E-001	-6.865399491829582E-002	1.4792748E-005	-2.1554983E-001	0
3.1626482E+003	4.960719895323564E+001	-2.1750790E-001	-6.877398002014212E-002	1.4958884E-005	-2.1754983E-001	0
3.1921094E+003	4.980719894818321E+001	-2.1951731E-001	-6.876872993779704E-002	1.5095926E-005	-2.1954983E-001	0
3.2151467E+003	5.000719894313079E+001	-2.2148915E-001	-6.888928258096749E-002	1.5258229E-005	-2.2154982E-001	0
3.2442126E+003	5.020719893807836E+001	-2.2348373E-001	-6.888689079623908E-002	1.5395099E-005	-2.2354983E-001	0
3.2743350E+003	5.040719893302594E+001	-2.2548486E-001	-6.886432485553595E-002	1.5527863E-005	-2.2554985E-001	0
3.3012207E+003	5.060719892797351E+001	-2.2750978E-001	-6.891686550886428E-002	1.5679261E-005	-2.2754982E-001	0
3.3363635E+003	5.080719892292109E+001	-2.2950689E-001	-6.878953577545122E-002	1.5787673E-005	-2.2954983E-001	0
3.3634338E+003	5.100719891786866E+001	-2.3148173E-001	-6.882303804761014E-002	1.5931277E-005	-2.3154984E-001	0
3.3949788E+003	5.120719891281624E+001	-2.3352867E-001	-6.878648844099844E-002	1.6063617E-005	-2.3354980E-001	0
3.4254302E+003	5.140719890776381E+001	-2.3550883E-001	-6.875306897893863E-002	1.6191954E-005	-2.3554984E-001	0
3.4600164E+003	5.160719890271139E+001	-2.3749615E-001	-6.864017981385419E-002	1.6301779E-005	-2.3754984E-001	0
3.4889307E+003	5.180719889765896E+001	-2.3948120E-001	-6.864028595717397E-002	1.6438058E-005	-2.3954983E-001	0
3.5251411E+003	5.200719889260654E+001	-2.4153094E-001	-6.851667094798347E-002	1.6548896E-005	-2.4154983E-001	0
3.5551836E+003	5.220719888755411E+001	-2.4349768E-001	-6.849088773549528E-002	1.6677373E-005	-2.4354984E-001	0
3.5891670E+003	5.240719888250169E+001	-2.4546933E-001	-6.839172680262495E-002	1.6788072E-005	-2.4554984E-001	0
3.6277791E+003	5.260719887744926E+001	-2.4744245E-001	-6.820769465629806E-002	1.6877479E-005	-2.4754982E-001	0
3.6597686E+003	5.280719887239684E+001	-2.4947076E-001	-6.816572119120745E-002	1.7005354E-005	-2.4954985E-001	0
3.6932283E+003	5.300719886734441E+001	-2.5149226E-001	-6.809551058740460E-002	1.7125494E-005	-2.5154981E-001	0
3.7299077E+003	5.320719886229199E+001	-2.5343972E-001	-6.794799002185248E-002	1.7220720E-005	-2.5354981E-001	0
3.7585237E+003	5.340719885723956E+001	-2.5547883E-001	-6.797318756443060E-002	1.7365710E-005	-2.5554985E-001	0
3.7923835E+003	5.360719885218714E+001	-2.5745431E-001	-6.788720015928451E-002	1.7477852E-005	-2.5754982E-001	0
3.8345737E+003	5.380719884713471E+001	-2.5947562E-001	-6.766739392087140E-002	1.7558039E-005	-2.5954983E-001	0
3.8700217E+003	5.400719884208229E+001	-2.6152980E-001	-6.757838125530713E-002	1.7673761E-005	-2.6154980E-001	0
3.9072957E+003	5.420719883702986E+001	-2.6342103E-001	-6.741773477457713E-002	1.7759248E-005	-2.6354983E-001	0
3.9399219E+003	5.440719883197744E+001	-2.6546994E-001	-6.737949101670393E-002	1.7887229E-005	-2.6554984E-001	0
3.9778010E+003	5.460719882692501E+001	-2.6748314E-001	-6.724397230960955E-002	1.7986629E-005	-2.6754987E-001	0
4.0132646E+003	5.480719882187259E+001	-2.6942912E-001	-6.713464825842824E-002	1.8088029E-005	-2.6954982E-001	0
4.0579209E+003	5.500719881682016E+001	-2.7148926E-001	-6.690353689643436E-002	1.8163591E-005	-2.7154982E-001	0
4.0936040E+003	5.520719881176774E+001	-2.7350038E-001	-6.681163546939717E-002	1.8273007E-005	-2.7354982E-001	0
4.1289932E+003	5.540719880671531E+001	-2.7545440E-001	-6.671224278239474E-002	1.8376180E-005	-2.7554983E-001	0
4.1683833E+003	5.560719880166289E+001	-2.7748078E-001	-6.656795974225327E-002	1.8471330E-005	-2.7754983E-001	0
4.2056606E+003	5.580719879661046E+001	-2.7948555E-001	-6.645461743224468E-002	1.8573106E-005	-2.7954984E-001	0
4.2373398E+003	5.600719879155804E+001	-2.8146017E-001	-6.642379077698402E-002	1.8695651E-005	-2.8154981E-001	0
4.2792061E+003	5.620719878650561E+001	-2.8347212E-001	-6.624409353915928E-002	1.8778353E-005	-2.8354985E-001	0
4.3156870E+003	5.640719878145319E+001	-2.8549555E-001	-6.615297691611488E-002	1.8886380E-005	-2.8554982E-001	0
4.3541592E+003	5.660719877640076E+001	-2.8742138E-001	-6.601076375676196E-002	1.8972905E-005	-2.8754985E-001	0
4.3926484E+003	5.680719877134834E+001	-2.8942761E-001	-6.588908967450097E-002	1.9070121E-005	-2.8954983E-001	0
4.4344766E+003	5.700719876629591E+001	-2.9144356E-001	-6.572220226445680E-002	1.9154313E-005	-2.9154983E-001	0
4.4745469E+003	5.720719876124349E+001	-2.9343539E-001	-6.557879423196755E-002	1.9243140E-005	-2.9354984E-001	0
4.5154761E+003	5.740719875619106E+001	-2.9546753E-001	-6.543441194578453E-002	1.9333744E-005	-2.9554984E-001	0
4.5514590E+003	5.760719875113864E+001	-2.9741114E-001	-6.534413277866333E-002	1.9434074E-005	-2.9754984E-001	0
4.5888999E+003	5.780719874608621E+001	-2.9946494E-001	-6.525854539345799E-002	1.9542647E-005	-2.9954982E-001	0
4.6318579E+003	5.800719874103379E+001	-3.0146480E-001	-6.508506848761911E-002	1.9620857E-005	-3.0154985E-001	0
4.6667583E+003	5.820719873598136E+001	-3.0343240E-001	-6.501995203984878E-002	1.9729161E-005	-3.0354983E-001	0
4.7013320E+003	5.840719873092894E+001	-3.0542591E-001	-6.496582129946954E-002	1.9842246E-005	-3.0554983E-001	0
4.7484849E+003	5.860719872587651E+001	-3.0743912E-001	-6.474467429761116E-002	1.9905046E-005	-3.0754983E-001	0
4.7920337E+003	5.880719872082409E+001	-3.0952984E-001	-6.459258424061148E-002	1.9993333E-005	-3.0954984E-001	0
4.8348188E+003	5.900719871577166E+001	-3.1149808E-001	-6.442807485452950E-002	2.0069221E-005	-3.1154981E-001	0
4.8690278E+003	5.920719871071924E+001	-3.1349730E-001	-6.438601734866375E-002	2.0184843E-005	-3.1354985E-001	0
4.9103169E+003	5.940719870566681E+001	-3.1547934E-001	-6.424826526509675E-002	2.0269001E-005	-3.1554982E-001	0
4.9418442E+003	5.960719870061439E+001	-3.1744951E-001	-6.423705609097152E-002	2.0392023E-005	-3.1754982E-001	0
4.9908003E+003	5.980719869556197E+001	-3.1947654E-001	-6.401308699481417E-002	2.0450680E-005	-3.1954986E-001	0
5.0315918E+003	6.000719869050954E+001	-3.2146072E-001	-6.388847620169413E-002	2.0537636E-005	-3.2154986E-001	0
5.0746846E+003	6.020719868545712E+001	-3.2350132E-001	-6.374806388811383E-002	2.0622583E-005	-3.2354984E-001	0
5.1089331E+003	6.040719868040469E+001	-3.2546362E-001	-6.370481285382745E-002	2.0733600E-005	-3.2554984E-001	0
5.1330820E+003	6.060719867535227E+001	-3.2747409E-001	-6.379677597412226E-002	2.0891792E-005	-3.2754984E-001	0
5.1620366E+003	6.080719867029984E+001	-3.2946312E-001	-6.382425207974157E-002	2.1027738E-005	-3.2954982E-001	0
5.2183354E+003	6.100719866524742E+001	-3.3145878E-001	-6.351810610903813E-002	2.1053635E-005	-3.3154982E-001	0
5.2566006E+003	6.120719866019499E+001	-3.3345562E-001	-6.343560485758493E-002	2.1152959E-005	-3.3354983E-001	0
5.2983076E+003	6.140719865514257E+001	-3.3546719E-001	-6.331591339741749E-002	2.1240412E-005	-3.3554983E-001	0
5.3569473E+003	6.160719865009014E+001	-3.3750108E-001	-6.300250387511935E-002	2.1263413E-005	-3.3754984E-001	0
5.3917134E+003	6.180719864503772E+001	-3.3944526E-001	-6.295684588515527E-002	2.1370402E-005	-3.3954984E-001	0
5.4247705E+003	6.200719863998529E+001	-3.4148416E-001	-6.294905376206687E-002	2.1496106E-005	-3.4154981E-001	0
5.4657783E+003	6.220719863493287E+001	-3.4346011E-001	-6.283828098899247E-002	2.1582444E-005	-3.4354985E-001	0
5.5014048E+003	6.240719862988044E+001	-3.4548971E-001	-6.280027288001627E-002	2.1696847E-005	-3.4554982E-001	0
5.5419956E+003	6.260719862482802E+001	-3.4744626E-001	-6.269334883707856E-002	2.1782569E-005	-3.4754983E-001	0
5.5760298E+003	6.280719861977559E+001	-3.4945270E-001	-6.267052064406914E-002	2.1900383E-005	-3.4954986E-001	0
5.6165464E+003	6.300719861472317E+001	-3.5143048E-001	-6.257056430945190E-002	2.1989203E-005	-3.5154983E-001	0
5.6563403E+003	6.320719860967074E+001	-3.5350591E-001	-6.249728280408928E-002	2.2093158E-005	-3.5354984E-001	0
5.6845723E+003	6.340719860461832E+001	-3.5544741E-001	-6.252843670572372E-002	2.2225571E-005	-3.5554984E-001	0
5.7288672E+003	6.360719859956589E+001	-3.5748464E-001	-6.240058151261685E-002	2.2307249E-005	-3.5754988E-001	0
5.7488154E+003	6.380719859451347E+001	-3.5945842E-001	-6.252738788233989E-002	2.2475995E-005	-3.5954985E-001	0
5.7785474E+003	6.400719858946104E+001	-3.6143389E-001	-6.254753305538718E-002	2.2606799E-005	-3.6154985E-001	0
5.8181182E+003	6.420719858440862E+001	-3.6344436E-001	-6.246768446510353E-002	2.2703527E-005	-3.6354983E-001	0
5.8609712E+003	6.440719857935619E+001	-3.6548263E-001	-6.235871480064063E-002	2.2791028E-005	-3.6554986E-001	0
5.8845552E+003	6.460719857430377E+001	-3.6750096E-001	-6.245178479887126E-002	2.2951092E-005	-3.6754984E-001	0
5.9187432E+003	6.480719856925134E+001	-3.6944208E-001	-6.241900627364050E-002	2.3060207E-005	-3.6954981E-001	0
5.9477441E+003	6.500719856419892E+001	-3.7146848E-001	-6.245535790979406E-002	2.3200197E-005	-3.7154984E-001	0
5.9920386E+003	6.520719855914649E+001	-3.7347662E-001	-6.232880939235341E-002	2.3278353E-005	-3.7354982E-001	0
6.0214614E+003	6.540719855409407E+001	-3.7546799E-001	-6.235496096773385E-002	2.3412291E-005	-3.7554982E-001	0
6.0665908E+003	6.560719854904164E+001	-3.7746039E-001	-6.221952107988382E-002	2.3485405E-005	-3.7754986E-001	0
6.1111538E+003	6.580719854398922E+001	-3.7948683E-001	-6.209741319189699E-002	2.3565150E-005	-3.7954983E-001	0
6.1502305E+003	6.600719853893679E+001	-3.8145354E-001	-6.202264195160262E-002	2.3658757E-005	-3.8154987E-001	0
6.1777798E+003	6.620719853388437E+001	-3.8345641E-001	-6.207025991942849E-002	2.3801240E-005	-3.8354984E-001	0
6.1958345E+003	6.640719852883194E+001	-3.8543677E-001	-6.220901631348896E-002	2.3977642E-005	-3.8554981E-001	0
6.2254917E+003	6.660719852377952E+001	-3.8750196E-001	-6.224439502535317E-002	2.4119825E-005	-3.8754985E-001	0
6.2584429E+003	6.680719851872709E+001	-3.8947681E-001	-6.223222037487997E-002	2.4238007E-005	-3.8954982E-001	0
6.2934922E+003	6.700719851367467E+001	-3.9148244E-001	-6.220432415249788E-002	2.4351901E-005	-3.9154986E-001	0
6.3288389E+003	6.720719850862224E+001	-3.9348167E-001	-6.217280520884372E-002	2.4463860E-005	-3.9354983E-001	0
6.3569653E+003	6.740719850356982E+001	-3.9548025E-001	-6.221211066072541E-002	2.4603662E-005	-3.9554986E-001	0
6.3832949E+003	6.760719849851739E+001	-3.9745429E-001	-6.226475512748281E-002	2.4747394E-005	-3.9754984E-001	0
6.4201221E+003	6.780719849346497E+001	-3.9945728E-001	-6.221957518265085E-002	2.4854062E-005	-3.9954987E-001	0
6.4491704E+003	6.800719848841254E+001	-4.0144548E-001	-6.224761510113672E-002	2.4989024E-005	-4.0154988E-001	0
6.4802417E+003	6.820719848336012E+001	-4.0343428E-001	-6.225605605828993E-002	2.5116227E-005	-4.0354988E-001	0
6.5072896E+003	6.840719847830769E+001	-4.0549421E-001	-6.231384061735201E-002	2.5267902E-005	-4.0554982E-001	0
6.5311172E+003	6.860719847325527E+001	-4.0747884E-001	-6.239037505401662E-002	2.5422758E-005	-4.0754986E-001	0
6.5526880E+003	6.880719846820284E+001	-4.0948465E-001	-6.249109609897249E-002	2.5589145E-005	-4.0954989E-001	0
6.5786460E+003	6.900719846315042E+001	-4.1142553E-001	-6.253954648122595E-002	2.5730365E-005	-4.1154987E-001	0
6.6084937E+003	6.920719845809799E+001	-4.1354397E-001	-6.257764474898520E-002	2.5878608E-005	-4.1354984E-001	0
6.6337778E+003	6.940719845304557E+001	-4.1548356E-001	-6.263151769462945E-002	2.6022366E-005	-4.1554987E-001	0
6.6686763E+003	6.960719844799314E+001	-4.1750237E-001	-6.260648284470688E-002	2.6138356E-005	-4.1754985E-001	0
6.7134595E+003	6.980719844294072E+001	-4.1952494E-001	-6.249012650453145E-002	2.6216167E-005	-4.1954985E-001	0
6.7380664E+003	7.000719843788829E+001	-4.2150572E-001	-6.255588642914950E-002	2.6367665E-005	-4.2154986E-001	0
6.7739902E+003	7.020719843283587E+001	-4.2351955E-001	-6.252142983961817E-002	2.6479049E-005	-4.2354989E-001	0
6.7934800E+003	7.040719842778344E+001	-4.2549777E-001	-6.263325386733457E-002	2.6650310E-005	-4.2554983E-001	0
6.8207871E+003	7.060719842273102E+001	-4.2751506E-001	-6.267825707153341E-002	2.6795899E-005	-4.2754987E-001	0
6.8424639E+003	7.080719841767859E+001	-4.2948312E-001	-6.276732062036072E-002	2.6957505E-005	-4.2954990E-001	0
6.8689478E+003	7.100719841262617E+001	-4.3147939E-001	-6.281593637678240E-002	2.7103782E-005	-4.3154985E-001	0
6.8960283E+003	7.120719840757374E+001	-4.3346161E-001	-6.285670283514488E-002	2.7245967E-005	-4.3354985E-001	0
6.9188149E+003	7.140719840252132E+001	-4.3548462E-001	-6.294208186543448E-002	2.7410308E-005	-4.3554989E-001	0
6.9468003E+003	7.160719839746889E+001	-4.3750235E-001	-6.297897350026149E-002	2.7553449E-005	-4.3754986E-001	0
6.9689082E+003	7.180719839241647E+001	-4.3951678E-001	-6.306824313799808E-002	2.7719550E-005	-4.3954986E-001	0
7.0061860E+003	7.200719838736404E+001	-4.4149819E-001	-6.301548129186285E-002	2.7821221E-005	-4.4154987E-001	0
7.0411333E+003	7.220719838231162E+001	-4.4348830E-001	-6.298535564056951E-002	2.7933269E-005	-4.4354987E-001	0
7.0705547E+003	7.240719837725919E+001	-4.4551790E-001	-6.301031781037403E-002	2.8072225E-005	-4.4554985E-001	0
7.0919453E+003	7.260719837220677E+001	-4.4751841E-001	-6.310235109716589E-002	2.8239463E-005	-4.4754982E-001	0
7.1187300E+003	7.280719836715434E+001	-4.4951278E-001	-6.314507914050282E-002	2.8384520E-005	-4.4954988E-001	0
7.1400273E+003	7.300719836210192E+001	-4.5150352E-001	-6.323554257327990E-002	2.8551070E-005	-4.5154989E-001	0
7.1769453E+003	7.320719835704949E+001	-4.5349640E-001	-6.318794182330632E-002	2.8655504E-005	-4.5354986E-001	0
7.2022949E+003	7.340719835199707E+001	-4.5551383E-001	-6.324565172609331E-002	2.8809269E-005	-4.5554987E-001	0
7.2187910E+003	7.360719834694464E+001	-4.5750695E-001	-6.337722629369980E-002	2.8995522E-005	-4.5754987E-001	0
7.2623599E+003	7.380719834189222E+001	-4.5951274E-001	-6.327320014965010E-002	2.9074841E-005	-4.5954981E-001	0
7.2823457E+003	7.400719833683979E+001	-4.6151966E-001	-6.337513581399801E-002	2.9248871E-005	-4.6154988E-001	0
7.3144941E+003	7.420719833178737E+001	-4.6346432E-001	-6.336245577636701E-002	2.9366238E-005	-4.6354988E-001	0
7.3380366E+003	7.440719832673494E+001	-4.6552104E-001	-6.343945209623247E-002	2.9532399E-005	-4.6554989E-001	0
7.3815508E+003	7.460719832168252E+001	-4.6752498E-001	-6.333695918896054E-002	2.9611610E-005	-4.6754983E-001	0
7.4106353E+003	7.480719831663009E+001	-4.6951827E-001	-6.335735842986856E-002	2.9747438E-005	-4.6954986E-001	0
7.4396045E+003	7.500719831157767E+001	-4.7149244E-001	-6.337600839039204E-002	2.9881308E-005	-4.7154990E-001	0
7.4680151E+003	7.520719830652524E+001	-4.7350121E-001	-6.340389017463399E-002	3.0021818E-005	-4.7354984E-001	0
7.5006475E+003	7.540719830147282E+001	-4.7553864E-001	-6.339967815847469E-002	3.0148996E-005	-4.7554985E-001	0
7.5354116E+003	7.560719829642039E+001	-4.7757566E-001	-6.337751351326493E-002	3.0267558E-005	-4.7754988E-001	0
7.5689775E+003	7.580719829136797E+001	-4.7946155E-001	-6.334561684333584E-002	3.0371788E-005	-4.7954985E-001	0
7.6051367E+003	7.600719828631554E+001	-4.8148200E-001	-6.331010304798979E-002	3.0482675E-005	-4.8154986E-001	0
7.6489390E+003	7.620719828126312E+001	-4.8352095E-001	-6.321412295286774E-002	3.0565352E-005	-4.8354989E-001	0
7.6724761E+003	7.640719827621069E+001	-4.8550877E-001	-6.327928026690433E-002	3.0722644E-005	-4.8554987E-001	0
7.6977217E+003	7.660719827115827E+001	-4.8746553E-001	-6.332594706505823E-002	3.0869218E-005	-4.8754984E-001	0
7.7291235E+003	7.680719826610584E+001	-4.8952624E-001	-6.333528381197895E-002	3.1004285E-005	-4.8954988E-001	0
7.7562314E+003	7.700719826105342E+001	-4.9152681E-001	-6.337186102090131E-002	3.1148968E-005	-4.9154991E-001	0
7.7975225E+003	7.720719825600099E+001	-4.9348336E-001	-6.328720057619730E-002	3.1231182E-005	-4.9354985E-001	0
7.8282271E+003	7.740719825094857E+001	-4.9555644E-001	-6.330378982396856E-002	3.1370600E-005	-4.9554986E-001	0
7.8735444E+003	7.760719824589614E+001	-4.9747524E-001	-6.318313818712151E-002	3.1432046E-005	-4.9754989E-001	0
7.9043232E+003	7.780719824084372E+001	-4.9955207E-001	-6.319985475735374E-002	3.1571617E-005	-4.9954987E-001	0
7.9468892E+003	7.800719823579129E+001	-5.0155711E-001	-6.311363958470673E-002	3.1655094E-005	-5.0154990E-001	0
7.9887725E+003	7.820719823073887E+001	-5.0354558E-001	-6.303165999743787E-002	3.1739313E-005	-5.0354987E-001	0
8.0287852E+003	7.840719822568644E+001	-5.0551802E-001	-6.296320359302843E-002	3.1829033E-005	-5.0554991E-001	0
8.0643037E+003	7.860719822063402E+001	-5.0754881E-001	-6.293770928746811E-002	3.1943960E-005	-5.0754982E-001	0
8.0993179E+003	7.880719821558159E+001	-5.0951028E-001	-6.290780106779048E-002	3.2052172E-005	-5.0954986E-001	0
8.1386636E+003	7.900719821052917E+001	-5.1153165E-001	-6.285204507923670E-002	3.2150809E-005	-5.1154989E-001	0
8.2004932E+003	7.920719820547674E+001	-5.1352447E-001	-6.262116780812910E-002	3.2157503E-005	-5.1354986E-001	0
8.2389424E+003	7.940719820042432E+001	-5.1556063E-001	-6.257606817825390E-002	3.2261756E-005	-5.1554984E-001	0
8.2726572E+003	7.960719819537189E+001	-5.1750916E-001	-6.255657973756265E-002	3.2373602E-005	-5.1754987E-001	0
8.3098662E+003	7.980719819031947E+001	-5.1955014E-001	-6.252208383766555E-002	3.2483356E-005	-5.1954985E-001	0
8.3538779E+003	8.000719818526704E+001	-5.2150214E-001	-6.242635338609426E-002	3.2555476E-005	-5.2154988E-001	0
8.4029570E+003	8.020719818021462E+001	-5.2353060E-001	-6.230313589747838E-002	3.2617598E-005	-5.2354985E-001	0
8.4437969E+003	8.040719817516219E+001	-5.2552480E-001	-6.223797143907905E-002	3.2707598E-005	-5.2554989E-001	0
8.4917891E+003	8.060719817010977E+001	-5.2751207E-001	-6.212024927369453E-002	3.2769181E-005	-5.2754986E-001	0
8.5415479E+003	8.080719816505734E+001	-5.2951491E-001	-6.199285125385245E-002	3.2826138E-005	-5.2954984E-001	0
8.5926006E+003	8.100719816000492E+001	-5.3152525E-001	-6.185848510648873E-002	3.2879347E-005	-5.3154987E-001	0
8.6440664E+003	8.120719815495249E+001	-5.3357142E-001	-6.172690310572482E-002	3.2935710E-005	-5.3354985E-001	0
8.6822578E+003	8.140719814990007E+001	-5.3554851E-001	-6.168308975111647E-002	3.3034288E-005	-5.3554988E-001	0
8.7314482E+003	8.160719814484764E+001	-5.3750384E-001	-6.155952688648692E-002	3.3088483E-005	-5.3754991E-001	0
8.7889385E+003	8.180719813979522E+001	-5.3957117E-001	-6.139207501576827E-002	3.3125394E-005	-5.3954989E-001	0
8.8406387E+003	8.200719813474279E+001	-5.4151863E-001	-6.125333860396148E-002	3.3169825E-005	-5.4154992E-001	0
8.8938379E+003	8.220719812969037E+001	-5.4356068E-001	-6.111655034211443E-002	3.3220553E-005	-5.4354984E-001	0
8.9407861E+003	8.240719812463794E+001	-5.4550821E-001	-6.101345271716853E-002	3.3283341E-005	-5.4554987E-001	0
8.9829932E+003	8.260719811958552E+001	-5.4753286E-001	-6.095215950589916E-002	3.3373311E-005	-5.4754990E-001	0
9.0422480E+003	8.280719811453309E+001	-5.4952300E-001	-6.077282923926314E-002	3.3396067E-005	-5.4954982E-001	0
9.0967080E+003	8.300719810948067E+001	-5.5158842E-001	-6.063604884191753E-002	3.3446144E-005	-5.5154991E-001	0
9.1514277E+003	8.320719810442824E+001	-5.5354458E-001	-6.048723844264381E-002	3.3482382E-005	-5.5354989E-001	0
9.2114365E+003	8.340719809937582E+001	-5.5550987E-001	-6.030654192579024E-002	3.3500877E-005	-5.5554992E-001	0
9.2615586E+003	8.360719809432339E+001	-5.5754650E-001	-6.020006975908782E-002	3.3564338E-005	-5.5754983E-001	0
9.3181631E+003	8.380719808927097E+001	-5.5956841E-001	-6.005136191300064E-002	3.3602846E-005	-5.5954987E-001	0
9.3579893E+003	8.400719808421854E+001	-5.6149733E-001	-6.000192264620807E-002	3.3690918E-005	-5.6154996E-001	0
9.4252393E+003	8.420719807916612E+001	-5.6354856E-001	-5.979143230660544E-002	3.3695374E-005	-5.6354982E-001	0
9.4832178E+003	8.440719807411369E+001	-5.6557119E-001	-5.963916213899978E-002	3.3730194E-005	-5.6554985E-001	0
9.5385859E+003	8.460719806906127E+001	-5.6749511E-001	-5.949467945370879E-002	3.3762939E-005	-5.6754988E-001	0
9.5915264E+003	8.480719806400884E+001	-5.6952822E-001	-5.937826817025282E-002	3.3817600E-005	-5.6954986E-001	0
9.6426279E+003	8.500719805895642E+001	-5.7148504E-001	-5.926652561795048E-002	3.3869932E-005	-5.7154989E-001	0
9.7143457E+003	8.520719805390399E+001	-5.7353270E-001	-5.903976646625764E-002	3.3861237E-005	-5.7354987E-001	0
9.7746592E+003	8.540719804885157E+001	-5.7551384E-001	-5.887815183241862E-002	3.3885190E-005	-5.7554996E-001	0
9.8187354E+003	8.560719804379914E+001	-5.7750970E-001	-5.881711711701565E-002	3.3967455E-005	-5.7754987E-001	0
9.8880498E+003	8.580719803874672E+001	-5.7950169E-001	-5.860626977095440E-002	3.3962431E-005	-5.7954985E-001	0
9.9410615E+003	8.600719803369429E+001	-5.8151555E-001	-5.849632408043304E-002	3.4016521E-005	-5.8154988E-001	0
1.0013104E+004	8.620719802864187E+001	-5.8352244E-001	-5.827587887765154E-002	3.4005283E-005	-5.8354980E-001	0
1.0079750E+004	8.640719802358944E+001	-5.8554524E-001	-5.809124520253350E-002	3.4015051E-005	-5.8554989E-001	0
1.0123396E+004	8.660719801853702E+001	-5.8749956E-001	-5.803384384575394E-002	3.4094857E-005	-5.8754992E-001	0
1.0193674E+004	8.680719801348459E+001	-5.8956021E-001	-5.783588931602268E-002	3.4097739E-005	-5.8954984E-001	0
1.0260187E+004	8.700719800843217E+001	-5.9148645E-001	-5.764870618812146E-002	3.4098430E-005	-5.9154987E-001	0
1.0302367E+004	8.720719800337974E+001	-5.9349972E-001	-5.760809418886821E-002	3.4190387E-005	-5.9354985E-001	0
1.0361587E+004	8.740719799832732E+001	-5.9553009E-001	-5.747479798648159E-002	3.4227971E-005	-5.9554994E-001	0
1.0418722E+004	8.760719799327489E+001	-5.9748632E-001	-5.734737309133042E-002	3.4264271E-005	-5.9754986E-001	0
1.0481430E+004	8.780719798822247E+001	-5.9950763E-001	-5.719712156276568E-002	3.4290111E-005	-5.9954983E-001	0
1.0532807E+004	8.800719798317004E+001	-6.0152805E-001	-5.710994966313354E-002	3.4353237E-005	-6.0154992E-001	0
1.0562782E+004	8.820719797811762E+001	-6.0355020E-001	-5.713931919295184E-002	3.4486446E-005	-6.0354984E-001	0
1.0659667E+004	8.840719797306519E+001	-6.0556406E-001	-5.680890809248329E-002	3.4401433E-005	-6.0554987E-001	0
1.0711412E+004	8.860719796801277E+001	-6.0756963E-001	-5.672171198902309E-002	3.4462391E-005	-6.0754985E-001	0
1.0765107E+004	8.880719796296034E+001	-6.0948956E-001	-5.661713839413540E-002	3.4507553E-005	-6.0954988E-001	0
1.0822346E+004	8.900719795790792E+001	-6.1148787E-001	-5.650234149289568E-002	3.4550496E-005	-6.1154985E-001	0
1.0870050E+004	8.920719795285549E+001	-6.1356056E-001	-5.644505484929277E-002	3.4632460E-005	-6.1354989E-001	0
1.0938144E+004	8.940719794780307E+001	-6.1555320E-001	-5.627583959583404E-002	3.4640772E-005	-6.1554992E-001	0
1.0981169E+004	8.960719794275064E+001	-6.1757153E-001	-5.623914451019474E-002	3.4731696E-005	-6.1754984E-001	0
1.1049649E+004	8.980719793769822E+001	-6.1956722E-001	-5.607120841245261E-002	3.4739882E-005	-6.1954987E-001	0
1.1110241E+004	9.000719793264579E+001	-6.2153584E-001	-5.594260550458857E-002	3.4770335E-005	-6.2154990E-001	0
1.1159955E+004	9.020719792759337E+001	-6.2356037E-001	-5.587481203237732E-002	3.4841320E-005	-6.2354988E-001	0
1.1224005E+004	9.040719792254095E+001	-6.2555593E-001	-5.573375301452466E-002	3.4864581E-005	-6.2554985E-001	0
1.1284848E+004	9.060719791748852E+001	-6.2749326E-001	-5.560493818061871E-002	3.4891724E-005	-6.2754989E-001	0
1.1326270E+004	9.080719791243610E+001	-6.2951219E-001	-5.557983360187783E-002	3.4988181E-005	-6.2954992E-001	0
1.1400396E+004	9.100719790738367E+001	-6.3158780E-001	-5.540051127365819E-002	3.4990288E-005	-6.3154989E-001	0
1.1434350E+004	9.120719790233125E+001	-6.3350075E-001	-5.540330531212856E-002	3.5098037E-005	-6.3354981E-001	0
1.1486952E+004	9.140719789727882E+001	-6.3549888E-001	-5.532354171030945E-002	3.5158049E-005	-6.3554990E-001	0
1.1549731E+004	9.160719789222640E+001	-6.3755900E-001	-5.520119536678629E-002	3.5194018E-005	-6.3754988E-001	0
1.1605876E+004	9.180719788717397E+001	-6.3950580E-001	-5.510189982876623E-002	3.5237983E-005	-6.3954985E-001	0
1.1654029E+004	9.200719788212155E+001	-6.4153552E-001	-5.504838735775380E-002	3.5315497E-005	-6.4154989E-001	0
1.1707103E+004	9.220719787706912E+001	-6.4351165E-001	-5.496762580472681E-002	3.5372308E-005	-6.4354992E-001	0
1.1754594E+004	9.240719787201670E+001	-6.4552617E-001	-5.491692820128891E-002	3.5450314E-005	-6.4554989E-001	0
1.1803348E+004	9.260719786696427E+001	-6.4751625E-001	-5.485869355525086E-002	3.5521894E-005	-6.4754987E-001	0
1.1864176E+004	9.280719786191185E+001	-6.4951849E-001	-5.474619788187396E-002	3.5558667E-005	-6.4954990E-001	0
1.1901773E+004	9.300719785685942E+001	-6.5156311E-001	-5.474504512151840E-002	3.5669851E-005	-6.5154988E-001	0
1.1957061E+004	9.320719785180700E+001	-6.5348661E-001	-5.465278132974927E-002	3.5714860E-005	-6.5354985E-001	0
1.1999979E+004	9.340719784675457E+001	-6.5557665E-001	-5.463147893666268E-002	3.5815123E-005	-6.5554988E-001	0
1.2043738E+004	9.360719784170215E+001	-6.5751517E-001	-5.459394563483633E-002	3.5896348E-005	-6.5754992E-001	0
1.2097196E+004	9.380719783664972E+001	-6.5956199E-001	-5.452189026104803E-002	3.5960566E-005	-6.5954983E-001	0
1.2155941E+004	9.400719783159730E+001	-6.6152531E-001	-5.441991415333081E-002	3.6000150E-005	-6.6154987E-001	0
1.2170811E+004	9.420719782654487E+001	-6.6353977E-001	-5.451894683083336E-002	3.6175490E-005	-6.6354990E-001	0
1.2214100E+004	9.440719782149245E+001	-6.6560590E-001	-5.449488248608492E-002	3.6272115E-005	-6.6554993E-001	0
1.2254940E+004	9.460719781644002E+001	-6.6755038E-001	-5.447193905404957E-002	3.6362762E-005	-6.6754985E-001	0
1.2296947E+004	9.480719781138760E+001	-6.6954982E-001	-5.444845770772910E-002	3.6455956E-005	-6.6954988E-001	0
1.2318430E+004	9.500719780633517E+001	-6.7155415E-001	-5.451621440800997E-002	3.6610589E-005	-6.7154992E-001	0
1.2394838E+004	9.520719780128275E+001	-6.7347533E-001	-5.433514549675733E-002	3.6593381E-005	-6.7354983E-001	0
1.2410763E+004	9.540719779623032E+001	-6.7552531E-001	-5.443060560924873E-002	3.6769252E-005	-6.7554986E-001	0
1.2440991E+004	9.560719779117790E+001	-6.7755687E-001	-5.446164678283826E-002	3.6900863E-005	-6.7754996E-001	0
1.2479580E+004	9.580719778612547E+001	-6.7953181E-001	-5.445149576432926E-002	3.7001522E-005	-6.7954987E-001	0
1.2489500E+004	9.600719778107305E+001	-6.8151766E-001	-5.456725106671745E-002	3.7188544E-005	-6.8154985E-001	0
1.2546210E+004	9.620719777602062E+001	-6.8350202E-001	-5.447876578579125E-002	3.7236347E-005	-6.8354988E-001	0
1.2551520E+004	9.640719777096820E+001	-6.8549985E-001	-5.461489036679253E-002	3.7438498E-005	-6.8554991E-001	0
1.2553769E+004	9.660719776591577E+001	-6.8755823E-001	-5.476907099535910E-002	3.7656926E-005	-6.8754983E-001	0
1.2572096E+004	9.680719776086335E+001	-6.8956059E-001	-5.484850086111259E-002	3.7821366E-005	-6.8954986E-001	0
1.2607979E+004	9.700719775581092E+001	-6.9154412E-001	-5.484972336348526E-002	3.7931004E-005	-6.9154990E-001	0
1.2613723E+004	9.720719775075850E+001	-6.9351560E-001	-5.498103865067522E-002	3.8130209E-005	-6.9354981E-001	0
1.2635806E+004	9.740719774570607E+001	-6.9554007E-001	-5.504516905380617E-002	3.8286122E-005	-6.9554991E-001	0
1.2646634E+004	9.760719774065365E+001	-6.9748503E-001	-5.515183364685239E-002	3.8467577E-005	-6.9754994E-001	0
1.2684853E+004	9.780719773560122E+001	-6.9955355E-001	-5.514873422591460E-002	3.8579492E-005	-6.9954991E-001	0
1.2686850E+004	9.800719773054880E+001	-7.0154518E-001	-5.529703569911053E-002	3.8793369E-005	-7.0154989E-001	0
1.2691702E+004	9.820719772549637E+001	-7.0354193E-001	-5.543321938477797E-002	3.8999595E-005	-7.0354986E-001	0
1.2673293E+004	9.840719772044395E+001	-7.0554322E-001	-5.567165664946239E-002	3.9278759E-005	-7.0554996E-001	0
1.2679118E+004	9.860719771539152E+001	-7.0759976E-001	-5.580828024672085E-002	3.9489925E-005	-7.0754981E-001	0
1.2668314E+004	9.880719771033910E+001	-7.0953113E-001	-5.600832888535545E-002	3.9739654E-005	-7.0954990E-001	0
1.2648288E+004	9.900719770528667E+001	-7.1151191E-001	-5.625361222309186E-002	4.0025116E-005	-7.1154994E-001	0
1.2625904E+004	9.920719770023425E+001	-7.1352744E-001	-5.651297791525201E-002	4.0323561E-005	-7.1354985E-001	0
1.2627067E+004	9.940719769518182E+001	-7.1556526E-001	-5.666915853845733E-002	4.0550480E-005	-7.1554983E-001	0
1.2621271E+004	9.960719769012940E+001	-7.1756923E-001	-5.685395682695182E-002	4.0796651E-005	-7.1754992E-001	0
1.2588072E+004	9.980719768507697E+001	-7.1954685E-001	-5.716100264532814E-002	4.1130021E-005	-7.1955001E-001	0
1.2585316E+004	1.000071976800245E+002	-7.2154093E-001	-5.733196675469110E-002	4.1367359E-005	-7.2154987E-001	0
1.2557116E+004	1.002071976749721E+002	-7.2355652E-001	-5.762123351160608E-002	4.1692219E-005	-7.2354984E-001	0
1.2522295E+004	1.004071976699197E+002	-7.2554660E-001	-5.794038350826924E-002	4.2038449E-005	-7.2554994E-001	0
1.2514358E+004	1.006071976648673E+002	-7.2752863E-001	-5.813551234512182E-002	4.2295251E-005	-7.2754985E-001	0
1.2481211E+004	1.008071976598148E+002	-7.2948420E-001	-5.844658838644146E-002	4.2635864E-005	-7.2954988E-001	0
1.2431533E+004	1.010071976547624E+002	-7.3149759E-001	-5.884210317598376E-002	4.3042855E-005	-7.3154992E-001	0
1.2428227E+004	1.012071976497100E+002	-7.3355073E-001	-5.902295850603806E-002	4.3296335E-005	-7.3354989E-001	0
1.2367231E+004	1.014071976446576E+002	-7.3552388E-001	-5.947361032788945E-002	4.3744261E-005	-7.3554987E-001	0
1.2349113E+004	1.016071976396051E+002	-7.3752987E-001	-5.972330752061150E-002	4.4047723E-005	-7.3754984E-001	0
1.2315432E+004	1.018071976345527E+002	-7.3949075E-001	-6.004586749469376E-002	4.4403365E-005	-7.3954999E-001	0
1.1878969E+004	1.020071976295003E+002	-7.4154872E-001	-6.242534623147655E-002	4.6291436E-005	-7.4154991E-001	0
1.1806959E+004	1.022071976244479E+002	-7.4354899E-001	-6.297548809152109E-002	4.6825360E-005	-7.4354988E-001	0
1.1799198E+004	1.024071976193954E+002	-7.4554276E-001	-6.318588307456774E-002	4.7107776E-005	-7.4554992E-001	0
1.1706121E+004	1.026071976143430E+002	-7.4756211E-001	-6.386078733902278E-002	4.7739904E-005	-7.4754983E-001	0
1.1649420E+004	1.028071976092906E+002	-7.4955565E-001	-6.434274578515586E-002	4.8228467E-005	-7.4954993E-001	0
1.1580371E+004	1.030071976042382E+002	-7.5152415E-001	-6.489638037886669E-002	4.8771199E-005	-7.5154990E-001	0
1.1501744E+004	1.032071975991857E+002	-7.5348598E-001	-6.551058534553905E-002	4.9361308E-005	-7.5354999E-001	0
1.1424529E+004	1.034071975941333E+002	-7.5554061E-001	-6.613319564944398E-002	4.9966315E-005	-7.5554997E-001	0
1.1206360E+004	1.036071975890809E+002	-7.5752181E-001	-6.759748776926877E-002	5.1206571E-005	-7.5754982E-001	0
1.1113166E+004	1.038071975840285E+002	-7.5955540E-001	-6.834734470611004E-002	5.1913594E-005	-7.5954992E-001	0
1.1031044E+004	1.040071975789760E+002	-7.6153809E-001	-6.903590462244424E-002	5.2573472E-005	-7.6154989E-001	0
1.0673639E+004	1.042071975739236E+002	-7.6352984E-001	-7.153416639394550E-002	5.4618471E-005	-7.6354986E-001	0
1.0214929E+004	1.044071975688712E+002	-7.6553738E-001	-7.494299931931081E-002	5.7371668E-005	-7.6554990E-001	0
1.0131037E+004	1.046071975638188E+002	-7.6753944E-001	-7.576119079034915E-002	5.8149701E-005	-7.6754993E-001	0
1.0083860E+004	1.048071975587663E+002	-7.6955563E-001	-7.631558072943323E-002	5.8729085E-005	-7.6954991E-001	0
1.0026228E+004	1.050071975537139E+002	-7.7154893E-001	-7.695306727267737E-002	5.9373055E-005	-7.7154988E-001	0
9.9625947E+003	1.052071975486615E+002	-7.7354151E-001	-7.764458068004498E-002	6.0061306E-005	-7.7354997E-001	0
9.9000752E+003	1.054071975436091E+002	-7.7551335E-001	-7.833409062882346E-002	6.0749135E-005	-7.7554989E-001	0
9.8437930E+003	1.056071975385566E+002	-7.7751458E-001	-7.898526508551151E-002	6.1412196E-005	-7.7754986E-001	0
9.7669277E+003	1.058071975335042E+002	-7.7956110E-001	-7.981640668881518E-002	6.2221763E-005	-7.7954996E-001	0
9.6929639E+003	1.060071975284518E+002	-7.8148162E-001	-8.062359580375233E-002	6.3005857E-005	-7.8154993E-001	0
9.6959912E+003	1.062071975233994E+002	-7.8354859E-001	-8.081160548835775E-002	6.3319821E-005	-7.8354990E-001	0
9.6041025E+003	1.064071975183469E+002	-7.8552949E-001	-8.179103415733924E-002	6.4249267E-005	-7.8554988E-001	0
9.5422178E+003	1.066071975132945E+002	-7.8752303E-001	-8.253040109695597E-002	6.4994594E-005	-7.8754997E-001	0
9.4792949E+003	1.068071975082421E+002	-7.8953856E-001	-8.329085053933039E-002	6.5761342E-005	-7.8955001E-001	0
9.4167715E+003	1.070071975031897E+002	-7.9150146E-001	-8.405231874617791E-002	6.6527537E-005	-7.9154992E-001	0
9.3604883E+003	1.072071974981372E+002	-7.9353619E-001	-8.477508505360754E-002	6.7272100E-005	-7.9354995E-001	0
9.2815137E+003	1.074071974930848E+002	-7.9551750E-001	-8.570988704566607E-002	6.8183712E-005	-7.9554999E-001	0
9.1901992E+003	1.076071974880324E+002	-7.9754549E-001	-8.678217802213606E-002	6.9212736E-005	-7.9754984E-001	0
9.0746436E+003	1.078171974827274E+002	-7.9959077E-001	-8.811264077429559E-002	7.0454051E-005	-7.9965001E-001	0
8.9274395E+003	1.080271974774223E+002	-8.0168658E-001	-8.980028257312472E-002	7.1991679E-005	-8.0174994E-001	0
8.8752998E+003	1.082271974723699E+002	-8.0370700E-001	-9.055547676125220E-002	7.2780073E-005	-8.0374992E-001	0
8.8213213E+003	1.084271974673175E+002	-8.0569524E-001	-9.133498628714598E-002	7.3588162E-005	-8.0574989E-001	0
8.7693916E+003	1.086271974622650E+002	-8.0768871E-001	-9.210316508917638E-002	7.4390686E-005	-8.0774999E-001	0
8.7189404E+003	1.088271974572126E+002	-8.0969352E-001	-9.286604148056993E-002	7.5193035E-005	-8.0974996E-001	0
8.6717783E+003	1.090271974521602E+002	-8.1168842E-001	-9.360115517874834E-002	7.5974975E-005	-8.1174988E-001	0
8.5970303E+003	1.092271974471078E+002	-8.1368089E-001	-9.464674455677553E-002	7.7012250E-005	-8.1374997E-001	0
8.5599365E+003	1.094271974420553E+002	-8.1567359E-001	-9.528967615189543E-002	7.7725272E-005	-8.1575000E-001	0
8.4820615E+003	1.096271974370029E+002	-8.1771588E-001	-9.640532391264056E-002	7.8832163E-005	-8.1774986E-001	0
8.4567354E+003	1.098271974319505E+002	-8.1971467E-001	-9.693038701069234E-002	7.9455262E-005	-8.1974995E-001	0
8.3940439E+003	1.100271974268981E+002	-8.2171261E-001	-9.789233929857799E-002	8.0439371E-005	-8.2175004E-001	0
8.3236992E+003	1.102271974218456E+002	-8.2373029E-001	-9.896204902425154E-002	8.1518039E-005	-8.2374990E-001	0
8.2251328E+003	1.104271974167932E+002	-8.2571679E-001	-1.003894794155800E-001	8.2893283E-005	-8.2574987E-001	0
8.1675098E+003	1.106271974117408E+002	-8.2772416E-001	-1.013435158443525E-001	8.3884479E-005	-8.2774997E-001	0
8.1230322E+003	1.108271974066884E+002	-8.2969880E-001	-1.021415111460975E-001	8.4746687E-005	-8.2974994E-001	0
8.0739282E+003	1.110271974016359E+002	-8.3171749E-001	-1.030127422698263E-001	8.5677500E-005	-8.3174992E-001	0
8.0347622E+003	1.112271973965835E+002	-8.3369601E-001	-1.037611296472228E-001	8.6505243E-005	-8.3374995E-001	0
7.9957407E+003	1.114271973915311E+002	-8.3571589E-001	-1.045201312288082E-001	8.7349137E-005	-8.3574998E-001	0
7.9571719E+003	1.116271973864787E+002	-8.3772814E-001	-1.052796364267721E-001	8.8195717E-005	-8.3774990E-001	0
7.8940845E+003	1.118271973814262E+002	-8.3973348E-001	-1.063750286538008E-001	8.9326670E-005	-8.3974987E-001	0
7.8095835E+003	1.120271973763738E+002	-8.4173357E-001	-1.077821334483957E-001	9.0723843E-005	-8.4174997E-001	0
7.7583584E+003	1.122271973713214E+002	-8.4373575E-001	-1.087518398335328E-001	9.1757815E-005	-8.4374994E-001	0
7.7396104E+003	1.124271973662690E+002	-8.4574562E-001	-1.092749621619867E-001	9.2418821E-005	-8.4574991E-001	0
7.7204692E+003	1.126271973612165E+002	-8.4774375E-001	-1.098046918196895E-001	9.3086244E-005	-8.4775001E-001	0
7.6648467E+003	1.128271973561641E+002	-8.4976470E-001	-1.108651953018658E-001	9.4209332E-005	-8.4974998E-001	0
7.6186670E+003	1.130271973511117E+002	-8.5173529E-001	-1.117958401756405E-001	9.5220465E-005	-8.5174984E-001	0
7.5595479E+003	1.132271973460593E+002	-8.5371351E-001	-1.129318211204420E-001	9.6411422E-005	-8.5374993E-001	0
7.5010747E+003	1.134271973410068E+002	-8.5572243E-001	-1.140799762072918E-001	9.7620796E-005	-8.5575002E-001	0
7.4729263E+003	1.136271973359544E+002	-8.5772043E-001	-1.147770468354679E-001	9.8446617E-005	-8.5774988E-001	0
7.4328057E+003	1.138271973309020E+002	-8.5975939E-001	-1.156709069299540E-001	9.9449149E-005	-8.5974997E-001	0
7.1220811E+003	1.140271973258496E+002	-8.6175466E-001	-1.209975879759757E-001	1.0427024E-004	-8.6174995E-001	0
6.9851885E+003	1.142271973207971E+002	-8.6371905E-001	-1.236500738868635E-001	1.0679892E-004	-8.6374992E-001	0
6.8569189E+003	1.144271973157447E+002	-8.6572200E-001	-1.262552470936020E-001	1.0930195E-004	-8.6574990E-001	0
6.7162246E+003	1.146271973106923E+002	-8.6773914E-001	-1.292004392127546E-001	1.1211228E-004	-8.6774993E-001	0
6.6053994E+003	1.148271973056399E+002	-8.6973274E-001	-1.316699694067056E-001	1.1451768E-004	-8.6974996E-001	0
6.4907300E+003	1.150271973005874E+002	-8.7174690E-001	-1.343064501822471E-001	1.1708123E-004	-8.7174994E-001	0
6.3907188E+003	1.152271972955350E+002	-8.7371218E-001	-1.367157958733023E-001	1.1945025E-004	-8.7374985E-001	0
6.2638276E+003	1.154271972904826E+002	-8.7573773E-001	-1.398087254442411E-001	1.2243577E-004	-8.7575001E-001	0
6.1313247E+003	1.156271972854302E+002	-8.7773162E-001	-1.431552946858969E-001	1.2565193E-004	-8.7774998E-001	0
6.0032925E+003	1.158271972803777E+002	-8.7969863E-001	-1.465360235323595E-001	1.2890754E-004	-8.7974989E-001	0
5.8631553E+003	1.160271972753253E+002	-8.8174766E-001	-1.503879133022715E-001	1.3260420E-004	-8.8174999E-001	0
5.7173057E+003	1.162271972702729E+002	-8.8372827E-001	-1.545707562477951E-001	1.3659855E-004	-8.8374996E-001	0
5.5678970E+003	1.164271972652205E+002	-8.8570690E-001	-1.590738636283140E-001	1.4089282E-004	-8.8574994E-001	0
5.4234995E+003	1.166271972601680E+002	-8.8768941E-001	-1.636746548086634E-001	1.4529226E-004	-8.8774991E-001	0
5.2171870E+003	1.168271972551156E+002	-8.8970840E-001	-1.705341176826783E-001	1.5172563E-004	-8.8975000E-001	0
5.0949077E+003	1.170271972500632E+002	-8.9171040E-001	-1.750199299373261E-001	1.5606709E-004	-8.9174986E-001	0
4.9474063E+003	1.172271972450108E+002	-8.9369994E-001	-1.806400933370527E-001	1.6143805E-004	-8.9374995E-001	0
4.8068687E+003	1.174271972399583E+002	-8.9569390E-001	-1.863362504910604E-001	1.6690024E-004	-8.9574993E-001	0
4.6637510E+003	1.176271972349059E+002	-8.9773417E-001	-1.924918789053311E-001	1.7280654E-004	-8.9774990E-001	0
4.5186880E+003	1.178271972298535E+002	-8.9972299E-001	-1.991115581865115E-001	1.7914525E-004	-8.9974999E-001	0
4.3681060E+003	1.180271972248011E+002	-9.0171576E-001	-2.064317384515117E-001	1.8614274E-004	-9.0174997E-001	0
4.2104985E+003	1.182271972197486E+002	-9.0369546E-001	-2.146290802542536E-001	1.9395932E-004	-9.0375006E-001	0
4.0680652E+003	1.184271972146962E+002	-9.0570301E-001	-2.226372887200920E-001	2.0164326E-004	-9.0574992E-001	0
3.9140283E+003	1.186271972096438E+002	-9.0769708E-001	-2.319086579977618E-001	2.1050281E-004	-9.0774995E-001	0
3.7557908E+003	1.188271972045914E+002	-9.0969700E-001	-2.422118388927315E-001	2.2033938E-004	-9.0974998E-001	0
3.5984822E+003	1.190271971995389E+002	-9.1173249E-001	-2.533658512882777E-001	2.3100188E-004	-9.1174996E-001	0
3.4337666E+003	1.192271971944865E+002	-9.1373652E-001	-2.661032616319199E-001	2.4314827E-004	-9.1374993E-001	0
3.2798232E+003	1.194271971894341E+002	-9.1571301E-001	-2.791958473572111E-001	2.5566327E-004	-9.1574997E-001	0
3.1230403E+003	1.196271971843817E+002	-9.1769415E-001	-2.938464081586414E-001	2.6966113E-004	-9.1775000E-001	0
2.9649265E+003	1.198271971793292E+002	-9.1966474E-001	-3.101812956026850E-001	2.8526279E-004	-9.1974998E-001	0
2.8132034E+003	1.200271971742768E+002	-9.2174882E-001	-3.276509602011388E-001	3.0201187E-004	-9.2174989E-001	0
2.6616025E+003	1.202271971692244E+002	-9.2371875E-001	-3.470535890099978E-001	3.2057991E-004	-9.2374998E-001	0
2.5149797E+003	1.204271971641720E+002	-9.2574257E-001	-3.680914591917608E-001	3.4075792E-004	-9.2574996E-001	0
2.3471580E+003	1.206271971591195E+002	-9.2772400E-001	-3.952542030381343E-001	3.6668681E-004	-9.2774987E-001	0
2.2073733E+003	1.208271971540671E+002	-9.2970514E-001	-4.211816373376216E-001	3.9157472E-004	-9.2975003E-001	0
2.0820195E+003	1.210271971490147E+002	-9.3170017E-001	-4.474982815560242E-001	4.1693423E-004	-9.3174988E-001	0
1.9605850E+003	1.212271971439623E+002	-9.3370998E-001	-4.762405029491710E-001	4.4467050E-004	-9.3374997E-001	0
1.8457272E+003	1.214271971389098E+002	-9.3572122E-001	-5.069661724662025E-001	4.7437899E-004	-9.3574995E-001	0
1.7380708E+003	1.216271971338574E+002	-9.3770158E-001	-5.395071328683105E-001	5.0589669E-004	-9.3775004E-001	0
1.6375514E+003	1.218271971288050E+002	-9.3971217E-001	-5.738520212218070E-001	5.3925574E-004	-9.3975002E-001	0
1.5350344E+003	1.220271971237526E+002	-9.4170082E-001	-6.134721239281173E-001	5.7770719E-004	-9.4174993E-001	0
1.4411139E+003	1.222271971187001E+002	-9.4373995E-001	-6.548684182241056E-001	6.1802549E-004	-9.4374996E-001	0
1.3627482E+003	1.224271971136477E+002	-9.4576633E-001	-6.940140016841569E-001	6.5637508E-004	-9.4574994E-001	0
1.2897792E+003	1.226271971085953E+002	-9.4772857E-001	-7.347991297405851E-001	6.9639011E-004	-9.4774991E-001	0
1.2211403E+003	1.228271971035429E+002	-9.4972259E-001	-7.777342191198326E-001	7.3863176E-004	-9.4974995E-001	0
1.1557937E+003	1.230271970984904E+002	-9.5171499E-001	-8.234297715617407E-001	7.8367046E-004	-9.5174998E-001	0
1.0898323E+003	1.232271970934380E+002	-9.5374113E-001	-8.751265344435932E-001	8.3464419E-004	-9.5374995E-001	0
1.0372473E+003	1.234271970883856E+002	-9.5571798E-001	-9.213983149958338E-001	8.8059693E-004	-9.5574987E-001	0
9.8799707E+002	1.236271970833332E+002	-9.5775551E-001	-9.693910509280328E-001	9.2843961E-004	-9.5774996E-001	0
9.4239307E+002	1.238271970782807E+002	-9.5976472E-001	-1.018433581953212E+000	9.7745657E-004	-9.5974994E-001	0
8.9160504E+002	1.240371970729757E+002	-9.6179408E-001	-1.078722140884821E+000	1.0375086E-003	-9.6184999E-001	0
8.4892896E+002	1.242471970676706E+002	-9.6390456E-001	-1.135436033504826E+000	1.0944520E-003	-9.6394998E-001	0
8.1301392E+002	1.244471970626182E+002	-9.6586627E-001	-1.188007084386690E+000	1.1474560E-003	-9.6594995E-001	0
7.7894739E+002	1.246471970575658E+002	-9.6790874E-001	-1.242585506264852E+000	1.2027094E-003	-9.6794993E-001	0
7.4220483E+002	1.248471970525134E+002	-9.6991813E-001	-1.306806546186095E+000	1.2674953E-003	-9.6994996E-001	0
7.1285376E+002	1.250471970474609E+002	-9.7190142E-001	-1.363395210144335E+000	1.3250858E-003	-9.7194999E-001	0
6.8538983E+002	1.252471970424085E+002	-9.7388804E-001	-1.420925693970823E+000	1.3838225E-003	-9.7394991E-001	0
6.5881201E+002	1.254471970373561E+002	-9.7592497E-001	-1.481340628421430E+000	1.4456774E-003	-9.7594988E-001	0
6.3123358E+002	1.256471970323037E+002	-9.7787505E-001	-1.549149335266989E+000	1.5148745E-003	-9.7794998E-001	0
6.0851697E+002	1.258471970272512E+002	-9.7990525E-001	-1.610317041223148E+000	1.5779581E-003	-9.7994995E-001	0
5.8707379E+002	1.260471970221988E+002	-9.8187602E-001	-1.672491606451615E+000	1.6421794E-003	-9.8194993E-001	0
5.6424365E+002	1.262471970171464E+002	-9.8388344E-001	-1.743720938441026E+000	1.7156182E-003	-9.8395002E-001	0
5.4432056E+002	1.264471970120940E+002	-9.8589337E-001	-1.811236780550740E+000	1.7856864E-003	-9.8594987E-001	0
5.2624017E+002	1.266471970070415E+002	-9.8791760E-001	-1.877313160335401E+000	1.8546308E-003	-9.8794997E-001	0
5.0784775E+002	1.268471970019891E+002	-9.8988563E-001	-1.949177925633332E+000	1.9294632E-003	-9.8994994E-001	0
4.9056595E+002	1.270471969969367E+002	-9.9189597E-001	-2.021942113363547E+000	2.0055561E-003	-9.9195004E-001	0
4.7528281E+002	1.272471969918843E+002	-9.9388760E-001	-2.091149856477909E+000	2.0783679E-003	-9.9395001E-001	0
4.5966180E+002	1.274471969868318E+002	-9.9589181E-001	-2.166575115723134E+000	2.1576744E-003	-9.9594992E-001	0
4.4394708E+002	1.276471969817794E+002	-9.9789673E-001	-2.247783007298736E+000	2.2430553E-003	-9.9794996E-001	0
4.3074969E+002	1.278471969767270E+002	-9.9987322E-001	-2.321239499311865E+000	2.3209453E-003	-9.9994993E-001	0
4.1713199E+002	1.280471969716746E+002	-1.0019277E+000	-2.401944086209042E+000	2.4065743E-003	-1.0019499E+000	0
4.0418765E+002	1.282471969666221E+002	-1.0038855E+000	-2.483711407264352E+000	2.4933619E-003	-1.0039500E+000	0
3.9265695E+002	1.284471969615697E+002	-1.0058877E+000	-2.561746878874686E+000	2.5768299E-003	-1.0059500E+000	0
3.7997107E+002	1.286471969565173E+002	-1.0078933E+000	-2.652552796565757E+000	2.6734902E-003	-1.0079499E+000	0
3.6943668E+002	1.288471969514649E+002	-1.0099088E+000	-2.733645146514153E+000	2.7607323E-003	-1.0099499E+000	0
3.5889801E+002	1.290471969464124E+002	-1.0119158E+000	-2.819507881272539E+000	2.8531046E-003	-1.0119500E+000	0
3.4816080E+002	1.292471969413600E+002	-1.0139183E+000	-2.912212608082227E+000	2.9527456E-003	-1.0139499E+000	0
3.3894150E+002	1.294471969363076E+002	-1.0159235E+000	-2.997341763777271E+000	3.0450700E-003	-1.0159498E+000	0
3.2878107E+002	1.296471969312552E+002	-1.0179124E+000	-3.096018924177230E+000	3.1514759E-003	-1.0179499E+000	0
3.1999487E+002	1.298471969262027E+002	-1.0199175E+000	-3.187293143871166E+000	3.2507761E-003	-1.0199499E+000	0
3.1135355E+002	1.300471969211503E+002	-1.0219264E+000	-3.282205668030926E+000	3.3541727E-003	-1.0219499E+000	0
3.0259894E+002	1.302471969160979E+002	-1.0238999E+000	-3.383686473242541E+000	3.4645563E-003	-1.0239500E+000	0
2.9480710E+002	1.304471969110455E+002	-1.0259454E+000	-3.480056617468108E+000	3.5703483E-003	-1.0259500E+000	0
2.8651807E+002	1.306471969059930E+002	-1.0279216E+000	-3.587632549221283E+000	3.6878048E-003	-1.0279500E+000	0
2.7940640E+002	1.308471969009406E+002	-1.0299536E+000	-3.686220633199701E+000	3.7966361E-003	-1.0299499E+000	0
2.7163303E+002	1.310471968958882E+002	-1.0319273E+000	-3.798975900389966E+000	3.9202673E-003	-1.0319500E+000	0
2.6510696E+002	1.312471968908358E+002	-1.0338980E+000	-3.899927526306932E+000	4.0321271E-003	-1.0339499E+000	0
2.5775812E+002	1.314471968857833E+002	-1.0359145E+000	-4.018940523942582E+000	4.1632787E-003	-1.0359498E+000	0
2.5157332E+002	1.316471968807309E+002	-1.0379225E+000	-4.125725794642705E+000	4.2821835E-003	-1.0379499E+000	0
2.4481975E+002	1.318471968756785E+002	-1.0399266E+000	-4.247723598565370E+000	4.4173212E-003	-1.0399500E+000	0
2.3898528E+002	1.320471968706261E+002	-1.0419157E+000	-4.359748381943939E+000	4.5424900E-003	-1.0419499E+000	0
2.3270886E+002	1.322471968655736E+002	-1.0439084E+000	-4.485898480900546E+000	4.6828669E-003	-1.0439500E+000	0
2.2712910E+002	1.324471968605212E+002	-1.0459306E+000	-4.605004809678565E+000	4.8165154E-003	-1.0459499E+000	0
2.2127779E+002	1.326471968554688E+002	-1.0478851E+000	-4.735609007226348E+000	4.9623740E-003	-1.0479500E+000	0
2.1574857E+002	1.328471968504164E+002	-1.0499293E+000	-4.866448405107946E+000	5.1094266E-003	-1.0499500E+000	0
2.1058983E+002	1.330471968453639E+002	-1.0519320E+000	-4.995169975792763E+000	5.2545792E-003	-1.0519499E+000	0
2.0510738E+002	1.332471968403115E+002	-1.0539149E+000	-5.138357073980920E+000	5.4153912E-003	-1.0539500E+000	0
2.0031386E+002	1.334471968352591E+002	-1.0559189E+000	-5.271322262564198E+000	5.5660889E-003	-1.0559499E+000	0
1.9536792E+002	1.336471968302067E+002	-1.0578991E+000	-5.414907027872246E+000	5.7284255E-003	-1.0579499E+000	0
1.9046875E+002	1.338471968251542E+002	-1.0598923E+000	-5.564651806473478E+000	5.8979318E-003	-1.0599500E+000	0
1.8597266E+002	1.340471968201018E+002	-1.0619085E+000	-5.710024811209193E+000	6.0635237E-003	-1.0619500E+000	0
1.8143846E+002	1.342471968150494E+002	-1.0638875E+000	-5.863627312844287E+000	6.2382398E-003	-1.0639499E+000	0
1.7693396E+002	1.344471968099970E+002	-1.0659195E+000	-6.024391941810677E+000	6.4215171E-003	-1.0659499E+000	0
1.7269470E+002	1.346471968049445E+002	-1.0679177E+000	-6.183847307043806E+000	6.6038398E-003	-1.0679500E+000	0
1.6864790E+002	1.348471967998921E+002	-1.0699110E+000	-6.344051577471816E+000	6.7875707E-003	-1.0699500E+000	0
1.6447951E+002	1.350471967948397E+002	-1.0719552E+000	-6.517257037279009E+000	6.9862078E-003	-1.0719500E+000	0
1.6051413E+002	1.352471967897873E+002	-1.0739622E+000	-6.690764126391088E+000	7.1856277E-003	-1.0739499E+000	0
1.5670616E+002	1.354471967847348E+002	-1.0759181E+000	-6.865831566775995E+000	7.3870723E-003	-1.0759499E+000	0
1.5292708E+002	1.356471967796824E+002	-1.0778953E+000	-7.048426715222071E+000	7.5974660E-003	-1.0779500E+000	0
1.4928160E+002	1.358471967746300E+002	-1.0799217E+000	-7.234124508844758E+000	7.8122881E-003	-1.0799500E+000	0
1.4562508E+002	1.360471967695776E+002	-1.0818936E+000	-7.429308344650131E+000	8.0377208E-003	-1.0819499E+000	0
1.4202536E+002	1.362471967645251E+002	-1.0839089E+000	-7.631798598636564E+000	8.2721747E-003	-1.0839499E+000	0
1.3858823E+002	1.364471967594727E+002	-1.0859308E+000	-7.835664355633213E+000	8.5089896E-003	-1.0859499E+000	0
1.3526616E+002	1.366471967544203E+002	-1.0879191E+000	-8.042803788198636E+000	8.7499199E-003	-1.0879500E+000	0
1.3199945E+002	1.368471967493679E+002	-1.0899321E+000	-8.257095512822133E+000	8.9996736E-003	-1.0899500E+000	0
1.2878117E+002	1.370471967443154E+002	-1.0918937E+000	-8.478674946390836E+000	9.2578111E-003	-1.0919499E+000	0
1.2564700E+002	1.372471967392630E+002	-1.0939047E+000	-8.706175014342833E+000	9.5237261E-003	-1.0939499E+000	0
1.2258097E+002	1.374471967342106E+002	-1.0959224E+000	-8.940395421316772E+000	9.7979791E-003	-1.0959500E+000	0
1.1953609E+002	1.376471967291582E+002	-1.0979276E+000	-9.184903989641008E+000	1.0084359E-002	-1.0979500E+000	0
1.1659019E+002	1.378471967241057E+002	-1.0999184E+000	-9.434056025648857E+000	1.0376692E-002	-1.0999500E+000	0
1.1375063E+002	1.380471967190533E+002	-1.1018932E+000	-9.686919126313292E+000	1.0673950E-002	-1.1019500E+000	0
1.1091357E+002	1.382471967140009E+002	-1.1038860E+000	-9.952668055317559E+000	1.0986611E-002	-1.1039499E+000	0
1.0821668E+002	1.384471967089485E+002	-1.1059155E+000	-1.021945496332619E+001	1.1301854E-002	-1.1059500E+000	0
1.0554934E+002	1.386471967038960E+002	-1.1079208E+000	-1.049670996153708E+001	1.1629523E-002	-1.1079500E+000	0
1.0271052E+002	1.388571966985910E+002	-1.1099944E+000	-1.080701782520933E+001	1.1995729E-002	-1.1100501E+000	0
9.9856117E+001	1.390671966932860E+002	-1.1121165E+000	-1.113718877398239E+001	1.2385851E-002	-1.1121500E+000	0
9.7392281E+001	1.392671966882335E+002	-1.1140919E+000	-1.143922144701691E+001	1.2744344E-002	-1.1141499E+000	0
9.4967239E+001	1.394671966831811E+002	-1.1161344E+000	-1.175283570124719E+001	1.3117745E-002	-1.1161500E+000	0
9.2549522E+001	1.396671966781287E+002	-1.1181122E+000	-1.208123164591882E+001	1.3508173E-002	-1.1181500E+000	0
9.0258453E+001	1.398671966730763E+002	-1.1201276E+000	-1.241022364075496E+001	1.3901033E-002	-1.1201500E+000	0
8.8050957E+001	1.400671966680238E+002	-1.1221164E+000	-1.274394434663444E+001	1.4300190E-002	-1.1221499E+000	0
8.5795616E+001	1.402671966629714E+002	-1.1241159E+000	-1.310225362612815E+001	1.4728452E-002	-1.1241498E+000	0
8.3604103E+001	1.404671966579190E+002	-1.1261159E+000	-1.346962452475445E+001	1.5168359E-002	-1.1261500E+000	0
8.1521881E+001	1.406671966528666E+002	-1.1281300E+000	-1.383837010787454E+001	1.5611480E-002	-1.1281500E+000	0
7.9356041E+001	1.408671966478141E+002	-1.1301035E+000	-1.424092613772200E+001	1.6093720E-002	-1.1301501E+000	0
7.7255745E+001	1.410671966427617E+002	-1.1321248E+000	-1.465424752735495E+001	1.6590437E-002	-1.1321499E+000	0
7.5280228E+001	1.412671966377093E+002	-1.1340816E+000	-1.506479981737618E+001	1.7084712E-002	-1.1341499E+000	0
7.3373161E+001	1.414671966326569E+002	-1.1361293E+000	-1.548426217408405E+001	1.7592123E-002	-1.1361500E+000	0
7.1514771E+001	1.416671966276044E+002	-1.1380841E+000	-1.591397222248060E+001	1.8111438E-002	-1.1381500E+000	0
6.9666092E+001	1.418671966225520E+002	-1.1401258E+000	-1.636557642334986E+001	1.8658815E-002	-1.1401498E+000	0
6.7873032E+001	1.420671966174996E+002	-1.1421301E+000	-1.682745202720304E+001	1.9219140E-002	-1.1421499E+000	0
6.6118340E+001	1.422671966124472E+002	-1.1441114E+000	-1.730399367084851E+001	1.9797696E-002	-1.1441499E+000	0
6.4366150E+001	1.424671966073947E+002	-1.1460685E+000	-1.780545198538948E+001	2.0406267E-002	-1.1461499E+000	0
6.2685047E+001	1.426671966023423E+002	-1.1481459E+000	-1.831610514774346E+001	2.1029562E-002	-1.1481500E+000	0
6.1056351E+001	1.428671965972899E+002	-1.1501223E+000	-1.883706226019103E+001	2.1664925E-002	-1.1501499E+000	0
5.9451588E+001	1.430671965922375E+002	-1.1521541E+000	-1.937970220934494E+001	2.2328403E-002	-1.1521499E+000	0
5.7996490E+001	1.432671965871850E+002	-1.1541388E+000	-1.990014901169309E+001	2.2967534E-002	-1.1541499E+000	0
5.6527164E+001	1.434671965821326E+002	-1.1561364E+000	-2.045275820896467E+001	2.3646178E-002	-1.1561500E+000	0
5.5024372E+001	1.436671965770802E+002	-1.1581619E+000	-2.104816212919010E+001	2.4377178E-002	-1.1581501E+000	0
5.3635296E+001	1.438671965720278E+002	-1.1601701E+000	-2.163071956926473E+001	2.5095314E-002	-1.1601499E+000	0
5.2258057E+001	1.440671965669753E+002	-1.1621166E+000	-2.223803784166057E+001	2.5843194E-002	-1.1621499E+000	0
5.0874958E+001	1.442671965619229E+002	-1.1641301E+000	-2.288218265920520E+001	2.6637837E-002	-1.1641499E+000	0
4.9536469E+001	1.444671965568705E+002	-1.1660814E+000	-2.353985793358071E+001	2.7449392E-002	-1.1661500E+000	0
4.8272865E+001	1.446671965518181E+002	-1.1681315E+000	-2.419851120583316E+001	2.8267043E-002	-1.1681499E+000	0
4.7054966E+001	1.448671965467656E+002	-1.1701205E+000	-2.486709803410396E+001	2.9097501E-002	-1.1701499E+000	0
4.5797218E+001	1.450671965417132E+002	-1.1721218E+000	-2.559373333827182E+001	2.9998971E-002	-1.1721500E+000	0
4.4594223E+001	1.452671965366608E+002	-1.1740938E+000	-2.632838326057333E+001	3.0911993E-002	-1.1741499E+000	0
4.3419384E+001	1.454671965316084E+002	-1.1761006E+000	-2.708699541405463E+001	3.1857032E-002	-1.1761500E+000	0
4.2250340E+001	1.456671965265559E+002	-1.1780964E+000	-2.788371547063184E+001	3.2849707E-002	-1.1781499E+000	0
4.1072083E+001	1.458671965215035E+002	-1.1801066E+000	-2.873257367005408E+001	3.3907499E-002	-1.1801500E+000	0
3.9960106E+001	1.460671965164511E+002	-1.1821026E+000	-2.958206739663545E+001	3.4969039E-002	-1.1821500E+000	0
3.8843388E+001	1.462671965113987E+002	-1.1841663E+000	-3.048565885350268E+001	3.6100090E-002	-1.1841500E+000	0
3.7766361E+001	1.464671965063462E+002	-1.1861299E+000	-3.140704914231414E+001	3.7252840E-002	-1.1861500E+000	0
3.6772121E+001	1.466671965012938E+002	-1.1881009E+000	-3.230982679142181E+001	3.8387336E-002	-1.1881500E+000	0
3.5772118E+001	1.468671964962414E+002	-1.1900996E+000	-3.326891830448653E+001	3.9593328E-002	-1.1901500E+000	0
3.4822132E+001	1.470671964911890E+002	-1.1921420E+000	-3.423517962810394E+001	4.0813196E-002	-1.1921500E+000	0
3.3905651E+001	1.472671964861365E+002	-1.1941007E+000	-3.521833801945313E+001	4.2054243E-002	-1.1941500E+000	0
3.3019413E+001	1.474671964810841E+002	-1.1961645E+000	-3.622609985090980E+001	4.3332376E-002	-1.1961499E+000	0
3.2064606E+001	1.476671964760317E+002	-1.1981765E+000	-3.736757395326970E+001	4.4772949E-002	-1.1981500E+000	0
3.1202173E+001	1.478671964709793E+002	-1.2001832E+000	-3.846472878088491E+001	4.6164721E-002	-1.2001500E+000	0
3.0401848E+001	1.480671964659268E+002	-1.2021360E+000	-3.954154614337162E+001	4.7534317E-002	-1.2021499E+000	0
2.9550327E+001	1.482671964608744E+002	-1.2042065E+000	-4.075103701701761E+001	4.9072661E-002	-1.2041500E+000	0
2.8737957E+001	1.484671964558220E+002	-1.2061974E+000	-4.197227189221888E+001	5.0626844E-002	-1.2061499E+000	0
2.7966772E+001	1.486671964507696E+002	-1.2081704E+000	-4.320021029016047E+001	5.2193217E-002	-1.2081500E+000	0
2.7187489E+001	1.488671964457171E+002	-1.2102118E+000	-4.451355559701574E+001	5.3870827E-002	-1.2101500E+000	0
2.6504623E+001	1.490671964406647E+002	-1.2121803E+000	-4.573467099774734E+001	5.5438664E-002	-1.2121500E+000	0
2.5846601E+001	1.492671964356123E+002	-1.2141922E+000	-4.697685874427543E+001	5.7038933E-002	-1.2141498E+000	0
2.5163849E+001	1.494671964305599E+002	-1.2162113E+000	-4.833169057201644E+001	5.8781549E-002	-1.2161499E+000	0
2.4519779E+001	1.496671964255074E+002	-1.2181772E+000	-4.968140883348428E+001	6.0520761E-002	-1.2181500E+000	0
2.3868622E+001	1.498671964204550E+002	-1.2201775E+000	-5.112056904963629E+001	6.2376171E-002	-1.2201499E+000	0
2.3277313E+001	1.500671964154026E+002	-1.2222301E+000	-5.250735217751844E+001	6.4176068E-002	-1.2221500E+000	0
2.2733889E+001	1.502671964103502E+002	-1.2241749E+000	-5.384801664644351E+001	6.5919384E-002	-1.2241499E+000	0
2.2242678E+001	1.504671964052977E+002	-1.2262124E+000	-5.512881276991391E+001	6.7599632E-002	-1.2261500E+000	0
2.1651825E+001	1.506671964002453E+002	-1.2281802E+000	-5.672409588571577E+001	6.9667406E-002	-1.2281500E+000	0
2.1000950E+001	1.508671963951929E+002	-1.2301993E+000	-5.857827295467683E+001	7.2062954E-002	-1.2301499E+000	0
2.0404772E+001	1.510671963901405E+002	-1.2322202E+000	-6.038882670651219E+001	7.4412331E-002	-1.2321500E+000	0
1.9948902E+001	1.512671963850880E+002	-1.2341864E+000	-6.186738702877858E+001	7.6355889E-002	-1.2341499E+000	0
1.9491964E+001	1.514671963800356E+002	-1.2361819E+000	-6.342007651026279E+001	7.8398749E-002	-1.2361499E+000	0
1.9025713E+001	1.516671963749832E+002	-1.2381383E+000	-6.507710330502482E+001	8.0574453E-002	-1.2381500E+000	0
1.8478580E+001	1.518671963699308E+002	-1.2401911E+000	-6.711506490480303E+001	8.3235510E-002	-1.2401500E+000	0
1.7967840E+001	1.520671963648783E+002	-1.2422239E+000	-6.913595755138101E+001	8.5882336E-002	-1.2421499E+000	0
1.7564539E+001	1.522671963598259E+002	-1.2442021E+000	-7.083602379563172E+001	8.8134333E-002	-1.2441499E+000	0
1.7194944E+001	1.524671963547735E+002	-1.2462041E+000	-7.247503101312145E+001	9.0318687E-002	-1.2461500E+000	0
1.6814037E+001	1.526671963497211E+002	-1.2482167E+000	-7.423658629501722E+001	9.2663348E-002	-1.2481500E+000	0
1.6376978E+001	1.528671963446686E+002	-1.2502294E+000	-7.634065982111437E+001	9.5443331E-002	-1.2501500E+000	0
1.5979149E+001	1.530671963396162E+002	-1.2521816E+000	-7.836347440905638E+001	9.8125301E-002	-1.2521499E+000	0
1.5640331E+001	1.532671963345638E+002	-1.2542131E+000	-8.019095393481439E+001	1.0057654E-001	-1.2541499E+000	0
1.5291337E+001	1.534671963295114E+002	-1.2562193E+000	-8.215234894060472E+001	1.0320137E-001	-1.2561500E+000	0
1.4949412E+001	1.536671963244589E+002	-1.2582300E+000	-8.416584686519354E+001	1.0589999E-001	-1.2581500E+000	0
1.4627851E+001	1.538671963194065E+002	-1.2601947E+000	-8.615036210181233E+001	1.0856622E-001	-1.2601500E+000	0
1.4300128E+001	1.540671963143541E+002	-1.2622230E+000	-8.826655518440970E+001	1.1141208E-001	-1.2621499E+000	0
1.3996585E+001	1.542671963093017E+002	-1.2642034E+000	-9.032227720424953E+001	1.1418574E-001	-1.2641500E+000	0
1.3636683E+001	1.544671963042492E+002	-1.2661880E+000	-9.285162006700352E+001	1.1756761E-001	-1.2661500E+000	0
1.3352444E+001	1.546671962991968E+002	-1.2681700E+000	-9.497662161266976E+001	1.2044650E-001	-1.2681501E+000	0
1.3106330E+001	1.548671962941444E+002	-1.2701828E+000	-9.691369478286288E+001	1.2309811E-001	-1.2701499E+000	0
1.2775563E+001	1.550671962890920E+002	-1.2721739E+000	-9.957869419381223E+001	1.2668142E-001	-1.2721499E+000	0
1.2479941E+001	1.552671962840395E+002	-1.2742136E+000	-1.021009275205010E+002	1.3009839E-001	-1.2741500E+000	0
1.2188128E+001	1.554671962789871E+002	-1.2761874E+000	-1.047074179335784E+002	1.3362628E-001	-1.2761500E+000	0
1.1917820E+001	1.556671962739347E+002	-1.2781940E+000	-1.072506522213253E+002	1.3708714E-001	-1.2781500E+000	0
1.1687128E+001	1.558771962686296E+002	-1.2802815E+000	-1.095462941218393E+002	1.4025010E-001	-1.2802500E+000	0
1.1375566E+001	1.560871962633246E+002	-1.2823311E+000	-1.127268015846371E+002	1.4455308E-001	-1.2823499E+000	0
1.1135536E+001	1.562871962582722E+002	-1.2843363E+000	-1.153367271542279E+002	1.4813115E-001	-1.2843500E+000	0
1.0916430E+001	1.564871962532197E+002	-1.2863716E+000	-1.178381286597307E+002	1.5158363E-001	-1.2863500E+000	0
1.0705647E+001	1.566871962481673E+002	-1.2883548E+000	-1.203434788245463E+002	1.5504509E-001	-1.2883501E+000	0
1.0530757E+001	1.568871962431149E+002	-1.2903349E+000	-1.225301201046186E+002	1.5810490E-001	-1.2903500E+000	0
1.0316633E+001	1.570871962380625E+002	-1.2924013E+000	-1.252735557318274E+002	1.6190371E-001	-1.2923499E+000	0
1.0066757E+001	1.572871962330100E+002	-1.2943755E+000	-1.285791948301180E+002	1.6642976E-001	-1.2943499E+000	0
9.8864031E+000	1.574871962279576E+002	-1.2963635E+000	-1.311258958007743E+002	1.6998681E-001	-1.2963500E+000	0
9.7364483E+000	1.576871962229052E+002	-1.2983975E+000	-1.333543261076048E+002	1.7314693E-001	-1.2983500E+000	0
9.5701761E+000	1.578871962178528E+002	-1.3003665E+000	-1.358769677685497E+002	1.7668986E-001	-1.3003500E+000	0
9.3679733E+000	1.580871962128003E+002	-1.3023530E+000	-1.390218610677048E+002	1.8105555E-001	-1.3023499E+000	0
9.1572514E+000	1.582871962077479E+002	-1.3043411E+000	-1.424380539571894E+002	1.8578781E-001	-1.3043499E+000	0
9.0124111E+000	1.584871962026955E+002	-1.3063734E+000	-1.449527000223973E+002	1.8936235E-001	-1.3063500E+000	0
8.8446274E+000	1.586871961976431E+002	-1.3083906E+000	-1.479305540288110E+002	1.9355094E-001	-1.3083500E+000	0
8.6337872E+000	1.588871961925906E+002	-1.3103436E+000	-1.517692718181485E+002	1.9886990E-001	-1.3103499E+000	0
8.5010891E+000	1.590871961875382E+002	-1.3123603E+000	-1.543755392693070E+002	2.0259632E-001	-1.3123500E+000	0
8.3748064E+000	1.592871961824858E+002	-1.3143594E+000	-1.569420616491579E+002	2.0627828E-001	-1.3143499E+000	0
8.1732807E+000	1.594871961774334E+002	-1.3163618E+000	-1.610567147272243E+002	2.1200891E-001	-1.3163500E+000	0
8.0394373E+000	1.596871961723809E+002	-1.3184004E+000	-1.639916204411429E+002	2.1620661E-001	-1.3183500E+000	0
7.8775506E+000	1.598871961673285E+002	-1.3203784E+000	-1.676128116897451E+002	2.2131234E-001	-1.3203499E+000	0
7.7180753E+000	1.600871961622761E+002	-1.3224269E+000	-1.713415378486218E+002	2.2658665E-001	-1.3223499E+000	0
7.6047163E+000	1.602871961572237E+002	-1.3244115E+000	-1.741565990469621E+002	2.3065500E-001	-1.3243499E+000	0
7.4570594E+000	1.604871961521712E+002	-1.3263836E+000	-1.778695259818683E+002	2.3592322E-001	-1.3263500E+000	0
7.3193588E+000	1.606871961471188E+002	-1.3283772E+000	-1.814881983062846E+002	2.4108480E-001	-1.3283499E+000	0
7.1566443E+000	1.608871961420664E+002	-1.3304453E+000	-1.859035045176140E+002	2.4733444E-001	-1.3303499E+000	0
7.0171967E+000	1.610871961370140E+002	-1.3323911E+000	-1.898751280399683E+002	2.5298795E-001	-1.3323499E+000	0
6.8870306E+000	1.612871961319615E+002	-1.3344063E+000	-1.937563967466895E+002	2.5854975E-001	-1.3343500E+000	0
6.7426009E+000	1.614871961269091E+002	-1.3364130E+000	-1.982043799175426E+002	2.6488292E-001	-1.3363500E+000	0
6.6156468E+000	1.616871961218567E+002	-1.3384098E+000	-2.023097453690443E+002	2.7077335E-001	-1.3383499E+000	0
6.5109463E+000	1.618871961168043E+002	-1.3404174E+000	-2.058713580021240E+002	2.7595356E-001	-1.3403500E+000	0
6.4318042E+000	1.620871961117518E+002	-1.3424418E+000	-2.087193171723909E+002	2.8019354E-001	-1.3423500E+000	0
6.3474560E+000	1.622871961066994E+002	-1.3443860E+000	-2.117991826777552E+002	2.8473985E-001	-1.3443500E+000	0
6.2312241E+000	1.624871961016470E+002	-1.3464102E+000	-2.160747444278250E+002	2.9092523E-001	-1.3463500E+000	0
6.1273289E+000	1.626871960965946E+002	-1.3484470E+000	-2.200709241858419E+002	2.9675397E-001	-1.3483500E+000	0
6.0678782E+000	1.628871960915421E+002	-1.3504090E+000	-2.225504439628579E+002	3.0053413E-001	-1.3503500E+000	0
5.8627462E+000	1.630871960864897E+002	-1.3524164E+000	-2.306796803268990E+002	3.1197497E-001	-1.3523500E+000	0
5.7525773E+000	1.632871960814373E+002	-1.3544790E+000	-2.354560266114149E+002	3.1892022E-001	-1.3543500E+000	0
5.6681714E+000	1.634871960763849E+002	-1.3563770E+000	-2.392971103283271E+002	3.2457709E-001	-1.3563501E+000	0
5.5921783E+000	1.636871960713324E+002	-1.3584467E+000	-2.429190586916175E+002	3.2999259E-001	-1.3583500E+000	0
5.5377512E+000	1.638871960662800E+002	-1.3604013E+000	-2.456595214229596E+002	3.3419552E-001	-1.3603500E+000	0
5.4525175E+000	1.640871960612276E+002	-1.3624356E+000	-2.498727601261094E+002	3.4043553E-001	-1.3623500E+000	0
5.4054680E+000	1.642871960561752E+002	-1.3644326E+000	-2.524171043880388E+002	3.4440613E-001	-1.3643500E+000	0
5.2532535E+000	1.644871960511227E+002	-1.3664896E+000	-2.601225350697837E+002	3.5545474E-001	-1.3663499E+000	0
5.1372228E+000	1.646871960460703E+002	-1.3684667E+000	-2.663826016147132E+002	3.6453572E-001	-1.3683500E+000	0
5.1025438E+000	1.648871960410179E+002	-1.3704842E+000	-2.685884338820056E+002	3.6809620E-001	-1.3703499E+000	0
5.0711436E+000	1.650871960359655E+002	-1.3724736E+000	-2.706437991049276E+002	3.7145147E-001	-1.3723500E+000	0
4.9683037E+000	1.652871960309130E+002	-1.3744859E+000	-2.766509310599085E+002	3.8025278E-001	-1.3743500E+000	0
4.8841434E+000	1.654871960258606E+002	-1.3764856E+000	-2.818274430515003E+002	3.8793141E-001	-1.3763500E+000	0
4.8367419E+000	1.656871960208082E+002	-1.3785020E+000	-2.850063181961477E+002	3.9288178E-001	-1.3783500E+000	0
4.7587767E+000	1.658872960157532E+002	-1.3805543E+000	-2.901069680332398E+002	4.0050843E-001	-1.3803507E+000	0
4.6959558E+000	1.660875960106932E+002	-1.3824974E+000	-2.944017253451848E+002	4.0700963E-001	-1.3823534E+000	0
4.6696420E+000	1.662582960063810E+002	-1.3842195E+000	-2.964294686957469E+002	4.1032347E-001	-1.3840603E+000	0
4.6222973E+000	1.664183960023365E+002	-1.3858336E+000	-2.998149076447316E+002	4.1549358E-001	-1.3856617E+000	0
4.5499997E+000	1.665887959980319E+002	-1.3875452E+000	-3.049550138546319E+002	4.2313889E-001	-1.3873653E+000	0
4.4840388E+000	1.667390959942350E+002	-1.3890486E+000	-3.097762128255321E+002	4.3029422E-001	-1.3888685E+000	0
4.4348154E+000	1.668895959904330E+002	-1.3905375E+000	-3.135502413051190E+002	4.3600336E-001	-1.3903732E+000	0
4.3973322E+000	1.670597959861334E+002	-1.3922502E+000	-3.166124633052987E+002	4.4080377E-001	-1.3920751E+000	0
4.3498588E+000	1.672401959815761E+002	-1.3940375E+000	-3.204787953235309E+002	4.4675946E-001	-1.3938794E+000	0
4.3186226E+000	1.674203959770239E+002	-1.3958126E+000	-3.232078310045817E+002	4.5113757E-001	-1.3956817E+000	0
4.2741194E+000	1.676004959724742E+002	-1.3976094E+000	-3.269935247884691E+002	4.5700920E-001	-1.3974825E+000	0
4.2420983E+000	1.677708959681695E+002	-1.3993442E+000	-3.298707682038348E+002	4.6160275E-001	-1.3991867E+000	0
4.2235227E+000	1.679510959636173E+002	-1.4011720E+000	-3.317543654431856E+002	4.6484494E-001	-1.4009886E+000	0
4.1694112E+000	1.681112959595703E+002	-1.4027447E+000	-3.364371103644457E+002	4.7193536E-001	-1.4025905E+000	0
4.1212907E+000	1.683016959547604E+002	-1.4046541E+000	-3.408286858549718E+002	4.7874641E-001	-1.4044943E+000	0
4.0825734E+000	1.684822959501980E+002	-1.4064628E+000	-3.445039597476389E+002	4.8453200E-001	-1.4063002E+000	0
4.0700326E+000	1.686727959453856E+002	-1.4083536E+000	-3.460300344824641E+002	4.8733264E-001	-1.4082055E+000	0
4.0083785E+000	1.688533959408232E+002	-1.4101462E+000	-3.517996785460418E+002	4.9608898E-001	-1.4100114E+000	0
3.9695511E+000	1.690136959367737E+002	-1.4118074E+000	-3.556592045809202E+002	5.0212228E-001	-1.4116144E+000	0
3.9164307E+000	1.691639959329768E+002	-1.4132777E+000	-3.608586054786247E+002	5.0999343E-001	-1.4131174E+000	0
3.8935678E+000	1.693441959284246E+002	-1.4151201E+000	-3.634507395854666E+002	5.1432645E-001	-1.4149193E+000	0
3.8685760E+000	1.695044959243751E+002	-1.4167107E+000	-3.662098758062571E+002	5.1881349E-001	-1.4165225E+000	0
3.8475575E+000	1.696747959200729E+002	-1.4184456E+000	-3.686612960072507E+002	5.2292597E-001	-1.4182255E+000	0
3.8188853E+000	1.698652959152605E+002	-1.4203329E+000	-3.719234262026862E+002	5.2825511E-001	-1.4201301E+000	0
3.7617166E+000	1.700458959106982E+002	-1.4221138E+000	-3.780491634015084E+002	5.3762895E-001	-1.4219363E+000	0
3.7033250E+000	1.702164959063884E+002	-1.4238789E+000	-3.844866063102747E+002	5.4746234E-001	-1.4236423E+000	0
3.6740184E+000	1.703667959025915E+002	-1.4253218E+000	-3.879463017126973E+002	5.5294836E-001	-1.4251454E+000	0
3.6126132E+000	1.705170958987947E+002	-1.4268408E+000	-3.949608415576877E+002	5.6354624E-001	-1.4266483E+000	0
3.5795953E+000	1.706873958944925E+002	-1.4285921E+000	-3.990931854057762E+002	5.7014138E-001	-1.4283514E+000	0
3.5346830E+000	1.708678958899327E+002	-1.4303703E+000	-4.046672162238829E+002	5.7882398E-001	-1.4301561E+000	0
3.5073771E+000	1.710482958853754E+002	-1.4321778E+000	-4.083329897135591E+002	5.8480543E-001	-1.4319605E+000	0
3.4913554E+000	1.712088958813183E+002	-1.4337710E+000	-4.106631570080799E+002	5.8879691E-001	-1.4335661E+000	0
3.4639666E+000	1.713793958770111E+002	-1.4354613E+000	-4.143981217090568E+002	5.9485245E-001	-1.4352711E+000	0
3.4667635E+000	1.715498958727039E+002	-1.4371676E+000	-4.145560045605403E+002	5.9578645E-001	-1.4369762E+000	0
3.4425507E+000	1.717303958681441E+002	-1.4389962E+000	-4.180029034543268E+002	6.0150456E-001	-1.4387813E+000	0
3.3832576E+000	1.719108958635843E+002	-1.4407742E+000	-4.258541337038941E+002	6.1355966E-001	-1.4405862E+000	0
3.3732965E+000	1.721014958587693E+002	-1.4427032E+000	-4.276834841587297E+002	6.1702037E-001	-1.4424920E+000	0
3.3368328E+000	1.722621958547097E+002	-1.4443099E+000	-4.328385882060034E+002	6.2515306E-001	-1.4440993E+000	0
3.2905157E+000	1.724321958504152E+002	-1.4460083E+000	-4.394473302556016E+002	6.3544452E-001	-1.4457996E+000	0
3.2554281E+000	1.726125958458579E+002	-1.4478129E+000	-4.447381141860533E+002	6.4389759E-001	-1.4476032E+000	0
3.2170088E+000	1.727930958412981E+002	-1.4496539E+000	-4.506216598963438E+002	6.5324545E-001	-1.4494085E+000	0
3.2216330E+000	1.729836958364831E+002	-1.4515200E+000	-4.505541098632159E+002	6.5398830E-001	-1.4513139E+000	0
3.2064841E+000	1.731742958316681E+002	-1.4534478E+000	-4.532839615612970E+002	6.5882456E-001	-1.4532201E+000	0
3.1364939E+000	1.733647958268557E+002	-1.4553559E+000	-4.640072522226528E+002	6.7529571E-001	-1.4551256E+000	0
3.0840337E+000	1.735351958225510E+002	-1.4571120E+000	-4.724695275406739E+002	6.8844098E-001	-1.4568297E+000	0
3.0670421E+000	1.737052958182539E+002	-1.4587717E+000	-4.756282104752886E+002	6.9383299E-001	-1.4585308E+000	0
3.0562217E+000	1.738758958139442E+002	-1.4604419E+000	-4.778586405154904E+002	6.9788480E-001	-1.4602360E+000	0
3.0281000E+000	1.740561958093895E+002	-1.4623146E+000	-4.829148807626084E+002	7.0617348E-001	-1.4620392E+000	0
2.9922888E+000	1.742167958053324E+002	-1.4639076E+000	-4.892266990454291E+002	7.1618271E-001	-1.4636451E+000	0
2.9568973E+000	1.743871958010277E+002	-1.4656131E+000	-4.956591388702609E+002	7.2644454E-001	-1.4653496E+000	0
2.9579678E+000	1.745576957967205E+002	-1.4673071E+000	-4.960524098208607E+002	7.2786123E-001	-1.4670544E+000	0
2.9417336E+000	1.747179957926710E+002	-1.4688927E+000	-4.993289306772631E+002	7.3346061E-001	-1.4686573E+000	0
2.9279873E+000	1.748484957893743E+002	-1.4702332E+000	-5.021309975826825E+002	7.3824966E-001	-1.4699622E+000	0
2.9316330E+000	1.750087957853248E+002	-1.4717982E+000	-5.020404048155017E+002	7.3890215E-001	-1.4715655E+000	0
2.9470916E+000	1.751890957807700E+002	-1.4736658E+000	-5.000407230218425E+002	7.3689294E-001	-1.4733686E+000	0
2.9251382E+000	1.753495957767154E+002	-1.4752443E+000	-5.043331769911592E+002	7.4401462E-001	-1.4749737E+000	0
2.8975971E+000	1.755197957724158E+002	-1.4769068E+000	-5.097005271607109E+002	7.5278014E-001	-1.4766753E+000	0
2.8983819E+000	1.757101957676059E+002	-1.4788998E+000	-5.102501515563163E+002	7.5460887E-001	-1.4785795E+000	0
2.8864059E+000	1.759004957627985E+002	-1.4807125E+000	-5.129952485403910E+002	7.5959849E-001	-1.4804827E+000	0
2.8618479E+000	1.760605957587541E+002	-1.4823601E+000	-5.179730791234088E+002	7.6782262E-001	-1.4820830E+000	0
2.8193719E+000	1.762308957544519E+002	-1.4840746E+000	-5.263848393496264E+002	7.8119439E-001	-1.4837868E+000	0
2.7982605E+000	1.764110957498997E+002	-1.4858677E+000	-5.309969215347755E+002	7.8899121E-001	-1.4855886E+000	0
2.7928050E+000	1.765916957453373E+002	-1.4876671E+000	-5.326784538786087E+002	7.9244822E-001	-1.4873942E+000	0
2.7581997E+000	1.767921957402723E+002	-1.4896874E+000	-5.400941297039572E+002	8.0457145E-001	-1.4893993E+000	0
2.7227089E+000	1.769924957352123E+002	-1.4916815E+000	-5.478666503475115E+002	8.1724250E-001	-1.4914026E+000	0
2.7474210E+000	1.771629957309051E+002	-1.4933976E+000	-5.435634372883342E+002	8.1175631E-001	-1.4931071E+000	0
2.7590427E+000	1.773433957263478E+002	-1.4951692E+000	-5.419159343602405E+002	8.1025600E-001	-1.4949112E+000	0
2.7391336E+000	1.775040957222882E+002	-1.4968107E+000	-5.464540414036765E+002	8.1793827E-001	-1.4965180E+000	0
2.6696362E+000	1.776946957174732E+002	-1.4987097E+000	-5.613909488243262E+002	8.4136206E-001	-1.4984245E+000	0
2.6354020E+000	1.778947957124183E+002	-1.5006760E+000	-5.694296719514332E+002	8.5452944E-001	-1.5004257E+000	0
2.6057906E+000	1.780947957073658E+002	-1.5027220E+000	-5.766856583489325E+002	8.6659825E-001	-1.5024258E+000	0
2.6031928E+000	1.782947957023134E+002	-1.5047212E+000	-5.780291080172101E+002	8.6977261E-001	-1.5044256E+000	0
2.6204019E+000	1.784947956972610E+002	-1.5067263E+000	-5.749981570730424E+002	8.6636484E-001	-1.5064257E+000	0
2.6295085E+000	1.786047956944822E+002	-1.5077572E+000	-5.733988610092476E+002	8.6454624E-001	-1.5075254E+000	1