EC-Lab ASCII FILE
Nb header lines : 63                          

Linear Sweep Voltammetry

Run on channel : 1 (SN 1340)
User : 
Electrode connection : standard
Potential control : Ewe
Ewe ctrl range : min = -5.00 V, max = 5.00 V
Ewe,I filtering : <None>
Safety Limits :
	Do not start on E overload
Channel : Floating
Acquisition started on : 02/19/2026 16:53:26.428
Technique started on : 02/19/2026 16:53:29.266
Loaded Setting File :  NONE
Saved on :
	File : Ni25Co25_2_19_02_LSV_C01.mpr
	Directory : C:\Users\volt\Documents\Platalytix\
	Host : 127.0.0.1
Device : SP-200 (SN 0262)
Address : USB
EC-LAB for windows v11.60 (software)
Internet server v11.60 (firmware)
Command interpretor v11.60 (firmware)
Electrode material : Ni25Co25
Initial state : 
Electrolyte : KOH (1M)
Comments : 
Cable : standard
Reference electrode : Hg/HgO (0.140 V)
Electrode surface area : 1.000 cm˛
Characteristic mass : 0.001 g
Equivalent Weight : 0.000 g/eq.
Density : 0.000 g/cm3
Volume (V) : 0.001 cmł
Cycle Definition : Charge/Discharge alternance
tR (h:m:s)          0:00:5.0000         
dER/dt (mV/h)       0.0                 
dER (mV)            0                   
dtR (s)             0.0000              
dE/dt               10.000              
dE/dt unit          mV/s                
Ei (V)              -0.200              
vs.                 Ref                 
EL (V)              -2.500              
vs.                 Ref                 
record              <I>                 
dI                  0.000               
unit dI             µA                  
tI (s)              0.0000              
step percent        50                  
N                   10                  
E range min (V)     -5.000              
E range max (V)     5.000               
I Range             Auto                
I Range min         Unset               
I Range max         Unset               
I Range init        Unset               
Bandwidth           8                   

Rwe/Ohm	time/s	Ewe/V	<I>/mA	Pwe/W	control/V	error	
0.0000000E+000	2.838400134787662E+000	-1.6338862E-001	0.000000000000000E+000	0.0000000E+000	0.0000000E+000	0
0.0000000E+000	7.838200008482090E+000	-1.1800481E-001	0.000000000000000E+000	0.0000000E+000	-1.9991951E-001	0
4.8431339E+002	8.038200003429665E+000	-2.0158643E-001	4.162313610315322E-001	-8.3906591E-005	-2.0181929E-001	0
3.8524094E+003	8.158200000398210E+000	-2.0294203E-001	5.267924586802808E-002	-1.0690833E-005	-2.0301935E-001	0
2.0231629E+004	8.388199994587922E+000	-2.0522338E-001	-1.014369027892420E-002	2.0817224E-006	-2.0531933E-001	0
1.0357861E+004	8.608199989030254E+000	-2.0745638E-001	-2.002888149608251E-002	4.1551193E-006	-2.0751934E-001	0
8.9063271E+003	8.808199983977829E+000	-2.0946351E-001	-2.351850555610979E-002	4.9262685E-006	-2.0951933E-001	0
8.3328301E+003	9.008199978925404E+000	-2.1145318E-001	-2.537591416228246E-002	5.3658177E-006	-2.1151933E-001	0
8.0426201E+003	9.208199973872979E+000	-2.1346009E-001	-2.654111327560171E-002	5.6654685E-006	-2.1351933E-001	0
7.8804819E+003	9.408199968820554E+000	-2.1542242E-001	-2.733619947513333E-002	5.8888304E-006	-2.1551934E-001	0
7.7902236E+003	9.608199963768129E+000	-2.1747006E-001	-2.791576733857037E-002	6.0708439E-006	-2.1751933E-001	0
7.7322339E+003	9.808199958715704E+000	-2.1946017E-001	-2.838250621097360E-002	6.2288300E-006	-2.1951935E-001	0
7.7034277E+003	1.000819995366328E+001	-2.2144522E-001	-2.874632306764424E-002	6.3657358E-006	-2.2151934E-001	0
7.6884507E+003	1.020819994861085E+001	-2.2346358E-001	-2.906483868712473E-002	6.4949331E-006	-2.2351933E-001	0
7.6807979E+003	1.040819994355843E+001	-2.2540449E-001	-2.934649346957013E-002	6.6148314E-006	-2.2551934E-001	0
7.6838384E+003	1.060819993850600E+001	-2.2748862E-001	-2.960611790204271E-002	6.7350547E-006	-2.2751935E-001	0
7.6936348E+003	1.080819993345358E+001	-2.2948551E-001	-2.982797005975113E-002	6.8450868E-006	-2.2951934E-001	0
7.7010889E+003	1.100819992840115E+001	-2.3144639E-001	-3.005372217825736E-002	6.9558255E-006	-2.3151934E-001	0
7.7101675E+003	1.120819992334873E+001	-2.3342314E-001	-3.027471783016578E-002	7.0668198E-006	-2.3351936E-001	0
7.7221602E+003	1.140819991829630E+001	-2.3552637E-001	-3.050006246600767E-002	7.1835689E-006	-2.3551933E-001	0
7.7424092E+003	1.160819991324388E+001	-2.3748572E-001	-3.067336192559397E-002	7.2844855E-006	-2.3751934E-001	0
7.7540063E+003	1.180819990819145E+001	-2.3944552E-001	-3.088023338272599E-002	7.3941337E-006	-2.3951936E-001	0
7.7721323E+003	1.200819990313903E+001	-2.4145602E-001	-3.106689449719649E-002	7.5012886E-006	-2.4151932E-001	0
7.7857368E+003	1.220819989808660E+001	-2.4333920E-001	-3.125448507212460E-002	7.6054412E-006	-2.4351935E-001	0
7.8081797E+003	1.240819989303418E+001	-2.4548805E-001	-3.143985635445767E-002	7.7181094E-006	-2.4551934E-001	0
7.8255400E+003	1.260819988798175E+001	-2.4746183E-001	-3.162233190887651E-002	7.8253197E-006	-2.4751934E-001	0
7.8393037E+003	1.280819988292933E+001	-2.4943858E-001	-3.181897125327264E-002	7.9368792E-006	-2.4951935E-001	0
7.8623481E+003	1.300819987787690E+001	-2.5145099E-001	-3.198166586914844E-002	8.0418213E-006	-2.5151932E-001	0
7.8812627E+003	1.320819987282448E+001	-2.5346020E-001	-3.215984656087958E-002	8.1512408E-006	-2.5351933E-001	0
7.9005273E+003	1.340819986777205E+001	-2.5548962E-001	-3.233829917398851E-002	8.2621000E-006	-2.5551933E-001	0
7.9142266E+003	1.360819986271963E+001	-2.5740442E-001	-3.252426626782678E-002	8.3718896E-006	-2.5751933E-001	0
7.9361914E+003	1.380819985766720E+001	-2.5945222E-001	-3.269228349939251E-002	8.4820858E-006	-2.5951934E-001	0
7.9559199E+003	1.400819985261478E+001	-2.6143643E-001	-3.286061687986286E-002	8.5909624E-006	-2.6151937E-001	0
7.9746035E+003	1.420819984756236E+001	-2.6340768E-001	-3.303081858977086E-002	8.7005710E-006	-2.6351932E-001	0
7.9953672E+003	1.440819984250993E+001	-2.6539820E-001	-3.319399907225173E-002	8.8096276E-006	-2.6551932E-001	0
8.0171533E+003	1.460819983745751E+001	-2.6750910E-001	-3.336709286635342E-002	8.9260011E-006	-2.6751933E-001	0
8.0345889E+003	1.480819983240508E+001	-2.6948038E-001	-3.354003264588813E-002	9.0383810E-006	-2.6951933E-001	0
8.0490957E+003	1.500819982735266E+001	-2.7140236E-001	-3.371836704227349E-002	9.1512447E-006	-2.7151933E-001	0
8.0692383E+003	1.520819982230023E+001	-2.7341226E-001	-3.388328063159177E-002	9.2641039E-006	-2.7351934E-001	0
8.0904380E+003	1.540819981724781E+001	-2.7546158E-001	-3.404779653666778E-002	9.3788603E-006	-2.7551934E-001	0
8.1128018E+003	1.560819981219538E+001	-2.7739862E-001	-3.419270294997201E-002	9.4850084E-006	-2.7751935E-001	0
8.1279009E+003	1.580819980714296E+001	-2.7940956E-001	-3.437659527859346E-002	9.6051490E-006	-2.7951935E-001	0
8.1537705E+003	1.600819980209053E+001	-2.8144553E-001	-3.451722493482838E-002	9.7147185E-006	-2.8151935E-001	0
8.1676738E+003	1.620819979703811E+001	-2.8342780E-001	-3.470116542481194E-002	9.8352748E-006	-2.8351933E-001	0
8.1880713E+003	1.640819979198568E+001	-2.8548181E-001	-3.486557433602377E-002	9.9534873E-006	-2.8551933E-001	0
8.2115723E+003	1.660819978693326E+001	-2.8747636E-001	-3.500868856976580E-002	1.0064170E-005	-2.8751934E-001	0
8.2281914E+003	1.680819978188083E+001	-2.8940180E-001	-3.517198136637018E-002	1.0178835E-005	-2.8951934E-001	0
8.2485215E+003	1.700819977682841E+001	-2.9145199E-001	-3.533384595921601E-002	1.0298119E-005	-2.9151934E-001	0
8.2711816E+003	1.720819977177598E+001	-2.9344991E-001	-3.547859689735022E-002	1.0411191E-005	-2.9351935E-001	0
8.2909736E+003	1.740819976672356E+001	-2.9546300E-001	-3.563670833228683E-002	1.0529328E-005	-2.9551935E-001	0
8.3107705E+003	1.760819976167113E+001	-2.9737589E-001	-3.578198814390832E-002	1.0640701E-005	-2.9751933E-001	0
8.3344150E+003	1.780819975661871E+001	-2.9944491E-001	-3.592872528291702E-002	1.0758674E-005	-2.9951933E-001	0
8.3516943E+003	1.800819975156628E+001	-3.0138990E-001	-3.608727471189155E-002	1.0876341E-005	-3.0151933E-001	0
8.3746973E+003	1.820819974651386E+001	-3.0344385E-001	-3.623341144877756E-002	1.0994806E-005	-3.0351934E-001	0
8.3953262E+003	1.840819974146143E+001	-3.0544716E-001	-3.638300245053333E-002	1.1113085E-005	-3.0551934E-001	0
8.4190400E+003	1.860819973640901E+001	-3.0742308E-001	-3.651521809435032E-002	1.1225621E-005	-3.0751932E-001	0
8.4393496E+003	1.880819973135658E+001	-3.0945078E-001	-3.666761021928044E-002	1.1346820E-005	-3.0951932E-001	0
8.4595039E+003	1.900819972630416E+001	-3.1145826E-001	-3.681755692660049E-002	1.1467132E-005	-3.1151932E-001	0
8.4819072E+003	1.920819972125173E+001	-3.1347474E-001	-3.695804941813224E-002	1.1585415E-005	-3.1351936E-001	0
8.5052842E+003	1.940819971619931E+001	-3.1546974E-001	-3.709103070704223E-002	1.1701098E-005	-3.1551936E-001	0
8.5307734E+003	1.960819971114688E+001	-3.1749767E-001	-3.721792159587267E-002	1.1816604E-005	-3.1751934E-001	0
8.5514863E+003	1.980819970609446E+001	-3.1945169E-001	-3.735627870623415E-002	1.1933526E-005	-3.1951934E-001	0
8.5679854E+003	2.000819970104203E+001	-3.2146859E-001	-3.751974057748309E-002	1.2061419E-005	-3.2151935E-001	0
8.5953301E+003	2.020819969598961E+001	-3.2347077E-001	-3.763331551962196E-002	1.2173277E-005	-3.2351932E-001	0
8.6173779E+003	2.040819969093718E+001	-3.2547894E-001	-3.777006531346494E-002	1.2293361E-005	-3.2551932E-001	0
8.6372227E+003	2.060819968588476E+001	-3.2744911E-001	-3.791138893859185E-002	1.2414051E-005	-3.2751933E-001	0
8.6611152E+003	2.080819968083233E+001	-3.2944834E-001	-3.803763537147120E-002	1.2531436E-005	-3.2951933E-001	0
8.6853408E+003	2.100819967577991E+001	-3.3144808E-001	-3.816177990142883E-002	1.2648648E-005	-3.3151934E-001	0
8.7134551E+003	2.120819967072748E+001	-3.3345008E-001	-3.826840881991039E-002	1.2760604E-005	-3.3351934E-001	0
8.7315742E+003	2.140819966567506E+001	-3.3544019E-001	-3.841691937951197E-002	1.2886579E-005	-3.3551931E-001	0
8.7582236E+003	2.160819966062263E+001	-3.3748993E-001	-3.853406281476590E-002	1.3004858E-005	-3.3751935E-001	0
8.7814033E+003	2.180819965557021E+001	-3.3945230E-001	-3.865581290435266E-002	1.3121805E-005	-3.3951932E-001	0
8.8042344E+003	2.200819965051778E+001	-3.4147382E-001	-3.878518218510355E-002	1.3244125E-005	-3.4151936E-001	0
8.8300068E+003	2.220819964546536E+001	-3.4347963E-001	-3.889913540074819E-002	1.3361061E-005	-3.4351933E-001	0
8.8549561E+003	2.240819964041293E+001	-3.4546342E-001	-3.901356858224544E-002	1.3477761E-005	-3.4551936E-001	0
8.8837393E+003	2.260819963536051E+001	-3.4746522E-001	-3.911249650206167E-002	1.3590232E-005	-3.4751934E-001	0
8.9051611E+003	2.280819963030808E+001	-3.4948355E-001	-3.924505829931482E-002	1.3715502E-005	-3.4951934E-001	0
8.9337520E+003	2.300819962525566E+001	-3.5146371E-001	-3.934110977867511E-002	1.3826972E-005	-3.5151938E-001	0
8.9583779E+003	2.320819962020323E+001	-3.5345066E-001	-3.945476237880896E-002	1.3945311E-005	-3.5351935E-001	0
8.9854375E+003	2.340819961515081E+001	-3.5543954E-001	-3.955728936778877E-002	1.4060225E-005	-3.5551935E-001	0
9.0110645E+003	2.360819961009838E+001	-3.5745975E-001	-3.966898057327845E-002	1.4180064E-005	-3.5751936E-001	0
9.0387168E+003	2.380819960504596E+001	-3.5945159E-001	-3.976799097797012E-002	1.4294667E-005	-3.5951936E-001	0
9.0655586E+003	2.400819959999353E+001	-3.6148059E-001	-3.987405520400295E-002	1.4413697E-005	-3.6151934E-001	0
9.0897334E+003	2.420819959494111E+001	-3.6345965E-001	-3.998573388098658E-002	1.4533201E-005	-3.6351937E-001	0
9.1183164E+003	2.440819958988868E+001	-3.6538425E-001	-4.007146189088551E-002	1.4641481E-005	-3.6551934E-001	0
9.1460908E+003	2.460819958483626E+001	-3.6740175E-001	-4.017035744697828E-002	1.4758660E-005	-3.6751932E-001	0
9.1695107E+003	2.480819957978383E+001	-3.6941475E-001	-4.028729021009633E-002	1.4882719E-005	-3.6951935E-001	0
9.2021270E+003	2.500819957473141E+001	-3.7141636E-001	-4.036201221806113E-002	1.4991112E-005	-3.7151936E-001	0
9.2279922E+003	2.520819956967898E+001	-3.7348774E-001	-4.047334650763706E-002	1.5116299E-005	-3.7351933E-001	0
9.2567891E+003	2.540819956462656E+001	-3.7546831E-001	-4.056139989115093E-002	1.5229521E-005	-3.7551937E-001	0
9.2875186E+003	2.560819955957413E+001	-3.7744594E-001	-4.064012636417880E-002	1.5339450E-005	-3.7751934E-001	0
9.3175850E+003	2.580819955452171E+001	-3.7942061E-001	-4.072091753131032E-002	1.5450356E-005	-3.7951937E-001	0
9.3449971E+003	2.600819954946928E+001	-3.8150239E-001	-4.082423886189213E-002	1.5574544E-005	-3.8151935E-001	0
9.3763848E+003	2.620819954441686E+001	-3.8349208E-001	-4.089977997756417E-002	1.5684742E-005	-3.8351938E-001	0
9.4027930E+003	2.640819953936443E+001	-3.8539672E-001	-4.098747333653213E-002	1.5796437E-005	-3.8551936E-001	0
9.4322617E+003	2.660819953431201E+001	-3.8747957E-001	-4.108024137955191E-002	1.5917754E-005	-3.8751933E-001	0
9.4646826E+003	2.680819952925958E+001	-3.8946292E-001	-4.114907133485923E-002	1.6026037E-005	-3.8951933E-001	0
9.4975625E+003	2.700819952420716E+001	-3.9150375E-001	-4.122149893146021E-002	1.6138372E-005	-3.9151934E-001	0
9.5246533E+003	2.720819951915473E+001	-3.9343527E-001	-4.130704370285060E-002	1.6251648E-005	-3.9351937E-001	0
9.5620273E+003	2.740819951410231E+001	-3.9549845E-001	-4.136135875270669E-002	1.6358354E-005	-3.9551938E-001	0
9.5877744E+003	2.760819950904988E+001	-3.9741471E-001	-4.145015366222338E-002	1.6472901E-005	-3.9751938E-001	0
9.6212627E+003	2.780819950399746E+001	-3.9946958E-001	-4.151945529677714E-002	1.6585760E-005	-3.9951932E-001	0
9.6539912E+003	2.800819949894503E+001	-4.0146270E-001	-4.158515479577219E-002	1.6694888E-005	-4.0151936E-001	0
9.6815830E+003	2.820819949389261E+001	-4.0339148E-001	-4.166585853526072E-002	1.6807653E-005	-4.0351939E-001	0
9.7214453E+003	2.840819948884018E+001	-4.0542808E-001	-4.170450537313455E-002	1.6908178E-005	-4.0551937E-001	0
9.7539150E+003	2.860819948378776E+001	-4.0748397E-001	-4.177645228770417E-002	1.7023234E-005	-4.0751934E-001	0
9.7841455E+003	2.880819947873533E+001	-4.0943825E-001	-4.184711342751401E-002	1.7133809E-005	-4.0951937E-001	0
9.8178936E+003	2.900819947368291E+001	-4.1148016E-001	-4.191124477067887E-002	1.7245646E-005	-4.1151935E-001	0
9.8520771E+003	2.920819946863048E+001	-4.1354457E-001	-4.197536669634561E-002	1.7358685E-005	-4.1351935E-001	0
9.8853633E+003	2.940819946357806E+001	-4.1549030E-001	-4.203085633113041E-002	1.7463413E-005	-4.1551936E-001	0
9.9230020E+003	2.960819945852563E+001	-4.1753227E-001	-4.207721262084752E-002	1.7568595E-005	-4.1751939E-001	0
9.9584863E+003	2.980819945347321E+001	-4.1954041E-001	-4.212893445473465E-002	1.7674791E-005	-4.1951934E-001	0
9.9927021E+003	3.000819944842078E+001	-4.2148277E-001	-4.217905982486198E-002	1.7777747E-005	-4.2151937E-001	0
1.0030977E+004	3.020819944336836E+001	-4.2349902E-001	-4.221912146289353E-002	1.7879756E-005	-4.2351940E-001	0
1.0067332E+004	3.040819943831593E+001	-4.2547241E-001	-4.226267808423190E-002	1.7981603E-005	-4.2551935E-001	0
1.0102595E+004	3.060819943326351E+001	-4.2748860E-001	-4.231473441603171E-002	1.8089066E-005	-4.2751935E-001	0
1.0139832E+004	3.080819942821108E+001	-4.2950383E-001	-4.235808056190005E-002	1.8192957E-005	-4.2951939E-001	0
1.0178417E+004	3.100819942315866E+001	-4.3149242E-001	-4.239287930398200E-002	1.8292207E-005	-4.3151936E-001	0
1.0214770E+004	3.120819941810623E+001	-4.3344754E-001	-4.243341461853529E-002	1.8392659E-005	-4.3351936E-001	0
1.0254948E+004	3.140819941305381E+001	-4.3550941E-001	-4.246822246292259E-002	1.8495311E-005	-4.3551937E-001	0
1.0291841E+004	3.160819940800138E+001	-4.3751672E-001	-4.251102839286136E-002	1.8599285E-005	-4.3751937E-001	0
1.0328593E+004	3.180819940294896E+001	-4.3948564E-001	-4.255038840683545E-002	1.8700284E-005	-4.3951935E-001	0
1.0367347E+004	3.200819939789653E+001	-4.4147044E-001	-4.258278031942235E-002	1.8799039E-005	-4.4151938E-001	0
1.0408181E+004	3.220819939284411E+001	-4.4348285E-001	-4.260906628269684E-002	1.8896390E-005	-4.4351935E-001	0
1.0449967E+004	3.240819938779168E+001	-4.4543555E-001	-4.262554767946014E-002	1.8986935E-005	-4.4551939E-001	0
1.0486100E+004	3.260819938273926E+001	-4.4750085E-001	-4.267562647157974E-002	1.9097379E-005	-4.4751936E-001	0
1.0524508E+004	3.280819937768683E+001	-4.4945154E-001	-4.270523147554040E-002	1.9193933E-005	-4.4951934E-001	0
1.0570795E+004	3.300819937263441E+001	-4.5152524E-001	-4.271440688481620E-002	1.9286634E-005	-4.5151937E-001	0
1.0604455E+004	3.320819936758198E+001	-4.5348400E-001	-4.276353475778175E-002	1.9392579E-005	-4.5351937E-001	0
1.0646980E+004	3.340819936252956E+001	-4.5555010E-001	-4.278678776587561E-002	1.9491526E-005	-4.5551938E-001	0
1.0686566E+004	3.360819935747713E+001	-4.5756057E-001	-4.281642645953308E-002	1.9591109E-005	-4.5751938E-001	0
1.0725891E+004	3.380819935242471E+001	-4.5950279E-001	-4.284052477670142E-002	1.9685340E-005	-4.5951939E-001	0
1.0767480E+004	3.400819934737228E+001	-4.6151772E-001	-4.286218485071652E-002	1.9781657E-005	-4.6151933E-001	0
1.0809198E+004	3.420819934231986E+001	-4.6351352E-001	-4.288139617885728E-002	1.9876106E-005	-4.6351936E-001	0
1.0846708E+004	3.440819933726743E+001	-4.6545404E-001	-4.291201098542258E-002	1.9973570E-005	-4.6551940E-001	0
1.0889727E+004	3.460819933221501E+001	-4.6749723E-001	-4.293011511805899E-002	2.0069710E-005	-4.6751937E-001	0
1.0929366E+004	3.480819932716258E+001	-4.6948779E-001	-4.295654122584636E-002	2.0167572E-005	-4.6951935E-001	0
1.0971188E+004	3.500819932211016E+001	-4.7148070E-001	-4.297444106173598E-002	2.0261619E-005	-4.7151938E-001	0
1.1012056E+004	3.520819931705773E+001	-4.7351047E-001	-4.299928209255505E-002	2.0360611E-005	-4.7351936E-001	0
1.1055004E+004	3.540819931200531E+001	-4.7550914E-001	-4.301302441577437E-002	2.0453086E-005	-4.7551936E-001	0
1.1096516E+004	3.560819930695288E+001	-4.7748327E-001	-4.303001857662558E-002	2.0546115E-005	-4.7751939E-001	0
1.1135366E+004	3.580819930190046E+001	-4.7949359E-001	-4.306042504147362E-002	2.0647198E-005	-4.7951940E-001	0
1.1178271E+004	3.600819929684803E+001	-4.8150301E-001	-4.307491017628007E-002	2.0740699E-005	-4.8151934E-001	0
1.1217729E+004	3.620819929179561E+001	-4.8342696E-001	-4.309490293923288E-002	2.0833239E-005	-4.8351938E-001	0
1.1265191E+004	3.640819928674318E+001	-4.8554531E-001	-4.310138103691524E-002	2.0927673E-005	-4.8551941E-001	0
1.1303535E+004	3.660819928169076E+001	-4.8753580E-001	-4.313126971254587E-002	2.1028038E-005	-4.8751935E-001	0
1.1339596E+004	3.680819927663833E+001	-4.8948646E-001	-4.316612955577703E-002	2.1129235E-005	-4.8951936E-001	0
1.1382196E+004	3.700819927158591E+001	-4.9150142E-001	-4.318159938100397E-002	2.1223817E-005	-4.9151939E-001	0
1.1422422E+004	3.720819926653348E+001	-4.9351004E-001	-4.320537647741377E-002	2.1322287E-005	-4.9351943E-001	0
1.1463228E+004	3.740819926148106E+001	-4.9547255E-001	-4.322277720518156E-002	2.1415699E-005	-4.9551937E-001	0
1.1501544E+004	3.760819925642863E+001	-4.9745932E-001	-4.325152517089423E-002	2.1515874E-005	-4.9751934E-001	0
1.1548721E+004	3.780819925137621E+001	-4.9947298E-001	-4.324920384198538E-002	2.1601809E-005	-4.9951938E-001	0
1.1583649E+004	3.800819924632378E+001	-5.0147176E-001	-4.329134564468753E-002	2.1709388E-005	-5.0151932E-001	0
1.1623591E+004	3.820819924127136E+001	-5.0343603E-001	-4.331157636055782E-002	2.1804608E-005	-5.0351936E-001	0
1.1665852E+004	3.840819923621893E+001	-5.0549620E-001	-4.333127305400496E-002	2.1903794E-005	-5.0551945E-001	0
1.1707604E+004	3.860819923116651E+001	-5.0750393E-001	-4.334823136870469E-002	2.1999398E-005	-5.0751936E-001	0
1.1752842E+004	3.880819922611408E+001	-5.0953186E-001	-4.335392882826761E-002	2.2090207E-005	-5.0951934E-001	0
1.1792444E+004	3.900819922106166E+001	-5.1144582E-001	-4.337063555836973E-002	2.2181730E-005	-5.1151937E-001	0
1.1834538E+004	3.920819921600923E+001	-5.1349491E-001	-4.338951797257316E-002	2.2280297E-005	-5.1351935E-001	0
1.1874665E+004	3.940819921095681E+001	-5.1552534E-001	-4.341388370233545E-002	2.2380957E-005	-5.1551932E-001	0
1.1917420E+004	3.960819920590438E+001	-5.1748025E-001	-4.342217132863091E-002	2.2470116E-005	-5.1751935E-001	0
1.1961606E+004	3.980819920085196E+001	-5.1940507E-001	-4.342268641521774E-002	2.2553962E-005	-5.1951939E-001	0
1.2002872E+004	4.000819919579953E+001	-5.2148682E-001	-4.344683711769726E-002	2.2656954E-005	-5.2151936E-001	0
1.2048394E+004	4.020819919074711E+001	-5.2349567E-001	-4.344941843422467E-002	2.2745582E-005	-5.2351934E-001	0
1.2090650E+004	4.040819918569468E+001	-5.2547163E-001	-4.346098998284864E-002	2.2837517E-005	-5.2551937E-001	0
1.2128817E+004	4.060819918064226E+001	-5.2747065E-001	-4.348904148822264E-002	2.2939194E-005	-5.2751940E-001	0
1.2173163E+004	4.080819917558983E+001	-5.2949446E-001	-4.349686821226828E-002	2.3031351E-005	-5.2951938E-001	0
1.2217486E+004	4.100819917053741E+001	-5.3146762E-001	-4.350057097633364E-002	2.3119144E-005	-5.3151941E-001	0
1.2263339E+004	4.120819916548498E+001	-5.3348327E-001	-4.350228370204290E-002	2.3207740E-005	-5.3351939E-001	0
1.2311910E+004	4.140819916043256E+001	-5.3546190E-001	-4.349137667953018E-002	2.3287976E-005	-5.3551942E-001	0
1.2355947E+004	4.160819915538013E+001	-5.3749806E-001	-4.350116194142434E-002	2.3381790E-005	-5.3751934E-001	0
1.2392478E+004	4.180819915032771E+001	-5.3949654E-001	-4.353419572770667E-002	2.3486547E-005	-5.3951937E-001	0
1.2439368E+004	4.200819914527528E+001	-5.4145074E-001	-4.352718847619030E-002	2.3567829E-005	-5.4151940E-001	0
1.2482066E+004	4.220819914022286E+001	-5.4349029E-001	-4.354169188001850E-002	2.3664486E-005	-5.4351932E-001	0
1.2527478E+004	4.240819913517043E+001	-5.4546261E-001	-4.354129440696020E-002	2.3750148E-005	-5.4551941E-001	0
1.2579291E+004	4.260819913011801E+001	-5.4748648E-001	-4.352284097978587E-002	2.3828166E-005	-5.4751945E-001	0
1.2624468E+004	4.280819912506558E+001	-5.4954749E-001	-4.353034820448815E-002	2.3921993E-005	-5.4951942E-001	0
1.2664811E+004	4.300819912001316E+001	-5.5149919E-001	-4.354579058500091E-002	2.4015468E-005	-5.5151933E-001	0
1.2711883E+004	4.320819911496073E+001	-5.5348295E-001	-4.354059519621090E-002	2.4098978E-005	-5.5351937E-001	0
1.2751055E+004	4.340819910990831E+001	-5.5551040E-001	-4.356584074651482E-002	2.4201277E-005	-5.5551946E-001	0
1.2798462E+004	4.360819910485588E+001	-5.5746573E-001	-4.355724393247584E-002	2.4281671E-005	-5.5751932E-001	0
1.2835009E+004	4.380819909980346E+001	-5.5946141E-001	-4.358870403359638E-002	2.4386198E-005	-5.5951935E-001	0
1.2887100E+004	4.400819909475103E+001	-5.6149352E-001	-4.357020198811035E-002	2.4464385E-005	-5.6151944E-001	0
1.2930428E+004	4.420819908969861E+001	-5.6349981E-001	-4.357936486650416E-002	2.4556964E-005	-5.6351936E-001	0
1.2974415E+004	4.440819908464618E+001	-5.6553257E-001	-4.358828999973230E-002	2.4650597E-005	-5.6551939E-001	0
1.3017099E+004	4.460819907959376E+001	-5.6748009E-001	-4.359497426182263E-002	2.4739280E-005	-5.6751937E-001	0
1.3062906E+004	4.480819907454134E+001	-5.6944692E-001	-4.359266728394007E-002	2.4823710E-005	-5.6951946E-001	0
1.3111530E+004	4.500819906948891E+001	-5.7142574E-001	-4.358192420614226E-002	2.4903833E-005	-5.7151937E-001	0
1.3159179E+004	4.520819906443649E+001	-5.7354444E-001	-4.358512310595231E-002	2.4998006E-005	-5.7351935E-001	0
1.3199076E+004	4.540819905938406E+001	-5.7548028E-001	-4.360004131552336E-002	2.5090963E-005	-5.7551944E-001	0
1.3245981E+004	4.560819905433164E+001	-5.7743746E-001	-4.359340575357901E-002	2.5172465E-005	-5.7751930E-001	0
1.3293984E+004	4.580819904927921E+001	-5.7948661E-001	-4.359013784086518E-002	2.5259902E-005	-5.7951939E-001	0
1.3335964E+004	4.600819904422679E+001	-5.8149260E-001	-4.360334333687044E-002	2.5355022E-005	-5.8151942E-001	0
1.3379083E+004	4.620819903917436E+001	-5.8346915E-001	-4.361054865387837E-002	2.5445410E-005	-5.8351940E-001	0
1.3434522E+004	4.640819903412194E+001	-5.8545172E-001	-4.357815664309117E-002	2.5512907E-005	-5.8551937E-001	0
1.3475279E+004	4.660819902906951E+001	-5.8749318E-001	-4.359784780667847E-002	2.5613439E-005	-5.8751935E-001	0
1.3519384E+004	4.680819902401709E+001	-5.8946609E-001	-4.360155105118807E-002	2.5701636E-005	-5.8951944E-001	0
1.3562573E+004	4.700819901896466E+001	-5.9143668E-001	-4.360799810900873E-002	2.5791369E-005	-5.9151936E-001	0
1.3603984E+004	4.720819901391224E+001	-5.9345806E-001	-4.362384064039615E-002	2.5888919E-005	-5.9351933E-001	0
1.3653042E+004	4.740819900885981E+001	-5.9549212E-001	-4.361607664256306E-002	2.5973030E-005	-5.9551942E-001	0
1.3699871E+004	4.760819900380739E+001	-5.9749901E-001	-4.361347824096448E-002	2.6059010E-005	-5.9751934E-001	0
1.3741496E+004	4.780819899875496E+001	-5.9947169E-001	-4.362492088799730E-002	2.6151905E-005	-5.9951937E-001	0
1.3781515E+004	4.800819899370254E+001	-6.0146707E-001	-4.364303228352429E-002	2.6249847E-005	-6.0151935E-001	0
1.3822754E+004	4.820819898865011E+001	-6.0352731E-001	-4.366187083396583E-002	2.6351132E-005	-6.0351938E-001	0
1.3868460E+004	4.840819898359769E+001	-6.0548943E-001	-4.365945563444656E-002	2.6435338E-005	-6.0551935E-001	0
1.3908479E+004	4.860819897854526E+001	-6.0748869E-001	-4.367758184507742E-002	2.6533637E-005	-6.0751939E-001	0
1.3951363E+004	4.880819897349284E+001	-6.0952020E-001	-4.368893580765709E-002	2.6629288E-005	-6.0951942E-001	0
1.3991710E+004	4.900819896844041E+001	-6.1149949E-001	-4.370441484183729E-002	2.6725227E-005	-6.1151934E-001	0
1.4035677E+004	4.920819896338799E+001	-6.1351150E-001	-4.371085871447133E-002	2.6817115E-005	-6.1351937E-001	0
1.4072268E+004	4.940819895833556E+001	-6.1548865E-001	-4.373770238606725E-002	2.6920059E-005	-6.1551940E-001	0
1.4114232E+004	4.960819895328314E+001	-6.1753780E-001	-4.375284224750720E-002	2.7019034E-005	-6.1751938E-001	0
1.4150388E+004	4.980819894823071E+001	-6.1950517E-001	-4.378008560986063E-002	2.7121989E-005	-6.1951941E-001	0
1.4192055E+004	5.000819894317829E+001	-6.2155139E-001	-4.379573143208754E-002	2.7221298E-005	-6.2151939E-001	0
1.4231934E+004	5.020819893812586E+001	-6.2354678E-001	-4.381321704219973E-002	2.7319591E-005	-6.2351942E-001	0
1.4274716E+004	5.040819893307344E+001	-6.2552333E-001	-4.382036874163675E-002	2.7410662E-005	-6.2551939E-001	0
1.4306466E+004	5.060819892802101E+001	-6.2747020E-001	-4.385920481512395E-002	2.7520344E-005	-6.2751931E-001	0
1.4344310E+004	5.080819892296859E+001	-6.2952232E-001	-4.388655309672007E-002	2.7627564E-005	-6.2951940E-001	0
1.4378781E+004	5.100819891791616E+001	-6.3151789E-001	-4.392012551848201E-002	2.7736345E-005	-6.3151944E-001	0
1.4411338E+004	5.120819891286374E+001	-6.3349169E-001	-4.395786812080205E-002	2.7846945E-005	-6.3351935E-001	0
1.4455180E+004	5.140819890781131E+001	-6.3549799E-001	-4.396333952662426E-002	2.7938613E-005	-6.3551939E-001	0
1.4486016E+004	5.160819890275889E+001	-6.3751590E-001	-4.400905670546418E-002	2.8056473E-005	-6.3751948E-001	0
1.4517736E+004	5.180819889770646E+001	-6.3952047E-001	-4.405097667441467E-002	2.8171502E-005	-6.3951939E-001	0
1.4558109E+004	5.200819889265404E+001	-6.4150274E-001	-4.406497607407811E-002	2.8267803E-005	-6.4151937E-001	0
1.4582110E+004	5.220819888760161E+001	-6.4355904E-001	-4.413346456265588E-002	2.8402490E-005	-6.4351940E-001	0
1.4616020E+004	5.240819888254919E+001	-6.4553815E-001	-4.416648060919659E-002	2.8511149E-005	-6.4551938E-001	0
1.4649412E+004	5.260819887749676E+001	-6.4752001E-001	-4.420109149654633E-002	2.8621091E-005	-6.4751935E-001	0
1.4678984E+004	5.280819887244434E+001	-6.4948297E-001	-4.424576998409480E-002	2.8736873E-005	-6.4951938E-001	0
1.4710696E+004	5.300819886739191E+001	-6.5149027E-001	-4.428684045196363E-002	2.8852446E-005	-6.5151942E-001	0
1.4743141E+004	5.320819886233949E+001	-6.5351415E-001	-4.432665897520630E-002	2.8968099E-005	-6.5351933E-001	0
1.4769480E+004	5.340819885728706E+001	-6.5556192E-001	-4.438625415206343E-002	2.9097939E-005	-6.5551937E-001	0
1.4799423E+004	5.360819885223464E+001	-6.5752470E-001	-4.442907791202483E-002	2.9213217E-005	-6.5751940E-001	0
1.4827650E+004	5.380819884718221E+001	-6.5946603E-001	-4.447542368107027E-002	2.9330031E-005	-6.5951943E-001	0
1.4850982E+004	5.400819884212979E+001	-6.6148525E-001	-4.454151532309685E-002	2.9463556E-005	-6.6151935E-001	0
1.4881616E+004	5.420819883707736E+001	-6.6348177E-001	-4.458398538453690E-002	2.9580662E-005	-6.6351938E-001	0
1.4896754E+004	5.440819883202494E+001	-6.6549093E-001	-4.467355185626554E-002	2.9729843E-005	-6.6551942E-001	0
1.4921958E+004	5.460819882697251E+001	-6.6753167E-001	-4.473485692368318E-002	2.9861934E-005	-6.6751933E-001	0
1.4949593E+004	5.480819882192009E+001	-6.6947246E-001	-4.478198538619904E-002	2.9980305E-005	-6.6951936E-001	0
1.4968720E+004	5.500819881686766E+001	-6.7148471E-001	-4.485919333301708E-002	3.0122263E-005	-6.7151946E-001	0
1.4987898E+004	5.520819881181524E+001	-6.7346466E-001	-4.493389515071056E-002	3.0261390E-005	-6.7351937E-001	0
1.5011440E+004	5.540819880676281E+001	-6.7548978E-001	-4.499833341138831E-002	3.0395915E-005	-6.7551935E-001	0
1.5024117E+004	5.560819880171039E+001	-6.7750454E-001	-4.509446553964058E-002	3.0551706E-005	-6.7751938E-001	0
1.5042404E+004	5.580819879665796E+001	-6.7953926E-001	-4.517491042926558E-002	3.0698124E-005	-6.7951941E-001	0
1.5062713E+004	5.600819879160554E+001	-6.8147248E-001	-4.524234798525695E-002	3.0831416E-005	-6.8151933E-001	0
1.5076457E+004	5.620819878655311E+001	-6.8352628E-001	-4.533732884015496E-002	3.0989257E-005	-6.8351936E-001	0
1.5092382E+004	5.640819878150069E+001	-6.8544888E-001	-4.541687806857031E-002	3.1130949E-005	-6.8551946E-001	0
1.5106904E+004	5.660819877644826E+001	-6.8748325E-001	-4.550788288776586E-002	3.1285908E-005	-6.8751937E-001	0
1.5126583E+004	5.680819877139584E+001	-6.8948799E-001	-4.558121245391378E-002	3.1427699E-005	-6.8951941E-001	0
1.5135367E+004	5.700819876634341E+001	-6.9142276E-001	-4.568258920170221E-002	3.1585983E-005	-6.9151938E-001	0
1.5143300E+004	5.720819876129099E+001	-6.9350511E-001	-4.579616848446944E-002	3.1759875E-005	-6.9351941E-001	0
1.5156314E+004	5.740819875623856E+001	-6.9549614E-001	-4.588821000296028E-002	3.1915071E-005	-6.9551939E-001	0
1.5176005E+004	5.760819875118614E+001	-6.9752383E-001	-4.596228299893679E-002	3.2059786E-005	-6.9751936E-001	0
1.5176475E+004	5.780819874613371E+001	-6.9944865E-001	-4.608768791930729E-002	3.2235970E-005	-6.9951952E-001	0
1.5190099E+004	5.800819874108129E+001	-7.0144439E-001	-4.617773860142838E-002	3.2391115E-005	-7.0151931E-001	0
1.5198455E+004	5.820819873602886E+001	-7.0354730E-001	-4.629071205780511E-002	3.2567707E-005	-7.0351940E-001	0
1.5207209E+004	5.840819873097644E+001	-7.0551509E-001	-4.639346405938771E-002	3.2731288E-005	-7.0551944E-001	0
1.5210021E+004	5.860819872592401E+001	-7.0750141E-001	-4.651547788907373E-002	3.2909767E-005	-7.0751935E-001	0
1.5218968E+004	5.880819872087159E+001	-7.0951295E-001	-4.662030597445463E-002	3.3077711E-005	-7.0951945E-001	0
1.5219587E+004	5.900819871581916E+001	-7.1153688E-001	-4.675139399253819E-002	3.3265340E-005	-7.1151942E-001	0
1.5226656E+004	5.920819871076674E+001	-7.1348834E-001	-4.685784853063531E-002	3.3432527E-005	-7.1351951E-001	0
1.5221689E+004	5.940819870571431E+001	-7.1550882E-001	-4.700587487166064E-002	3.3633118E-005	-7.1551937E-001	0
1.5215973E+004	5.960819870066189E+001	-7.1754414E-001	-4.715729695575854E-002	3.3837441E-005	-7.1751934E-001	0
1.5220250E+004	5.980819869560946E+001	-7.1954769E-001	-4.727567987655901E-002	3.4017106E-005	-7.1951944E-001	0
1.5217973E+004	6.000819869055704E+001	-7.2148794E-001	-4.741025459371906E-002	3.4205928E-005	-7.2151941E-001	0
1.5211146E+004	6.020819868550461E+001	-7.2345912E-001	-4.756111912761962E-002	3.4408524E-005	-7.2351938E-001	0
1.5204606E+004	6.040819868045219E+001	-7.2551525E-001	-4.771680445088267E-002	3.4619268E-005	-7.2551942E-001	0
1.5197222E+004	6.060819867539976E+001	-7.2744155E-001	-4.786674704512495E-002	3.4820259E-005	-7.2751945E-001	0
1.5196101E+004	6.080819867034734E+001	-7.2952580E-001	-4.800743552224696E-002	3.5022662E-005	-7.2951937E-001	0
1.5183252E+004	6.100819866529491E+001	-7.3145294E-001	-4.817498598855985E-002	3.5237736E-005	-7.3151934E-001	0
1.5178107E+004	6.120819866024249E+001	-7.3351145E-001	-4.832693857041576E-002	3.5448364E-005	-7.3351949E-001	0
1.5160376E+004	6.140819865519006E+001	-7.3549730E-001	-4.851444972316854E-002	3.5682246E-005	-7.3551941E-001	0
1.5154237E+004	6.160819865013764E+001	-7.3748237E-001	-4.866509190881979E-002	3.5889647E-005	-7.3751938E-001	0
1.5139144E+004	6.180819864508521E+001	-7.3947805E-001	-4.884543510332340E-002	3.6120127E-005	-7.3951942E-001	0
1.5127155E+004	6.200819864003279E+001	-7.4150693E-001	-4.901826618051330E-002	3.6347385E-005	-7.4151945E-001	0
1.5109518E+004	6.220819863498036E+001	-7.4349749E-001	-4.920723047762154E-002	3.6585454E-005	-7.4351943E-001	0
1.5094008E+004	6.240819862992794E+001	-7.4547851E-001	-4.938903739390782E-002	3.6818466E-005	-7.4551940E-001	0
1.5079396E+004	6.260819862487551E+001	-7.4753273E-001	-4.957311822770927E-002	3.7057529E-005	-7.4751949E-001	0
1.5056984E+004	6.280819861982309E+001	-7.4946409E-001	-4.977518005841447E-002	3.7304711E-005	-7.4951947E-001	0
1.5037800E+004	6.300819861477066E+001	-7.5152349E-001	-4.997562708770265E-002	3.7557857E-005	-7.5151932E-001	0
1.5015483E+004	6.320819860971824E+001	-7.5352961E-001	-5.018350707848562E-002	3.7814760E-005	-7.5351942E-001	0
1.5000173E+004	6.340819860466581E+001	-7.5549573E-001	-5.036580044081407E-002	3.8051148E-005	-7.5551939E-001	0
1.4974543E+004	6.360819859961339E+001	-7.5749266E-001	-5.058536086655963E-002	3.8318041E-005	-7.5751936E-001	0
1.4948639E+004	6.380819859456096E+001	-7.5954777E-001	-5.081049928466974E-002	3.8593000E-005	-7.5951940E-001	0
1.4932350E+004	6.400819858950854E+001	-7.6145899E-001	-5.099391608705944E-002	3.8829778E-005	-7.6151943E-001	0
1.4904487E+004	6.420819858445611E+001	-7.6349360E-001	-5.122575461135881E-002	3.9110535E-005	-7.6351941E-001	0
1.4888722E+004	6.440819857940369E+001	-7.6549399E-001	-5.141435438859976E-002	3.9357379E-005	-7.6551938E-001	0
1.4877505E+004	6.460819857435126E+001	-7.6748258E-001	-5.158678014697232E-002	3.9591956E-005	-7.6751947E-001	0
1.4870304E+004	6.480819856929884E+001	-7.6952386E-001	-5.174903602438574E-002	3.9822116E-005	-7.6951939E-001	0
1.4862652E+004	6.500819856424641E+001	-7.7144778E-001	-5.190512137550893E-002	4.0042090E-005	-7.7151936E-001	0
1.4862072E+004	6.520819855919399E+001	-7.7347612E-001	-5.204362385851355E-002	4.0254501E-005	-7.7351946E-001	0
1.4857274E+004	6.540819855414156E+001	-7.7549666E-001	-5.219642888140086E-002	4.0478157E-005	-7.7551943E-001	0
1.4860309E+004	6.560819854908914E+001	-7.7743793E-001	-5.231640382264391E-002	4.0672756E-005	-7.7751929E-001	0
1.4855461E+004	6.580819854403671E+001	-7.7949703E-001	-5.247208545335014E-002	4.0901836E-005	-7.7951938E-001	0
1.4852949E+004	6.600819853898429E+001	-7.8152937E-001	-5.261779038600922E-002	4.1122348E-005	-7.8151947E-001	0
1.4853015E+004	6.620819853393186E+001	-7.8345132E-001	-5.274695665480511E-002	4.1324674E-005	-7.8351951E-001	0
1.4850001E+004	6.640819852887944E+001	-7.8544688E-001	-5.289204407677624E-002	4.1543892E-005	-7.8551942E-001	0
1.4849434E+004	6.660819852382701E+001	-7.8747362E-001	-5.303054974496801E-002	4.1760159E-005	-7.8751945E-001	0
1.4842014E+004	6.680819851877459E+001	-7.8946871E-001	-5.319148309205710E-002	4.1993011E-005	-7.8951949E-001	0
1.4849015E+004	6.700819851372216E+001	-7.9145819E-001	-5.330038571871776E-002	4.2185027E-005	-7.9151934E-001	0
1.4845105E+004	6.720819850866974E+001	-7.9341006E-001	-5.344590270689065E-002	4.2404517E-005	-7.9351944E-001	0
1.4846000E+004	6.740819850361731E+001	-7.9549026E-001	-5.358279992819970E-002	4.2624597E-005	-7.9551953E-001	0
1.4845686E+004	6.760819849856489E+001	-7.9748207E-001	-5.371810356735818E-002	4.2839223E-005	-7.9751939E-001	0
1.4853728E+004	6.780819849351246E+001	-7.9947436E-001	-5.382314678323789E-002	4.3030224E-005	-7.9951948E-001	0
1.4849852E+004	6.800819848846004E+001	-8.0150908E-001	-5.397421666980629E-002	4.3260825E-005	-8.0151945E-001	0
1.4849418E+004	6.820819848340761E+001	-8.0348128E-001	-5.410860407867318E-002	4.3475251E-005	-8.0351943E-001	0
1.4856205E+004	6.840819847835519E+001	-8.0549324E-001	-5.421931175261641E-002	4.3673288E-005	-8.0551940E-001	0
1.4842449E+004	6.860819847330276E+001	-8.0750376E-001	-5.440501996121738E-002	4.3932258E-005	-8.0751944E-001	0
1.4841646E+004	6.880819846825034E+001	-8.0946565E-001	-5.454015202372653E-002	4.4148379E-005	-8.0951947E-001	0
1.4826348E+004	6.900819846319791E+001	-8.1145978E-001	-5.473092736997343E-002	4.4411947E-005	-8.1151944E-001	0
1.4812113E+004	6.920819845814549E+001	-8.1345910E-001	-5.491850257834308E-002	4.4673954E-005	-8.1351936E-001	0
1.4806660E+004	6.940819845309306E+001	-8.1551349E-001	-5.507747677488495E-002	4.4916425E-005	-8.1551951E-001	0
1.4794787E+004	6.960819844804064E+001	-8.1748414E-001	-5.525487547691776E-002	4.5169985E-005	-8.1751949E-001	0
1.4778140E+004	6.980819844298821E+001	-8.1949586E-001	-5.545324990325229E-002	4.5443707E-005	-8.1951940E-001	0
1.4753389E+004	7.000819843793579E+001	-8.2146949E-001	-5.568005309425417E-002	4.5739464E-005	-8.2151943E-001	0
1.4726114E+004	7.020819843288336E+001	-8.2351184E-001	-5.592186834775076E-002	4.6052322E-005	-8.2351947E-001	0
1.4722573E+004	7.040819842783094E+001	-8.2553697E-001	-5.607287057088328E-002	4.6290228E-005	-8.2551944E-001	0
1.4700472E+004	7.060819842277851E+001	-8.2749307E-001	-5.629023799224997E-002	4.6579782E-005	-8.2751942E-001	0
1.4685189E+004	7.080819841772609E+001	-8.2947600E-001	-5.648384663084222E-002	4.6851994E-005	-8.2951951E-001	0
1.4685672E+004	7.100819841267366E+001	-8.3144116E-001	-5.661580614405592E-002	4.7072710E-005	-8.3151937E-001	0
1.4667439E+004	7.120819840762124E+001	-8.3350652E-001	-5.682699488372434E-002	4.7365673E-005	-8.3351946E-001	0
1.4660861E+004	7.140819840256881E+001	-8.3546019E-001	-5.698575152141250E-002	4.7609326E-005	-8.3551943E-001	0
1.4639236E+004	7.160819839751639E+001	-8.3756030E-001	-5.721338627735340E-002	4.7919661E-005	-8.3751941E-001	0
1.4628296E+004	7.180819839246396E+001	-8.3949202E-001	-5.738822962822676E-002	4.8176960E-005	-8.3951950E-001	0
1.4624581E+004	7.200819838741154E+001	-8.4145772E-001	-5.753722009692522E-002	4.8415139E-005	-8.4151942E-001	0
1.4604702E+004	7.220819838235911E+001	-8.4346169E-001	-5.775274994757768E-002	4.8712231E-005	-8.4351957E-001	0
1.4588511E+004	7.240819837730669E+001	-8.4550697E-001	-5.795704609294169E-002	4.9003087E-005	-8.4551942E-001	0
1.4573788E+004	7.260819837225426E+001	-8.4746969E-001	-5.815026978909332E-002	4.9280592E-005	-8.4751934E-001	0
1.4569435E+004	7.280819836720184E+001	-8.4946513E-001	-5.830460495015616E-002	4.9527727E-005	-8.4951949E-001	0
1.4546273E+004	7.300819836214941E+001	-8.5150325E-001	-5.853755158570773E-002	4.9844915E-005	-8.5151947E-001	0
1.4517839E+004	7.320819835709699E+001	-8.5348362E-001	-5.878861276791880E-002	5.0175116E-005	-8.5351944E-001	0
1.4485452E+004	7.340819835204456E+001	-8.5549724E-001	-5.905906336018796E-002	5.0524864E-005	-8.5551947E-001	0
1.4463933E+004	7.360819834699214E+001	-8.5747367E-001	-5.928357668609570E-002	5.0834107E-005	-8.5751945E-001	0
1.4415868E+004	7.380819834193971E+001	-8.5946137E-001	-5.961912049692281E-002	5.1240331E-005	-8.5951942E-001	0
1.4380209E+004	7.400819833688729E+001	-8.6156875E-001	-5.991350706400611E-002	5.1619605E-005	-8.6151940E-001	0
1.4334428E+004	7.420819833183486E+001	-8.6354214E-001	-6.024252436474353E-002	5.2021958E-005	-8.6351949E-001	0
1.4272082E+004	7.440819832678244E+001	-8.6548698E-001	-6.064195595649996E-002	5.2484822E-005	-8.6551946E-001	0
1.4212881E+004	7.460819832173001E+001	-8.6750096E-001	-6.103624873678470E-002	5.2949006E-005	-8.6751944E-001	0
1.4144089E+004	7.480819831667759E+001	-8.6951494E-001	-6.147550221462905E-002	5.3453867E-005	-8.6951941E-001	0
1.4057748E+004	7.500819831162516E+001	-8.7146777E-001	-6.199198820398055E-002	5.4024018E-005	-8.7151939E-001	0
1.3982724E+004	7.520819830657274E+001	-8.7348181E-001	-6.246864734494195E-002	5.4565226E-005	-8.7351948E-001	0
1.3872010E+004	7.540819830152032E+001	-8.7546778E-001	-6.311037967376432E-002	5.5251105E-005	-8.7551939E-001	0
1.3759177E+004	7.560819829646789E+001	-8.7746918E-001	-6.377337821822654E-002	5.5959175E-005	-8.7751955E-001	0
1.3635271E+004	7.580819829141547E+001	-8.7949598E-001	-6.450154061023738E-002	5.6728844E-005	-8.7951952E-001	0
1.3494765E+004	7.600819828636304E+001	-8.8150924E-001	-6.532231544549905E-002	5.7582223E-005	-8.8151932E-001	0
1.3327265E+004	7.620819828131062E+001	-8.8345057E-001	-6.628896506575033E-002	5.8563022E-005	-8.8351947E-001	0
1.3131631E+004	7.640819827625819E+001	-8.8543063E-001	-6.742731535378549E-002	5.9702212E-005	-8.8551944E-001	0
1.2923338E+004	7.660819827120577E+001	-8.8753051E-001	-6.867656749652018E-002	6.0952549E-005	-8.8751942E-001	0
1.2679617E+004	7.680819826615334E+001	-8.8947284E-001	-7.014981582454582E-002	6.2396357E-005	-8.8951945E-001	0
1.2417171E+004	7.700819826110092E+001	-8.9147216E-001	-7.179350181970556E-002	6.4001906E-005	-8.9151949E-001	0
1.2149089E+004	7.720819825604849E+001	-8.9349467E-001	-7.354416819489940E-002	6.5711320E-005	-8.9351946E-001	0
1.1883886E+004	7.740819825099607E+001	-8.9547580E-001	-7.535210447628793E-002	6.7475987E-005	-8.9551938E-001	0
1.1603761E+004	7.760819824594364E+001	-8.9746845E-001	-7.734289609715139E-002	6.9412810E-005	-8.9751947E-001	0
1.1297759E+004	7.780819824089122E+001	-8.9945757E-001	-7.961380352739134E-002	7.1609240E-005	-8.9951944E-001	0
1.0990879E+004	7.800819823583879E+001	-9.0144467E-001	-8.201752430041331E-002	7.3934258E-005	-9.0151942E-001	0
1.0570581E+004	7.820819823078637E+001	-9.0351361E-001	-8.547435647305418E-002	7.7227247E-005	-9.0351951E-001	0
1.0228118E+004	7.840819822573394E+001	-9.0549242E-001	-8.852972181475877E-002	8.0162994E-005	-9.0551949E-001	0
9.7302393E+003	7.862819822017627E+001	-9.0768385E-001	-9.328484155844752E-002	8.4673142E-005	-9.0771943E-001	0
9.3822266E+003	7.882819821512385E+001	-9.0964884E-001	-9.695447368184107E-002	8.8194523E-005	-9.0971947E-001	0
9.0222305E+003	7.902819821007142E+001	-9.1166675E-001	-1.010467184384407E-001	9.2120936E-005	-9.1171950E-001	0
8.6445010E+003	7.922819820501900E+001	-9.1366678E-001	-1.056934044878015E-001	9.6568554E-005	-9.1371948E-001	0
8.2633750E+003	7.942819819996657E+001	-9.1565609E-001	-1.108089757253270E-001	1.0146292E-004	-9.1571939E-001	0
7.8620239E+003	7.962819819491415E+001	-9.1768235E-001	-1.167234263885468E-001	1.0711503E-004	-9.1771948E-001	0
7.4592656E+003	7.982819818986172E+001	-9.1963840E-001	-1.232880617760101E-001	1.1338043E-004	-9.1971946E-001	0
7.0565557E+003	8.002819818480930E+001	-9.2165256E-001	-1.306094116501748E-001	1.2037650E-004	-9.2171943E-001	0
6.6486294E+003	8.022819817975687E+001	-9.2367554E-001	-1.389272085690869E-001	1.2832366E-004	-9.2371953E-001	0
6.2487334E+003	8.042819817470445E+001	-9.2568117E-001	-1.481390124970368E-001	1.3712949E-004	-9.2571938E-001	0
5.8576113E+003	8.062819816965202E+001	-9.2766410E-001	-1.583690082595222E-001	1.4691324E-004	-9.2771947E-001	0
5.4705151E+003	8.082819816459960E+001	-9.2963004E-001	-1.699346416268728E-001	1.5797635E-004	-9.2971945E-001	0
5.0993818E+003	8.102819815954717E+001	-9.3169349E-001	-1.827071367756656E-001	1.7022705E-004	-9.3171954E-001	0
4.7345264E+003	8.122819815449475E+001	-9.3365073E-001	-1.972004556848921E-001	1.8411635E-004	-9.3371952E-001	0
4.3517578E+003	8.142819814944232E+001	-9.3562669E-001	-2.149997246990196E-001	2.0115948E-004	-9.3571943E-001	0
4.0316560E+003	8.162819814438990E+001	-9.3768078E-001	-2.325795639893404E-001	2.1808539E-004	-9.3771946E-001	0
3.7294636E+003	8.182819813933747E+001	-9.3968344E-001	-2.519620875817408E-001	2.3676459E-004	-9.3971956E-001	0
3.4414917E+003	8.202819813428505E+001	-9.4168252E-001	-2.736262633251929E-001	2.5766907E-004	-9.4171941E-001	0
3.1740239E+003	8.222819812923262E+001	-9.4365841E-001	-2.973066480965469E-001	2.8055592E-004	-9.4371945E-001	0
2.8953123E+003	8.242819812418020E+001	-9.4566715E-001	-3.266200989510126E-001	3.0887389E-004	-9.4571948E-001	0
2.6628547E+003	8.262819811912777E+001	-9.4766200E-001	-3.558819843730685E-001	3.3725583E-004	-9.4771945E-001	0
2.4494265E+003	8.282819811407535E+001	-9.4969720E-001	-3.877222465790480E-001	3.6821872E-004	-9.4971943E-001	0
2.2420859E+003	8.302819810902292E+001	-9.5168465E-001	-4.244639680059841E-001	4.0395584E-004	-9.5171946E-001	0
2.0509932E+003	8.322819810397050E+001	-9.5366973E-001	-4.649794852686320E-001	4.4343685E-004	-9.5371944E-001	0
1.8863654E+003	8.342819809891807E+001	-9.5567209E-001	-5.066208916836654E-001	4.8416344E-004	-9.5571941E-001	0
1.7216694E+003	8.362819809386565E+001	-9.5769036E-001	-5.562568112802335E-001	5.3272181E-004	-9.5771950E-001	0
1.5816931E+003	8.382819808881322E+001	-9.5969862E-001	-6.067540064504779E-001	5.8230100E-004	-9.5971948E-001	0
1.4475768E+003	8.402819808376080E+001	-9.6167648E-001	-6.643353774974670E-001	6.3887570E-004	-9.6171945E-001	0
1.3301455E+003	8.422819807870837E+001	-9.6368277E-001	-7.244942377737438E-001	6.9818262E-004	-9.6371943E-001	0
1.2175721E+003	8.442819807365595E+001	-9.6573508E-001	-7.931645696733547E-001	7.6598686E-004	-9.6571952E-001	0
1.1200774E+003	8.462819806860352E+001	-9.6769911E-001	-8.639573997431476E-001	8.3605078E-004	-9.6771955E-001	0
1.0291210E+003	8.482819806355110E+001	-9.6971869E-001	-9.422786107831618E-001	9.1374520E-004	-9.6971947E-001	0
9.4484961E+002	8.502819805849867E+001	-9.7172779E-001	-1.028447020351212E+000	9.9937059E-004	-9.7171944E-001	0
8.6487555E+002	8.523819805319363E+001	-9.7379225E-001	-1.125933399260580E+000	1.0964252E-003	-9.7381955E-001	0
7.9660797E+002	8.544819804788858E+001	-9.7584271E-001	-1.224997392317064E+000	1.1954048E-003	-9.7591943E-001	0
7.3532965E+002	8.564819804283616E+001	-9.7790623E-001	-1.329888204792663E+000	1.3005059E-003	-9.7791952E-001	0
6.8019128E+002	8.584819803778373E+001	-9.7985822E-001	-1.440562701456731E+000	1.4115472E-003	-9.7991937E-001	0
6.2932104E+002	8.604819803273131E+001	-9.8185414E-001	-1.560180116242098E+000	1.5318693E-003	-9.8191947E-001	0
5.8335535E+002	8.624819802767888E+001	-9.8386073E-001	-1.686554773864827E+000	1.6593350E-003	-9.8391944E-001	0
5.4107782E+002	8.644819802262646E+001	-9.8582995E-001	-1.821974355279728E+000	1.7961569E-003	-9.8591954E-001	0
5.0268915E+002	8.664819801757403E+001	-9.8786819E-001	-1.965167153314126E+000	1.9413261E-003	-9.8791951E-001	0
4.6786673E+002	8.684819801252161E+001	-9.8992187E-001	-2.115820163620172E+000	2.0944967E-003	-9.8991942E-001	0
4.3630740E+002	8.704819800746918E+001	-9.9185365E-001	-2.273290898676224E+000	2.2547720E-003	-9.9191946E-001	0
4.0681427E+002	8.724819800241676E+001	-9.9389172E-001	-2.443109276884001E+000	2.4281861E-003	-9.9391955E-001	0
3.8000159E+002	8.744819799736433E+001	-9.9588549E-001	-2.620740448029675E+000	2.6099575E-003	-9.9591941E-001	0
3.5571185E+002	8.764819799231191E+001	-9.9787223E-001	-2.805282500967422E+000	2.7993135E-003	-9.9791944E-001	0
3.3340942E+002	8.784819798725948E+001	-9.9987620E-001	-2.998943908718715E+000	2.9985725E-003	-9.9991947E-001	0
3.1287964E+002	8.804819798220706E+001	-1.0018744E+000	-3.202108025533960E+000	3.2081101E-003	-1.0019194E+000	0
2.9407813E+002	8.824829797715211E+001	-1.0038618E+000	-3.413588720727898E+000	3.4267714E-003	-1.0039202E+000	0
2.7696487E+002	8.844839797209715E+001	-1.0058656E+000	-3.631744237781369E+000	3.6530464E-003	-1.0059214E+000	0
2.6091434E+002	8.864859796703968E+001	-1.0079230E+000	-3.863041717348523E+000	3.8936487E-003	-1.0079231E+000	0
2.4628075E+002	8.884879796198220E+001	-1.0098743E+000	-4.100500510359304E+000	4.1409903E-003	-1.0099255E+000	0
2.3284839E+002	8.904899795692472E+001	-1.0118599E+000	-4.345574049701838E+000	4.3971119E-003	-1.0119271E+000	0
2.2017694E+002	8.924929795186472E+001	-1.0138850E+000	-4.604864633073085E+000	4.6688034E-003	-1.0139302E+000	0
2.0875989E+002	8.944939794680977E+001	-1.0159134E+000	-4.866420374334268E+000	4.9438616E-003	-1.0159314E+000	0
1.9791055E+002	8.964949794175482E+001	-1.0178881E+000	-5.143172322102185E+000	5.2351737E-003	-1.0179323E+000	0
1.8799292E+002	8.984959793669987E+001	-1.0198896E+000	-5.425149007178760E+000	5.5330531E-003	-1.0199335E+000	0
1.7868399E+002	9.004959793164744E+001	-1.0218971E+000	-5.719018759167895E+000	5.8442485E-003	-1.0219334E+000	0
1.7019115E+002	9.024979792658996E+001	-1.0238901E+000	-6.016118895412831E+000	6.1598448E-003	-1.0239353E+000	0
1.6223872E+002	9.044999792153249E+001	-1.0259181E+000	-6.323509765699875E+000	6.4874031E-003	-1.0259373E+000	0
1.5469583E+002	9.064999791648006E+001	-1.0279291E+000	-6.644840018076110E+000	6.8304241E-003	-1.0279374E+000	0
1.4780054E+002	9.085019791142258E+001	-1.0299045E+000	-6.968205644233592E+000	7.1765864E-003	-1.0299389E+000	0
1.4130550E+002	9.105069790635753E+001	-1.0318816E+000	-7.302487143114519E+000	7.5353021E-003	-1.0319442E+000	0
1.3523714E+002	9.125089790130005E+001	-1.0339366E+000	-7.645360268512889E+000	7.9048183E-003	-1.0339463E+000	0
1.2949271E+002	9.145099789624510E+001	-1.0359589E+000	-8.000132891326246E+000	8.2878089E-003	-1.0359474E+000	0
1.2422646E+002	9.165129789118510E+001	-1.0379212E+000	-8.355073641445443E+000	8.6719077E-003	-1.0379502E+000	0
1.1920224E+002	9.185149788612762E+001	-1.0399498E+000	-8.724246715413642E+000	9.0727787E-003	-1.0399522E+000	0
1.1451482E+002	9.205169788107014E+001	-1.0419694E+000	-9.098992441449830E+000	9.4808722E-003	-1.0419543E+000	0
1.1000712E+002	9.225189787601266E+001	-1.0439298E+000	-9.489657187113849E+000	9.9065360E-003	-1.0439563E+000	0
1.0587998E+002	9.245209787095519E+001	-1.0459499E+000	-9.878637426244175E+000	1.0332560E-002	-1.0459583E+000	0
1.0189331E+002	9.265219786590023E+001	-1.0479563E+000	-1.028483986766702E+001	1.0778063E-002	-1.0479594E+000	0
9.8181335E+001	9.285229786084528E+001	-1.0499544E+000	-1.069403251098186E+001	1.1228247E-002	-1.0499603E+000	0
9.4222260E+001	9.306249785553518E+001	-1.0520524E+000	-1.116564613557247E+001	1.1746844E-002	-1.0520622E+000	0
9.0728043E+001	9.327259785022761E+001	-1.0541281E+000	-1.161854698260623E+001	1.2247437E-002	-1.0541635E+000	0
8.7622055E+001	9.347269784517266E+001	-1.0561150E+000	-1.205307340746822E+001	1.2729432E-002	-1.0561643E+000	0
8.4693474E+001	9.367279784011771E+001	-1.0581685E+000	-1.249409787522420E+001	1.3220862E-002	-1.0581656E+000	0
8.1886101E+001	9.387299783506023E+001	-1.0601344E+000	-1.294645161309211E+001	1.3724979E-002	-1.0601674E+000	0
7.9268715E+001	9.407299783000781E+001	-1.0621269E+000	-1.339906757786159E+001	1.4231510E-002	-1.0621674E+000	0
7.6721222E+001	9.427309782495286E+001	-1.0641454E+000	-1.387028866590147E+001	1.4760004E-002	-1.0641682E+000	0
7.4355377E+001	9.447329781989538E+001	-1.0661453E+000	-1.433851030562111E+001	1.5286935E-002	-1.0661702E+000	0
7.2080856E+001	9.467339781484043E+001	-1.0680822E+000	-1.481783482074195E+001	1.5826667E-002	-1.0681715E+000	0
6.9917633E+001	9.487339780978800E+001	-1.0701666E+000	-1.530610515133327E+001	1.6380083E-002	-1.0701715E+000	0
6.7865906E+001	9.507339780473558E+001	-1.0721856E+000	-1.579859002566391E+001	1.6939022E-002	-1.0721714E+000	0
6.5875099E+001	9.527379779967305E+001	-1.0740992E+000	-1.630508646350333E+001	1.7513281E-002	-1.0741748E+000	0
6.4010818E+001	9.547409779461304E+001	-1.0760949E+000	-1.681114005731401E+001	1.8090382E-002	-1.0761782E+000	0
6.2250530E+001	9.567429778955557E+001	-1.0781795E+000	-1.732000477968637E+001	1.8674074E-002	-1.0781802E+000	0
6.0565819E+001	9.587439778450062E+001	-1.0800840E+000	-1.783322685146004E+001	1.9261383E-002	-1.0801816E+000	0
5.8977730E+001	9.607439777944819E+001	-1.0821583E+000	-1.834859242704181E+001	1.9856082E-002	-1.0821813E+000	0
5.7434113E+001	9.627439777439577E+001	-1.0841568E+000	-1.887652949127207E+001	2.0465117E-002	-1.0841814E+000	0
5.5992210E+001	9.647459776933829E+001	-1.0861216E+000	-1.939772637642432E+001	2.1068288E-002	-1.0861833E+000	0
5.4622944E+001	9.667469776428334E+001	-1.0881865E+000	-1.992178389060396E+001	2.1678617E-002	-1.0881842E+000	0
5.3344906E+001	9.687509775922081E+001	-1.0901889E+000	-2.043660719205526E+001	2.2279762E-002	-1.0901880E+000	0
5.2174561E+001	9.707539775416080E+001	-1.0921564E+000	-2.093273799267240E+001	2.2861823E-002	-1.0921910E+000	0
5.1035999E+001	9.727569774910080E+001	-1.0941430E+000	-2.143865190779907E+001	2.3456952E-002	-1.0941943E+000	0
4.9973621E+001	9.747579774404585E+001	-1.0961578E+000	-2.193472732667760E+001	2.4043921E-002	-1.0961955E+000	0
4.9036846E+001	9.767579773899342E+001	-1.0981447E+000	-2.239427566433712E+001	2.4592154E-002	-1.0981954E+000	0
4.8095898E+001	9.787599773393595E+001	-1.1001577E+000	-2.287425292706001E+001	2.5165286E-002	-1.1001973E+000	0
4.7272251E+001	9.807609772888100E+001	-1.1021633E+000	-2.331522857198519E+001	2.5697190E-002	-1.1021982E+000	0
4.6415726E+001	9.827619772382604E+001	-1.1042156E+000	-2.378968773285553E+001	2.6268944E-002	-1.1041995E+000	0
4.5629135E+001	9.847619771877362E+001	-1.1061852E+000	-2.424295732912844E+001	2.6817201E-002	-1.1061995E+000	0
4.4925247E+001	9.867639771371614E+001	-1.1081760E+000	-2.466710867616219E+001	2.7335498E-002	-1.1082010E+000	0
4.4144840E+001	9.887669770865614E+001	-1.1101760E+000	-2.514848699815478E+001	2.7919246E-002	-1.1102042E+000	0
4.3470989E+001	9.907689770359866E+001	-1.1121504E+000	-2.558373895142176E+001	2.8452966E-002	-1.1122062E+000	0
4.2790165E+001	9.927709769854118E+001	-1.1142008E+000	-2.603871305888012E+001	2.9012356E-002	-1.1142083E+000	0
4.2185047E+001	9.947739769348118E+001	-1.1162013E+000	-2.645964248076582E+001	2.9534288E-002	-1.1162111E+000	0
4.1682507E+001	9.967759768842370E+001	-1.1182028E+000	-2.682666949809540E+001	2.9997658E-002	-1.1182134E+000	0
4.1153343E+001	9.987759768337128E+001	-1.1202070E+000	-2.722031564939579E+001	3.0492388E-002	-1.1202135E+000	0
4.0651760E+001	1.000775976783189E+002	-1.1222208E+000	-2.760571199452778E+001	3.0979702E-002	-1.1222135E+000	0
4.0168346E+001	1.002775976732664E+002	-1.1241819E+000	-2.798675882870381E+001	3.1462207E-002	-1.1242135E+000	0
3.9577759E+001	1.004776976682115E+002	-1.1261935E+000	-2.845521100947906E+001	3.2046076E-002	-1.1262144E+000	0
3.8993065E+001	1.006777976631565E+002	-1.1282419E+000	-2.893442438897637E+001	3.2645028E-002	-1.1282156E+000	0
3.8346382E+001	1.008778976581016E+002	-1.1301976E+000	-2.947338254612390E+001	3.3310749E-002	-1.1302162E+000	0
3.7942451E+001	1.010779976530466E+002	-1.1322209E+000	-2.984047783880817E+001	3.3786010E-002	-1.1322174E+000	0
3.7252460E+001	1.012780976479917E+002	-1.1341722E+000	-3.044556605351256E+001	3.4530513E-002	-1.1342182E+000	0
3.6519512E+001	1.014781976429367E+002	-1.1362120E+000	-3.111246447822668E+001	3.5350356E-002	-1.1362195E+000	0
3.5658371E+001	1.016782976378818E+002	-1.1381958E+000	-3.191945503412799E+001	3.6330588E-002	-1.1382203E+000	0
3.4981709E+001	1.018785976328218E+002	-1.1402186E+000	-3.259471030610848E+001	3.7165094E-002	-1.1402230E+000	0
3.4522461E+001	1.020787976277643E+002	-1.1422309E+000	-3.308660090266983E+001	3.7792537E-002	-1.1422255E+000	0
3.3757915E+001	1.022788976227093E+002	-1.1442220E+000	-3.389492476123252E+001	3.8783319E-002	-1.1442262E+000	0
3.2814384E+001	1.024789976176544E+002	-1.1462207E+000	-3.493043515038863E+001	4.0037986E-002	-1.1462274E+000	0
3.2139690E+001	1.026790976125994E+002	-1.1482254E+000	-3.572608913625106E+001	4.1021604E-002	-1.1482283E+000	0
3.1405224E+001	1.028791976075445E+002	-1.1502417E+000	-3.662580851930069E+001	4.2128533E-002	-1.1502295E+000	0
3.0813505E+001	1.030792976024895E+002	-1.1522381E+000	-3.739393179065149E+001	4.3086715E-002	-1.1522304E+000	0
2.9961945E+001	1.032794975974321E+002	-1.1542381E+000	-3.852347069200505E+001	4.4465259E-002	-1.1542323E+000	0
2.9092592E+001	1.034795975923771E+002	-1.1561960E+000	-3.974193876806044E+001	4.5949470E-002	-1.1562334E+000	0
2.8394566E+001	1.036797975873196E+002	-1.1582580E+000	-4.079153762124292E+001	4.7247123E-002	-1.1582353E+000	0
2.7698219E+001	1.038798975822647E+002	-1.1602552E+000	-4.188916132721545E+001	4.8602115E-002	-1.1602362E+000	0
2.6970583E+001	1.040802975772021E+002	-1.1622556E+000	-4.309345506884529E+001	5.0085612E-002	-1.1622401E+000	0
2.6145878E+001	1.042803975721472E+002	-1.1642762E+000	-4.453001020798047E+001	5.1845234E-002	-1.1642414E+000	0
2.5396057E+001	1.044804975670922E+002	-1.1662470E+000	-4.592236509829024E+001	5.3556822E-002	-1.1662422E+000	0
2.4634722E+001	1.046805975620373E+002	-1.1682701E+000	-4.742371694030686E+001	5.5403709E-002	-1.1682434E+000	0
2.3980936E+001	1.048805975569849E+002	-1.1702819E+000	-4.880050908383885E+001	5.7110351E-002	-1.1702435E+000	0
2.3346182E+001	1.050805975519324E+002	-1.1723225E+000	-5.021474061233920E+001	5.8867872E-002	-1.1722435E+000	0
2.2582176E+001	1.052806975468775E+002	-1.1742965E+000	-5.200103122535165E+001	6.1064627E-002	-1.1742442E+000	0
2.1920042E+001	1.054808975418200E+002	-1.1762837E+000	-5.366247660255453E+001	6.3122295E-002	-1.1762462E+000	0
2.0986197E+001	1.056809975367651E+002	-1.1783172E+000	-5.614724998192992E+001	6.6159271E-002	-1.1782475E+000	0
2.0579294E+001	1.058809975317126E+002	-1.1802746E+000	-5.735253210889499E+001	6.7691736E-002	-1.1802474E+000	0
2.0110380E+001	1.060809975266602E+002	-1.1823140E+000	-5.879123463814506E+001	6.9509700E-002	-1.1822475E+000	0
1.9551384E+001	1.062810975216053E+002	-1.1842320E+000	-6.057023848366475E+001	7.1729213E-002	-1.1842482E+000	0
1.8945389E+001	1.064812975165478E+002	-1.1862481E+000	-6.261407696686024E+001	7.4275829E-002	-1.1862503E+000	0
1.8391273E+001	1.066813975114928E+002	-1.1882550E+000	-6.460971670410265E+001	7.6772816E-002	-1.1882515E+000	0
1.7942451E+001	1.068814975064379E+002	-1.1902753E+000	-6.633849983220762E+001	7.8961082E-002	-1.1902522E+000	0
1.7476845E+001	1.070815975013829E+002	-1.1922857E+000	-6.822087793501612E+001	8.1338771E-002	-1.1922535E+000	0
1.7060682E+001	1.072815974963305E+002	-1.1942861E+000	-7.000224559107050E+001	8.3602712E-002	-1.1942536E+000	0
1.6728905E+001	1.074815974912781E+002	-1.1963040E+000	-7.151119869582510E+001	8.5549131E-002	-1.1962535E+000	0
1.6398027E+001	1.076815974862257E+002	-1.1982243E+000	-7.307124929201007E+001	8.7555744E-002	-1.1982534E+000	0
1.6172277E+001	1.078816974811707E+002	-1.2003244E+000	-7.422111283454115E+001	8.9089416E-002	-1.2002542E+000	0
1.5971082E+001	1.080817974761158E+002	-1.2023160E+000	-7.528081522452868E+001	9.0511329E-002	-1.2022555E+000	0
1.5661352E+001	1.082818974710608E+002	-1.2043166E+000	-7.689736038028434E+001	9.2608772E-002	-1.2042562E+000	0
1.5129495E+001	1.084819974660059E+002	-1.2062815E+000	-7.973045946140667E+001	9.6177384E-002	-1.2062573E+000	0
1.4821970E+001	1.086819974609534E+002	-1.2082990E+000	-8.152081107066056E+001	9.8501518E-002	-1.2082574E+000	0
1.4523774E+001	1.088822974558934E+002	-1.2103246E+000	-8.333402936793584E+001	1.0086123E-001	-1.2102602E+000	0
1.4193015E+001	1.090824974508359E+002	-1.2123294E+000	-8.541732549386393E+001	1.0355394E-001	-1.2122622E+000	0
1.3912337E+001	1.092825974457810E+002	-1.2143129E+000	-8.728317013132892E+001	1.0598908E-001	-1.2142634E+000	0
1.3746092E+001	1.094825974407286E+002	-1.2163181E+000	-8.848464992743783E+001	1.0762548E-001	-1.2162635E+000	0
1.3534548E+001	1.096826974356736E+002	-1.2182781E+000	-9.001246922868472E+001	1.0966022E-001	-1.2182643E+000	0
1.3474056E+001	1.098827974306187E+002	-1.2203118E+000	-9.056751535484864E+001	1.1052060E-001	-1.2202654E+000	0
1.3097680E+001	1.100827974255662E+002	-1.2222931E+000	-9.332134755506604E+001	1.1406604E-001	-1.2222655E+000	0
1.2891523E+001	1.102828974205113E+002	-1.2242721E+000	-9.496722086051886E+001	1.1626572E-001	-1.2242663E+000	0
1.2676204E+001	1.104830974154538E+002	-1.2263156E+000	-9.674154934472199E+001	1.1863567E-001	-1.2262683E+000	0
1.2565091E+001	1.106831974103989E+002	-1.2283043E+000	-9.775529852151294E+001	1.2007325E-001	-1.2282693E+000	0
1.2317161E+001	1.108832974053439E+002	-1.2303306E+000	-9.988751882183249E+001	1.2289467E-001	-1.2302703E+000	0
1.2082457E+001	1.110833974002890E+002	-1.2322997E+000	-1.019908211636705E+002	1.2568326E-001	-1.2322714E+000	0
1.1752473E+001	1.112833973952365E+002	-1.2342781E+000	-1.050228388985270E+002	1.2962739E-001	-1.2342714E+000	0
1.1538127E+001	1.114833973901841E+002	-1.2362839E+000	-1.071477148981594E+002	1.3246499E-001	-1.2362715E+000	0
1.1562500E+001	1.116833973851317E+002	-1.2382987E+000	-1.070961033092335E+002	1.3261697E-001	-1.2382715E+000	0
1.1488571E+001	1.118833973800793E+002	-1.2403089E+000	-1.079602384199634E+002	1.3390404E-001	-1.2402714E+000	0
1.1237683E+001	1.120933973747742E+002	-1.2424023E+000	-1.105568039057212E+002	1.3735603E-001	-1.2423714E+000	0
1.0959454E+001	1.123033973694692E+002	-1.2445060E+000	-1.135554831055022E+002	1.4132048E-001	-1.2444714E+000	0
1.0653829E+001	1.125035973644117E+002	-1.2465123E+000	-1.170013501438477E+002	1.4584363E-001	-1.2464733E+000	0
1.0529358E+001	1.127039973593492E+002	-1.2485059E+000	-1.185737940876918E+002	1.4804009E-001	-1.2484770E+000	0
1.0376603E+001	1.129041973542917E+002	-1.2505327E+000	-1.205146558073914E+002	1.5070753E-001	-1.2504795E+000	0
1.0178137E+001	1.131041973492393E+002	-1.2525198E+000	-1.230598341526634E+002	1.5413488E-001	-1.2524794E+000	0
1.0150606E+001	1.133043973441818E+002	-1.2545192E+000	-1.235905768471459E+002	1.5504676E-001	-1.2544813E+000	0
1.0052727E+001	1.135043973391294E+002	-1.2565007E+000	-1.249910326458162E+002	1.5705132E-001	-1.2564814E+000	0
9.9619942E+000	1.137044973340744E+002	-1.2584949E+000	-1.263296132592932E+002	1.5898517E-001	-1.2584823E+000	0
9.8079472E+000	1.139045973290195E+002	-1.2605153E+000	-1.285197926043381E+002	1.6200116E-001	-1.2604835E+000	0
9.5696087E+000	1.141045973239670E+002	-1.2625043E+000	-1.319285229393140E+002	1.6656034E-001	-1.2624835E+000	0
9.2863903E+000	1.143045973189146E+002	-1.2645196E+000	-1.361691179113327E+002	1.7218852E-001	-1.2644835E+000	0
9.0563974E+000	1.145046973138597E+002	-1.2664964E+000	-1.398454924350681E+002	1.7711382E-001	-1.2664843E+000	0
8.8143358E+000	1.147049973087996E+002	-1.2685338E+000	-1.439171256896620E+002	1.8256374E-001	-1.2684871E+000	0
8.5546045E+000	1.149051973037422E+002	-1.2704952E+000	-1.485159482988372E+002	1.8868880E-001	-1.2704896E+000	0
8.2509613E+000	1.151051972986897E+002	-1.2725722E+000	-1.542331995618046E+002	1.9627288E-001	-1.2724895E+000	0
8.3315907E+000	1.153051972936373E+002	-1.2745347E+000	-1.529761513625686E+002	1.9497341E-001	-1.2744895E+000	0
8.1161957E+000	1.155051972885849E+002	-1.2765570E+000	-1.572851372500388E+002	2.0078343E-001	-1.2764895E+000	0
7.7937508E+000	1.157051972835325E+002	-1.2785099E+000	-1.640429501749752E+002	2.0973054E-001	-1.2784895E+000	0
7.8002281E+000	1.159051972784800E+002	-1.2805381E+000	-1.641667520032183E+002	2.1022178E-001	-1.2804896E+000	0
7.8081007E+000	1.161051972734276E+002	-1.2825699E+000	-1.642614428807818E+002	2.1067677E-001	-1.2824895E+000	0
7.7216825E+000	1.163051972683752E+002	-1.2846023E+000	-1.663630051537165E+002	2.1371029E-001	-1.2844893E+000	0
7.4683938E+000	1.165052972633202E+002	-1.2865584E+000	-1.722670741596043E+002	2.2163165E-001	-1.2864903E+000	0
7.2868505E+000	1.167053972582653E+002	-1.2885948E+000	-1.768383809671386E+002	2.2787303E-001	-1.2884915E+000	0
7.1729183E+000	1.169053972532129E+002	-1.2905551E+000	-1.799205129076290E+002	2.3219734E-001	-1.2904915E+000	0
7.0563922E+000	1.171053972481604E+002	-1.2925711E+000	-1.831773254692960E+002	2.3676971E-001	-1.2924914E+000	0
6.9158783E+000	1.173053972431080E+002	-1.2946030E+000	-1.871928557062902E+002	2.4234043E-001	-1.2944915E+000	0
6.8947873E+000	1.175054972380531E+002	-1.2966434E+000	-1.880614069480562E+002	2.4384858E-001	-1.2964922E+000	0
6.8841105E+000	1.177056972329956E+002	-1.2986093E+000	-1.886386472167296E+002	2.4496789E-001	-1.2984942E+000	0
6.7881718E+000	1.179058972279381E+002	-1.3006485E+000	-1.916051119190506E+002	2.4921089E-001	-1.3004960E+000	0
6.7856612E+000	1.180863972233783E+002	-1.3024501E+000	-1.919415149958334E+002	2.4999423E-001	-1.3023007E+000	0
6.6672592E+000	1.182272972198189E+002	-1.3038247E+000	-1.955563181199875E+002	2.5497115E-001	-1.3037095E+000	0
6.5672040E+000	1.183679972162645E+002	-1.3052598E+000	-1.987542730715209E+002	2.5942597E-001	-1.3051169E+000	0
6.5300813E+000	1.185083972127177E+002	-1.3066021E+000	-2.000897134213456E+002	2.6143765E-001	-1.3065201E+000	0
6.3536596E+000	1.186588972089157E+002	-1.3081648E+000	-2.058915456485265E+002	2.6934007E-001	-1.3080258E+000	0
6.2331004E+000	1.188095972051087E+002	-1.3096269E+000	-2.101084263018199E+002	2.7516365E-001	-1.3095326E+000	0
6.2021813E+000	1.189798972008066E+002	-1.3113664E+000	-2.114363316581312E+002	2.7727050E-001	-1.3112360E+000	0
6.1475062E+000	1.191404971967495E+002	-1.3129491E+000	-2.135742483982171E+002	2.8041211E-001	-1.3128415E+000	0
5.9819789E+000	1.193007971927000E+002	-1.3146156E+000	-2.197626697043743E+002	2.8890345E-001	-1.3144449E+000	0
5.8751945E+000	1.194613971886429E+002	-1.3161575E+000	-2.240193836564740E+002	2.9484478E-001	-1.3160505E+000	0
5.7065868E+000	1.196020971850885E+002	-1.3175888E+000	-2.308891183995647E+002	3.0421692E-001	-1.3174577E+000	0
5.5667601E+000	1.197526971812840E+002	-1.3190910E+000	-2.369584716223389E+002	3.1256977E-001	-1.3189634E+000	0
5.4858098E+000	1.199032971774795E+002	-1.3205944E+000	-2.407291778651834E+002	3.1790560E-001	-1.3204696E+000	0
5.4839506E+000	1.200436971739327E+002	-1.3219880E+000	-2.410648994422543E+002	3.1868491E-001	-1.3218737E+000	0
5.5028329E+000	1.201839971703885E+002	-1.3234223E+000	-2.404983745010604E+002	3.1828091E-001	-1.3232766E+000	0
5.4465966E+000	1.203346971665815E+002	-1.3249301E+000	-2.432583513140899E+002	3.2230031E-001	-1.3247837E+000	0
5.2698913E+000	1.205052971622717E+002	-1.3266332E+000	-2.517382555663803E+002	3.3396432E-001	-1.3264896E+000	0
5.1956635E+000	1.206558971584673E+002	-1.3281192E+000	-2.556206950892160E+002	3.3949474E-001	-1.3279958E+000	0
5.1856995E+000	1.208059971546754E+002	-1.3296618E+000	-2.564093520940132E+002	3.4093773E-001	-1.3294973E+000	0
5.1822495E+000	1.209864971501156E+002	-1.3313683E+000	-2.569093542848859E+002	3.4204099E-001	-1.3313018E+000	0
5.1049328E+000	1.211670971455533E+002	-1.3332261E+000	-2.611642695016649E+002	3.4819102E-001	-1.3331077E+000	0
4.9294634E+000	1.213178971417437E+002	-1.3347309E+000	-2.707659678064333E+002	3.6139968E-001	-1.3346155E+000	0
4.8524766E+000	1.214884971374340E+002	-1.3364236E+000	-2.754106216900191E+002	3.6806527E-001	-1.3363216E+000	0
4.7681403E+000	1.216690971328717E+002	-1.3382643E+000	-2.806679993670895E+002	3.7560797E-001	-1.3381277E+000	0
4.6672873E+000	1.218295971288171E+002	-1.3398975E+000	-2.870827195196553E+002	3.8466144E-001	-1.3397329E+000	0
4.5900650E+000	1.219998971245150E+002	-1.3416077E+000	-2.922851288180166E+002	3.9213198E-001	-1.3414361E+000	0
4.5397296E+000	1.221900971197101E+002	-1.3435297E+000	-2.959492822045186E+002	3.9761665E-001	-1.3433375E+000	0
4.4789147E+000	1.223406971159056E+002	-1.3450172E+000	-3.002997843738794E+002	4.0390837E-001	-1.3448434E+000	0
4.3571682E+000	1.224911971121037E+002	-1.3465315E+000	-3.090382158924604E+002	4.1612971E-001	-1.3463484E+000	0
4.2802691E+000	1.226217971088045E+002	-1.3477887E+000	-3.148841156953122E+002	4.2439726E-001	-1.3476548E+000	0
4.2063498E+000	1.227724971049975E+002	-1.3493159E+000	-3.207807107656663E+002	4.3283451E-001	-1.3491619E+000	0
4.2063661E+000	1.229327971009479E+002	-1.3509367E+000	-3.211647840256037E+002	4.3387327E-001	-1.3507645E+000	0
4.1994328E+000	1.230833970971435E+002	-1.3524343E+000	-3.220516565041944E+002	4.3555370E-001	-1.3522711E+000	0
4.1673627E+000	1.232536970928413E+002	-1.3541157E+000	-3.249335066665162E+002	4.3999758E-001	-1.3539736E+000	0
4.0837264E+000	1.234242970885316E+002	-1.3558589E+000	-3.320151241641761E+002	4.5016566E-001	-1.3556799E+000	0
4.0204825E+000	1.235746970847322E+002	-1.3573767E+000	-3.376153534192649E+002	4.5827121E-001	-1.3571838E+000	0
3.9280972E+000	1.237350970806801E+002	-1.3589665E+000	-3.459604891384060E+002	4.7014871E-001	-1.3587879E+000	0
3.8926599E+000	1.239052970763805E+002	-1.3606963E+000	-3.495543712572189E+002	4.7563735E-001	-1.3604900E+000	0
3.8855791E+000	1.240753970720834E+002	-1.3623534E+000	-3.506178680225921E+002	4.7766545E-001	-1.3621913E+000	0
3.9287524E+000	1.242654970672811E+002	-1.3642763E+000	-3.472543396245669E+002	4.7375086E-001	-1.3640921E+000	0
3.9692774E+000	1.244558970624712E+002	-1.3661563E+000	-3.441826245847687E+002	4.7020727E-001	-1.3659956E+000	0
3.9046383E+000	1.246366970579038E+002	-1.3679527E+000	-3.503404454800575E+002	4.7924915E-001	-1.3678037E+000	0
3.8853333E+000	1.247874970540943E+002	-1.3694782E+000	-3.524737981768822E+002	4.8270521E-001	-1.3693115E+000	0
3.8827670E+000	1.249577970497921E+002	-1.3712007E+000	-3.531503945261752E+002	4.8424006E-001	-1.3710151E+000	0
3.8102195E+000	1.251477970449923E+002	-1.3730277E+000	-3.603539619272806E+002	4.9477595E-001	-1.3729151E+000	0
3.7709105E+000	1.253477970399399E+002	-1.3751019E+000	-3.646604411001917E+002	5.0144529E-001	-1.3749152E+000	0
3.8044930E+000	1.255477970348875E+002	-1.3770565E+000	-3.619553218504198E+002	4.9843293E-001	-1.3769152E+000	0
3.7842028E+000	1.257477970298351E+002	-1.3791041E+000	-3.644371694469669E+002	5.0259680E-001	-1.3789153E+000	0
3.6541748E+000	1.259477970247826E+002	-1.3810645E+000	-3.779415629985942E+002	5.2196169E-001	-1.3809153E+000	0
3.4363244E+000	1.261477970197302E+002	-1.3831360E+000	-4.025045088921534E+002	5.5671847E-001	-1.3829153E+000	0
3.4296279E+000	1.263477970146778E+002	-1.3851000E+000	-4.038630543187646E+002	5.5939072E-001	-1.3849152E+000	0
3.4424257E+000	1.265477970096254E+002	-1.3871343E+000	-4.029525884381746E+002	5.5894935E-001	-1.3869153E+000	0
3.5210822E+000	1.267477970045729E+002	-1.3891245E+000	-3.945163634272121E+002	5.4803234E-001	-1.3889153E+000	0
3.3871777E+000	1.269477969995205E+002	-1.3911010E+000	-4.106962075611882E+002	5.7131988E-001	-1.3909153E+000	0
3.3095438E+000	1.271477969944681E+002	-1.3930506E+000	-4.209191868883670E+002	5.8636171E-001	-1.3929154E+000	0
3.3682506E+000	1.273477969894157E+002	-1.3951116E+000	-4.141947026371697E+002	5.7784784E-001	-1.3949152E+000	0
3.3305273E+000	1.275477969843632E+002	-1.3970746E+000	-4.194754844111912E+002	5.8603853E-001	-1.3969153E+000	0
3.1924484E+000	1.277477969793108E+002	-1.3990974E+000	-4.382521853068520E+002	6.1315751E-001	-1.3989153E+000	0
3.1541297E+000	1.279477969742584E+002	-1.4016302E+000	-4.443793777630171E+002	6.2285554E-001	-1.4009153E+000	0
3.2245352E+000	1.281477969692060E+002	-1.4036293E+000	-4.352966102894206E+002	6.1099505E-001	-1.4029154E+000	0
3.2374036E+000	1.283477969641535E+002	-1.4056495E+000	-4.341904034690256E+002	6.1031955E-001	-1.4049152E+000	0
3.1717134E+000	1.285477969591011E+002	-1.4076431E+000	-4.438115790014645E+002	6.2472832E-001	-1.4069153E+000	0
3.1301334E+000	1.287477969540487E+002	-1.4096295E+000	-4.503416672920698E+002	6.3481486E-001	-1.4089154E+000	0
3.1436338E+000	1.289477969489963E+002	-1.4116603E+000	-4.490536757099380E+002	6.3391125E-001	-1.4109153E+000	0
3.0885670E+000	1.291477969439438E+002	-1.4136274E+000	-4.576968352259421E+002	6.4701277E-001	-1.4129153E+000	0
3.0093236E+000	1.293477969388914E+002	-1.4156840E+000	-4.704326283374894E+002	6.6598392E-001	-1.4149152E+000	0
2.9382734E+000	1.295477969338390E+002	-1.4176586E+000	-4.824801508628834E+002	6.8399215E-001	-1.4169153E+000	0
2.9515612E+000	1.297477969287866E+002	-1.4196813E+000	-4.809933374582270E+002	6.8285728E-001	-1.4189154E+000	0
2.9848871E+000	1.299477969237341E+002	-1.4216306E+000	-4.762761706094889E+002	6.7708880E-001	-1.4209152E+000	0
3.0029371E+000	1.301477969186817E+002	-1.4236718E+000	-4.740931222184718E+002	6.7495304E-001	-1.4229151E+000	0
2.9879434E+000	1.303477969136293E+002	-1.4256967E+000	-4.771498394747712E+002	6.8027097E-001	-1.4249152E+000	0
2.9445851E+000	1.305477969085769E+002	-1.4277016E+000	-4.848566221466390E+002	6.9223058E-001	-1.4269153E+000	0
3.0110896E+000	1.307477969035244E+002	-1.4296873E+000	-4.748072788991069E+002	6.7882591E-001	-1.4289154E+000	0
3.0031047E+000	1.309477968984720E+002	-1.4316641E+000	-4.767279921551140E+002	6.8251437E-001	-1.4309152E+000	0
2.8336825E+000	1.311477968934196E+002	-1.4337200E+000	-5.059564816567878E+002	7.2539991E-001	-1.4329152E+000	0
2.7182860E+000	1.313477968883672E+002	-1.4357218E+000	-5.281717097959299E+002	7.5830764E-001	-1.4349152E+000	0
2.6809444E+000	1.315477968833147E+002	-1.4376993E+000	-5.362659968075527E+002	7.7098924E-001	-1.4369153E+000	0
2.6926076E+000	1.317477968782623E+002	-1.4396925E+000	-5.346833358989534E+002	7.6977956E-001	-1.4389154E+000	0
2.7178922E+000	1.319477968732099E+002	-1.4416866E+000	-5.304429323365060E+002	7.6473248E-001	-1.4409152E+000	0
2.7414217E+000	1.321477968681575E+002	-1.4436914E+000	-5.266213976801650E+002	7.6027876E-001	-1.4429152E+000	0
2.6150606E+000	1.323477968631050E+002	-1.4457320E+000	-5.528483856183855E+002	7.9927063E-001	-1.4449152E+000	0
2.6046152E+000	1.325477968580526E+002	-1.4477164E+000	-5.558273287662826E+002	8.0468029E-001	-1.4469153E+000	0
2.6437957E+000	1.327477968530002E+002	-1.4497180E+000	-5.483472284502993E+002	7.9494888E-001	-1.4489154E+000	0
2.6655900E+000	1.329477968479478E+002	-1.4516901E+000	-5.446036328815258E+002	7.9059571E-001	-1.4509152E+000	0
2.6415086E+000	1.331477968428953E+002	-1.4536960E+000	-5.503279363281872E+002	8.0000955E-001	-1.4529152E+000	0
2.6002374E+000	1.333477968378429E+002	-1.4557447E+000	-5.598507235953075E+002	8.1499976E-001	-1.4549153E+000	0
2.5307992E+000	1.335477968327905E+002	-1.4577326E+000	-5.759969381388619E+002	8.3964950E-001	-1.4569153E+000	0
2.4991853E+000	1.337477968277381E+002	-1.4597255E+000	-5.840805080007260E+002	8.5259724E-001	-1.4589152E+000	0
2.5196669E+000	1.339477968226856E+002	-1.4617690E+000	-5.801437506729790E+002	8.4803617E-001	-1.4609153E+000	0
2.5251694E+000	1.340977968188963E+002	-1.4632528E+000	-5.794671659080386E+002	8.4790695E-001	-1.4624150E+000	0
2.5066485E+000	1.341513968175423E+002	-1.4638144E+000	-5.839727244657629E+002	8.5482764E-001	-1.4630150E+000	1