EC-Lab ASCII FILE
Nb header lines : 63                          

Linear Sweep Voltammetry

Run on channel : 1 (SN 1340)
User : 
Electrode connection : standard
Potential control : Ewe
Ewe ctrl range : min = -5.00 V, max = 5.00 V
Ewe,I filtering : <None>
Safety Limits :
	Do not start on E overload
Channel : Floating
Acquisition started on : 02/19/2026 17:43:39.177
Technique started on : 02/19/2026 17:43:42.014
Loaded Setting File :  NONE
Saved on :
	File : Ni40_2_19_02_LSV_C01.mpr
	Directory : C:\Users\volt\Documents\Platalytix\
	Host : 127.0.0.1
Device : SP-200 (SN 0262)
Address : USB
EC-LAB for windows v11.60 (software)
Internet server v11.60 (firmware)
Command interpretor v11.60 (firmware)
Electrode material : Ni40
Initial state : 
Electrolyte : KOH (1M)
Comments : 
Cable : standard
Reference electrode : Hg/HgO (0.140 V)
Electrode surface area : 1.000 cm˛
Characteristic mass : 0.001 g
Equivalent Weight : 0.000 g/eq.
Density : 0.000 g/cm3
Volume (V) : 0.001 cmł
Cycle Definition : Charge/Discharge alternance
tR (h:m:s)          0:00:5.0000         
dER/dt (mV/h)       0.0                 
dER (mV)            0                   
dtR (s)             0.0000              
dE/dt               10.000              
dE/dt unit          mV/s                
Ei (V)              -0.200              
vs.                 Ref                 
EL (V)              -2.500              
vs.                 Ref                 
record              <I>                 
dI                  0.000               
unit dI             µA                  
tI (s)              0.0000              
step percent        50                  
N                   10                  
E range min (V)     -5.000              
E range max (V)     5.000               
I Range             Auto                
I Range min         Unset               
I Range max         Unset               
I Range init        Unset               
Bandwidth           8                   

Rwe/Ohm	time/s	Ewe/V	<I>/mA	Pwe/W	control/V	error	
0.0000000E+000	2.837400134740165E+000	-1.6341886E-001	0.000000000000000E+000	0.0000000E+000	0.0000000E+000	0
0.0000000E+000	7.837200008434593E+000	-4.4967934E-002	0.000000000000000E+000	0.0000000E+000	-1.9983816E-001	0
4.0539313E+004	8.037200003382168E+000	-2.0181346E-001	-4.978215895243922E-003	1.0046709E-006	-2.0173794E-001	0
1.5956681E+003	8.157200000350713E+000	-2.0297164E-001	-1.272016602658608E-001	2.5818330E-005	-2.0293801E-001	0
1.6150918E+003	8.367199995045667E+000	-2.0507038E-001	-1.269713442333353E-001	2.6038062E-005	-2.0503797E-001	0
1.7601611E+003	8.567199989993242E+000	-2.0705861E-001	-1.176361702350888E-001	2.4357581E-005	-2.0703799E-001	0
1.8932820E+003	8.767199984940817E+000	-2.0906039E-001	-1.104222136251880E-001	2.3084911E-005	-2.0903800E-001	0
2.0152150E+003	8.967199979888392E+000	-2.1108703E-001	-1.047466564986883E-001	2.2110660E-005	-2.1103798E-001	0
2.1269304E+003	9.167199974835967E+000	-2.1306166E-001	-1.001733130555760E-001	2.1343092E-005	-2.1303798E-001	0
2.2305793E+003	9.367199969783542E+000	-2.1509738E-001	-9.643117643685817E-002	2.0742094E-005	-2.1503802E-001	0
2.3243730E+003	9.567199964731117E+000	-2.1707965E-001	-9.339277403927532E-002	2.0273672E-005	-2.1703798E-001	0
2.4106038E+003	9.767199959678692E+000	-2.1904413E-001	-9.086691877116237E-002	1.9903866E-005	-2.1903798E-001	0
2.4958638E+003	9.967199954626267E+000	-2.2107628E-001	-8.857705922641079E-002	1.9582287E-005	-2.2103801E-001	0
2.5757786E+003	1.016719994957384E+001	-2.2304411E-001	-8.659289274871540E-002	1.9314035E-005	-2.2303799E-001	0
2.6539990E+003	1.036719994452142E+001	-2.2509004E-001	-8.481165096100390E-002	1.9090257E-005	-2.2503799E-001	0
2.7324109E+003	1.056719993946899E+001	-2.2709440E-001	-8.311136617576542E-002	1.8874125E-005	-2.2703800E-001	0
2.8046326E+003	1.076719993441657E+001	-2.2908941E-001	-8.168250505385899E-002	1.8712597E-005	-2.2903799E-001	0
2.8757551E+003	1.096719992936414E+001	-2.3107636E-001	-8.035328230649527E-002	1.8567744E-005	-2.3103799E-001	0
2.9446077E+003	1.116719992431172E+001	-2.3308177E-001	-7.915546045619606E-002	1.8449695E-005	-2.3303799E-001	0
3.0154277E+003	1.136719991925929E+001	-2.3512070E-001	-7.797258308309379E-002	1.8332968E-005	-2.3503800E-001	0
3.0807573E+003	1.156719991420687E+001	-2.3707983E-001	-7.695504972054446E-002	1.8244489E-005	-2.3703799E-001	0
3.1488538E+003	1.176719990915444E+001	-2.3909162E-001	-7.592972965600575E-002	1.8154162E-005	-2.3903801E-001	0
3.2143718E+003	1.196719990410202E+001	-2.4110553E-001	-7.500860011764687E-002	1.8084987E-005	-2.4103798E-001	0
3.2813438E+003	1.216719989904959E+001	-2.4312130E-001	-7.409199263769584E-002	1.8013341E-005	-2.4303798E-001	0
3.3438096E+003	1.236719989399717E+001	-2.4509554E-001	-7.329829267538712E-002	1.7965085E-005	-2.4503800E-001	0
3.4070239E+003	1.256719988894474E+001	-2.4713831E-001	-7.253788201911315E-002	1.7926890E-005	-2.4703796E-001	0
3.4701938E+003	1.276719988389232E+001	-2.4913774E-001	-7.179360928556677E-002	1.7886498E-005	-2.4903800E-001	0
3.5324004E+003	1.296719987883989E+001	-2.5113425E-001	-7.109450008836316E-002	1.7854263E-005	-2.5103799E-001	0
3.5951123E+003	1.316719987378747E+001	-2.5306600E-001	-7.039168458474186E-002	1.7813742E-005	-2.5303799E-001	0
3.6527410E+003	1.336719986873504E+001	-2.5509581E-001	-6.983681747799632E-002	1.7815080E-005	-2.5503799E-001	0
3.7145259E+003	1.356719986368262E+001	-2.5708592E-001	-6.921096342191313E-002	1.7793163E-005	-2.5703800E-001	0
3.7774216E+003	1.376719985863019E+001	-2.5904381E-001	-6.857688612538992E-002	1.7764418E-005	-2.5903797E-001	0
3.8388040E+003	1.396719985357777E+001	-2.6105496E-001	-6.800424551819351E-002	1.7752845E-005	-2.6103798E-001	0
3.8964617E+003	1.416719984852534E+001	-2.6307881E-001	-6.751736201126296E-002	1.7762388E-005	-2.6303801E-001	0
3.9549863E+003	1.436719984347292E+001	-2.6510480E-001	-6.703052437724866E-002	1.7770113E-005	-2.6503798E-001	0
4.0182034E+003	1.456719983842049E+001	-2.6709452E-001	-6.647112933114249E-002	1.7754075E-005	-2.6703802E-001	0
4.0749495E+003	1.476719983336807E+001	-2.6907340E-001	-6.603109887737785E-002	1.7767212E-005	-2.6903799E-001	0
4.1316465E+003	1.496719982831564E+001	-2.7107391E-001	-6.560917322834314E-002	1.7784934E-005	-2.7103800E-001	0
4.1917266E+003	1.516719982326322E+001	-2.7307594E-001	-6.514640993548493E-002	1.7789916E-005	-2.7303797E-001	0
4.2545225E+003	1.536719981821079E+001	-2.7509171E-001	-6.465865802727311E-002	1.7787061E-005	-2.7503800E-001	0
4.3108066E+003	1.556719981315837E+001	-2.7706829E-001	-6.427295455157878E-002	1.7807997E-005	-2.7703798E-001	0
4.3746392E+003	1.576719980810594E+001	-2.7907178E-001	-6.379310001488200E-002	1.7802853E-005	-2.7903798E-001	0
4.4250581E+003	1.596719980305352E+001	-2.8104597E-001	-6.351237943239707E-002	1.7849898E-005	-2.8103799E-001	0
4.4877471E+003	1.616719979800109E+001	-2.8308409E-001	-6.307933275279520E-002	1.7856755E-005	-2.8303799E-001	0
4.5402158E+003	1.636719979294867E+001	-2.8509310E-001	-6.279285196711204E-002	1.7901808E-005	-2.8503799E-001	0
4.5923101E+003	1.656719978789624E+001	-2.8702742E-001	-6.250175039490868E-002	1.7939716E-005	-2.8703800E-001	0
4.6543677E+003	1.676719978284382E+001	-2.8913340E-001	-6.212087510926589E-002	1.7961220E-005	-2.8903797E-001	0
4.7100654E+003	1.696719977779139E+001	-2.9111525E-001	-6.180705353849958E-002	1.7992976E-005	-2.9103801E-001	0
4.7675684E+003	1.716719977273897E+001	-2.9307756E-001	-6.147317413732711E-002	1.8016408E-005	-2.9303798E-001	0
4.8213374E+003	1.736719976768654E+001	-2.9509041E-001	-6.120509189150186E-002	1.8061035E-005	-2.9503798E-001	0
4.8790874E+003	1.756719976263412E+001	-2.9711661E-001	-6.089593580809949E-002	1.8093195E-005	-2.9703799E-001	0
4.9342979E+003	1.776719975758169E+001	-2.9909611E-001	-6.061574008290460E-002	1.8129931E-005	-2.9903799E-001	0
4.9927676E+003	1.796719975252927E+001	-3.0106673E-001	-6.030056703848397E-002	1.8154495E-005	-3.0103800E-001	0
5.0528672E+003	1.816719974747684E+001	-3.0305409E-001	-5.997665999393886E-002	1.8176172E-005	-3.0303800E-001	0
5.1074893E+003	1.836719974242442E+001	-3.0507797E-001	-5.973149385712956E-002	1.8222763E-005	-3.0503801E-001	0
5.1616187E+003	1.856719973737199E+001	-3.0707338E-001	-5.949168122012405E-002	1.8268312E-005	-3.0703798E-001	0
5.2125283E+003	1.876719973231957E+001	-3.0906993E-001	-5.929366851810483E-002	1.8325891E-005	-3.0903798E-001	0
5.2691323E+003	1.896719972726714E+001	-3.1109229E-001	-5.904051343500688E-002	1.8367049E-005	-3.1103802E-001	0
5.3203354E+003	1.916719972221472E+001	-3.1309453E-001	-5.884864301338399E-002	1.8425188E-005	-3.1303799E-001	0
5.3797471E+003	1.936719971716229E+001	-3.1507787E-001	-5.856741588909054E-002	1.8453296E-005	-3.1503800E-001	0
5.4314849E+003	1.956719971210987E+001	-3.1705478E-001	-5.837349790779889E-002	1.8507597E-005	-3.1703800E-001	0
5.4814131E+003	1.976719970705744E+001	-3.1909034E-001	-5.821315039270258E-002	1.8575254E-005	-3.1903800E-001	0
5.5398652E+003	1.996719970200502E+001	-3.2106557E-001	-5.795548311666998E-002	1.8607510E-005	-3.2103801E-001	0
5.5920361E+003	2.016719969695259E+001	-3.2304597E-001	-5.776893245235781E-002	1.8662020E-005	-3.2303801E-001	0
5.6565068E+003	2.036719969190017E+001	-3.2504138E-001	-5.746327175298394E-002	1.8677942E-005	-3.2503802E-001	0
5.7053403E+003	2.056719968684774E+001	-3.2707039E-001	-5.732706043596836E-002	1.8749985E-005	-3.2703802E-001	0
5.7597422E+003	2.076719968179532E+001	-3.2904902E-001	-5.712912524701880E-002	1.8798282E-005	-3.2903799E-001	0
5.8120664E+003	2.096719967674289E+001	-3.3107144E-001	-5.696277530143745E-002	1.8858747E-005	-3.3103797E-001	0
5.8634897E+003	2.116719967169047E+001	-3.3306450E-001	-5.680311586741604E-002	1.8919101E-005	-3.3303800E-001	0
5.9146733E+003	2.136719966663804E+001	-3.3508438E-001	-5.665306770981890E-002	1.8983557E-005	-3.3503798E-001	0
5.9633613E+003	2.156719966158562E+001	-3.3707237E-001	-5.652388703192068E-002	1.9052641E-005	-3.3703798E-001	0
6.0114214E+003	2.176719965653319E+001	-3.3907035E-001	-5.640435516950404E-002	1.9125044E-005	-3.3903798E-001	0
6.0663784E+003	2.196719965148077E+001	-3.4104967E-001	-5.621965210082296E-002	1.9173694E-005	-3.4103799E-001	0
6.1138423E+003	2.216719964642834E+001	-3.4308881E-001	-5.611672655831337E-002	1.9253021E-005	-3.4303799E-001	0
6.1639214E+003	2.236719964137592E+001	-3.4506810E-001	-5.598191227267613E-002	1.9317571E-005	-3.4503800E-001	0
6.2174731E+003	2.256719963632349E+001	-3.4704506E-001	-5.581770138762263E-002	1.9371259E-005	-3.4703803E-001	0
6.2640469E+003	2.276719963127107E+001	-3.4909421E-001	-5.572982131537307E-002	1.9454958E-005	-3.4903800E-001	0
6.3236646E+003	2.296719962621864E+001	-3.5103488E-001	-5.551130499304291E-002	1.9486404E-005	-3.5103804E-001	0
6.3830122E+003	2.316719962116622E+001	-3.5308594E-001	-5.531650469976296E-002	1.9531481E-005	-3.5303801E-001	0
6.4270313E+003	2.336719961611379E+001	-3.5509363E-001	-5.525002215910771E-002	1.9618930E-005	-3.5503799E-001	0
6.4739165E+003	2.356719961106137E+001	-3.5708401E-001	-5.515733690216468E-002	1.9695803E-005	-3.5703802E-001	0
6.5141973E+003	2.376719960600894E+001	-3.5908622E-001	-5.512363245381291E-002	1.9794137E-005	-3.5903800E-001	0
6.5597446E+003	2.396719960095652E+001	-3.6104515E-001	-5.503951424475143E-002	1.9871750E-005	-3.6103800E-001	0
6.6054077E+003	2.416719959590409E+001	-3.6304522E-001	-5.496181765742314E-002	1.9953624E-005	-3.6303800E-001	0
6.6459385E+003	2.436719959085167E+001	-3.6508036E-001	-5.493285167326648E-002	2.0054906E-005	-3.6503801E-001	0
6.6887759E+003	2.456719958579924E+001	-3.6707917E-001	-5.487987306496944E-002	2.0145259E-005	-3.6703801E-001	0
6.7413794E+003	2.476719958074682E+001	-3.6907443E-001	-5.474761387284688E-002	2.0205945E-005	-3.6903802E-001	0
6.7792705E+003	2.496719957569439E+001	-3.7110442E-001	-5.474105663861539E-002	2.0314648E-005	-3.7103799E-001	0
6.8157285E+003	2.516719957064197E+001	-3.7306443E-001	-5.473581164581143E-002	2.0419984E-005	-3.7303796E-001	0
6.8567588E+003	2.536719956558954E+001	-3.7506834E-001	-5.470052817699128E-002	2.0516436E-005	-3.7503800E-001	0
6.8997700E+003	2.556719956053712E+001	-3.7706846E-001	-5.464942263631478E-002	2.0606574E-005	-3.7703800E-001	0
6.9453379E+003	2.576719955548469E+001	-3.7907428E-001	-5.457967370400074E-002	2.0689749E-005	-3.7903801E-001	0
6.9770049E+003	2.596719955043227E+001	-3.8105845E-001	-5.461633804226773E-002	2.0812018E-005	-3.8103801E-001	0
7.0194204E+003	2.616719954537984E+001	-3.8305938E-001	-5.457136883556657E-002	2.0904075E-005	-3.8303801E-001	0
7.0558379E+003	2.636719954032742E+001	-3.8504803E-001	-5.457155302519612E-002	2.1012669E-005	-3.8503802E-001	0
7.0939214E+003	2.656719953527499E+001	-3.8705301E-001	-5.456122105187255E-002	2.1118085E-005	-3.8703799E-001	0
7.1225483E+003	2.676719953022257E+001	-3.8908491E-001	-5.462720431123480E-002	2.1254620E-005	-3.8903803E-001	0
7.1611138E+003	2.696719952517014E+001	-3.9110613E-001	-5.461526350456120E-002	2.1360363E-005	-3.9103800E-001	0
7.1967358E+003	2.716719952011772E+001	-3.9306635E-001	-5.461731057533836E-002	2.1468226E-005	-3.9303803E-001	0
7.2251279E+003	2.736719951506529E+001	-3.9508173E-001	-5.468162545372562E-002	2.1603712E-005	-3.9503801E-001	0
7.2645840E+003	2.756719951001287E+001	-3.9708009E-001	-5.465971367315425E-002	2.1704283E-005	-3.9703798E-001	0
7.2963682E+003	2.776719950496044E+001	-3.9900738E-001	-5.468575117207841E-002	2.1820018E-005	-3.9903802E-001	0
7.3291768E+003	2.796719949990802E+001	-4.0104508E-001	-5.471897958629995E-002	2.1944777E-005	-4.0103805E-001	0
7.3581221E+003	2.816719949485559E+001	-4.0306550E-001	-5.477831245435938E-002	2.2079248E-005	-4.0303802E-001	0
7.3865273E+003	2.836719948980317E+001	-4.0507156E-001	-5.483924281622909E-002	2.2213817E-005	-4.0503803E-001	0
7.4162461E+003	2.856719948475074E+001	-4.0711072E-001	-5.489444587688008E-002	2.2348117E-005	-4.0703803E-001	0
7.4426870E+003	2.876719947969832E+001	-4.0908003E-001	-5.496402324204785E-002	2.2484684E-005	-4.0903804E-001	0
7.4601929E+003	2.896719947464590E+001	-4.1106108E-001	-5.510059554212221E-002	2.2649710E-005	-4.1103801E-001	0
7.4855908E+003	2.916719946959347E+001	-4.1311759E-001	-5.518837434201673E-002	2.2799288E-005	-4.1303799E-001	0
7.5116621E+003	2.936719946454105E+001	-4.1513744E-001	-5.526572344043323E-002	2.2942872E-005	-4.1503802E-001	0
7.4706387E+003	2.956719945948862E+001	-4.1713560E-001	-5.583667316233260E-002	2.3291464E-005	-4.1703805E-001	0
7.4981226E+003	2.976719945443620E+001	-4.1911155E-001	-5.589553235149403E-002	2.3426463E-005	-4.1903803E-001	0
7.4360313E+003	2.996719944938377E+001	-4.2108595E-001	-5.662778187690964E-002	2.3845163E-005	-4.2103800E-001	0
7.4651685E+003	3.016719944433135E+001	-4.2310348E-001	-5.667701905779121E-002	2.3980245E-005	-4.2303804E-001	0
7.5092954E+003	3.036719943927892E+001	-4.2510864E-001	-5.661098848418056E-002	2.4065821E-005	-4.2503798E-001	0
7.5074492E+003	3.056719943422650E+001	-4.2711341E-001	-5.689194979084866E-002	2.4299316E-005	-4.2703801E-001	0
7.5345366E+003	3.076719942917407E+001	-4.2910182E-001	-5.695132280714710E-002	2.4437917E-005	-4.2903805E-001	0
7.5779248E+003	3.096719942412165E+001	-4.3114373E-001	-5.689469575163963E-002	2.4529791E-005	-4.3103802E-001	0
7.6091211E+003	3.116719941906922E+001	-4.3310460E-001	-5.691913652440750E-002	2.4651939E-005	-4.3303800E-001	0
7.6416206E+003	3.136719941401680E+001	-4.3511510E-001	-5.694015905136451E-002	2.4775523E-005	-4.3503803E-001	0
7.6707251E+003	3.156719940896437E+001	-4.3712071E-001	-5.698557906782006E-002	2.4909577E-005	-4.3703806E-001	0
7.7074302E+003	3.176719940391195E+001	-4.3912509E-001	-5.697425617150076E-002	2.5018826E-005	-4.3903801E-001	0
7.7283647E+003	3.196719939885952E+001	-4.4115573E-001	-5.708267456480220E-002	2.5182349E-005	-4.4103801E-001	0
7.7537671E+003	3.216719939380710E+001	-4.4311503E-001	-5.714835466652302E-002	2.5323294E-005	-4.4303805E-001	0
7.7788081E+003	3.236719938875467E+001	-4.4515717E-001	-5.722691352075793E-002	2.5474970E-005	-4.4503799E-001	0
7.8031880E+003	3.256719938370225E+001	-4.4711849E-001	-5.729946587498724E-002	2.5619651E-005	-4.4703802E-001	0
7.8286553E+003	3.276719937864982E+001	-4.4911790E-001	-5.736845925391210E-002	2.5765203E-005	-4.4903803E-001	0
7.8526025E+003	3.296719937359740E+001	-4.5112827E-001	-5.744952305965539E-002	2.5917105E-005	-4.5103806E-001	0
7.8780332E+003	3.316719936854497E+001	-4.5308566E-001	-5.751253634030237E-002	2.6058106E-005	-4.5303801E-001	0
7.8997979E+003	3.336719936349255E+001	-4.5513159E-001	-5.761306828876245E-002	2.6221527E-005	-4.5503804E-001	0
7.9137476E+003	3.356719935844012E+001	-4.5713177E-001	-5.776426006613267E-002	2.6405878E-005	-4.5703807E-001	0
7.9463047E+003	3.376719935338770E+001	-4.5910382E-001	-5.777576415643249E-002	2.6525075E-005	-4.5903802E-001	0
7.9650889E+003	3.396719934833527E+001	-4.6112910E-001	-5.789378004216167E-002	2.6696507E-005	-4.6103802E-001	0
7.9892827E+003	3.416719934328285E+001	-4.6315512E-001	-5.797205442539449E-002	2.6850053E-005	-4.6303803E-001	0
8.0006216E+003	3.436719933823042E+001	-4.6511850E-001	-5.813529522183547E-002	2.7039801E-005	-4.6503803E-001	0
8.0356260E+003	3.456719933317800E+001	-4.6712521E-001	-5.813177741795805E-002	2.7154818E-005	-4.6703798E-001	0
8.0512290E+003	3.476719932812557E+001	-4.6910113E-001	-5.826453587131097E-002	2.7331960E-005	-4.6903804E-001	0
8.0712690E+003	3.496719932307315E+001	-4.7112942E-001	-5.837117162978694E-002	2.7500377E-005	-4.7103804E-001	0
8.0928042E+003	3.516719931802072E+001	-4.7310391E-001	-5.845982365177116E-002	2.7657572E-005	-4.7303802E-001	0
8.1150986E+003	3.536719931296830E+001	-4.7510254E-001	-5.854550349027685E-002	2.7815118E-005	-4.7503799E-001	0
8.1369507E+003	3.556719930791587E+001	-4.7713017E-001	-5.863746512330648E-002	2.7977703E-005	-4.7703803E-001	0
8.1608027E+003	3.576719930286345E+001	-4.7915444E-001	-5.871413101002876E-002	2.8133136E-005	-4.7903800E-001	0
8.1905933E+003	3.596719929781102E+001	-4.8114166E-001	-5.874320092165405E-002	2.8263801E-005	-4.8103800E-001	0
8.2103125E+003	3.616719929275860E+001	-4.8310608E-001	-5.884137618262530E-002	2.8426626E-005	-4.8303804E-001	0
8.2220654E+003	3.636719928770617E+001	-4.8505455E-001	-5.899424734736558E-002	2.8615428E-005	-4.8503804E-001	0
8.2536514E+003	3.656719928265375E+001	-4.8707575E-001	-5.901336462380535E-002	2.8743978E-005	-4.8703799E-001	0
8.2847578E+003	3.676719927760132E+001	-4.8916849E-001	-5.904438999922879E-002	2.8882656E-005	-4.8903802E-001	0
8.3122354E+003	3.696719927254890E+001	-4.9113300E-001	-5.908554955702394E-002	2.9018864E-005	-4.9103805E-001	0
8.3283984E+003	3.716719926749647E+001	-4.9309954E-001	-5.920700891663566E-002	2.9194949E-005	-4.9303800E-001	0
8.3663994E+003	3.736719926244405E+001	-4.9509564E-001	-5.917666611407413E-002	2.9298109E-005	-4.9503800E-001	0
8.3845664E+003	3.756719925739162E+001	-4.9712288E-001	-5.929023278940515E-002	2.9474531E-005	-4.9703804E-001	0
8.4235176E+003	3.776719925233920E+001	-4.9914187E-001	-5.925575085565060E-002	2.9577026E-005	-4.9903807E-001	0
8.4554775E+003	3.796719924728677E+001	-5.0109953E-001	-5.926330600729990E-002	2.9696814E-005	-5.0103796E-001	0
8.4793076E+003	3.816719924223435E+001	-5.0311452E-001	-5.933438738398311E-002	2.9851992E-005	-5.0303799E-001	0
8.5157334E+003	3.836719923718192E+001	-5.0512159E-001	-5.931627832441799E-002	2.9961933E-005	-5.0503802E-001	0
8.5453262E+003	3.856719923212950E+001	-5.0709867E-001	-5.934222733080285E-002	3.0092366E-005	-5.0703800E-001	0
8.5846377E+003	3.876719922707707E+001	-5.0910395E-001	-5.930407077935684E-002	3.0191937E-005	-5.0903803E-001	0
8.6124707E+003	3.896719922202465E+001	-5.1110858E-001	-5.934517231374969E-002	3.0331827E-005	-5.1103801E-001	0
8.6523398E+003	3.916719921697222E+001	-5.1309061E-001	-5.930079119712894E-002	3.0426680E-005	-5.1303804E-001	0
8.6774082E+003	3.936719921191980E+001	-5.1511168E-001	-5.936238648266434E-002	3.0578260E-005	-5.1503801E-001	0
8.7134648E+003	3.956719920686737E+001	-5.1705283E-001	-5.933952150663657E-002	3.0681669E-005	-5.1703805E-001	0
8.7441680E+003	3.976719920181495E+001	-5.1911360E-001	-5.936683858259095E-002	3.0818133E-005	-5.1903802E-001	0
8.7952842E+003	3.996719919676252E+001	-5.2111030E-001	-5.924882741894163E-002	3.0875173E-005	-5.2103800E-001	0
8.8202803E+003	4.016719919171010E+001	-5.2308583E-001	-5.930489773097580E-002	3.1021551E-005	-5.2303803E-001	0
8.8539824E+003	4.036719918665767E+001	-5.2512753E-001	-5.930975756487555E-002	3.1145188E-005	-5.2503806E-001	0
8.8833682E+003	4.056719918160525E+001	-5.2712464E-001	-5.933837347311266E-002	3.1278720E-005	-5.2703804E-001	0
8.9215586E+003	4.076719917655282E+001	-5.2909887E-001	-5.930565517868791E-002	3.1378557E-005	-5.2903801E-001	0
8.9716592E+003	4.096719917150040E+001	-5.3112614E-001	-5.920043695916555E-002	3.1442898E-005	-5.3103805E-001	0
9.0181221E+003	4.116719916644797E+001	-5.3311855E-001	-5.911635661121817E-002	3.1516025E-005	-5.3303808E-001	0
9.0633633E+003	4.136719916139555E+001	-5.3510636E-001	-5.904059321883526E-002	3.1592997E-005	-5.3503799E-001	0
9.1072881E+003	4.156719915634312E+001	-5.3710121E-001	-5.897487937990165E-002	3.1675478E-005	-5.3703797E-001	0
9.1604199E+003	4.176719915129070E+001	-5.3906375E-001	-5.884705582800454E-002	3.1722313E-005	-5.3903806E-001	0
9.2030762E+003	4.196719914623827E+001	-5.4114342E-001	-5.880027890201145E-002	3.1819385E-005	-5.4103798E-001	0
9.2500439E+003	4.216719914118585E+001	-5.4310489E-001	-5.871376215085378E-002	3.1887732E-005	-5.4303801E-001	0
9.2981006E+003	4.236719913613342E+001	-5.4511648E-001	-5.862664887544311E-002	3.1958352E-005	-5.4503804E-001	0
9.3589092E+003	4.256719913108100E+001	-5.4715085E-001	-5.846309971830932E-002	3.1988136E-005	-5.4703808E-001	0
9.3889521E+003	4.276719912602857E+001	-5.4910392E-001	-5.848404943474184E-002	3.2113821E-005	-5.4903799E-001	0
9.4525293E+003	4.296719912097615E+001	-5.5111355E-001	-5.830328668364204E-002	3.2131731E-005	-5.5103803E-001	0
9.5086875E+003	4.316719911592372E+001	-5.5309922E-001	-5.816777617155311E-002	3.2172553E-005	-5.5303806E-001	0
9.5467012E+003	4.336719911087130E+001	-5.5508488E-001	-5.814415752273172E-002	3.2274944E-005	-5.5503803E-001	0
9.5966162E+003	4.356719910581887E+001	-5.5713189E-001	-5.805503251400612E-002	3.2344309E-005	-5.5703801E-001	0
9.6484512E+003	4.376719910076645E+001	-5.5914778E-001	-5.795207624313090E-002	3.2403776E-005	-5.5903804E-001	0
9.7079219E+003	4.396719909571402E+001	-5.6111771E-001	-5.779998476274917E-002	3.2432596E-005	-5.6103808E-001	0
9.7667119E+003	4.416719909066160E+001	-5.6313413E-001	-5.765851844068393E-002	3.2469481E-005	-5.6303805E-001	0
9.8088613E+003	4.436719908560917E+001	-5.6514269E-001	-5.761552738583320E-002	3.2560994E-005	-5.6503803E-001	0
9.8710146E+003	4.456719908055675E+001	-5.6710523E-001	-5.745156379596106E-002	3.2581083E-005	-5.6703806E-001	0
9.9158027E+003	4.476719907550432E+001	-5.6911194E-001	-5.739443899763730E-002	3.2663862E-005	-5.6903809E-001	0
9.9780020E+003	4.496719907045190E+001	-5.7111162E-001	-5.723707366506649E-002	3.2688757E-005	-5.7103801E-001	0
1.0031828E+004	4.516719906539947E+001	-5.7306927E-001	-5.712511002290949E-002	3.2736647E-005	-5.7303804E-001	0
1.0090033E+004	4.536719906034705E+001	-5.7510799E-001	-5.699763307559025E-002	3.2779793E-005	-5.7503802E-001	0
1.0150732E+004	4.556719905529462E+001	-5.7708049E-001	-5.685111664208164E-002	3.2807671E-005	-5.7703799E-001	0
1.0208517E+004	4.576719905024220E+001	-5.7910162E-001	-5.672730115620322E-002	3.2850872E-005	-5.7903802E-001	0
1.0265379E+004	4.596719904518977E+001	-5.8107305E-001	-5.660512483606950E-002	3.2891712E-005	-5.8103806E-001	0
1.0327842E+004	4.616719904013735E+001	-5.8311057E-001	-5.646005849715097E-002	3.2922457E-005	-5.8303803E-001	0
1.0398412E+004	4.636719903508492E+001	-5.8510602E-001	-5.626878294145554E-002	3.2923203E-005	-5.8503801E-001	0
1.0440916E+004	4.656719903003250E+001	-5.8704054E-001	-5.622500390164942E-002	3.3006356E-005	-5.8703804E-001	0
1.0501234E+004	4.676719902498007E+001	-5.8911753E-001	-5.609983833329268E-002	3.3049397E-005	-5.8903807E-001	0
1.0571418E+004	4.696719901992765E+001	-5.9107542E-001	-5.591259657800252E-002	3.3048560E-005	-5.9103799E-001	0
1.0619028E+004	4.716719901487522E+001	-5.9305471E-001	-5.584830225787485E-002	3.3121098E-005	-5.9303802E-001	0
1.0687838E+004	4.736719900982280E+001	-5.9511089E-001	-5.568112861713531E-002	3.3136446E-005	-5.9503806E-001	0
1.0748817E+004	4.756719900477037E+001	-5.9706706E-001	-5.554723382247458E-002	3.3165423E-005	-5.9703803E-001	0
1.0804158E+004	4.776719899971795E+001	-5.9904301E-001	-5.544560018698789E-002	3.3214299E-005	-5.9903806E-001	0
1.0867010E+004	4.796719899466552E+001	-6.0111350E-001	-5.531544472532302E-002	3.3250861E-005	-6.0103804E-001	0
1.0933127E+004	4.816719898961310E+001	-6.0308141E-001	-5.516092406581591E-002	3.3266526E-005	-6.0303807E-001	0
1.0994411E+004	4.836719898456067E+001	-6.0509336E-001	-5.503644930069984E-002	3.3302189E-005	-6.0503799E-001	0
1.1058813E+004	4.856719897950825E+001	-6.0711896E-001	-5.489910486927191E-002	3.3330289E-005	-6.0703802E-001	0
1.1135558E+004	4.876719897445582E+001	-6.0910034E-001	-5.469868258655458E-002	3.3316985E-005	-6.0903805E-001	0
1.1187056E+004	4.896719896940340E+001	-6.1109960E-001	-5.462559690179469E-002	3.3381679E-005	-6.1103797E-001	0
1.1241573E+004	4.916719896435097E+001	-6.1310476E-001	-5.453905452659481E-002	3.3438155E-005	-6.1303806E-001	0
1.1290870E+004	4.936719895929855E+001	-6.1511356E-001	-5.447884536582692E-002	3.3510678E-005	-6.1503810E-001	0
1.1367780E+004	4.956719895424612E+001	-6.1715490E-001	-5.428983238599600E-002	3.3505235E-005	-6.1703801E-001	0
1.1414126E+004	4.976719894919370E+001	-6.1916220E-001	-5.424525814612402E-002	3.3586613E-005	-6.1903799E-001	0
1.1479497E+004	4.996719894414127E+001	-6.2114662E-001	-5.410922012532587E-002	3.3609758E-005	-6.2103802E-001	0
1.1545158E+004	5.016719893908885E+001	-6.2311059E-001	-5.397159213837988E-002	3.3630269E-005	-6.2303811E-001	0
1.1606318E+004	5.036719893403642E+001	-6.2511182E-001	-5.385961162471231E-002	3.3668279E-005	-6.2503803E-001	0
1.1662130E+004	5.056719892898400E+001	-6.2716031E-001	-5.377751107638074E-002	3.3727119E-005	-6.2703800E-001	0
1.1723881E+004	5.076719892393157E+001	-6.2913108E-001	-5.366235603990191E-002	3.3760654E-005	-6.2903810E-001	0
1.1773391E+004	5.096719891887915E+001	-6.3114345E-001	-5.360761862364338E-002	3.3834098E-005	-6.3103801E-001	0
1.1834448E+004	5.116719891382672E+001	-6.3314033E-001	-5.349977444244935E-002	3.3872864E-005	-6.3303804E-001	0
1.1894205E+004	5.136719890877430E+001	-6.3510150E-001	-5.339587594978013E-002	3.3911801E-005	-6.3503802E-001	0
1.1938917E+004	5.156719890372187E+001	-6.3708967E-001	-5.336243267299906E-002	3.3996654E-005	-6.3703811E-001	0
1.2004535E+004	5.176719889866945E+001	-6.3914388E-001	-5.324186967282474E-002	3.4029214E-005	-6.3903803E-001	0
1.2049484E+004	5.196719889361702E+001	-6.4114863E-001	-5.320962969595971E-002	3.4115281E-005	-6.4103800E-001	0
1.2112459E+004	5.216719888856460E+001	-6.4312923E-001	-5.309650589143861E-002	3.4147914E-005	-6.4303809E-001	0
1.2176396E+004	5.236719888351217E+001	-6.4514649E-001	-5.298336582150616E-002	3.4182034E-005	-6.4503801E-001	0
1.2226098E+004	5.256719887845975E+001	-6.4712387E-001	-5.292971650731948E-002	3.4252083E-005	-6.4703798E-001	0
1.2284218E+004	5.276719887340732E+001	-6.4915937E-001	-5.284498873760213E-002	3.4304820E-005	-6.4903808E-001	0
1.2341473E+004	5.296719886835490E+001	-6.5115339E-001	-5.276139960793236E-002	3.4355762E-005	-6.5103799E-001	0
1.2405033E+004	5.316719886330247E+001	-6.5311873E-001	-5.264949424365473E-002	3.4386372E-005	-6.5303802E-001	0
1.2456606E+004	5.336719885825005E+001	-6.5511495E-001	-5.259176932355536E-002	3.4453653E-005	-6.5503800E-001	0
1.2510616E+004	5.356719885319762E+001	-6.5713352E-001	-5.252607075905086E-002	3.4516641E-005	-6.5703809E-001	0
1.2549533E+004	5.376719884814520E+001	-6.5911752E-001	-5.252127634792181E-002	3.4617693E-005	-6.5903807E-001	0
1.2594000E+004	5.396719884309277E+001	-6.6112506E-001	-5.249523913040099E-002	3.4705918E-005	-6.6103798E-001	0
1.2669457E+004	5.416719883804035E+001	-6.6313255E-001	-5.234103898154585E-002	3.4709046E-005	-6.6303807E-001	0
1.2709203E+004	5.436719883298792E+001	-6.6512966E-001	-5.233449126486067E-002	3.4809222E-005	-6.6503799E-001	0
1.2761853E+004	5.456719882793550E+001	-6.6713083E-001	-5.227539216035160E-002	3.4874527E-005	-6.6703802E-001	0
1.2803393E+004	5.476719882288307E+001	-6.6912270E-001	-5.226135752881855E-002	3.4969260E-005	-6.6903800E-001	0
1.2854766E+004	5.496719881783065E+001	-6.7114353E-001	-5.220970693266103E-002	3.5040208E-005	-6.7103803E-001	0
1.2905672E+004	5.516719881277822E+001	-6.7308480E-001	-5.215418493573698E-002	3.5104189E-005	-6.7303807E-001	0
1.2955868E+004	5.536719880772580E+001	-6.7509383E-001	-5.210718681640902E-002	3.5177240E-005	-6.7503804E-001	0
1.2998898E+004	5.556719880267337E+001	-6.7714542E-001	-5.209252223437895E-002	3.5274214E-005	-6.7703807E-001	0
1.3067051E+004	5.576719879762095E+001	-6.7909575E-001	-5.197008688144297E-002	3.5292665E-005	-6.7903805E-001	0
1.3084787E+004	5.596719879256852E+001	-6.8112564E-001	-5.205477312863999E-002	3.5455840E-005	-6.8103796E-001	0
1.3131090E+004	5.616719878751610E+001	-6.8306929E-001	-5.201923704173939E-002	3.5532743E-005	-6.8303806E-001	0
1.3176774E+004	5.636719878246367E+001	-6.8509483E-001	-5.199260546249246E-002	3.5619865E-005	-6.8503809E-001	0
1.3230101E+004	5.656719877741125E+001	-6.8712378E-001	-5.193639805439065E-002	3.5686735E-005	-6.8703800E-001	0
1.3283253E+004	5.676719877235882E+001	-6.8914783E-001	-5.188095199668586E-002	3.5753645E-005	-6.8903804E-001	0
1.3314289E+004	5.696719876730640E+001	-6.9115543E-001	-5.191080182180441E-002	3.5878431E-005	-6.9103807E-001	0
1.3370093E+004	5.716719876225397E+001	-6.9313782E-001	-5.184240774473270E-002	3.5933932E-005	-6.9303805E-001	0
1.3419545E+004	5.736719875720155E+001	-6.9514304E-001	-5.180079058708109E-002	3.6008958E-005	-6.9503808E-001	0
1.3437926E+004	5.756719875214912E+001	-6.9709617E-001	-5.187527943601045E-002	3.6162059E-005	-6.9703805E-001	0
1.3484207E+004	5.776719874709670E+001	-6.9915181E-001	-5.184967941530627E-002	3.6250796E-005	-6.9903803E-001	0
1.3520096E+004	5.796719874204427E+001	-7.0109755E-001	-5.185595971675783E-002	3.6356087E-005	-7.0103800E-001	0
1.3558272E+004	5.816719873699185E+001	-7.0316517E-001	-5.186244514306201E-002	3.6467864E-005	-7.0303810E-001	0
1.3614270E+004	5.836719873193942E+001	-7.0511675E-001	-5.179247821157484E-002	3.6519745E-005	-7.0503807E-001	0
1.3629870E+004	5.856719872688700E+001	-7.0711803E-001	-5.188002919750767E-002	3.6685306E-005	-7.0703804E-001	0
1.3680854E+004	5.876719872183457E+001	-7.0912826E-001	-5.183362798784308E-002	3.6756690E-005	-7.0903802E-001	0
1.3721880E+004	5.896719871678215E+001	-7.1111035E-001	-5.182310104604526E-002	3.6851943E-005	-7.1103811E-001	0
1.3741108E+004	5.916719871172972E+001	-7.1316797E-001	-5.190032175446424E-002	3.7013648E-005	-7.1303809E-001	0
1.3774827E+004	5.936719870667730E+001	-7.1509975E-001	-5.191352057361498E-002	3.7123347E-005	-7.1503800E-001	0
1.3814522E+004	5.956719870162488E+001	-7.1714890E-001	-5.191268225183543E-002	3.7229122E-005	-7.1703804E-001	0
1.3833454E+004	5.976719869657245E+001	-7.1911824E-001	-5.198399607480719E-002	3.7382641E-005	-7.1903807E-001	0
1.3872539E+004	5.996719869152003E+001	-7.2112596E-001	-5.198226357406854E-002	3.7485759E-005	-7.2103804E-001	0
1.3880104E+004	6.016719868646760E+001	-7.2317040E-001	-5.210122354951630E-002	3.7678063E-005	-7.2303802E-001	0
1.3926229E+004	6.036719868141518E+001	-7.2514993E-001	-5.207080212675119E-002	3.7759139E-005	-7.2503811E-001	0
1.3969701E+004	6.056719867636275E+001	-7.2710526E-001	-5.204873354556427E-002	3.7844908E-005	-7.2703809E-001	0
1.3970938E+004	6.076719867131033E+001	-7.2911954E-001	-5.218830513092132E-002	3.8051512E-005	-7.2903806E-001	0
1.3985805E+004	6.096719866625790E+001	-7.3115361E-001	-5.227826536546508E-002	3.8223443E-005	-7.3103803E-001	0
1.4017888E+004	6.116719866120548E+001	-7.3312420E-001	-5.229919194455046E-002	3.8341805E-005	-7.3303813E-001	0
1.4050615E+004	6.136719865615305E+001	-7.3512751E-001	-5.231995111417917E-002	3.8461836E-005	-7.3503798E-001	0
1.4072883E+004	6.156719865110063E+001	-7.3713714E-001	-5.237996620083837E-002	3.8611219E-005	-7.3703808E-001	0
1.4088194E+004	6.176719864604820E+001	-7.3915726E-001	-5.246643097057546E-002	3.8780945E-005	-7.3903811E-001	0
1.4089685E+004	6.196719864099578E+001	-7.4111527E-001	-5.259984872428503E-002	3.8982551E-005	-7.4103802E-001	0
1.4110371E+004	6.216719863594335E+001	-7.4312836E-001	-5.266540296335620E-002	3.9137154E-005	-7.4303800E-001	0
1.4132560E+004	6.236719863089093E+001	-7.4512637E-001	-5.272409109696519E-002	3.9286111E-005	-7.4503809E-001	0
1.4140675E+004	6.256719862583850E+001	-7.4713171E-001	-5.283564548673392E-002	3.9475184E-005	-7.4703807E-001	0
1.4138115E+004	6.276719862078608E+001	-7.4913675E-001	-5.298703168085949E-002	3.9694532E-005	-7.4903804E-001	0
1.4162240E+004	6.296719861573365E+001	-7.5110859E-001	-5.303599946771032E-002	3.9835795E-005	-7.5103801E-001	0
1.4153490E+004	6.316719861068123E+001	-7.5310385E-001	-5.320976065606919E-002	4.0072475E-005	-7.5303811E-001	0
1.4171913E+004	6.336719860562880E+001	-7.5513101E-001	-5.328363305287187E-002	4.0236122E-005	-7.5503802E-001	0
1.4170098E+004	6.356719860057638E+001	-7.5713521E-001	-5.343189935332970E-002	4.0455172E-005	-7.5703806E-001	0
1.4178458E+004	6.376719859552395E+001	-7.5915909E-001	-5.354313433905245E-002	4.0647756E-005	-7.5903809E-001	0
1.4149498E+004	6.396719859047153E+001	-7.6116854E-001	-5.379473956675629E-002	4.0946863E-005	-7.6103806E-001	0
1.4134016E+004	6.416719858541910E+001	-7.6314074E-001	-5.399319894829340E-002	4.1204410E-005	-7.6303804E-001	0
1.4126635E+004	6.436719858036668E+001	-7.6512116E-001	-5.416160131817316E-002	4.1440187E-005	-7.6503801E-001	0
1.4128749E+004	6.456719857531425E+001	-7.6708966E-001	-5.429282224559728E-002	4.1647461E-005	-7.6703817E-001	0
1.4104371E+004	6.476719857026183E+001	-7.6913071E-001	-5.453137139306163E-002	4.1941752E-005	-7.6903796E-001	0
1.4108392E+004	6.496719856520940E+001	-7.7112359E-001	-5.465708599508212E-002	4.2147367E-005	-7.7103806E-001	0
1.4062650E+004	6.516719856015698E+001	-7.7313894E-001	-5.497818186988979E-002	4.2505773E-005	-7.7303815E-001	0
1.4030832E+004	6.536719855510455E+001	-7.7514100E-001	-5.524554856695953E-002	4.2823089E-005	-7.7503800E-001	0
1.3637588E+004	6.556719855005213E+001	-7.7708906E-001	-5.698141628663023E-002	4.4279634E-005	-7.7703798E-001	0
1.3923995E+004	6.576719854499970E+001	-7.7907163E-001	-5.595172908687179E-002	4.3590404E-005	-7.7903807E-001	0
1.3936476E+004	6.596719853994728E+001	-7.8111738E-001	-5.604841758374590E-002	4.3780394E-005	-7.8103805E-001	0
1.3869584E+004	6.616719853489485E+001	-7.8308165E-001	-5.646035774154767E-002	4.4213069E-005	-7.8303814E-001	0
1.3833601E+004	6.636719852984243E+001	-7.8515303E-001	-5.675695298763306E-002	4.4562894E-005	-7.8503805E-001	0
1.3779768E+004	6.656719852479000E+001	-7.8710699E-001	-5.712048470120745E-002	4.4959932E-005	-7.8703815E-001	0
1.3728469E+004	6.676719851973758E+001	-7.8908014E-001	-5.747764988046322E-002	4.5354471E-005	-7.8903818E-001	0
1.3675204E+004	6.696719851468515E+001	-7.9113251E-001	-5.785160439031911E-002	4.5768284E-005	-7.9103798E-001	0
1.3602630E+004	6.716719850963273E+001	-7.9311472E-001	-5.830598214077343E-002	4.6243335E-005	-7.9303813E-001	0
1.3513980E+004	6.736719850458030E+001	-7.9504913E-001	-5.883160072733595E-002	4.6774014E-005	-7.9503810E-001	0
1.3389862E+004	6.756719849952788E+001	-7.9711682E-001	-5.953136648372448E-002	4.7453454E-005	-7.9703808E-001	0
1.3317589E+004	6.776719849447545E+001	-7.9913902E-001	-6.000628450868539E-002	4.7953363E-005	-7.9903805E-001	0
1.3225253E+004	6.796719848942303E+001	-8.0106598E-001	-6.057093768536870E-002	4.8521317E-005	-8.0103815E-001	0
1.2977866E+004	6.816719848437060E+001	-8.0313998E-001	-6.188536535994971E-002	4.9702612E-005	-8.0303812E-001	0
1.2879703E+004	6.836719847931818E+001	-8.0513126E-001	-6.251163057224780E-002	5.0330069E-005	-8.0503803E-001	0
1.2826771E+004	6.856719847426575E+001	-8.0713075E-001	-6.292547849260333E-002	5.0789087E-005	-8.0703813E-001	0
1.2796579E+004	6.876719846921333E+001	-8.0915976E-001	-6.323250498445254E-002	5.1165200E-005	-8.0903810E-001	0
1.2723071E+004	6.896719846416090E+001	-8.1112033E-001	-6.375192861704132E-002	5.1710485E-005	-8.1103808E-001	0
1.2648908E+004	6.916719845910848E+001	-8.1305146E-001	-6.427838847404388E-002	5.2261639E-005	-8.1303805E-001	0
1.2565509E+004	6.936719845405605E+001	-8.1513542E-001	-6.487086551821464E-002	5.2878539E-005	-8.1503814E-001	0
1.2235874E+004	6.956719844900363E+001	-8.1709266E-001	-6.677844427270430E-002	5.4564178E-005	-8.1703812E-001	0
1.1909548E+004	6.976719844395120E+001	-8.1915259E-001	-6.878116587493699E-002	5.6342269E-005	-8.1903803E-001	0
1.2127615E+004	6.996719843889878E+001	-8.2110173E-001	-6.770512502209677E-002	5.5592795E-005	-8.2103813E-001	0
1.1801410E+004	7.016719843384635E+001	-8.2312429E-001	-6.974796202749650E-002	5.7411242E-005	-8.2303816E-001	0
1.1551870E+004	7.036719842879393E+001	-8.2514054E-001	-7.142917290034290E-002	5.8939106E-005	-8.2503802E-001	0
1.1304990E+004	7.056719842374150E+001	-8.2712495E-001	-7.316458997445516E-002	6.0516257E-005	-8.2703811E-001	0
1.1122068E+004	7.076719841868908E+001	-8.2907939E-001	-7.454363047937251E-002	6.1802588E-005	-8.2903820E-001	0
1.0940969E+004	7.096719841363665E+001	-8.3112293E-001	-7.596428898192720E-002	6.3135660E-005	-8.3103806E-001	0
1.0751830E+004	7.116719840858423E+001	-8.3313692E-001	-7.748791355113838E-002	6.4558044E-005	-8.3303803E-001	0
1.0170099E+004	7.136719840353180E+001	-8.3512431E-001	-8.211565571742097E-002	6.8576781E-005	-8.3503813E-001	0
9.7957188E+003	7.156719839847938E+001	-8.3712023E-001	-8.545776590907639E-002	7.1538423E-005	-8.3703810E-001	0
9.7062891E+003	7.176719839342695E+001	-8.3907831E-001	-8.644686761426224E-002	7.2535695E-005	-8.3903807E-001	0
9.5278193E+003	7.196719838837453E+001	-8.4111273E-001	-8.827966726395609E-002	7.4253156E-005	-8.4103811E-001	0
9.3264873E+003	7.216719838332210E+001	-8.4310073E-001	-9.039853204225445E-002	7.6215067E-005	-8.4303814E-001	0
9.1194580E+003	7.236719837826968E+001	-8.4513038E-001	-9.267331276072088E-002	7.8321034E-005	-8.4503806E-001	0
9.1686689E+003	7.256719837321725E+001	-8.4712636E-001	-9.239360100965610E-002	7.8269055E-005	-8.4703803E-001	0
9.1092158E+003	7.276719836816483E+001	-8.4909081E-001	-9.321227974402002E-002	7.9145691E-005	-8.4903812E-001	0
9.1935879E+003	7.296719836311240E+001	-8.5110980E-001	-9.257645391470559E-002	7.8792727E-005	-8.5103810E-001	0
9.1658789E+003	7.316719835805998E+001	-8.5312605E-001	-9.307629394856032E-002	7.9405814E-005	-8.5303807E-001	0
9.0337217E+003	7.336719835300755E+001	-8.5515624E-001	-9.466267185171651E-002	8.0951373E-005	-8.5503817E-001	0
8.8947461E+003	7.356719834795513E+001	-8.5713500E-001	-9.636419434670596E-002	8.2597122E-005	-8.5703814E-001	0
8.5538438E+003	7.376719834290270E+001	-8.5911399E-001	-1.004360146755074E-001	8.6285989E-005	-8.5903800E-001	0
8.2970352E+003	7.396719833785028E+001	-8.6112046E-001	-1.037865241022278E-001	8.9372697E-005	-8.6103809E-001	0
8.0835981E+003	7.416719833279785E+001	-8.6314893E-001	-1.067778114028815E-001	9.2165152E-005	-8.6303818E-001	0
7.8372158E+003	7.436719832774543E+001	-8.6513001E-001	-1.103874153949641E-001	9.5499468E-005	-8.6503804E-001	0
7.5858574E+003	7.456719832269300E+001	-8.6713314E-001	-1.143091819259658E-001	9.9121280E-005	-8.6703813E-001	0
7.3187329E+003	7.476719831764058E+001	-8.6914992E-001	-1.187568864143140E-001	1.0321754E-004	-8.6903811E-001	0
7.0757314E+003	7.496719831258815E+001	-8.7112105E-001	-1.231139249140876E-001	1.0724714E-004	-8.7103808E-001	0
6.7784795E+003	7.516719830753573E+001	-8.7313223E-001	-1.288094557431059E-001	1.1246769E-004	-8.7303805E-001	0
6.5585396E+003	7.536719830248330E+001	-8.7513196E-001	-1.334339704833367E-001	1.1677233E-004	-8.7503809E-001	0
6.3393374E+003	7.556719829743088E+001	-8.7713659E-001	-1.383640794379135E-001	1.2136420E-004	-8.7703812E-001	0
6.1326162E+003	7.576719829237845E+001	-8.7913066E-001	-1.433532843514090E-001	1.2602627E-004	-8.7903810E-001	0
5.9322114E+003	7.596719828732603E+001	-8.8108242E-001	-1.485251198605116E-001	1.3086287E-004	-8.8103801E-001	0
5.7538569E+003	7.616719828227360E+001	-8.8313156E-001	-1.534851485200212E-001	1.3554758E-004	-8.8303816E-001	0
5.5963159E+003	7.636719827722118E+001	-8.8512987E-001	-1.581629513680528E-001	1.3999475E-004	-8.8503814E-001	0
5.4582900E+003	7.656719827216875E+001	-8.8706595E-001	-1.625171929720342E-001	1.4416347E-004	-8.8703805E-001	0
5.3530708E+003	7.676719826711633E+001	-8.8907957E-001	-1.660877648369323E-001	1.4766524E-004	-8.8903815E-001	0
5.2544932E+003	7.696719826206390E+001	-8.9109242E-001	-1.695867448753750E-001	1.5111746E-004	-8.9103812E-001	0
5.1787837E+003	7.716719825701148E+001	-8.9308536E-001	-1.724507992278335E-001	1.5401328E-004	-8.9303809E-001	0
5.1067964E+003	7.736719825195905E+001	-8.9510643E-001	-1.752774879735495E-001	1.5689201E-004	-8.9503807E-001	0
5.0103960E+003	7.756719824690663E+001	-8.9711100E-001	-1.790499177533298E-001	1.6062765E-004	-8.9703816E-001	0
4.8988960E+003	7.776719824185420E+001	-8.9911157E-001	-1.835335121561874E-001	1.6501710E-004	-8.9903814E-001	0
4.7612036E+003	7.796719823680178E+001	-9.0112793E-001	-1.892647291216871E-001	1.7055174E-004	-9.0103811E-001	0
4.5774121E+003	7.816719823174935E+001	-9.0310752E-001	-1.972965295616616E-001	1.7817998E-004	-9.0303808E-001	0
4.3675371E+003	7.836719822669693E+001	-9.0517873E-001	-2.072515187789254E-001	1.8759967E-004	-9.0503806E-001	0
4.1353389E+003	7.856719822164450E+001	-9.0708655E-001	-2.193499802339338E-001	1.9896941E-004	-9.0703815E-001	0
3.8942581E+003	7.876719821659208E+001	-9.0907413E-001	-2.334396157354588E-001	2.1221391E-004	-9.0903813E-001	0
3.6414585E+003	7.896719821153965E+001	-9.1114348E-001	-2.502138862099139E-001	2.2798075E-004	-9.1103810E-001	0
3.3947947E+003	7.916719820648723E+001	-9.1309190E-001	-2.689682154571997E-001	2.4559270E-004	-9.1303807E-001	0
3.0869470E+003	7.936719820143480E+001	-9.1511524E-001	-2.964467020312540E-001	2.7128289E-004	-9.1503811E-001	0
2.8750908E+003	7.956719819638238E+001	-9.1714698E-001	-3.189975709090547E-001	2.9256765E-004	-9.1703814E-001	0
2.6625356E+003	7.976719819132995E+001	-9.1911983E-001	-3.452047191268832E-001	3.1728452E-004	-9.1903812E-001	0
2.4590247E+003	7.996719818627753E+001	-9.2114425E-001	-3.745974103440766E-001	3.4505824E-004	-9.2103809E-001	0
2.2667363E+003	8.016719818122510E+001	-9.2311764E-001	-4.072452741981301E-001	3.7593528E-004	-9.2303813E-001	0
2.0583096E+003	8.036719817617268E+001	-9.2513227E-001	-4.494621454317821E-001	4.1581193E-004	-9.2503816E-001	0
1.8961451E+003	8.056719817112025E+001	-9.2713267E-001	-4.889565817842820E-001	4.5332761E-004	-9.2703813E-001	0
1.7524634E+003	8.076719816606783E+001	-9.2913300E-001	-5.301868316808255E-001	4.9261405E-004	-9.2903805E-001	0
1.6156521E+003	8.096719816101540E+001	-9.3119365E-001	-5.763577686711416E-001	5.3670071E-004	-9.3103814E-001	0
1.4700378E+003	8.116719815596298E+001	-9.3315977E-001	-6.347862477636050E-001	5.9235701E-004	-9.3303812E-001	0
1.3666082E+003	8.136719815091055E+001	-9.3514580E-001	-6.842823052217073E-001	6.3990371E-004	-9.3503803E-001	0
1.2613527E+003	8.156719814585813E+001	-9.3712616E-001	-7.429533349540147E-001	6.9624098E-004	-9.3703818E-001	0
1.1619276E+003	8.176719814080570E+001	-9.3915182E-001	-8.082704886439291E-001	7.5908873E-004	-9.3903804E-001	0
1.0848048E+003	8.196719813575328E+001	-9.4114804E-001	-8.675736657126318E-001	8.1651524E-004	-9.4103813E-001	0
9.9919006E+002	8.216719813070085E+001	-9.4313860E-001	-9.439031251129641E-001	8.9023146E-004	-9.4303811E-001	0
9.3696960E+002	8.236719812564843E+001	-9.4515043E-001	-1.008731145639809E+000	9.5340266E-004	-9.4503820E-001	0
8.6832336E+002	8.257719812034338E+001	-9.4719458E-001	-1.090831642232989E+000	1.0332299E-003	-9.4713819E-001	0
8.1135443E+002	8.278719811503834E+001	-9.4930893E-001	-1.170029879368149E+000	1.1107199E-003	-9.4923806E-001	0
7.5687634E+002	8.298719810998591E+001	-9.5130789E-001	-1.256886837104348E+000	1.1956864E-003	-9.5123816E-001	0
7.1581995E+002	8.318719810493349E+001	-9.5335799E-001	-1.331840543629705E+000	1.2697208E-003	-9.5323813E-001	0
6.7036859E+002	8.338719809988106E+001	-9.5531303E-001	-1.425056406396045E+000	1.3613750E-003	-9.5523804E-001	0
6.3542456E+002	8.358719809482864E+001	-9.5732719E-001	-1.506594492515333E+000	1.4423039E-003	-9.5723820E-001	0
5.9943646E+002	8.378719808977621E+001	-9.5929533E-001	-1.600328564508700E+000	1.5351877E-003	-9.5923805E-001	0
5.6843634E+002	8.398719808472379E+001	-9.6131563E-001	-1.691158027723937E+000	1.6257366E-003	-9.6123815E-001	0
5.4023102E+002	8.418719807967136E+001	-9.6327382E-001	-1.783077599104837E+000	1.7175920E-003	-9.6323812E-001	0
5.1234631E+002	8.438719807461894E+001	-9.6533710E-001	-1.884149604542461E+000	1.8188395E-003	-9.6523809E-001	0
4.8930215E+002	8.458719806956651E+001	-9.6730250E-001	-1.976902206857048E+000	1.9122624E-003	-9.6723807E-001	0
4.6659589E+002	8.478719806451409E+001	-9.6932071E-001	-2.077430885597693E+000	2.0136968E-003	-9.6923810E-001	0
4.4551154E+002	8.498719805946166E+001	-9.7128737E-001	-2.180162152549986E+000	2.1175640E-003	-9.7123814E-001	0
4.2726199E+002	8.518719805440924E+001	-9.7329170E-001	-2.277973887989986E+000	2.2171331E-003	-9.7323811E-001	0
4.0905151E+002	8.538719804935681E+001	-9.7525263E-001	-2.384180498197502E+000	2.3251784E-003	-9.7523808E-001	0
3.9250641E+002	8.558719804430439E+001	-9.7728068E-001	-2.489846454878391E+000	2.4332788E-003	-9.7723812E-001	0
3.7753256E+002	8.578719803925196E+001	-9.7933257E-001	-2.594034599389488E+000	2.5404226E-003	-9.7923815E-001	0
3.6312854E+002	8.598719803419954E+001	-9.8129135E-001	-2.702325034506465E+000	2.6517683E-003	-9.8123807E-001	0
3.4923019E+002	8.618719802914711E+001	-9.8329020E-001	-2.815593349825491E+000	2.7685454E-003	-9.8323804E-001	0
3.3726694E+002	8.638719802409469E+001	-9.8531425E-001	-2.921466987081665E+000	2.8785630E-003	-9.8523813E-001	0
3.2570178E+002	8.658719801904226E+001	-9.8729563E-001	-3.031287277315890E+000	2.9927767E-003	-9.8723811E-001	0
3.1431592E+002	8.678719801398984E+001	-9.8931712E-001	-3.147524765221711E+000	3.1139001E-003	-9.8923808E-001	0
3.0389978E+002	8.698719800893741E+001	-9.9131918E-001	-3.261993636079386E+000	3.2336768E-003	-9.9123818E-001	0
2.9437839E+002	8.718719800388499E+001	-9.9323666E-001	-3.374013618783625E+000	3.3511941E-003	-9.9323803E-001	0
2.8507523E+002	8.738719799883256E+001	-9.9534196E-001	-3.491506464796259E+000	3.4752428E-003	-9.9523813E-001	0
2.7605994E+002	8.758719799378014E+001	-9.9731344E-001	-3.612669804300310E+000	3.6029641E-003	-9.9723804E-001	0
2.6799231E+002	8.778719798872771E+001	-9.9933386E-001	-3.728964713830806E+000	3.7264808E-003	-9.9923807E-001	0
2.6035397E+002	8.798719798367529E+001	-1.0013087E+000	-3.845950994192876E+000	3.8509842E-003	-1.0012381E+000	0
2.5291133E+002	8.818719797862286E+001	-1.0033078E+000	-3.967033993765355E+000	3.9801560E-003	-1.0032381E+000	0
2.4571335E+002	8.838719797357044E+001	-1.0053471E+000	-4.091544547758133E+000	4.1134227E-003	-1.0052382E+000	0
2.3884818E+002	8.858719796851801E+001	-1.0073402E+000	-4.217491739089539E+000	4.2484491E-003	-1.0072380E+000	0
2.3267850E+002	8.878719796346559E+001	-1.0093100E+000	-4.337787963230312E+000	4.3781726E-003	-1.0092380E+000	0
2.2659422E+002	8.898719795841316E+001	-1.0113412E+000	-4.463225943769189E+000	4.5138444E-003	-1.0112381E+000	0
2.2081210E+002	8.918719795336074E+001	-1.0133601E+000	-4.589241951163380E+000	4.6505551E-003	-1.0132382E+000	0
2.1521466E+002	8.938719794830831E+001	-1.0153605E+000	-4.717896314232249E+000	4.7903652E-003	-1.0152380E+000	0
2.0964624E+002	8.958719794325589E+001	-1.0173448E+000	-4.852673967882073E+000	4.9368427E-003	-1.0172380E+000	0
2.0447485E+002	8.978719793820346E+001	-1.0193623E+000	-4.985269860007605E+000	5.0817961E-003	-1.0192381E+000	0
1.9941374E+002	8.998719793315104E+001	-1.0213363E+000	-5.121694624119876E+000	5.2309725E-003	-1.0212381E+000	0
1.9470995E+002	9.018719792809861E+001	-1.0233326E+000	-5.255677084432193E+000	5.3783054E-003	-1.0232381E+000	0
1.9008452E+002	9.038719792304619E+001	-1.0253458E+000	-5.394157496000091E+000	5.5308766E-003	-1.0252380E+000	0
1.8557806E+002	9.058719791799376E+001	-1.0273441E+000	-5.535913437909015E+000	5.6872880E-003	-1.0272380E+000	0
1.8136909E+002	9.078719791294134E+001	-1.0294036E+000	-5.675738701136481E+000	5.8426256E-003	-1.0292381E+000	0
1.7715005E+002	9.098719790788891E+001	-1.0313194E+000	-5.821727801409999E+000	6.0040606E-003	-1.0312381E+000	0
1.7317644E+002	9.118719790283649E+001	-1.0333472E+000	-5.967019727745026E+000	6.1660036E-003	-1.0332382E+000	0
1.6927106E+002	9.138719789778406E+001	-1.0353876E+000	-6.116743699290609E+000	6.3332007E-003	-1.0352380E+000	0
1.6553667E+002	9.158719789273164E+001	-1.0373328E+000	-6.266483568347795E+000	6.5004290E-003	-1.0372381E+000	0
1.6192220E+002	9.178719788767921E+001	-1.0393455E+000	-6.418795736198234E+000	6.6713463E-003	-1.0392381E+000	0
1.5841789E+002	9.198719788262679E+001	-1.0413634E+000	-6.573521389915328E+000	6.8454244E-003	-1.0412382E+000	0
1.5493707E+002	9.218719787757436E+001	-1.0433352E+000	-6.733928948911142E+000	7.0257452E-003	-1.0432382E+000	0
1.5163728E+002	9.238719787252194E+001	-1.0453931E+000	-6.894037311039270E+000	7.2069792E-003	-1.0452383E+000	0
1.4844746E+002	9.258719786746951E+001	-1.0473431E+000	-7.055311491429990E+000	7.3893322E-003	-1.0472381E+000	0
1.4529251E+002	9.278719786241709E+001	-1.0493803E+000	-7.222535748668278E+000	7.5791869E-003	-1.0492381E+000	0
1.4223901E+002	9.298719785736466E+001	-1.0513687E+000	-7.391563308955327E+000	7.7712582E-003	-1.0512382E+000	0
1.3928163E+002	9.318719785231224E+001	-1.0533686E+000	-7.562867883381671E+000	7.9664877E-003	-1.0532382E+000	0
1.3639085E+002	9.338719784725981E+001	-1.0553671E+000	-7.737814644972488E+000	8.1662349E-003	-1.0552381E+000	0
1.3356120E+002	9.358719784220739E+001	-1.0573571E+000	-7.916647976015156E+000	8.3707236E-003	-1.0572381E+000	0
1.3078947E+002	9.378719783715496E+001	-1.0593716E+000	-8.099823080695906E+000	8.5807228E-003	-1.0592381E+000	0
1.2810448E+002	9.398719783210254E+001	-1.0613970E+000	-8.285400660602960E+000	8.7940991E-003	-1.0612382E+000	0
1.2551806E+002	9.418719782705011E+001	-1.0633790E+000	-8.471920986091682E+000	9.0088630E-003	-1.0632381E+000	0
1.2297804E+002	9.438719782199769E+001	-1.0653549E+000	-8.662968672930219E+000	9.2291366E-003	-1.0652381E+000	0
1.2047253E+002	9.458719781694526E+001	-1.0673577E+000	-8.859759452459215E+000	9.4565321E-003	-1.0672381E+000	0
1.1795919E+002	9.478719781189284E+001	-1.0693620E+000	-9.065525308082442E+000	9.6943285E-003	-1.0692382E+000	0
1.1558325E+002	9.498719780684041E+001	-1.0713676E+000	-9.269228875772210E+000	9.9307513E-003	-1.0712382E+000	0
1.1324377E+002	9.518719780178799E+001	-1.0733631E+000	-9.478341081583032E+000	1.0173702E-002	-1.0732381E+000	0
1.1095794E+002	9.538719779673556E+001	-1.0753525E+000	-9.691533278040325E+000	1.0421815E-002	-1.0752381E+000	0
1.0874080E+002	9.558719779168314E+001	-1.0773703E+000	-9.907691328095723E+000	1.0674252E-002	-1.0772380E+000	0
1.0657071E+002	9.578719778663071E+001	-1.0793644E+000	-1.012815276497884E+001	1.0931968E-002	-1.0792382E+000	0
1.0437416E+002	9.598719778157829E+001	-1.0813873E+000	-1.036068035172222E+001	1.1203908E-002	-1.0812382E+000	0
1.0229836E+002	9.618719777652586E+001	-1.0833764E+000	-1.059035888070960E+001	1.1473345E-002	-1.0832382E+000	0
1.0021252E+002	9.638719777147344E+001	-1.0853832E+000	-1.083081368808033E+001	1.1755583E-002	-1.0852381E+000	0
9.7698105E+001	9.660719776591577E+001	-1.0875340E+000	-1.113157699769044E+001	1.2105968E-002	-1.0874381E+000	0
9.5706009E+001	9.680719776086335E+001	-1.0895240E+000	-1.138407149775773E+001	1.2403219E-002	-1.0894382E+000	0
9.3813843E+001	9.700719775581092E+001	-1.0915899E+000	-1.163570197578731E+001	1.2701415E-002	-1.0914382E+000	0
9.1898247E+001	9.720719775075850E+001	-1.0935729E+000	-1.189982323912805E+001	1.3013324E-002	-1.0934381E+000	0
9.0074486E+001	9.740719774570607E+001	-1.0954574E+000	-1.216168409308877E+001	1.3322608E-002	-1.0954381E+000	0
8.8286652E+001	9.760719774065365E+001	-1.0975246E+000	-1.243137696128579E+001	1.3643743E-002	-1.0974380E+000	0
8.6487312E+001	9.780719773560122E+001	-1.0995584E+000	-1.271352216094532E+001	1.3979260E-002	-1.0994382E+000	0
8.4777710E+001	9.800719773054880E+001	-1.1015677E+000	-1.299360104442454E+001	1.4313332E-002	-1.1014382E+000	0
8.2975349E+001	9.820719772549637E+001	-1.1035193E+000	-1.329936376531649E+001	1.4676105E-002	-1.1034381E+000	0
8.1269745E+001	9.840719772044395E+001	-1.1055418E+000	-1.360336309657885E+001	1.5039087E-002	-1.1054381E+000	0
7.9614044E+001	9.860719771539152E+001	-1.1075295E+000	-1.391123260527237E+001	1.5407100E-002	-1.1074381E+000	0
7.8048065E+001	9.880719771033910E+001	-1.1095376E+000	-1.421608061044395E+001	1.5773276E-002	-1.1094382E+000	0
7.6445488E+001	9.900719770528667E+001	-1.1115263E+000	-1.454011607954018E+001	1.6161721E-002	-1.1114382E+000	0
7.4839676E+001	9.920719770023425E+001	-1.1135451E+000	-1.487907441051641E+001	1.6568519E-002	-1.1134380E+000	0
7.3325134E+001	9.940719769518182E+001	-1.1155944E+000	-1.521435116261847E+001	1.6973045E-002	-1.1154381E+000	0
7.1806946E+001	9.960719769012940E+001	-1.1175281E+000	-1.556295297908131E+001	1.7392037E-002	-1.1174381E+000	0
7.0345314E+001	9.980719768507697E+001	-1.1195873E+000	-1.591559129399238E+001	1.7818894E-002	-1.1194381E+000	0
6.8899529E+001	1.000071976800245E+002	-1.1215377E+000	-1.627787228263156E+001	1.8256247E-002	-1.1214381E+000	0
6.7346733E+001	1.002071976749721E+002	-1.1235245E+000	-1.668268723985233E+001	1.8743409E-002	-1.1234381E+000	0
6.6006042E+001	1.004071976699197E+002	-1.1255238E+000	-1.705182971475887E+001	1.9192241E-002	-1.1254381E+000	0
6.4631638E+001	1.006071976648673E+002	-1.1275185E+000	-1.744530321748888E+001	1.9669903E-002	-1.1274381E+000	0
6.3277420E+001	1.008071976598148E+002	-1.1295573E+000	-1.785087423286743E+001	2.0163585E-002	-1.1294382E+000	0
6.1847801E+001	1.010071976547624E+002	-1.1315039E+000	-1.829497401622416E+001	2.0700835E-002	-1.1314381E+000	0
6.0489391E+001	1.012071976497100E+002	-1.1335198E+000	-1.873914960520062E+001	2.1241197E-002	-1.1334381E+000	0
5.9251526E+001	1.014071976446576E+002	-1.1355567E+000	-1.916502037326768E+001	2.1762967E-002	-1.1354381E+000	0
5.7955505E+001	1.016071976396051E+002	-1.1375687E+000	-1.962831174786669E+001	2.2328554E-002	-1.1374381E+000	0
5.6618000E+001	1.018071976345527E+002	-1.1395373E+000	-2.012676797932234E+001	2.2935204E-002	-1.1394382E+000	0
5.5432194E+001	1.020071976295003E+002	-1.1415560E+000	-2.059373708444386E+001	2.3508905E-002	-1.1414381E+000	0
5.4242146E+001	1.022071976244479E+002	-1.1435853E+000	-2.108296637010682E+001	2.4110170E-002	-1.1434381E+000	0
5.3158646E+001	1.024071976193954E+002	-1.1455462E+000	-2.154957389709902E+001	2.4686033E-002	-1.1454381E+000	0
5.1988712E+001	1.026071976143430E+002	-1.1475625E+000	-2.207330175578727E+001	2.5330493E-002	-1.1474380E+000	0
5.0810024E+001	1.028071976092906E+002	-1.1495310E+000	-2.262409847244930E+001	2.6007103E-002	-1.1494381E+000	0
4.9606728E+001	1.030071976042382E+002	-1.1515768E+000	-2.321412474322486E+001	2.6732847E-002	-1.1514381E+000	0
4.8515163E+001	1.032071975991857E+002	-1.1535250E+000	-2.377658595465755E+001	2.7426885E-002	-1.1534381E+000	0
4.7457531E+001	1.034071975941333E+002	-1.1555132E+000	-2.434836272304017E+001	2.8134855E-002	-1.1554381E+000	0
4.6365185E+001	1.036071975890809E+002	-1.1575435E+000	-2.496579258377051E+001	2.8898992E-002	-1.1574382E+000	0
4.5357204E+001	1.038071975840285E+002	-1.1595141E+000	-2.556405539226103E+001	2.9641882E-002	-1.1594381E+000	0
4.4278442E+001	1.040071975789760E+002	-1.1615360E+000	-2.623253928614861E+001	3.0470038E-002	-1.1614381E+000	0
4.3229565E+001	1.042071975739236E+002	-1.1635536E+000	-2.691569026473434E+001	3.1317849E-002	-1.1634382E+000	0
4.2247131E+001	1.044071975688712E+002	-1.1655289E+000	-2.758835542931843E+001	3.2155026E-002	-1.1654381E+000	0
4.1257652E+001	1.046071975638188E+002	-1.1675515E+000	-2.829902943110517E+001	3.3040576E-002	-1.1674380E+000	0
4.0304638E+001	1.048071975587663E+002	-1.1695127E+000	-2.901682742004209E+001	3.3935551E-002	-1.1694381E+000	0
3.9357243E+001	1.050071975537139E+002	-1.1715493E+000	-2.976705777374806E+001	3.4873575E-002	-1.1714382E+000	0
3.8427570E+001	1.052071975486615E+002	-1.1735600E+000	-3.053953369296332E+001	3.5839975E-002	-1.1734382E+000	0
3.7562515E+001	1.054071975436091E+002	-1.1755279E+000	-3.129524157755498E+001	3.6788430E-002	-1.1754380E+000	0
3.6693947E+001	1.056071975385566E+002	-1.1775566E+000	-3.209130497584258E+001	3.7789330E-002	-1.1774381E+000	0
3.5863441E+001	1.058071975335042E+002	-1.1796010E+000	-3.289145936906459E+001	3.8798798E-002	-1.1794381E+000	0
3.4989929E+001	1.060071975284518E+002	-1.1815431E+000	-3.376808973180457E+001	3.9898455E-002	-1.1814381E+000	0
3.4225655E+001	1.062071975233994E+002	-1.1835374E+000	-3.458041709918302E+001	4.0927216E-002	-1.1834381E+000	0
3.3401535E+001	1.064071975183469E+002	-1.1855901E+000	-3.549507921731377E+001	4.2082615E-002	-1.1854382E+000	0
3.2648140E+001	1.066071975132945E+002	-1.1876014E+000	-3.637577793630615E+001	4.3199927E-002	-1.1874380E+000	0
3.1883556E+001	1.068071975082421E+002	-1.1895469E+000	-3.730910545195593E+001	4.4380933E-002	-1.1894381E+000	0
3.1161282E+001	1.070071975031897E+002	-1.1915742E+000	-3.823893367379154E+001	4.5564529E-002	-1.1914382E+000	0
3.0417034E+001	1.072071974981372E+002	-1.1936271E+000	-3.924206066861439E+001	4.6840388E-002	-1.1934381E+000	0
2.9714828E+001	1.074071974930848E+002	-1.1955730E+000	-4.023489303464493E+001	4.8103750E-002	-1.1954380E+000	0
2.8990011E+001	1.076071974880324E+002	-1.1975895E+000	-4.131041795866838E+001	4.9472924E-002	-1.1974381E+000	0
2.8320473E+001	1.078071974829800E+002	-1.1995877E+000	-4.235761589447117E+001	5.0811674E-002	-1.1994382E+000	0
2.7694437E+001	1.080071974779275E+002	-1.2016381E+000	-4.338914930712326E+001	5.2138057E-002	-1.2014382E+000	0
2.7045473E+001	1.082071974728751E+002	-1.2035410E+000	-4.450064608623654E+001	5.3558353E-002	-1.2034380E+000	0
2.6417696E+001	1.084071974678227E+002	-1.2055819E+000	-4.563539083690594E+001	5.5017203E-002	-1.2054381E+000	0
2.5788565E+001	1.086071974627703E+002	-1.2075861E+000	-4.682641543796024E+001	5.6546926E-002	-1.2074381E+000	0
2.5150795E+001	1.088071974577178E+002	-1.2096316E+000	-4.809516291580508E+001	5.8177426E-002	-1.2094381E+000	0
2.4580610E+001	1.090071974526654E+002	-1.2116098E+000	-4.929128498474233E+001	5.9721805E-002	-1.2114381E+000	0
2.4030424E+001	1.092071974476130E+002	-1.2136106E+000	-5.050308945443874E+001	6.1291087E-002	-1.2134382E+000	0
2.3443796E+001	1.094071974425606E+002	-1.2155888E+000	-5.185119238732351E+001	6.3029729E-002	-1.2154381E+000	0
2.2853401E+001	1.096071974375081E+002	-1.2176290E+000	-5.327998966100267E+001	6.4875260E-002	-1.2174381E+000	0
2.2337872E+001	1.098071974324557E+002	-1.2196307E+000	-5.459923382735315E+001	6.6590905E-002	-1.2194382E+000	0
2.1818989E+001	1.100071974274033E+002	-1.2216213E+000	-5.598890247853143E+001	6.8397231E-002	-1.2214382E+000	0
2.1315472E+001	1.102071974223509E+002	-1.2236123E+000	-5.740489025234933E+001	7.0241332E-002	-1.2234381E+000	0
2.0816734E+001	1.104071974172984E+002	-1.2255899E+000	-5.887522416266165E+001	7.2156876E-002	-1.2254381E+000	0
2.0354626E+001	1.106071974122460E+002	-1.2276282E+000	-6.031200177328924E+001	7.4040718E-002	-1.2274381E+000	0
1.9866337E+001	1.108071974071936E+002	-1.2296026E+000	-6.189377423857331E+001	7.6104745E-002	-1.2294382E+000	0
1.9422476E+001	1.110071974021412E+002	-1.2315972E+000	-6.341092903489698E+001	7.8096725E-002	-1.2314382E+000	0
1.9010448E+001	1.112071973970887E+002	-1.2336007E+000	-6.489067251720144E+001	8.0049179E-002	-1.2334381E+000	0
1.8562864E+001	1.114071973920363E+002	-1.2356222E+000	-6.656419449166094E+001	8.2248196E-002	-1.2354381E+000	0
1.8169361E+001	1.116071973869839E+002	-1.2376347E+000	-6.811657720898830E+001	8.4303439E-002	-1.2374381E+000	0
1.7761806E+001	1.118071973819315E+002	-1.2395982E+000	-6.979009091124249E+001	8.6511672E-002	-1.2394382E+000	0
1.7310514E+001	1.120071973768790E+002	-1.2416199E+000	-7.172634822332924E+001	8.9056864E-002	-1.2414382E+000	0
1.6910318E+001	1.122071973718266E+002	-1.2436477E+000	-7.354371460711297E+001	9.1462471E-002	-1.2434381E+000	0
1.6532124E+001	1.124071973667742E+002	-1.2456160E+000	-7.534518393313263E+001	9.3851164E-002	-1.2454381E+000	0
1.6173754E+001	1.126071973617218E+002	-1.2476060E+000	-7.713769396686769E+001	9.6237451E-002	-1.2474381E+000	0
1.5821345E+001	1.128071973566693E+002	-1.2495887E+000	-7.898119409716855E+001	9.8694012E-002	-1.2494382E+000	0
1.5471144E+001	1.130071973516169E+002	-1.2516131E+000	-8.089984344625168E+001	1.0125531E-001	-1.2514381E+000	0
1.5094067E+001	1.132071973465645E+002	-1.2536349E+000	-8.305481810904956E+001	1.0412042E-001	-1.2534381E+000	0
1.4800260E+001	1.134071973415121E+002	-1.2556123E+000	-8.483718000896397E+001	1.0652260E-001	-1.2554381E+000	0
1.4495613E+001	1.136071973364596E+002	-1.2576228E+000	-8.675885999554180E+001	1.0910992E-001	-1.2574381E+000	0
1.4203748E+001	1.138071973314072E+002	-1.2596501E+000	-8.868434896382608E+001	1.1171125E-001	-1.2594383E+000	0
1.3854225E+001	1.140071973263548E+002	-1.2616007E+000	-9.106252584706090E+001	1.1488455E-001	-1.2614381E+000	0
1.3573453E+001	1.142071973213024E+002	-1.2636335E+000	-9.309594881615681E+001	1.1763916E-001	-1.2634381E+000	0
1.3261584E+001	1.144071973162499E+002	-1.2656269E+000	-9.543557556253973E+001	1.2078583E-001	-1.2654382E+000	0
1.2946605E+001	1.146071973111975E+002	-1.2676231E+000	-9.791162492250305E+001	1.2411503E-001	-1.2674382E+000	0
1.2685573E+001	1.148071973061451E+002	-1.2696280E+000	-1.000844085346271E+002	1.2706997E-001	-1.2694383E+000	0
1.2407055E+001	1.150071973010927E+002	-1.2716166E+000	-1.024914122200883E+002	1.3032977E-001	-1.2714381E+000	0
1.2168714E+001	1.152071972960402E+002	-1.2735980E+000	-1.046616783780037E+002	1.3329691E-001	-1.2734381E+000	0
1.1869889E+001	1.154071972909878E+002	-1.2755771E+000	-1.074632669511573E+002	1.3707767E-001	-1.2754381E+000	0
1.1578220E+001	1.156171972856828E+002	-1.2777004E+000	-1.103537860850897E+002	1.4099908E-001	-1.2775383E+000	0
1.1276829E+001	1.158271972803777E+002	-1.2797744E+000	-1.134870840232649E+002	1.4523786E-001	-1.2796383E+000	0
1.1072202E+001	1.160271972753253E+002	-1.2817975E+000	-1.157671788317280E+002	1.4839008E-001	-1.2816380E+000	0
1.0873503E+001	1.162271972702729E+002	-1.2837678E+000	-1.180638654540188E+002	1.5156659E-001	-1.2836381E+000	0
1.0651646E+001	1.164271972652205E+002	-1.2857633E+000	-1.207102952457607E+002	1.5520486E-001	-1.2856381E+000	0
1.0441345E+001	1.166271972601680E+002	-1.2878040E+000	-1.233369788831592E+002	1.5883386E-001	-1.2876382E+000	0
1.0270947E+001	1.168271972551156E+002	-1.2897921E+000	-1.255767316710103E+002	1.6196787E-001	-1.2896382E+000	0
1.0076265E+001	1.170271972500632E+002	-1.2918366E+000	-1.282059000203390E+002	1.6562107E-001	-1.2916381E+000	0
9.8610477E+000	1.172271972450108E+002	-1.2937510E+000	-1.311981236756255E+002	1.6973770E-001	-1.2936381E+000	0
9.6191273E+000	1.174271972399583E+002	-1.2957833E+000	-1.347090260068849E+002	1.7455371E-001	-1.2956381E+000	0
9.4536943E+000	1.176271972349059E+002	-1.2977476E+000	-1.372741216521142E+002	1.7814717E-001	-1.2976381E+000	0
9.2900829E+000	1.178271972298535E+002	-1.2997595E+000	-1.399082810202964E+002	1.8184713E-001	-1.2996382E+000	0
9.1814337E+000	1.180271972248011E+002	-1.3017987E+000	-1.417859954369037E+002	1.8457682E-001	-1.3016381E+000	0
9.0308104E+000	1.182271972197486E+002	-1.3038497E+000	-1.443779319635601E+002	1.8824713E-001	-1.3036381E+000	0
8.7931986E+000	1.184271972146962E+002	-1.3057618E+000	-1.484967941967541E+002	1.9390145E-001	-1.3056381E+000	0
8.5845137E+000	1.186271972096438E+002	-1.3078241E+000	-1.523469117644697E+002	1.9924296E-001	-1.3076382E+000	0
8.4802704E+000	1.188271972045914E+002	-1.3097485E+000	-1.544465456646858E+002	2.0228614E-001	-1.3096381E+000	0
8.3567533E+000	1.190271971995389E+002	-1.3117946E+000	-1.569741967627243E+002	2.0591791E-001	-1.3116381E+000	0
8.1664753E+000	1.192271971944865E+002	-1.3138397E+000	-1.608821055397152E+002	2.1137330E-001	-1.3136381E+000	0
8.0121584E+000	1.194271971894341E+002	-1.3158121E+000	-1.642269132618460E+002	2.1609177E-001	-1.3156381E+000	0
7.8852458E+000	1.196271971843817E+002	-1.3177986E+000	-1.671220748570504E+002	2.2023323E-001	-1.3176382E+000	0
7.7565956E+000	1.198271971793292E+002	-1.3197938E+000	-1.701511698709868E+002	2.2456446E-001	-1.3196381E+000	0
7.5885191E+000	1.200271971742768E+002	-1.3218139E+000	-1.741860187113152E+002	2.3024151E-001	-1.3216382E+000	0
7.4482298E+000	1.202271971692244E+002	-1.3238138E+000	-1.777353534406549E+002	2.3528852E-001	-1.3236381E+000	0
7.3466659E+000	1.204271971641720E+002	-1.3257768E+000	-1.804596584897472E+002	2.3924923E-001	-1.3256382E+000	0
7.2093892E+000	1.206271971591195E+002	-1.3278415E+000	-1.841822460589765E+002	2.4456483E-001	-1.3276381E+000	0
7.1043735E+000	1.208271971540671E+002	-1.3298854E+000	-1.871924917789818E+002	2.4894455E-001	-1.3296382E+000	0
7.0153370E+000	1.210271971490147E+002	-1.3317981E+000	-1.898409326319793E+002	2.5282979E-001	-1.3316381E+000	0
6.8909869E+000	1.212271971439623E+002	-1.3338284E+000	-1.935613067598838E+002	2.5817758E-001	-1.3336381E+000	0
6.8152800E+000	1.214271971389098E+002	-1.3358246E+000	-1.960043572579398E+002	2.6182744E-001	-1.3356380E+000	0
6.7176785E+000	1.216271971338574E+002	-1.3378391E+000	-1.991519976559694E+002	2.6643333E-001	-1.3376381E+000	0
6.6266537E+000	1.218271971288050E+002	-1.3398620E+000	-2.021928482855787E+002	2.7091050E-001	-1.3396381E+000	0
6.4609938E+000	1.220271971237526E+002	-1.3418053E+000	-2.076778643233984E+002	2.7866328E-001	-1.3416382E+000	0
6.3881626E+000	1.222271971187001E+002	-1.3438152E+000	-2.103602003261888E+002	2.8268525E-001	-1.3436381E+000	0
6.2845235E+000	1.224271971136477E+002	-1.3458415E+000	-2.141517236454420E+002	2.8821430E-001	-1.3456380E+000	0
6.2048802E+000	1.226271971085953E+002	-1.3478471E+000	-2.172237024393739E+002	2.9278433E-001	-1.3476381E+000	0
6.1228976E+000	1.228271971035429E+002	-1.3498207E+000	-2.204545644016216E+002	2.9757413E-001	-1.3496382E+000	0
6.0163832E+000	1.230271970984904E+002	-1.3518542E+000	-2.246954936505440E+002	3.0375555E-001	-1.3516381E+000	0
5.9773712E+000	1.231972970941933E+002	-1.3535482E+000	-2.264453863728434E+002	3.0650473E-001	-1.3533386E+000	0
5.8922510E+000	1.233678970898836E+002	-1.3552536E+000	-2.300060823701615E+002	3.1171656E-001	-1.3550442E+000	0
5.7627487E+000	1.235584970850687E+002	-1.3571934E+000	-2.355114607871759E+002	3.1963459E-001	-1.3569506E+000	0
5.7143264E+000	1.237489970802562E+002	-1.3590872E+000	-2.378385687090840E+002	3.2324335E-001	-1.3588557E+000	0
5.6908693E+000	1.239393970754463E+002	-1.3610029E+000	-2.391555427833996E+002	3.2549140E-001	-1.3607595E+000	0
5.6129408E+000	1.241297970706364E+002	-1.3628670E+000	-2.428080111864235E+002	3.3091503E-001	-1.3626635E+000	0
5.5683661E+000	1.243104970660715E+002	-1.3647069E+000	-2.450821033723664E+002	3.3446524E-001	-1.3644705E+000	0
5.4681530E+000	1.244806970617719E+002	-1.3663725E+000	-2.498782502286982E+002	3.4142676E-001	-1.3661730E+000	0
5.4330792E+000	1.246709970569646E+002	-1.3683237E+000	-2.518504874610135E+002	3.4461299E-001	-1.3680755E+000	0
5.3253140E+000	1.248414970526574E+002	-1.3699803E+000	-2.572581408349233E+002	3.5243860E-001	-1.3697807E+000	0
5.2278109E+000	1.250118970483527E+002	-1.3717074E+000	-2.623865911288121E+002	3.5991764E-001	-1.3714844E+000	0
5.2023830E+000	1.252122970432902E+002	-1.3737266E+000	-2.640571889284471E+002	3.6274239E-001	-1.3734889E+000	0
5.0865912E+000	1.253728970392331E+002	-1.3753427E+000	-2.703859264107243E+002	3.7187332E-001	-1.3750942E+000	0
5.0360742E+000	1.255532970346758E+002	-1.3771361E+000	-2.734542945288231E+002	3.7658378E-001	-1.3768983E+000	0
4.9804287E+000	1.257539970296057E+002	-1.3791628E+000	-2.769164739342534E+002	3.8191289E-001	-1.3789057E+000	0
4.9299388E+000	1.259345970250433E+002	-1.3809452E+000	-2.801140673465084E+002	3.8682216E-001	-1.3807113E+000	0
4.8816829E+000	1.261051970207336E+002	-1.3826337E+000	-2.832289019689897E+002	3.9160183E-001	-1.3824176E+000	0
4.8635693E+000	1.262753970164340E+002	-1.3843774E+000	-2.846422704520030E+002	3.9405233E-001	-1.3841194E+000	0
4.7776108E+000	1.264560970118691E+002	-1.3861269E+000	-2.901297063618899E+002	4.0215659E-001	-1.3859261E+000	0
4.7602196E+000	1.266265970075619E+002	-1.3878673E+000	-2.915553141323580E+002	4.0464011E-001	-1.3876309E+000	0
4.6828194E+000	1.267872970035023E+002	-1.3894825E+000	-2.967192120225741E+002	4.1228616E-001	-1.3892385E+000	0
4.6597381E+000	1.269777969986899E+002	-1.3914052E+000	-2.986016026814214E+002	4.1547582E-001	-1.3911437E+000	0
4.5530167E+000	1.271782969936248E+002	-1.3933936E+000	-3.060374532693677E+002	4.2643064E-001	-1.3931483E+000	0
4.5598378E+000	1.273487969893176E+002	-1.3950976E+000	-3.059533510815390E+002	4.2683479E-001	-1.3948532E+000	0
4.5226822E+000	1.274990969855207E+002	-1.3966345E+000	-3.088066732641048E+002	4.3129003E-001	-1.3963563E+000	0
4.4689455E+000	1.276793969809660E+002	-1.3984021E+000	-3.129154405009986E+002	4.3758160E-001	-1.3981602E+000	0
4.4465022E+000	1.278595969764137E+002	-1.4002310E+000	-3.149061613936199E+002	4.4094136E-001	-1.3999614E+000	0
4.3717647E+000	1.280400969718539E+002	-1.4019529E+000	-3.206835078505896E+002	4.4958317E-001	-1.4017664E+000	0
4.3868165E+000	1.282305969670415E+002	-1.4039429E+000	-3.200368371132658E+002	4.4931346E-001	-1.4036714E+000	0
4.3077159E+000	1.284109969624842E+002	-1.4057207E+000	-3.263262335630079E+002	4.5872355E-001	-1.4054756E+000	0
4.2840300E+000	1.285712969584347E+002	-1.4073211E+000	-3.285040400075241E+002	4.6231067E-001	-1.4070783E+000	0
4.2689719E+000	1.287516969538774E+002	-1.4091427E+000	-3.300895007605300E+002	4.6514323E-001	-1.4088823E+000	0
4.2357993E+000	1.289321969493176E+002	-1.4109573E+000	-3.331029879953785E+002	4.6999410E-001	-1.4106876E+000	0
4.1787090E+000	1.291126969447578E+002	-1.4127475E+000	-3.380822810328564E+002	4.7762489E-001	-1.4124924E+000	0
4.1159496E+000	1.292930969402005E+002	-1.4145639E+000	-3.436786212973811E+002	4.8615536E-001	-1.4142963E+000	0
4.0858288E+000	1.294734969356432E+002	-1.4163578E+000	-3.466512814746825E+002	4.9098223E-001	-1.4161007E+000	0
4.0194101E+000	1.296337969315937E+002	-1.4179921E+000	-3.527861281980690E+002	5.0024796E-001	-1.4177032E+000	0
4.0060420E+000	1.297843969277892E+002	-1.4195368E+000	-3.543489472319061E+002	5.0301141E-001	-1.4192092E+000	0
3.9724097E+000	1.299547969234845E+002	-1.4211763E+000	-3.577617584959680E+002	5.0844252E-001	-1.4209135E+000	0
3.9305124E+000	1.301352969189247E+002	-1.4229823E+000	-3.620348119444252E+002	5.1516914E-001	-1.4227183E+000	0
3.9349236E+000	1.302955969148752E+002	-1.4246141E+000	-3.620436465629055E+002	5.1577246E-001	-1.4243215E+000	0
3.8794746E+000	1.304562969108156E+002	-1.4261994E+000	-3.676269525399191E+002	5.2430934E-001	-1.4259284E+000	0
3.8537550E+000	1.306467969060031E+002	-1.4280853E+000	-3.705698312926665E+002	5.2920532E-001	-1.4278334E+000	0
3.8510966E+000	1.308470969009431E+002	-1.4301050E+000	-3.713500689453641E+002	5.3106958E-001	-1.4298370E+000	0
3.7906871E+000	1.310373968961358E+002	-1.4320397E+000	-3.777784191573141E+002	5.4099369E-001	-1.4317394E+000	0
3.7437172E+000	1.312275968913309E+002	-1.4339440E+000	-3.830267821136804E+002	5.4923898E-001	-1.4336421E+000	0
3.6985464E+000	1.314175968865311E+002	-1.4358556E+000	-3.882216127529650E+002	5.5743021E-001	-1.4355419E+000	0
3.6684396E+000	1.315978968819763E+002	-1.4376081E+000	-3.918854444579238E+002	5.6337768E-001	-1.4373446E+000	0
3.6576567E+000	1.317781968774216E+002	-1.4394561E+000	-3.935459865247153E+002	5.6649220E-001	-1.4391478E+000	0
3.6238542E+000	1.319684968726142E+002	-1.4413482E+000	-3.977390210608883E+002	5.7328039E-001	-1.4410504E+000	0
3.5722306E+000	1.321492968680468E+002	-1.4431449E+000	-4.039898600671686E+002	5.8301592E-001	-1.4428583E+000	0
3.5473361E+000	1.323198968637371E+002	-1.4448907E+000	-4.073171168632762E+002	5.8852875E-001	-1.4445640E+000	0
3.5243895E+000	1.324905968594248E+002	-1.4465780E+000	-4.104478275859292E+002	5.9374481E-001	-1.4462715E+000	0
3.4865465E+000	1.326907968543674E+002	-1.4485570E+000	-4.154704526977030E+002	6.0183263E-001	-1.4482738E+000	0
3.4713817E+000	1.328709968498151E+002	-1.4503605E+000	-4.178049910707198E+002	6.0596788E-001	-1.4500754E+000	0
3.4519145E+000	1.330215968460107E+002	-1.4519000E+000	-4.206071686157920E+002	6.1067957E-001	-1.4515811E+000	0
3.4604399E+000	1.331921968417009E+002	-1.4535780E+000	-4.200558489448212E+002	6.1058396E-001	-1.4532871E+000	0
3.4035759E+000	1.333723968371487E+002	-1.4553957E+000	-4.276078364054392E+002	6.2233859E-001	-1.4550899E+000	0
3.3926365E+000	1.335723968320963E+002	-1.4573631E+000	-4.295665346219157E+002	6.2603444E-001	-1.4570898E+000	0
3.3784850E+000	1.337723968270438E+002	-1.4593493E+000	-4.319537447326056E+002	6.3037139E-001	-1.4590899E+000	0
3.3383167E+000	1.339723968219914E+002	-1.4614080E+000	-4.377679512949489E+002	6.3975757E-001	-1.4610900E+000	0
3.3044367E+000	1.341723968169390E+002	-1.4633607E+000	-4.428472366938522E+002	6.4804524E-001	-1.4630901E+000	0
3.2630939E+000	1.343723968118866E+002	-1.4653952E+000	-4.490815174379591E+002	6.5808189E-001	-1.4650899E+000	0
3.2944438E+000	1.345723968068341E+002	-1.4674295E+000	-4.454255575885036E+002	6.5363061E-001	-1.4670898E+000	0
3.2335317E+000	1.347723968017817E+002	-1.4694381E+000	-4.544375100773750E+002	6.6776776E-001	-1.4690899E+000	0
3.1701837E+000	1.349723967967293E+002	-1.4714592E+000	-4.641558040523742E+002	6.8298632E-001	-1.4710900E+000	0
3.1680381E+000	1.351723967916769E+002	-1.4734287E+000	-4.650918382268374E+002	6.8527967E-001	-1.4730901E+000	0
3.1166992E+000	1.353723967866244E+002	-1.4754918E+000	-4.734148636080517E+002	6.9851971E-001	-1.4750899E+000	0
3.1116571E+000	1.355723967815720E+002	-1.4774435E+000	-4.748091952698032E+002	7.0150375E-001	-1.4770898E+000	0
3.0792110E+000	1.357723967765196E+002	-1.4794644E+000	-4.804686834244471E+002	7.1083629E-001	-1.4790899E+000	0
3.0697916E+000	1.359723967714672E+002	-1.4814532E+000	-4.825908103043257E+002	7.1493572E-001	-1.4810899E+000	0
3.0716727E+000	1.361723967664147E+002	-1.4834222E+000	-4.829362650587991E+002	7.1639836E-001	-1.4830898E+000	0
3.0338914E+000	1.363723967613623E+002	-1.4854096E+000	-4.896053970146586E+002	7.2726458E-001	-1.4850899E+000	0
2.9887972E+000	1.365723967563099E+002	-1.4874706E+000	-4.976820151832908E+002	7.4028736E-001	-1.4870899E+000	0
2.9835067E+000	1.367723967512575E+002	-1.4894313E+000	-4.992216865124365E+002	7.4355638E-001	-1.4890898E+000	0
2.9759705E+000	1.369723967462051E+002	-1.4914412E+000	-5.011613011219633E+002	7.4745262E-001	-1.4910899E+000	0
2.9779520E+000	1.371723967411526E+002	-1.4934691E+000	-5.015087943952913E+002	7.4898791E-001	-1.4930900E+000	0
2.9693558E+000	1.373723967361002E+002	-1.4954985E+000	-5.036441052149213E+002	7.5319904E-001	-1.4950899E+000	0
2.9783156E+000	1.375723967310478E+002	-1.4974357E+000	-5.027793993441701E+002	7.5287980E-001	-1.4970899E+000	0
2.8839817E+000	1.377723967259954E+002	-1.4993874E+000	-5.199018407203166E+002	7.7953428E-001	-1.4990898E+000	0
2.8297532E+000	1.379723967209429E+002	-1.5015016E+000	-5.306122255044174E+002	7.9671508E-001	-1.5010899E+000	0
2.8770134E+000	1.381723967158905E+002	-1.5034707E+000	-5.225803250725842E+002	7.8568417E-001	-1.5030900E+000	0
2.8229148E+000	1.383723967108381E+002	-1.5056415E+000	-5.333640900782739E+002	8.0305511E-001	-1.5050899E+000	0
2.7905705E+000	1.385723967057857E+002	-1.5080543E+000	-5.404107526835396E+002	8.1496876E-001	-1.5070899E+000	0
2.7941663E+000	1.387723967007332E+002	-1.5099272E+000	-5.403855456397641E+002	8.1594282E-001	-1.5090899E+000	0
2.7958000E+000	1.389723966956808E+002	-1.5120354E+000	-5.408238662797576E+002	8.1774479E-001	-1.5110899E+000	0
2.7608912E+000	1.391723966906284E+002	-1.5139649E+000	-5.483609558546627E+002	8.3019924E-001	-1.5130899E+000	0
2.7543910E+000	1.393723966855760E+002	-1.5160075E+000	-5.503966240093578E+002	8.3440542E-001	-1.5150900E+000	0
2.6960909E+000	1.395723966805235E+002	-1.5180098E+000	-5.630409978230800E+002	8.5470176E-001	-1.5170898E+000	0
2.7402098E+000	1.397723966754711E+002	-1.5200528E+000	-5.547213100467950E+002	8.4320569E-001	-1.5190899E+000	0
2.7063649E+000	1.399723966704187E+002	-1.5220273E+000	-5.623880405382752E+002	8.5596991E-001	-1.5210899E+000	0
2.7113173E+000	1.401723966653663E+002	-1.5240563E+000	-5.621091816138796E+002	8.5668606E-001	-1.5230900E+000	0
2.7234154E+000	1.403123966618296E+002	-1.5253682E+000	-5.600938596141596E+002	8.5434937E-001	-1.5244898E+000	0
2.7288373E+000	1.403431966610515E+002	-1.5257342E+000	-5.591151428222656E+002	8.5306108E-001	-1.5249896E+000	1