EC-Lab ASCII FILE
Nb header lines : 61                          

Linear Sweep Voltammetry

Run on channel : 1 (SN 1340)
User : 
Electrode connection : standard
Potential control : Ewe
Ewe ctrl range : min = -5.00 V, max = 5.00 V
Ewe,I filtering : <None>
Channel : Grounded
Acquisition started on : 02/16/2026 18:31:06.695
Technique started on : 02/16/2026 18:31:09.377
Loaded Setting File :  C:\Users\volt\Documents\Platalytix\PtPd_40_CoNi_2_12.mps
Saved on :
	File : Ni_40_polished_2_16_26_02_LSV_C01.mpr
	Directory : C:\Users\volt\Documents\Platalytix\
	Host : 127.0.0.1
Device : SP-200 (SN 0262)
Address : USB
EC-LAB for windows v11.60 (software)
Internet server v11.60 (firmware)
Command interpretor v11.60 (firmware)
Electrode material : Pt_40
Initial state : 
Electrolyte : KOH (1M)
Comments : 
Cable : standard
Reference electrode : Hg/HgO (0.140 V)
Electrode surface area : 1.000 cm˛
Characteristic mass : 0.001 g
Equivalent Weight : 0.000 g/eq.
Density : 0.000 g/cm3
Volume (V) : 0.001 cmł
Cycle Definition : Charge/Discharge alternance
tR (h:m:s)          0:00:5.0000         
dER/dt (mV/h)       0.0                 
dER (mV)            0                   
dtR (s)             0.0000              
dE/dt               10.000              
dE/dt unit          mV/s                
Ei (V)              -0.200              
vs.                 Ref                 
EL (V)              -2.500              
vs.                 Ref                 
record              <I>                 
dI                  0.000               
unit dI             µA                  
tI (s)              0.0000              
step percent        50                  
N                   10                  
E range min (V)     -5.000              
E range max (V)     5.000               
I Range             Auto                
I Range min         Unset               
I Range max         Unset               
I Range init        Unset               
Bandwidth           8                   

Rwe/Ohm	time/s	Ewe/V	<I>/mA	Pwe/W	control/V	error	
0.0000000E+000	2.682400127378060E+000	-1.6244031E-001	0.000000000000000E+000	0.0000000E+000	0.0000000E+000	0
0.0000000E+000	7.682200001072488E+000	-6.2096067E-002	0.000000000000000E+000	0.0000000E+000	-1.9984907E-001	0
1.8014174E+003	7.882199996020063E+000	-2.0156747E-001	1.118938227742909E-001	-2.2554155E-005	-2.0174885E-001	0
3.4497207E+003	8.002199992988608E+000	-2.0271669E-001	-5.876321843987897E-002	1.1912285E-005	-2.0294891E-001	0
2.5926538E+003	8.212199987683562E+000	-2.0482281E-001	-7.900121789467832E-002	1.6181251E-005	-2.0504889E-001	0
2.6744087E+003	8.412199982631137E+000	-2.0684855E-001	-7.734365986296932E-002	1.5998423E-005	-2.0704888E-001	0
2.7987234E+003	8.612199977578712E+000	-2.0882972E-001	-7.461606013871597E-002	1.5582051E-005	-2.0904891E-001	0
2.9246758E+003	8.812199972526287E+000	-2.1081173E-001	-7.208037974741577E-002	1.5195390E-005	-2.1104889E-001	0
3.0487759E+003	9.012199967473862E+000	-2.1283767E-001	-6.981086161709849E-002	1.4858381E-005	-2.1304889E-001	0
3.1653914E+003	9.212199962421437E+000	-2.1482882E-001	-6.786801452566849E-002	1.4580005E-005	-2.1504889E-001	0
3.2753174E+003	9.412199957369012E+000	-2.1679747E-001	-6.619128587395963E-002	1.4350104E-005	-2.1704890E-001	0
3.3783870E+003	9.612199952316587E+000	-2.1882278E-001	-6.477137594145910E-002	1.4173453E-005	-2.1904889E-001	0
3.4792397E+003	9.812199947264162E+000	-2.2082116E-001	-6.346822008934039E-002	1.4015126E-005	-2.2104889E-001	0
3.5780337E+003	1.001219994221174E+001	-2.2278513E-001	-6.226468398795376E-002	1.3871646E-005	-2.2304893E-001	0
3.6716296E+003	1.021219993715931E+001	-2.2479814E-001	-6.122571351365602E-002	1.3763427E-005	-2.2504888E-001	0
3.7642673E+003	1.041219993210689E+001	-2.2680244E-001	-6.025141702548853E-002	1.3665168E-005	-2.2704890E-001	0
3.8529390E+003	1.061219992705446E+001	-2.2881228E-001	-5.938642653911153E-002	1.3588344E-005	-2.2904891E-001	0
3.9446611E+003	1.081219992200204E+001	-2.3082018E-001	-5.851457726744658E-002	1.3506346E-005	-2.3104890E-001	0
4.0262876E+003	1.101219991694961E+001	-2.3284315E-001	-5.783072930059546E-002	1.3465489E-005	-2.3304890E-001	0
4.1114155E+003	1.121219991189719E+001	-2.3484576E-001	-5.712041402153256E-002	1.3414487E-005	-2.3504891E-001	0
4.1945161E+003	1.141219990684476E+001	-2.3681779E-001	-5.645890409061427E-002	1.3370473E-005	-2.3704889E-001	0
4.2734150E+003	1.161219990179234E+001	-2.3881082E-001	-5.588289724067374E-002	1.3345440E-005	-2.3904890E-001	0
4.3550444E+003	1.181219989673991E+001	-2.4081792E-001	-5.529631994814593E-002	1.3316345E-005	-2.4104892E-001	0
4.4344004E+003	1.201219989168749E+001	-2.4280335E-001	-5.475449115576425E-002	1.3294574E-005	-2.4304889E-001	0
4.5128184E+003	1.221219988663506E+001	-2.4482463E-001	-5.425093868428454E-002	1.3281966E-005	-2.4504890E-001	0
4.5904214E+003	1.241219988158264E+001	-2.4685159E-001	-5.377536507528236E-002	1.3274534E-005	-2.4704891E-001	0
4.6676245E+003	1.261219987653021E+001	-2.4885018E-001	-5.331409504043694E-002	1.3267222E-005	-2.4904887E-001	0
4.7459507E+003	1.281219987147779E+001	-2.5080585E-001	-5.284628310069736E-002	1.3254157E-005	-2.5104892E-001	0
4.8191377E+003	1.301219986642536E+001	-2.5282034E-001	-5.246173660165271E-002	1.3263394E-005	-2.5304887E-001	0
4.8965962E+003	1.321219986137294E+001	-2.5478157E-001	-5.203238519461920E-002	1.3256893E-005	-2.5504887E-001	0
4.9668857E+003	1.341219985632051E+001	-2.5680161E-001	-5.170273980391893E-002	1.3277347E-005	-2.5704890E-001	0
5.0424517E+003	1.361219985126809E+001	-2.5878617E-001	-5.132149622876980E-002	1.3281294E-005	-2.5904888E-001	0
5.1128374E+003	1.381219984621566E+001	-2.6080278E-001	-5.100940371802298E-002	1.3303394E-005	-2.6104888E-001	0
5.1862729E+003	1.401219984116324E+001	-2.6276293E-001	-5.066507773541440E-002	1.3312904E-005	-2.6304889E-001	0
5.2582246E+003	1.421219983611081E+001	-2.6480332E-001	-5.035983382559527E-002	1.3335452E-005	-2.6504892E-001	0
5.3301865E+003	1.441219983105839E+001	-2.6682481E-001	-5.005918787802868E-002	1.3357034E-005	-2.6704890E-001	0
5.4035859E+003	1.461219982600596E+001	-2.6881534E-001	-4.974758483695463E-002	1.3372914E-005	-2.6904893E-001	0
5.4747183E+003	1.481219982095354E+001	-2.7081239E-001	-4.946599781086625E-002	1.3396005E-005	-2.7104890E-001	0
5.5406519E+003	1.501219981590111E+001	-2.7279609E-001	-4.923538020083373E-002	1.3431219E-005	-2.7304888E-001	0
5.6113340E+003	1.521219981084869E+001	-2.7478388E-001	-4.896943887712557E-002	1.3456012E-005	-2.7504888E-001	0
5.6850820E+003	1.541219980579626E+001	-2.7679220E-001	-4.868746089063741E-002	1.3476310E-005	-2.7704889E-001	0
5.7516982E+003	1.561219980074384E+001	-2.7880690E-001	-4.847383945641826E-002	1.3514840E-005	-2.7904889E-001	0
5.8212480E+003	1.581219979569141E+001	-2.8079760E-001	-4.823666791322841E-002	1.3544741E-005	-2.8104889E-001	0
5.8893071E+003	1.601219979063899E+001	-2.8282103E-001	-4.802280328713809E-002	1.3581859E-005	-2.8304890E-001	0
5.9626587E+003	1.621219978558656E+001	-2.8480092E-001	-4.776408030786672E-002	1.3603254E-005	-2.8504890E-001	0
6.0286689E+003	1.641219978053414E+001	-2.8687125E-001	-4.758450816582899E-002	1.3650628E-005	-2.8704891E-001	0
6.0932271E+003	1.661219977548171E+001	-2.8879026E-001	-4.739528858655087E-002	1.3687298E-005	-2.8904891E-001	0
6.1601909E+003	1.681219977042929E+001	-2.9074129E-001	-4.719679955711953E-002	1.3722059E-005	-2.9104888E-001	0
6.2217563E+003	1.701219976537686E+001	-2.9278079E-001	-4.705757880029049E-002	1.3777555E-005	-2.9304889E-001	0
6.2885093E+003	1.721219976032444E+001	-2.9473630E-001	-4.686902620346034E-002	1.3814003E-005	-2.9504889E-001	0
6.3543608E+003	1.741219975527201E+001	-2.9676053E-001	-4.670186965887901E-002	1.3859271E-005	-2.9704890E-001	0
6.4237158E+003	1.761219975021959E+001	-2.9875657E-001	-4.650837367732108E-002	1.3894683E-005	-2.9904890E-001	0
6.4972549E+003	1.781219974516716E+001	-3.0080965E-001	-4.629796010821163E-002	1.3926873E-005	-3.0104890E-001	0
6.5608882E+003	1.801219974011474E+001	-3.0280441E-001	-4.615296086622722E-002	1.3975320E-005	-3.0304891E-001	0
6.6268975E+003	1.821219973506231E+001	-3.0481341E-001	-4.599639906098152E-002	1.4020319E-005	-3.0504891E-001	0
6.6805020E+003	1.841219973000989E+001	-3.0682066E-001	-4.592778568806516E-002	1.4091594E-005	-3.0704889E-001	0
6.7447563E+003	1.861219972495746E+001	-3.0876449E-001	-4.577844870110959E-002	1.4134759E-005	-3.0904889E-001	0
6.8068135E+003	1.881219971990504E+001	-3.1080040E-001	-4.566019149433798E-002	1.4191206E-005	-3.1104890E-001	0
6.8729683E+003	1.901219971485261E+001	-3.1281787E-001	-4.551423056042708E-002	1.4237665E-005	-3.1304890E-001	0
6.9418745E+003	1.921219970980019E+001	-3.1486246E-001	-4.535697918736903E-002	1.4281210E-005	-3.1504890E-001	0
7.0087900E+003	1.941219970474776E+001	-3.1682774E-001	-4.520434279379149E-002	1.4321990E-005	-3.1704891E-001	0
7.0680469E+003	1.961219969969534E+001	-3.1883478E-001	-4.510931918675243E-002	1.4382420E-005	-3.1904891E-001	0
7.1188945E+003	1.981219969464291E+001	-3.2082379E-001	-4.506651937429407E-002	1.4458412E-005	-3.2104892E-001	0
7.2477393E+003	2.003219968908525E+001	-3.2298604E-001	-4.456369322150289E-002	1.4393450E-005	-3.2324886E-001	0
7.3789404E+003	2.025219968352758E+001	-3.2514495E-001	-4.406390700445996E-002	1.4327156E-005	-3.2544887E-001	0
7.4449336E+003	2.045219967847515E+001	-3.2718831E-001	-4.394778065106764E-002	1.4379200E-005	-3.2744887E-001	0
7.5136807E+003	2.065219967342273E+001	-3.2923722E-001	-4.381836771958680E-002	1.4426638E-005	-3.2944891E-001	0
7.5760127E+003	2.085219966837030E+001	-3.3123493E-001	-4.372153951508773E-002	1.4482102E-005	-3.3144891E-001	0
7.6281357E+003	2.105219966331788E+001	-3.3315608E-001	-4.367463972526137E-002	1.4550472E-005	-3.3344892E-001	0
7.6938711E+003	2.125219965826545E+001	-3.3522677E-001	-4.357062440361326E-002	1.4606040E-005	-3.3544892E-001	0
7.7497544E+003	2.145219965321303E+001	-3.3724594E-001	-4.351698454467323E-002	1.4675927E-005	-3.3744889E-001	0
7.8043477E+003	2.165219964816060E+001	-3.3920780E-001	-4.346395177447770E-002	1.4743311E-005	-3.3944890E-001	0
7.8597612E+003	2.185219964310818E+001	-3.4121996E-001	-4.341352697384748E-002	1.4813562E-005	-3.4144893E-001	0
7.9358691E+003	2.205219963805575E+001	-3.4327668E-001	-4.325634269270842E-002	1.4848893E-005	-3.4344891E-001	0
7.9965742E+003	2.225219963300333E+001	-3.4524149E-001	-4.317367356376117E-002	1.4905343E-005	-3.4544888E-001	0
8.0444380E+003	2.245219962795090E+001	-3.4719294E-001	-4.315937765400918E-002	1.4984631E-005	-3.4744892E-001	0
8.1072744E+003	2.265219962289848E+001	-3.4929875E-001	-4.308460928819657E-002	1.5049400E-005	-3.4944889E-001	0
8.1608442E+003	2.285219961784605E+001	-3.5123402E-001	-4.303893090073717E-002	1.5116737E-005	-3.5144892E-001	0
8.2067373E+003	2.305219961279363E+001	-3.5319778E-001	-4.303753843437041E-002	1.5200763E-005	-3.5344890E-001	0
8.2623965E+003	2.325219960774120E+001	-3.5516837E-001	-4.298612116566747E-002	1.5267311E-005	-3.5544890E-001	0
8.3151279E+003	2.345219960268878E+001	-3.5719201E-001	-4.295688449371332E-002	1.5343856E-005	-3.5744894E-001	0
8.3657773E+003	2.365219959763635E+001	-3.5912922E-001	-4.292837501891045E-002	1.5416834E-005	-3.5944891E-001	0
8.4286250E+003	2.385219959258393E+001	-3.6118531E-001	-4.285222230834973E-002	1.5477593E-005	-3.6144894E-001	0
8.4747080E+003	2.405219958753150E+001	-3.6323988E-001	-4.286164155017691E-002	1.5569058E-005	-3.6344892E-001	0
8.5197500E+003	2.425219958247908E+001	-3.6519116E-001	-4.286406856677510E-002	1.5653579E-005	-3.6544895E-001	0
8.5637197E+003	2.445219957742665E+001	-3.6724192E-001	-4.288346007230820E-002	1.5748605E-005	-3.6744890E-001	0
8.6152500E+003	2.465219957237423E+001	-3.6916110E-001	-4.284972607663895E-002	1.5818452E-005	-3.6944890E-001	0
8.6787783E+003	2.485219956732180E+001	-3.7125009E-001	-4.277676814304399E-002	1.5880880E-005	-3.7144893E-001	0
8.7092256E+003	2.505219956226938E+001	-3.7314555E-001	-4.284485845611155E-002	1.5987369E-005	-3.7344891E-001	0
8.7769951E+003	2.525219955721695E+001	-3.7524977E-001	-4.275378637657817E-002	1.6043348E-005	-3.7544891E-001	0
8.8450283E+003	2.545219955216453E+001	-3.7736079E-001	-4.266360291578675E-002	1.6099571E-005	-3.7744892E-001	0
8.8773955E+003	2.565219954711210E+001	-3.7925395E-001	-4.272130873163020E-002	1.6202226E-005	-3.7944892E-001	0
8.9249629E+003	2.585219954205968E+001	-3.8110587E-001	-4.270111447830571E-002	1.6273645E-005	-3.8144889E-001	0
8.9714648E+003	2.605219953700725E+001	-3.8313630E-001	-4.270610241024075E-002	1.6362259E-005	-3.8344893E-001	0
9.0151309E+003	2.625219953195483E+001	-3.8514546E-001	-4.272211418521998E-002	1.6454229E-005	-3.8544890E-001	0
9.0506602E+003	2.645219952690240E+001	-3.8715649E-001	-4.277660041813092E-002	1.6561238E-005	-3.8744891E-001	0
9.1074268E+003	2.665219952184998E+001	-3.8920331E-001	-4.273471582755903E-002	1.6632493E-005	-3.8944891E-001	0
9.1564512E+003	2.685219951679755E+001	-3.9121422E-001	-4.272552928464923E-002	1.6714836E-005	-3.9144892E-001	0
9.1926670E+003	2.705219951174513E+001	-3.9337808E-001	-4.279259508982491E-002	1.6833668E-005	-3.9344892E-001	0
9.2322539E+003	2.725219950669270E+001	-3.9527163E-001	-4.281420728520136E-002	1.6923241E-005	-3.9544895E-001	0
9.2672598E+003	2.745219950164028E+001	-3.9720207E-001	-4.286078849301600E-002	1.7024395E-005	-3.9744890E-001	0
9.3071543E+003	2.765219949658785E+001	-3.9920786E-001	-4.289257955999282E-002	1.7123055E-005	-3.9944893E-001	0
9.3509678E+003	2.785219949153543E+001	-4.0123802E-001	-4.290871652447198E-002	1.7216609E-005	-4.0144894E-001	0
9.3857168E+003	2.805219948648300E+001	-4.0330389E-001	-4.296996007021930E-002	1.7329952E-005	-4.0344897E-001	0
9.4213320E+003	2.825219948143058E+001	-4.0527043E-001	-4.301625401570397E-002	1.7433216E-005	-4.0544891E-001	0
9.4623809E+003	2.845219947637815E+001	-4.0723652E-001	-4.303742459417637E-002	1.7526410E-005	-4.0744895E-001	0
9.4953145E+003	2.865219947132573E+001	-4.0929344E-001	-4.310477942348681E-002	1.7642504E-005	-4.0944892E-001	0
9.5313457E+003	2.885219946627331E+001	-4.1113690E-001	-4.313524089365053E-002	1.7734488E-005	-4.1144890E-001	0
9.5616865E+003	2.905219946122088E+001	-4.1320717E-001	-4.321488375007847E-002	1.7856701E-005	-4.1344893E-001	0
9.6062939E+003	2.925219945616846E+001	-4.1523063E-001	-4.322485158129119E-002	1.7948283E-005	-4.1544893E-001	0
9.6368438E+003	2.945219945111603E+001	-4.1725743E-001	-4.329814054647371E-002	1.8066470E-005	-4.1744894E-001	0
9.6646406E+003	2.965219944606361E+001	-4.1928014E-001	-4.338290079765006E-002	1.8189588E-005	-4.1944894E-001	0
9.6998896E+003	2.985219944101118E+001	-4.2129844E-001	-4.343332270136041E-002	1.8298391E-005	-4.2144895E-001	0
9.7242422E+003	3.005219943595876E+001	-4.2321703E-001	-4.352185223146005E-002	1.8419189E-005	-4.2344895E-001	0
9.7587734E+003	3.025219943090633E+001	-4.2516953E-001	-4.356792560660289E-002	1.8523755E-005	-4.2544892E-001	0
9.7956406E+003	3.045219942585391E+001	-4.2725259E-001	-4.361660528585931E-002	1.8635308E-005	-4.2744890E-001	0
9.8310332E+003	3.065219942080148E+001	-4.2929232E-001	-4.366706026234413E-002	1.8745934E-005	-4.2944893E-001	0
9.8547383E+003	3.085219941574906E+001	-4.3130657E-001	-4.376641469754183E-002	1.8876743E-005	-4.3144891E-001	0
9.8730186E+003	3.105219941069663E+001	-4.3338940E-001	-4.389634081838323E-002	1.9024208E-005	-4.3344894E-001	0
9.9054082E+003	3.125219940564421E+001	-4.3520063E-001	-4.393565808760758E-002	1.9120826E-005	-4.3544891E-001	0
9.9362246E+003	3.145219940059178E+001	-4.3726647E-001	-4.400730727883495E-002	1.9242920E-005	-4.3744895E-001	0
9.9533545E+003	3.165219939553936E+001	-4.3923002E-001	-4.412884350978019E-002	1.9382713E-005	-4.3944889E-001	0
9.9796035E+003	3.185219939048693E+001	-4.4122371E-001	-4.421254707676681E-002	1.9507625E-005	-4.4144893E-001	0
1.0014413E+004	3.205219938543451E+001	-4.4335935E-001	-4.427212274310222E-002	1.9628460E-005	-4.4344896E-001	0
1.0025940E+004	3.225219938038208E+001	-4.4532335E-001	-4.441711552337635E-002	1.9779978E-005	-4.4544894E-001	0
1.0050321E+004	3.245219937532966E+001	-4.4726291E-001	-4.450234882623327E-002	1.9904250E-005	-4.4744891E-001	0
1.0076235E+004	3.265219937027723E+001	-4.4922033E-001	-4.458215719172343E-002	2.0027212E-005	-4.4944894E-001	0
1.0091666E+004	3.285219936522481E+001	-4.5123035E-001	-4.471316687602234E-002	2.0175938E-005	-4.5144898E-001	0
1.0115619E+004	3.305219936017238E+001	-4.5326990E-001	-4.480891228023087E-002	2.0310532E-005	-4.5344892E-001	0
1.0151312E+004	3.325219935511996E+001	-4.5533553E-001	-4.485484936998939E-002	2.0424006E-005	-4.5544893E-001	0
1.0173588E+004	3.345219935006753E+001	-4.5729122E-001	-4.494886237720386E-002	2.0554720E-005	-4.5744896E-001	0
1.0200772E+004	3.365219934501511E+001	-4.5924100E-001	-4.502021742862161E-002	2.0675130E-005	-4.5944890E-001	0
1.0204032E+004	3.385219933996268E+001	-4.6123871E-001	-4.520161091318346E-002	2.0848733E-005	-4.6144894E-001	0
1.0220665E+004	3.405219933491026E+001	-4.6324489E-001	-4.532433792345791E-002	2.0996267E-005	-4.6344897E-001	0
1.0245147E+004	3.425219932985783E+001	-4.6516818E-001	-4.540375472456160E-002	2.1120382E-005	-4.6544895E-001	0
1.0248359E+004	3.445219932480541E+001	-4.6725398E-001	-4.559305051205453E-002	2.1303535E-005	-4.6744892E-001	0
1.0287396E+004	3.465219931975298E+001	-4.6928304E-001	-4.561728352966965E-002	2.1407417E-005	-4.6944892E-001	0
1.0300210E+004	3.485219931470056E+001	-4.7122291E-001	-4.574886509090614E-002	2.1557913E-005	-4.7144899E-001	0
1.0320695E+004	3.505219930964813E+001	-4.7321424E-001	-4.585100579774537E-002	2.1697349E-005	-4.7344893E-001	0
1.0335252E+004	3.525219930459571E+001	-4.7522679E-001	-4.598115224052290E-002	2.1851476E-005	-4.7544894E-001	0
1.0339225E+004	3.545219929954328E+001	-4.7726399E-001	-4.616052081941491E-002	2.2030754E-005	-4.7744894E-001	0
1.0371037E+004	3.565219929449086E+001	-4.7928616E-001	-4.621391035347125E-002	2.2149688E-005	-4.7944894E-001	0
1.0381079E+004	3.585219928943843E+001	-4.8128450E-001	-4.636170203922119E-002	2.2313168E-005	-4.8144889E-001	0
1.0402630E+004	3.605219928438601E+001	-4.8329982E-001	-4.645938734347621E-002	2.2453814E-005	-4.8344892E-001	0
1.0424971E+004	3.625219927933358E+001	-4.8524320E-001	-4.654624140208929E-002	2.2586248E-005	-4.8544896E-001	0
1.0443733E+004	3.645219927428116E+001	-4.8720741E-001	-4.665069272102823E-002	2.2728564E-005	-4.8744893E-001	0
1.0479495E+004	3.665219926922873E+001	-4.8923993E-001	-4.668545011640049E-002	2.2840386E-005	-4.8944890E-001	0
1.0482838E+004	3.685219926417631E+001	-4.9125698E-001	-4.686297727389777E-002	2.3021765E-005	-4.9144894E-001	0
1.0502430E+004	3.705219925912388E+001	-4.9322352E-001	-4.696279925018620E-002	2.3163157E-005	-4.9344894E-001	0
1.0519634E+004	3.725219925407146E+001	-4.9524966E-001	-4.707860259936864E-002	2.3315662E-005	-4.9544892E-001	0
1.0531802E+004	3.745219924901903E+001	-4.9724805E-001	-4.721396007572984E-002	2.3477050E-005	-4.9744895E-001	0
1.0556960E+004	3.765219924396661E+001	-4.9918887E-001	-4.728528742901272E-002	2.3604289E-005	-4.9944896E-001	0
1.0555365E+004	3.785219923891418E+001	-5.0125808E-001	-4.748846203207020E-002	2.3803976E-005	-5.0144893E-001	0
1.0592682E+004	3.805219923386176E+001	-5.0321615E-001	-4.750602191515763E-002	2.3905797E-005	-5.0344896E-001	0
1.0617820E+004	3.825219922880933E+001	-5.0529176E-001	-4.758902734896286E-002	2.4046343E-005	-5.0544894E-001	0
1.0641053E+004	3.845219922375691E+001	-5.0725466E-001	-4.766959462883968E-002	2.4180625E-005	-5.0744891E-001	0
1.0661592E+004	3.865219921870448E+001	-5.0924051E-001	-4.776402164087989E-002	2.4323375E-005	-5.0944895E-001	0
1.0689330E+004	3.885219921365206E+001	-5.1129216E-001	-4.783200950529687E-002	2.4456131E-005	-5.1144892E-001	0
1.0716146E+004	3.905219920859963E+001	-5.1325893E-001	-4.789584740688002E-002	2.4582972E-005	-5.1344901E-001	0
1.0725241E+004	3.925219920354721E+001	-5.1521951E-001	-4.803803316560362E-002	2.4750132E-005	-5.1544887E-001	0
1.0759155E+004	3.945219919849478E+001	-5.1732451E-001	-4.808226122247372E-002	2.4874133E-005	-5.1744890E-001	0
1.0794010E+004	3.965219919344236E+001	-5.1925415E-001	-4.810577033450847E-002	2.4979121E-005	-5.1944894E-001	0
1.0803340E+004	3.985219918838993E+001	-5.2124178E-001	-4.824820898743578E-002	2.5148982E-005	-5.2144891E-001	0
1.0829415E+004	4.005219918333751E+001	-5.2320296E-001	-4.831313290089467E-002	2.5277574E-005	-5.2344894E-001	0
1.0871305E+004	4.025219917828508E+001	-5.2524054E-001	-4.831439689226252E-002	2.5376679E-005	-5.2544892E-001	0
1.0885808E+004	4.045219917323266E+001	-5.2719969E-001	-4.843000409033904E-002	2.5532283E-005	-5.2744901E-001	0
1.0934331E+004	4.065219916818023E+001	-5.2925980E-001	-4.840349342833461E-002	2.5618023E-005	-5.2944893E-001	0
1.0952385E+004	4.085219916312781E+001	-5.3127408E-001	-4.850761868801945E-002	2.5770840E-005	-5.3144896E-001	0
1.0981629E+004	4.105219915807538E+001	-5.3322744E-001	-4.855631799421267E-002	2.5891561E-005	-5.3344899E-001	0
1.1014486E+004	4.125219915302296E+001	-5.3521562E-001	-4.859197079763677E-002	2.6007181E-005	-5.3544891E-001	0
1.1052152E+004	4.145219914797053E+001	-5.3720701E-001	-4.860655008234471E-002	2.6111778E-005	-5.3744894E-001	0
1.1088093E+004	4.165219914291811E+001	-5.3925288E-001	-4.863351267126825E-002	2.6225762E-005	-5.3944898E-001	0
1.1111809E+004	4.185219913786568E+001	-5.4123598E-001	-4.870817959841856E-002	2.6362619E-005	-5.4144895E-001	0
1.1149954E+004	4.205219913281326E+001	-5.4328084E-001	-4.872493990227078E-002	2.6471327E-005	-5.4344893E-001	0
1.1178313E+004	4.225219912776083E+001	-5.4523122E-001	-4.877580237409102E-002	2.6594091E-005	-5.4544896E-001	0
1.1209585E+004	4.245219912270841E+001	-5.4726475E-001	-4.882114157006723E-002	2.6718089E-005	-5.4744899E-001	0
1.1253321E+004	4.265219911765598E+001	-5.4923767E-001	-4.880671689810578E-002	2.6806487E-005	-5.4944891E-001	0
1.1300578E+004	4.285219911260356E+001	-5.5122060E-001	-4.877808897955604E-002	2.6887486E-005	-5.5144888E-001	0
1.1331302E+004	4.305219910755113E+001	-5.5324012E-001	-4.882405886226993E-002	2.7011429E-005	-5.5344898E-001	0
1.1388645E+004	4.325219910249871E+001	-5.5524355E-001	-4.875413949686891E-002	2.7070422E-005	-5.5544889E-001	0
1.1432146E+004	4.345219909744628E+001	-5.5726421E-001	-4.874537595312273E-002	2.7164053E-005	-5.5744892E-001	0
1.1463569E+004	4.365219909239386E+001	-5.5929244E-001	-4.878868227676730E-002	2.7287140E-005	-5.5944890E-001	0
1.1507963E+004	4.385219908734143E+001	-5.6121105E-001	-4.876719275542274E-002	2.7368687E-005	-5.6144899E-001	0
1.1556146E+004	4.405219908228901E+001	-5.6320775E-001	-4.873664492488894E-002	2.7448856E-005	-5.6344891E-001	0
1.1591799E+004	4.425219907723658E+001	-5.6529313E-001	-4.876664574569517E-002	2.7567450E-005	-5.6544894E-001	0
1.1632313E+004	4.445219907218416E+001	-5.6730849E-001	-4.877005139832485E-002	2.7667664E-005	-5.6744897E-001	0
1.1687096E+004	4.465219906713173E+001	-5.6927431E-001	-4.870964803621014E-002	2.7729151E-005	-5.6944895E-001	0
1.1759496E+004	4.485219906207931E+001	-5.7126254E-001	-4.857882663719515E-002	2.7751264E-005	-5.7144892E-001	0
1.1792432E+004	4.505219905702688E+001	-5.7323498E-001	-4.861041458873716E-002	2.7865190E-005	-5.7344896E-001	0
1.1834306E+004	4.525219905197446E+001	-5.7527828E-001	-4.861107355489469E-002	2.7964896E-005	-5.7544899E-001	0
1.1888301E+004	4.545219904692203E+001	-5.7727474E-001	-4.855822050012643E-002	2.8031434E-005	-5.7744896E-001	0
1.1951415E+004	4.565219904186961E+001	-5.7930458E-001	-4.847163249724790E-002	2.8079838E-005	-5.7944894E-001	0
1.1990984E+004	4.585219903681718E+001	-5.8120483E-001	-4.847014974908320E-002	2.8171085E-005	-5.8144897E-001	0
1.2040433E+004	4.605219903176476E+001	-5.8317119E-001	-4.843440571168445E-002	2.8245549E-005	-5.8344895E-001	0
1.2092834E+004	4.625219902671233E+001	-5.8526337E-001	-4.839753440756561E-002	2.8325305E-005	-5.8544892E-001	0
1.2140967E+004	4.645219902165991E+001	-5.8724689E-001	-4.836904047117230E-002	2.8404569E-005	-5.8744895E-001	0
1.2207400E+004	4.665219901660748E+001	-5.8924347E-001	-4.826936400004456E-002	2.8442408E-005	-5.8944893E-001	0
1.2268769E+004	4.685219901155506E+001	-5.9122449E-001	-4.818939293635482E-002	2.8490749E-005	-5.9144890E-001	0
1.2328451E+004	4.705219900650263E+001	-5.9321624E-001	-4.811766155881392E-002	2.8544178E-005	-5.9344894E-001	0
1.2388147E+004	4.725219900145021E+001	-5.9526277E-001	-4.805098992720636E-002	2.8602964E-005	-5.9544897E-001	0
1.2423077E+004	4.745219899639778E+001	-5.9723717E-001	-4.807481939678426E-002	2.8712069E-005	-5.9744889E-001	0
1.2486354E+004	4.765219899134536E+001	-5.9926397E-001	-4.799351243586281E-002	2.8760782E-005	-5.9944892E-001	0
1.2558196E+004	4.785219898629293E+001	-6.0122049E-001	-4.787474700599237E-002	2.8783279E-005	-6.0144895E-001	0
1.2600343E+004	4.805219898124051E+001	-6.0318387E-001	-4.787043387401857E-002	2.8874674E-005	-6.0344893E-001	0
1.2652006E+004	4.825219897618808E+001	-6.0520536E-001	-4.783473740217781E-002	2.8949838E-005	-6.0544890E-001	0
1.2727253E+004	4.845219897113566E+001	-6.0724509E-001	-4.771218936079413E-002	2.8972992E-005	-6.0744894E-001	0
1.2766836E+004	4.865219896608323E+001	-6.0925382E-001	-4.772159957581434E-002	2.9074567E-005	-6.0944897E-001	0
1.2831475E+004	4.885219896103081E+001	-6.1125660E-001	-4.763728533259048E-002	2.9118604E-005	-6.1144894E-001	0
1.2886625E+004	4.905219895597838E+001	-6.1323166E-001	-4.758667599150063E-002	2.9181656E-005	-6.1344898E-001	0
1.2949111E+004	4.925219895092596E+001	-6.1526692E-001	-4.751422039820263E-002	2.9233928E-005	-6.1544895E-001	0
1.3004573E+004	4.945219894587353E+001	-6.1725658E-001	-4.746457875802335E-002	2.9297824E-005	-6.1744899E-001	0
1.3069677E+004	4.965219894082111E+001	-6.1931121E-001	-4.738535201456839E-002	2.9346280E-005	-6.1944890E-001	0
1.3116785E+004	4.985219893576868E+001	-6.2131447E-001	-4.736789197227020E-002	2.9430357E-005	-6.2144893E-001	0
1.3175791E+004	5.005219893071626E+001	-6.2325281E-001	-4.730287734619743E-002	2.9481651E-005	-6.2344897E-001	0
1.3225943E+004	5.025219892566383E+001	-6.2522751E-001	-4.727281040333586E-002	2.9556262E-005	-6.2544888E-001	0
1.3303325E+004	5.045219892061141E+001	-6.2730122E-001	-4.715371673531799E-002	2.9579583E-005	-6.2744898E-001	0
1.3359280E+004	5.065219891555898E+001	-6.2927818E-001	-4.710419682966438E-002	2.9641644E-005	-6.2944901E-001	0
1.3410883E+004	5.085219891050656E+001	-6.3127524E-001	-4.707186398241059E-002	2.9715302E-005	-6.3144898E-001	0
1.3470888E+004	5.105219890545413E+001	-6.3328612E-001	-4.701146068602655E-002	2.9771705E-005	-6.3344890E-001	0
1.3535068E+004	5.125219890040171E+001	-6.3526458E-001	-4.693471334421645E-002	2.9815961E-005	-6.3544893E-001	0
1.3589145E+004	5.145219889534928E+001	-6.3731253E-001	-4.689864992732140E-002	2.9889097E-005	-6.3744903E-001	0
1.3651129E+004	5.165219889029686E+001	-6.3928860E-001	-4.683045670205354E-002	2.9938177E-005	-6.3944894E-001	0
1.3711617E+004	5.185219888524443E+001	-6.4128041E-001	-4.676913089845351E-002	2.9992127E-005	-6.4144892E-001	0
1.3761159E+004	5.205219888019201E+001	-6.4327157E-001	-4.674544917787009E-002	3.0070018E-005	-6.4344901E-001	0
1.3804780E+004	5.225219887513958E+001	-6.4526165E-001	-4.674189790313577E-002	3.0160754E-005	-6.4544892E-001	0
1.3865300E+004	5.245219887008716E+001	-6.4728731E-001	-4.668397502076144E-002	3.0217945E-005	-6.4744896E-001	0
1.3938252E+004	5.265219886503473E+001	-6.4932996E-001	-4.658618326670583E-002	3.0249805E-005	-6.4944893E-001	0
1.3997072E+004	5.285219885998231E+001	-6.5127498E-001	-4.652937316829941E-002	3.0303416E-005	-6.5144897E-001	0
1.4042401E+004	5.305219885492988E+001	-6.5326208E-001	-4.652068013844850E-002	3.0390196E-005	-6.5344894E-001	0
1.4089354E+004	5.325219884987746E+001	-6.5530634E-001	-4.651074598610916E-002	3.0478786E-005	-6.5544891E-001	0
1.4138245E+004	5.345219884482503E+001	-6.5733218E-001	-4.649319387697803E-002	3.0561474E-005	-6.5744901E-001	0
1.4226647E+004	5.365219883977261E+001	-6.5930867E-001	-4.634322162217069E-002	3.0554489E-005	-6.5944892E-001	0
1.4260933E+004	5.385219883472018E+001	-6.6132700E-001	-4.637333515016739E-002	3.0667939E-005	-6.6144890E-001	0
1.4321802E+004	5.405219882966776E+001	-6.6327983E-001	-4.631259822542200E-002	3.0718213E-005	-6.6344899E-001	0
1.4372457E+004	5.425219882461533E+001	-6.6524374E-001	-4.628601455147652E-002	3.0791482E-005	-6.6544890E-001	0
1.4418382E+004	5.445219881956291E+001	-6.6730404E-001	-4.628148064747994E-002	3.0883821E-005	-6.6744894E-001	0
1.4489381E+004	5.465219881451048E+001	-6.6932726E-001	-4.619433169776910E-002	3.0919124E-005	-6.6944891E-001	0
1.4538545E+004	5.485219880945806E+001	-6.7129058E-001	-4.617316242890282E-002	3.0995609E-005	-6.7144901E-001	0
1.4605761E+004	5.505219880440563E+001	-6.7324001E-001	-4.609414180709039E-002	3.1032421E-005	-6.7344892E-001	0
1.4643353E+004	5.525219879935321E+001	-6.7525232E-001	-4.611323246217058E-002	3.1138068E-005	-6.7544889E-001	0
1.4711931E+004	5.545219879430078E+001	-6.7728478E-001	-4.603643127471035E-002	3.1179774E-005	-6.7744899E-001	0
1.4731353E+004	5.565219878924836E+001	-6.7929423E-001	-4.611214309272965E-002	3.1323714E-005	-6.7944890E-001	0
1.4800314E+004	5.585219878419593E+001	-6.8130702E-001	-4.603328112520227E-002	3.1362797E-005	-6.8144894E-001	0
1.4841437E+004	5.605219877914351E+001	-6.8326616E-001	-4.603773703462866E-002	3.1456028E-005	-6.8344891E-001	0
1.4912285E+004	5.625219877409108E+001	-6.8524706E-001	-4.595184746718922E-002	3.1488369E-005	-6.8544894E-001	0
1.4947368E+004	5.645219876903866E+001	-6.8723935E-001	-4.597728096831455E-002	3.1597396E-005	-6.8744898E-001	0
1.4999278E+004	5.665219876398623E+001	-6.8926334E-001	-4.595310028453425E-002	3.1673786E-005	-6.8944895E-001	0
1.5047879E+004	5.685219875893381E+001	-6.9126421E-001	-4.593765237020220E-002	3.1755055E-005	-6.9144899E-001	0
1.5099404E+004	5.705219875388138E+001	-6.9320846E-001	-4.590965613834719E-002	3.1824962E-005	-6.9344896E-001	0
1.5147389E+004	5.725219874882896E+001	-6.9525135E-001	-4.589908878142634E-002	3.1911404E-005	-6.9544894E-001	0
1.5194349E+004	5.745219874377653E+001	-6.9728732E-001	-4.589122755805697E-002	3.1999371E-005	-6.9744897E-001	0
1.5223981E+004	5.765219873872411E+001	-6.9928491E-001	-4.593311663523797E-002	3.2120337E-005	-6.9944900E-001	0
1.5288068E+004	5.785219873367168E+001	-7.0125747E-001	-4.586959346709668E-002	3.2166394E-005	-7.0144898E-001	0
1.5310339E+004	5.805219872861926E+001	-7.0322347E-001	-4.593128028305687E-002	3.2299955E-005	-7.0344895E-001	0
1.5351262E+004	5.825219872356683E+001	-7.0524347E-001	-4.594042412662125E-002	3.2399184E-005	-7.0544904E-001	0
1.5416989E+004	5.845219871851441E+001	-7.0732987E-001	-4.587989724362623E-002	3.2452223E-005	-7.0744902E-001	0
1.5439113E+004	5.865219871346198E+001	-7.0931870E-001	-4.594296907484446E-002	3.2588207E-005	-7.0944887E-001	0
1.5497174E+004	5.885219870840956E+001	-7.1125948E-001	-4.589607791031147E-002	3.2644020E-005	-7.1144897E-001	0
1.5522607E+004	5.905219870335713E+001	-7.1327811E-001	-4.595092218474828E-002	3.2775788E-005	-7.1344894E-001	0
1.5563388E+004	5.925219869830471E+001	-7.1527636E-001	-4.595891311880862E-002	3.2873326E-005	-7.1544892E-001	0
1.5603255E+004	5.945219869325229E+001	-7.1724576E-001	-4.596770039755338E-002	3.2970140E-005	-7.1744901E-001	0
1.5644588E+004	5.965219868819986E+001	-7.1927524E-001	-4.597597769693862E-002	3.3069384E-005	-7.1944898E-001	0
1.5700161E+004	5.985219868314744E+001	-7.2128230E-001	-4.594107587027707E-002	3.3136486E-005	-7.2144896E-001	0
1.5731118E+004	6.005219867809501E+001	-7.2328812E-001	-4.597817652736286E-002	3.3255470E-005	-7.2344893E-001	0
1.5760546E+004	6.025219867304259E+001	-7.2533423E-001	-4.602215224623585E-002	3.3381442E-005	-7.2544903E-001	0
1.5799226E+004	6.045219866799016E+001	-7.2730494E-001	-4.603421445666700E-002	3.3480912E-005	-7.2744900E-001	0
1.5827688E+004	6.065219866293774E+001	-7.2932267E-001	-4.607891603879838E-002	3.3606397E-005	-7.2944891E-001	0
1.5858223E+004	6.085219865788531E+001	-7.3129362E-001	-4.611447617826592E-002	3.3723223E-005	-7.3144895E-001	0
1.5879809E+004	6.105219865283289E+001	-7.3326242E-001	-4.617577236538539E-002	3.3858960E-005	-7.3344898E-001	0
1.5922290E+004	6.125219864778046E+001	-7.3527151E-001	-4.617875344526501E-002	3.3953922E-005	-7.3544896E-001	0
1.5914630E+004	6.145219864272804E+001	-7.3725218E-001	-4.632543692816171E-002	3.4153531E-005	-7.3744893E-001	0
1.5950505E+004	6.165219863767561E+001	-7.3928577E-001	-4.634873659873706E-002	3.4264962E-005	-7.3944902E-001	0
1.5968609E+004	6.185219863262319E+001	-7.4124551E-001	-4.641891475803839E-002	3.4407811E-005	-7.4144900E-001	0
1.5993560E+004	6.205219862757076E+001	-7.4315691E-001	-4.646600937854073E-002	3.4531535E-005	-7.4344897E-001	0
1.5996121E+004	6.225219862251834E+001	-7.4519199E-001	-4.658579221496861E-002	3.4715358E-005	-7.4544895E-001	0
1.6045818E+004	6.245219861746591E+001	-7.4730897E-001	-4.657343954276594E-002	3.4804751E-005	-7.4744904E-001	0
1.6057398E+004	6.265219861241349E+001	-7.4941462E-001	-4.667098514045143E-002	3.4975918E-005	-7.4944890E-001	0
1.6077963E+004	6.285219860736106E+001	-7.5129527E-001	-4.672826147879011E-002	3.5106721E-005	-7.5144899E-001	0
1.6059729E+004	6.305219860230864E+001	-7.5325203E-001	-4.690316012271745E-002	3.5329900E-005	-7.5344902E-001	0
1.6088854E+004	6.325219859725621E+001	-7.5529563E-001	-4.694527133564352E-002	3.5457557E-005	-7.5544894E-001	0
1.6108431E+004	6.345219859220379E+001	-7.5736970E-001	-4.701697628030688E-002	3.5609231E-005	-7.5744891E-001	0
1.6093979E+004	6.365219858715136E+001	-7.5928575E-001	-4.717824849286356E-002	3.5821773E-005	-7.5944901E-001	0
1.6092298E+004	6.385219858209894E+001	-7.6119560E-001	-4.730185851335403E-002	3.6005968E-005	-7.6144898E-001	0
1.6089890E+004	6.405219857704651E+001	-7.6321286E-001	-4.743431189468106E-002	3.6202477E-005	-7.6344889E-001	0
1.6103919E+004	6.425219857199409E+001	-7.6535279E-001	-4.752587111426046E-002	3.6374058E-005	-7.6544899E-001	0
1.6073713E+004	6.445219856694166E+001	-7.6734817E-001	-4.773932209321807E-002	3.6632682E-005	-7.6744902E-001	0
1.6069492E+004	6.465219856188924E+001	-7.6924294E-001	-4.786977344092225E-002	3.6823487E-005	-7.6944894E-001	0
1.6070936E+004	6.485219855683681E+001	-7.7125525E-001	-4.799068908871273E-002	3.7013073E-005	-7.7144897E-001	0
1.6050789E+004	6.505219855178439E+001	-7.7331626E-001	-4.817933148161729E-002	3.7257862E-005	-7.7344900E-001	0
1.6042733E+004	6.525219854673196E+001	-7.7532721E-001	-4.832887129257313E-002	3.7470687E-005	-7.7544898E-001	0
1.5989840E+004	6.545219854167954E+001	-7.7722329E-001	-4.860732130323020E-002	3.7778744E-005	-7.7744895E-001	0
1.5969591E+004	6.565219853662711E+001	-7.7915478E-001	-4.878990118504822E-002	3.8014885E-005	-7.7944893E-001	0
1.5928118E+004	6.585219853157469E+001	-7.8127706E-001	-4.905017908048021E-002	3.8321781E-005	-7.8144902E-001	0
1.5908296E+004	6.605219852652226E+001	-7.8326184E-001	-4.923606128537483E-002	3.8564729E-005	-7.8344899E-001	0
1.5842642E+004	6.625219852146984E+001	-7.8528309E-001	-4.956768768155279E-002	3.8924667E-005	-7.8544897E-001	0
1.5830440E+004	6.645219851641741E+001	-7.8724712E-001	-4.972995755097953E-002	3.9149767E-005	-7.8744906E-001	0
1.5748766E+004	6.665219851136499E+001	-7.8921235E-001	-5.011264661426262E-002	3.9549519E-005	-7.8944892E-001	0
1.5713527E+004	6.685219850631256E+001	-7.9133022E-001	-5.035980735892803E-002	3.9851238E-005	-7.9144901E-001	0
1.5663652E+004	6.705219850126014E+001	-7.9328507E-001	-5.064496017840447E-002	4.0175892E-005	-7.9344898E-001	0
1.5591613E+004	6.725219849620771E+001	-7.9528308E-001	-5.100710654912130E-002	4.0565090E-005	-7.9544896E-001	0
1.5524825E+004	6.745219849115529E+001	-7.9728222E-001	-5.135531178010377E-002	4.0944677E-005	-7.9744905E-001	0
1.5446359E+004	6.765219848610286E+001	-7.9920739E-001	-5.174082492704160E-002	4.1351650E-005	-7.9944897E-001	0
1.5415535E+004	6.785219848105044E+001	-8.0128187E-001	-5.197885548041237E-002	4.1649713E-005	-8.0144906E-001	0
1.5357167E+004	6.805219847599801E+001	-8.0328244E-001	-5.230668035827890E-002	4.2017036E-005	-8.0344898E-001	0
1.5256687E+004	6.825219847094559E+001	-8.0528945E-001	-5.278272305186560E-002	4.2505369E-005	-8.0544889E-001	0
1.5150406E+004	6.845219846589316E+001	-8.0719823E-001	-5.327898195454756E-002	4.3006701E-005	-8.0744904E-001	0
1.5129251E+004	6.865219846084074E+001	-8.0932248E-001	-5.349388837079383E-002	4.3293807E-005	-8.0944902E-001	0
1.5028383E+004	6.885219845578831E+001	-8.1131840E-001	-5.398574320476945E-002	4.3799628E-005	-8.1144899E-001	0
1.4929790E+004	6.905219845073589E+001	-8.1329399E-001	-5.447457805159761E-002	4.4303848E-005	-8.1344897E-001	0
1.4840983E+004	6.925219844568346E+001	-8.1527275E-001	-5.493387654729953E-002	4.4786091E-005	-8.1544900E-001	0
1.4729177E+004	6.945219844063104E+001	-8.1714481E-001	-5.547796946247021E-002	4.5333534E-005	-8.1744903E-001	0
1.4663562E+004	6.965219843557861E+001	-8.1921494E-001	-5.586739148798914E-002	4.5767403E-005	-8.1944895E-001	0
1.4555697E+004	6.985219843052619E+001	-8.2137561E-001	-5.642983751622821E-002	4.6350091E-005	-8.2144904E-001	0
1.4448802E+004	7.005219842547376E+001	-8.2331640E-001	-5.698164008281115E-002	4.6913920E-005	-8.2344902E-001	0
1.4361740E+004	7.025219842042134E+001	-8.2525098E-001	-5.746176796215588E-002	4.7420381E-005	-8.2544899E-001	0
1.4226716E+004	7.045219841536891E+001	-8.2727689E-001	-5.814953373698661E-002	4.8105765E-005	-8.2744896E-001	0
1.4153242E+004	7.065219841031649E+001	-8.2935524E-001	-5.859825084811660E-002	4.8598766E-005	-8.2944894E-001	0
1.4048690E+004	7.085219840526406E+001	-8.3138925E-001	-5.917912782877349E-002	4.9200891E-005	-8.3144903E-001	0
1.3941288E+004	7.105219840021164E+001	-8.3320403E-001	-5.976521338509322E-002	4.9796618E-005	-8.3344895E-001	0
1.3836597E+004	7.125219839515921E+001	-8.3521920E-001	-6.036305278666387E-002	5.0416380E-005	-8.3544910E-001	0
1.3761589E+004	7.145219839010679E+001	-8.3728480E-001	-6.084215970363560E-002	5.0942217E-005	-8.3744907E-001	0
1.3624510E+004	7.165219838505436E+001	-8.3934349E-001	-6.160540807339659E-002	5.1708099E-005	-8.3944893E-001	0
1.3480698E+004	7.185219838000194E+001	-8.4123570E-001	-6.240297884832383E-002	5.2495612E-005	-8.4144902E-001	0
1.3353810E+004	7.205219837494951E+001	-8.4326291E-001	-6.314774045283533E-002	5.3250147E-005	-8.4344900E-001	0
1.3224717E+004	7.225219836989709E+001	-8.4534073E-001	-6.392127139728199E-002	5.4035256E-005	-8.4544897E-001	0
1.3063480E+004	7.245219836484466E+001	-8.4729701E-001	-6.485997705483837E-002	5.4955664E-005	-8.4744900E-001	0
1.2904694E+004	7.265219835979224E+001	-8.4926462E-001	-6.581051851455944E-002	5.5890545E-005	-8.4944904E-001	0
1.2772042E+004	7.285219835473981E+001	-8.5125315E-001	-6.664972900267252E-002	5.6735793E-005	-8.5144901E-001	0
1.2608630E+004	7.305219834968739E+001	-8.5329205E-001	-6.767524100624683E-002	5.7746744E-005	-8.5344899E-001	0
1.2436177E+004	7.325219834463496E+001	-8.5530001E-001	-6.877515559737302E-002	5.8823392E-005	-8.5544902E-001	0
1.2220398E+004	7.345219833958254E+001	-8.5730344E-001	-7.015347451683290E-002	6.0142815E-005	-8.5744900E-001	0
1.1988957E+004	7.365219833453011E+001	-8.5925299E-001	-7.167037001751875E-002	6.1582978E-005	-8.5944897E-001	0
1.1711166E+004	7.385219832947769E+001	-8.6129612E-001	-7.354486740063326E-002	6.3343912E-005	-8.6144894E-001	0
1.1426965E+004	7.405219832442526E+001	-8.6331928E-001	-7.555105633212178E-002	6.5224682E-005	-8.6344904E-001	0
1.1111602E+004	7.425219831937284E+001	-8.6527824E-001	-7.787160370752311E-002	6.7380606E-005	-8.6544901E-001	0
1.0761449E+004	7.445219831432041E+001	-8.6726892E-001	-8.059034284411193E-002	6.9893496E-005	-8.6744899E-001	0
1.0388661E+004	7.465219830926799E+001	-8.6928177E-001	-8.367601877538788E-002	7.2738039E-005	-8.6944908E-001	0
9.9554414E+003	7.486219830396294E+001	-8.7140197E-001	-8.753022309313407E-002	7.6274009E-005	-8.7154907E-001	0
9.5016406E+003	7.507219829865790E+001	-8.7344015E-001	-9.192519369292329E-002	8.0291153E-005	-8.7364894E-001	0
9.0908955E+003	7.527219829360547E+001	-8.7544560E-001	-9.629915973072412E-002	8.4304673E-005	-8.7564903E-001	0
8.7299160E+003	7.547219828855305E+001	-8.7748712E-001	-1.005149589230614E-001	8.8200584E-005	-8.7764901E-001	0
8.4019307E+003	7.567219828350062E+001	-8.7944812E-001	-1.046721475048923E-001	9.2053720E-005	-8.7964898E-001	0
8.0887925E+003	7.587219827844820E+001	-8.8147837E-001	-1.089752758177346E-001	9.6059346E-005	-8.8164896E-001	0
7.8281689E+003	7.607219827339577E+001	-8.8348627E-001	-1.128598852970057E-001	9.9710160E-005	-8.8364905E-001	0
7.5647793E+003	7.627219826834335E+001	-8.8546574E-001	-1.170511037341472E-001	1.0364474E-004	-8.8564903E-001	0
7.3338374E+003	7.647219826329092E+001	-8.8738936E-001	-1.209993241756075E-001	1.0737351E-004	-8.8764894E-001	0
7.1110371E+003	7.667219825823850E+001	-8.8941604E-001	-1.250754312090493E-001	1.1124410E-004	-8.8964909E-001	0
6.8753267E+003	7.687219825318607E+001	-8.9145726E-001	-1.296603523549580E-001	1.1558666E-004	-8.9164907E-001	0
6.6365112E+003	7.707219824813365E+001	-8.9346683E-001	-1.346289936301046E-001	1.2028654E-004	-8.9364904E-001	0
6.3827466E+003	7.727219824308122E+001	-8.9546144E-001	-1.402940583539928E-001	1.2562792E-004	-8.9564902E-001	0
6.0347666E+003	7.747219823802880E+001	-8.9744776E-001	-1.487129220090671E-001	1.3346208E-004	-8.9764911E-001	0
5.7755420E+003	7.767219823297637E+001	-8.9946496E-001	-1.557368895856239E-001	1.4007988E-004	-8.9964896E-001	0
5.5171885E+003	7.787219822792395E+001	-9.0146172E-001	-1.633914995288093E-001	1.4729118E-004	-9.0164900E-001	0
5.2473931E+003	7.807219822287152E+001	-9.0341246E-001	-1.721640515643800E-001	1.5553515E-004	-9.0364903E-001	0
4.9807104E+003	7.827219821781910E+001	-9.0541440E-001	-1.817841810298891E-001	1.6459002E-004	-9.0564901E-001	0
4.7107305E+003	7.847219821276667E+001	-9.0748239E-001	-1.926415441441620E-001	1.7481881E-004	-9.0764898E-001	0
4.4484263E+003	7.867219820771425E+001	-9.0946472E-001	-2.044463915551864E-001	1.8593678E-004	-9.0964901E-001	0
4.1941504E+003	7.887219820266182E+001	-9.1144878E-001	-2.173142750470856E-001	1.9807083E-004	-9.1164899E-001	0
3.9490188E+003	7.907219819760940E+001	-9.1342932E-001	-2.313053874666386E-001	2.1128112E-004	-9.1364896E-001	0
3.7107778E+003	7.927219819255697E+001	-9.1547436E-001	-2.467068555741634E-001	2.2585380E-004	-9.1564906E-001	0
3.4722664E+003	7.947219818750455E+001	-9.1748458E-001	-2.642321975758115E-001	2.4242897E-004	-9.1764903E-001	0
3.2384858E+003	7.967219818245212E+001	-9.1944236E-001	-2.839111903124820E-001	2.6103997E-004	-9.1964900E-001	0
2.9982910E+003	7.987219817739970E+001	-9.2144352E-001	-3.073228995723332E-001	2.8318071E-004	-9.2164904E-001	0
2.7479629E+003	8.007219817234727E+001	-9.2344749E-001	-3.360480330968936E-001	3.1032271E-004	-9.2364907E-001	0
2.5572268E+003	8.027219816729485E+001	-9.2546242E-001	-3.619008136854056E-001	3.3492560E-004	-9.2564911E-001	0
2.3683328E+003	8.047219816224242E+001	-9.2748874E-001	-3.916209682910932E-001	3.6322404E-004	-9.2764902E-001	0
2.1888750E+003	8.067219815719000E+001	-9.2945236E-001	-4.246256181425405E-001	3.9466927E-004	-9.2964900E-001	0
2.0195050E+003	8.087219815213757E+001	-9.3147743E-001	-4.612404581860492E-001	4.2963508E-004	-9.3164909E-001	0
1.8358767E+003	8.107219814708515E+001	-9.3346047E-001	-5.084548678097063E-001	4.7462253E-004	-9.3364894E-001	0
1.7023387E+003	8.127219814203272E+001	-9.3547392E-001	-5.495227771069935E-001	5.1406422E-004	-9.3564898E-001	0
1.5782897E+003	8.147219813698030E+001	-9.3744934E-001	-5.939653096319351E-001	5.5681239E-004	-9.3764901E-001	0
1.4509684E+003	8.167219813192787E+001	-9.3945527E-001	-6.474677964943583E-001	6.0826703E-004	-9.3964899E-001	0
1.3414224E+003	8.187219812687545E+001	-9.4145471E-001	-7.018331490718914E-001	6.6074415E-004	-9.4164896E-001	0
1.2506398E+003	8.207219812182302E+001	-9.4345790E-001	-7.543802264647003E-001	7.1172597E-004	-9.4364899E-001	0
1.1585542E+003	8.227219811677060E+001	-9.4549567E-001	-8.160996725212559E-001	7.7161868E-004	-9.4564897E-001	0
1.0778876E+003	8.247219811171817E+001	-9.4748038E-001	-8.790159705865817E-001	8.3285040E-004	-9.4764900E-001	0
1.0101665E+003	8.267219810666575E+001	-9.4950187E-001	-9.399459161827366E-001	8.9248043E-004	-9.4964904E-001	0
9.3742035E+002	8.287219810161332E+001	-9.5149755E-001	-1.015016943038928E+000	9.6578617E-004	-9.5164907E-001	0
8.8080408E+002	8.308219809630828E+001	-9.5354682E-001	-1.082586741554540E+000	1.0322972E-003	-9.5374900E-001	0
8.2204065E+002	8.329219809100323E+001	-9.5566189E-001	-1.162548197522050E+000	1.1110030E-003	-9.5584899E-001	0
7.7561041E+002	8.349219808595080E+001	-9.5768207E-001	-1.234746242900826E+000	1.1824943E-003	-9.5784903E-001	0
7.3047339E+002	8.369219808089838E+001	-9.5967293E-001	-1.313768513830136E+000	1.2607881E-003	-9.5984900E-001	0
6.9138281E+002	8.389219807584595E+001	-9.6166557E-001	-1.390930686306522E+000	1.3376102E-003	-9.6184897E-001	0
6.5487378E+002	8.409219807079353E+001	-9.6365380E-001	-1.471510751160229E+000	1.4180270E-003	-9.6384901E-001	0
6.2187000E+002	8.429219806574110E+001	-9.6565807E-001	-1.552829537625154E+000	1.4995023E-003	-9.6584898E-001	0
5.9099506E+002	8.449219806068868E+001	-9.6764058E-001	-1.637307361207590E+000	1.5843250E-003	-9.6784896E-001	0
5.6309558E+002	8.469219805563625E+001	-9.6964288E-001	-1.721986285818412E+000	1.6697118E-003	-9.6984905E-001	0
5.3683575E+002	8.489219805058383E+001	-9.7166103E-001	-1.809978276710801E+000	1.7586853E-003	-9.7184908E-001	0
5.1378790E+002	8.509219804553140E+001	-9.7366959E-001	-1.895080691967965E+000	1.8451824E-003	-9.7384900E-001	0
4.9104105E+002	8.529219804047898E+001	-9.7567606E-001	-1.986954235452780E+000	1.9386237E-003	-9.7584897E-001	0
4.7181177E+002	8.549219803542655E+001	-9.7765839E-001	-2.072136448117611E+000	2.0258415E-003	-9.7784907E-001	0
4.5146872E+002	8.569219803037413E+001	-9.7965044E-001	-2.169918730381937E+000	2.1257619E-003	-9.7984910E-001	0
4.3511343E+002	8.589219802532170E+001	-9.8166215E-001	-2.256106321740038E+000	2.2147342E-003	-9.8184901E-001	0
4.1765909E+002	8.609219802026928E+001	-9.8363400E-001	-2.355112236153644E+000	2.3165685E-003	-9.8384899E-001	0
4.0270016E+002	8.629219801521685E+001	-9.8567367E-001	-2.447661464092000E+000	2.4125956E-003	-9.8584908E-001	0
3.8833746E+002	8.649219801016443E+001	-9.8765486E-001	-2.543290184654488E+000	2.5118929E-003	-9.8784894E-001	0
3.7451440E+002	8.669219800511200E+001	-9.8964471E-001	-2.642474418054091E+000	2.6151107E-003	-9.8984897E-001	0
3.6251785E+002	8.689219800005958E+001	-9.9164736E-001	-2.735444105283069E+000	2.7125960E-003	-9.9184901E-001	0
3.4976736E+002	8.709219799500715E+001	-9.9366730E-001	-2.840937786412482E+000	2.8229470E-003	-9.9384898E-001	0
3.3896829E+002	8.729219798995473E+001	-9.9566448E-001	-2.937338009527345E+000	2.9246032E-003	-9.9584901E-001	0
3.2816071E+002	8.749219798490230E+001	-9.9766773E-001	-3.040180300470126E+000	3.0330897E-003	-9.9784899E-001	0
3.1779086E+002	8.769219797984988E+001	-9.9965328E-001	-3.145632685649954E+000	3.1445420E-003	-9.9984902E-001	0
3.0866272E+002	8.789249797478988E+001	-1.0016574E+000	-3.245151845807293E+000	3.2505302E-003	-1.0018513E+000	0
2.9930176E+002	8.809279796972987E+001	-1.0036687E+000	-3.353367003656572E+000	3.3656694E-003	-1.0038550E+000	0
2.9045425E+002	8.829279796467745E+001	-1.0056657E+000	-3.462389128143300E+000	3.4820058E-003	-1.0058551E+000	0
2.8256079E+002	8.849289795962250E+001	-1.0076840E+000	-3.566255389796858E+000	3.5936586E-003	-1.0078558E+000	0
2.7453766E+002	8.869299795456755E+001	-1.0096717E+000	-3.677716389703889E+000	3.7132860E-003	-1.0098571E+000	0
2.6723676E+002	8.889299794951512E+001	-1.0116618E+000	-3.785638674417875E+000	3.8297859E-003	-1.0118570E+000	0
2.6034064E+002	8.909299794446270E+001	-1.0136466E+000	-3.893539785358925E+000	3.9466736E-003	-1.0138570E+000	0
2.5339626E+002	8.929299793941027E+001	-1.0156574E+000	-4.008178388045224E+000	4.0709362E-003	-1.0158571E+000	0
2.4684949E+002	8.949319793435279E+001	-1.0176331E+000	-4.122484091720224E+000	4.1951761E-003	-1.0178585E+000	0
2.4081238E+002	8.969369792928774E+001	-1.0196651E+000	-4.234271937439658E+000	4.3175393E-003	-1.0198637E+000	0
2.3470563E+002	8.989379792423279E+001	-1.0216680E+000	-4.352975837092280E+000	4.4472958E-003	-1.0218650E+000	0
2.2867632E+002	9.009379791918036E+001	-1.0236981E+000	-4.476625052472912E+000	4.5827124E-003	-1.0238650E+000	0
2.2339125E+002	9.029389791412541E+001	-1.0257037E+000	-4.591512185884673E+000	4.7095311E-003	-1.0258658E+000	0
2.1811772E+002	9.049399790907046E+001	-1.0277191E+000	-4.711763524819958E+000	4.8423694E-003	-1.0278671E+000	0
2.1293767E+002	9.069399790401803E+001	-1.0296899E+000	-4.835639980948983E+000	4.9792095E-003	-1.0298669E+000	0
2.0784375E+002	9.089409789896308E+001	-1.0317202E+000	-4.963922041541643E+000	5.1213782E-003	-1.0318677E+000	0
2.0311555E+002	9.109429789390560E+001	-1.0336858E+000	-5.089151448606373E+000	5.2605835E-003	-1.0338699E+000	0
1.9848767E+002	9.129439788885065E+001	-1.0357184E+000	-5.218049147603466E+000	5.4044295E-003	-1.0358710E+000	0
1.9408702E+002	9.149439788379823E+001	-1.0377274E+000	-5.346711761691978E+000	5.5484292E-003	-1.0378710E+000	0
1.8967267E+002	9.169439787874580E+001	-1.0397089E+000	-5.481595667716874E+000	5.6992634E-003	-1.0398710E+000	0
1.8539554E+002	9.189439787369338E+001	-1.0417163E+000	-5.618885685054067E+000	5.8532851E-003	-1.0418710E+000	0
1.8134006E+002	9.209439786864095E+001	-1.0437191E+000	-5.755590130277227E+000	6.0072192E-003	-1.0438710E+000	0
1.7743153E+002	9.229439786358853E+001	-1.0457031E+000	-5.893558070063602E+000	6.1629117E-003	-1.0458710E+000	0
1.7363374E+002	9.249469785852853E+001	-1.0477307E+000	-6.034142136059515E+000	6.3221557E-003	-1.0478736E+000	0
1.6978688E+002	9.269489785347105E+001	-1.0497245E+000	-6.182600701715103E+000	6.4900271E-003	-1.0498759E+000	0
1.6621094E+002	9.289519784841104E+001	-1.0517355E+000	-6.327715588292534E+000	6.6550830E-003	-1.0518786E+000	0
1.6272043E+002	9.309539784335357E+001	-1.0536933E+000	-6.475482693267253E+000	6.8231728E-003	-1.0538810E+000	0
1.5931723E+002	9.329539783830114E+001	-1.0557182E+000	-6.626516155510004E+000	6.9957338E-003	-1.0558810E+000	0
1.5594882E+002	9.349539783324872E+001	-1.0577300E+000	-6.782545247721316E+000	7.1741012E-003	-1.0578811E+000	0
1.5253133E+002	9.369539782819629E+001	-1.0597138E+000	-6.947515862193455E+000	7.3623788E-003	-1.0598811E+000	0
1.4944804E+002	9.389539782314387E+001	-1.0617085E+000	-7.104197798267251E+000	7.5425869E-003	-1.0618811E+000	0
1.4640950E+002	9.409539781809144E+001	-1.0637318E+000	-7.265456358862025E+000	7.7284970E-003	-1.0638810E+000	0
1.4344740E+002	9.429539781303902E+001	-1.0657361E+000	-7.429454866788298E+000	7.9178382E-003	-1.0658810E+000	0
1.4057329E+002	9.449569780797901E+001	-1.0677484E+000	-7.595670471344420E+000	8.1102652E-003	-1.0678834E+000	0
1.3763860E+002	9.469599780291901E+001	-1.0697117E+000	-7.771887496282687E+000	8.3136791E-003	-1.0698870E+000	0
1.3484187E+002	9.489599779786658E+001	-1.0717250E+000	-7.948013063798953E+000	8.5180840E-003	-1.0718870E+000	0
1.3212317E+002	9.509599779281416E+001	-1.0737177E+000	-8.126642438154406E+000	8.7257195E-003	-1.0738870E+000	0
1.2945914E+002	9.529639778775163E+001	-1.0757467E+000	-8.309546227277025E+000	8.9389663E-003	-1.0758904E+000	0
1.2692603E+002	9.549679778268910E+001	-1.0777268E+000	-8.490983200326596E+000	9.1509605E-003	-1.0778947E+000	0
1.2443193E+002	9.569709777762910E+001	-1.0797614E+000	-8.677526776252705E+000	9.3696583E-003	-1.0798979E+000	0
1.2195066E+002	9.589739777256909E+001	-1.0817038E+000	-8.870011543529444E+000	9.5947254E-003	-1.0819006E+000	0
1.1957658E+002	9.609759776751162E+001	-1.0837522E+000	-9.063247426432042E+000	9.8223137E-003	-1.0839031E+000	0
1.1719427E+002	9.629759776245919E+001	-1.0857629E+000	-9.264641462607671E+000	1.0059204E-002	-1.0859029E+000	0
1.1487388E+002	9.649769775740424E+001	-1.0876954E+000	-9.468604937595387E+000	1.0298958E-002	-1.0879040E+000	0
1.1264946E+002	9.669789775234676E+001	-1.0897130E+000	-9.673485737300858E+000	1.0541323E-002	-1.0899057E+000	0
1.1045293E+002	9.689829774728423E+001	-1.0917639E+000	-9.884426754359026E+000	1.0791460E-002	-1.0919093E+000	0
1.0826031E+002	9.709869774222170E+001	-1.0937873E+000	-1.010330894336263E+001	1.1050872E-002	-1.0939138E+000	0
1.0610462E+002	9.729889773716423E+001	-1.0957922E+000	-1.032746914130442E+001	1.1316760E-002	-1.0959158E+000	0
1.0397156E+002	9.749909773210675E+001	-1.0977688E+000	-1.055835634004756E+001	1.1590634E-002	-1.0979178E+000	0
1.0191319E+002	9.769919772705180E+001	-1.0997514E+000	-1.079105981758664E+001	1.1867482E-002	-1.0999190E+000	0
9.9563087E+001	9.790919772174675E+001	-1.1018721E+000	-1.106707440274096E+001	1.2194500E-002	-1.1020191E+000	0
9.7531380E+001	9.811929771643918E+001	-1.1039715E+000	-1.131914170800877E+001	1.2496009E-002	-1.1041199E+000	0
9.5512718E+001	9.831959771137917E+001	-1.1059009E+000	-1.157857175799103E+001	1.2804753E-002	-1.1061226E+000	0
9.3678741E+001	9.852009770631412E+001	-1.1079375E+000	-1.182698876169587E+001	1.3103564E-002	-1.1081275E+000	0
9.1804459E+001	9.872049770125159E+001	-1.1099017E+000	-1.208984472098389E+001	1.3418538E-002	-1.1101319E+000	0
8.9991661E+001	9.892059769619664E+001	-1.1119350E+000	-1.235597800066405E+001	1.3739045E-002	-1.1121330E+000	0
8.8166389E+001	9.912059769114421E+001	-1.1139227E+000	-1.263432341124738E+001	1.4073660E-002	-1.1141330E+000	0
8.6371262E+001	9.932069768608926E+001	-1.1159614E+000	-1.292051838488197E+001	1.4418800E-002	-1.1161338E+000	0
8.4637550E+001	9.952099768102926E+001	-1.1179959E+000	-1.320921813100375E+001	1.4767851E-002	-1.1181369E+000	0
8.2916832E+001	9.972119767597178E+001	-1.1199304E+000	-1.350667076488202E+001	1.5126531E-002	-1.1201389E+000	0
8.1206711E+001	9.992139767091430E+001	-1.1219662E+000	-1.381617702196525E+001	1.5501284E-002	-1.1221409E+000	0
7.9578018E+001	1.001215976658568E+002	-1.1239778E+000	-1.412422495016978E+001	1.5875315E-002	-1.1241429E+000	0
7.7993828E+001	1.003215976608044E+002	-1.1259817E+000	-1.443680454638537E+001	1.6255578E-002	-1.1261430E+000	0
7.6388565E+001	1.005215976557520E+002	-1.1278977E+000	-1.476526964765020E+001	1.6653715E-002	-1.1281431E+000	0
7.4773605E+001	1.007216976506970E+002	-1.1299218E+000	-1.511123927756414E+001	1.7074518E-002	-1.1301439E+000	0
7.3207458E+001	1.009218976456395E+002	-1.1319548E+000	-1.546228792439237E+001	1.7502612E-002	-1.1321459E+000	0
7.1608681E+001	1.011220976405821E+002	-1.1339991E+000	-1.583605569874516E+001	1.7958073E-002	-1.1341479E+000	0
7.0038773E+001	1.013223976355221E+002	-1.1359665E+000	-1.621911023372022E+001	1.8424366E-002	-1.1361505E+000	0
6.8575233E+001	1.015226976304621E+002	-1.1379523E+000	-1.659421759457936E+001	1.8883429E-002	-1.1381539E+000	0
6.7141327E+001	1.017227976254071E+002	-1.1399844E+000	-1.697887742938366E+001	1.9355655E-002	-1.1401551E+000	0
6.5695259E+001	1.019228976203522E+002	-1.1419795E+000	-1.738298211445559E+001	1.9851008E-002	-1.1421560E+000	0
6.4303955E+001	1.021229976152972E+002	-1.1439475E+000	-1.778969130724204E+001	2.0350473E-002	-1.1441569E+000	0
6.2781498E+001	1.023230976102423E+002	-1.1459651E+000	-1.825322934049929E+001	2.0917565E-002	-1.1461577E+000	0
6.1388264E+001	1.025231976051873E+002	-1.1479486E+000	-1.869980634772594E+001	2.1466417E-002	-1.1481590E+000	0
6.0063457E+001	1.027231976001349E+002	-1.1499953E+000	-1.914633907550038E+001	2.2018200E-002	-1.1501590E+000	0
5.8731197E+001	1.029231975950825E+002	-1.1519688E+000	-1.961425823784199E+001	2.2595014E-002	-1.1521591E+000	0
5.7383827E+001	1.031231975900300E+002	-1.1539513E+000	-2.010934642437094E+001	2.3205206E-002	-1.1541591E+000	0
5.6089462E+001	1.033231975849776E+002	-1.1559745E+000	-2.060947789491705E+001	2.3824031E-002	-1.1561590E+000	0
5.4788097E+001	1.035231975799252E+002	-1.1580561E+000	-2.113700165972961E+001	2.4477834E-002	-1.1581590E+000	0
5.3552460E+001	1.037235975748627E+002	-1.1600081E+000	-2.166115418257849E+001	2.5127113E-002	-1.1601624E+000	0
5.2285370E+001	1.039237975698052E+002	-1.1619967E+000	-2.222412728100952E+001	2.5824362E-002	-1.1621650E+000	0
5.1085247E+001	1.041237975647527E+002	-1.1640239E+000	-2.278590987234153E+001	2.6523342E-002	-1.1641650E+000	0
4.9950214E+001	1.043237975597003E+002	-1.1659993E+000	-2.334322812741038E+001	2.7218187E-002	-1.1661651E+000	0
4.8880314E+001	1.045238975546454E+002	-1.1679730E+000	-2.389454906318258E+001	2.7908189E-002	-1.1681658E+000	0
4.7771603E+001	1.047240975495879E+002	-1.1700078E+000	-2.449170209423312E+001	2.8655482E-002	-1.1701678E+000	0
4.6608990E+001	1.049241975445329E+002	-1.1719841E+000	-2.514502247215137E+001	2.9469566E-002	-1.1721691E+000	0
4.5554356E+001	1.051241975394805E+002	-1.1740484E+000	-2.577247353530004E+001	3.0258132E-002	-1.1741691E+000	0
4.4523300E+001	1.053241975344281E+002	-1.1759762E+000	-2.641260024966033E+001	3.1060588E-002	-1.1761689E+000	0
4.3527645E+001	1.055241975293757E+002	-1.1779503E+000	-2.706211869246296E+001	3.1877831E-002	-1.1781690E+000	0
4.2490273E+001	1.057241975243232E+002	-1.1800110E+000	-2.777132309672515E+001	3.2770466E-002	-1.1801690E+000	0
4.1586670E+001	1.059242975192683E+002	-1.1819893E+000	-2.842231265566767E+001	3.3594869E-002	-1.1821698E+000	0
4.0708473E+001	1.061243975142133E+002	-1.1840305E+000	-2.908560269652048E+001	3.4438241E-002	-1.1841711E+000	0
3.9801922E+001	1.063243975091609E+002	-1.1859996E+000	-2.979754718279889E+001	3.5339881E-002	-1.1861711E+000	0
3.8892490E+001	1.065243975041085E+002	-1.1880382E+000	-3.054672685718322E+001	3.6290679E-002	-1.1881710E+000	0
3.7974106E+001	1.067245974990510E+002	-1.1900262E+000	-3.133783213324040E+001	3.7292842E-002	-1.1901726E+000	0
3.7075729E+001	1.069248974939910E+002	-1.1920066E+000	-3.215059001349346E+001	3.8323715E-002	-1.1921760E+000	0
3.6164486E+001	1.071250974889335E+002	-1.1940100E+000	-3.301609107886088E+001	3.9421543E-002	-1.1941780E+000	0
3.5328487E+001	1.073251974838786E+002	-1.1960586E+000	-3.385535929830166E+001	4.0492993E-002	-1.1961790E+000	0
3.4538502E+001	1.075251974788262E+002	-1.1980568E+000	-3.468757349914983E+001	4.1557685E-002	-1.1981790E+000	0
3.3653107E+001	1.077251974737737E+002	-1.2000422E+000	-3.565918220359993E+001	4.2792525E-002	-1.2001790E+000	0
3.2901894E+001	1.079251974687213E+002	-1.2020451E+000	-3.653422094932193E+001	4.3915782E-002	-1.2021790E+000	0
3.2150303E+001	1.081252974636664E+002	-1.2040281E+000	-3.744997717735680E+001	4.5090824E-002	-1.2041798E+000	0
3.1412401E+001	1.083254974586089E+002	-1.2060641E+000	-3.839452092950114E+001	4.6306252E-002	-1.2061818E+000	0
3.0638443E+001	1.085255974535539E+002	-1.2080829E+000	-3.943029669812483E+001	4.7635067E-002	-1.2081831E+000	0
2.9944763E+001	1.087256974484990E+002	-1.2100697E+000	-4.041005804221493E+001	4.8898984E-002	-1.2101837E+000	0
2.9259283E+001	1.089259974434390E+002	-1.2120779E+000	-4.142541230506231E+001	5.0210826E-002	-1.2121866E+000	0
2.8612305E+001	1.091262974383790E+002	-1.2140708E+000	-4.243177148244604E+001	5.1515173E-002	-1.2141898E+000	0
2.8033764E+001	1.093263974333240E+002	-1.2160740E+000	-4.337890514602998E+001	5.2751958E-002	-1.2161911E+000	0
2.7374676E+001	1.095263974282716E+002	-1.2180898E+000	-4.449696017933536E+001	5.4201294E-002	-1.2181910E+000	0
2.6784983E+001	1.097263974232192E+002	-1.2200639E+000	-4.555029835452297E+001	5.5574276E-002	-1.2201910E+000	0
2.6184551E+001	1.099265974181617E+002	-1.2220601E+000	-4.667103576640822E+001	5.7034809E-002	-1.2221925E+000	0
2.5591738E+001	1.101268974131017E+002	-1.2240447E+000	-4.782968038183299E+001	5.8545668E-002	-1.2241957E+000	0
2.5043026E+001	1.103269974080467E+002	-1.2260762E+000	-4.895878858739275E+001	6.0027208E-002	-1.2261970E+000	0
2.4502495E+001	1.105269974029943E+002	-1.2280700E+000	-5.012020458331708E+001	6.1551120E-002	-1.2281971E+000	0
2.3980398E+001	1.107270973979394E+002	-1.2300417E+000	-5.129363185887831E+001	6.3093305E-002	-1.2301979E+000	0
2.3427282E+001	1.109274973928768E+002	-1.2320883E+000	-5.259202763374196E+001	6.4798020E-002	-1.2322013E+000	0
2.2925016E+001	1.111278973878143E+002	-1.2341069E+000	-5.383232408386391E+001	6.6434845E-002	-1.2342057E+000	0
2.2385727E+001	1.113279973827593E+002	-1.2360758E+000	-5.521713663823468E+001	6.8252563E-002	-1.2362070E+000	0
2.1917044E+001	1.115280973777044E+002	-1.2381288E+000	-5.649159620069082E+001	6.9943868E-002	-1.2382078E+000	0
2.1505711E+001	1.117281973726494E+002	-1.2400737E+000	-5.766253058926611E+001	7.1505785E-002	-1.2402090E+000	0
2.0997774E+001	1.119283973675920E+002	-1.2421001E+000	-5.915389568835428E+001	7.3475063E-002	-1.2422105E+000	0
2.0524094E+001	1.121285973625345E+002	-1.2440488E+000	-6.061406673163253E+001	7.5406857E-002	-1.2442130E+000	0
2.0092230E+001	1.123285973574821E+002	-1.2461150E+000	-6.201974360039981E+001	7.7283733E-002	-1.2462131E+000	0
1.9659210E+001	1.125286973524271E+002	-1.2481357E+000	-6.348860019608992E+001	7.9242386E-002	-1.2482139E+000	0
1.9257742E+001	1.127289973473671E+002	-1.2501382E+000	-6.491613581423053E+001	8.1154138E-002	-1.2502166E+000	0
1.8834288E+001	1.129291973423096E+002	-1.2521499E+000	-6.648246703612796E+001	8.3246015E-002	-1.2522191E+000	0
1.8438951E+001	1.131291973372572E+002	-1.2541021E+000	-6.801374555931579E+001	8.5296184E-002	-1.2542191E+000	0
1.8044380E+001	1.133294973321972E+002	-1.2561189E+000	-6.961274699350081E+001	8.7441884E-002	-1.2562213E+000	0
1.7678677E+001	1.135297973271372E+002	-1.2581323E+000	-7.116665877885021E+001	8.9537077E-002	-1.2582251E+000	0
1.7301767E+001	1.137297973220848E+002	-1.2601544E+000	-7.283385586035752E+001	9.1781899E-002	-1.2602251E+000	0
1.6952631E+001	1.139297973170324E+002	-1.2621207E+000	-7.444984520427761E+001	9.3964696E-002	-1.2622250E+000	0
1.6578955E+001	1.141297973119799E+002	-1.2641541E+000	-7.625052593516631E+001	9.6392415E-002	-1.2642251E+000	0
1.6172215E+001	1.143298973069250E+002	-1.2661339E+000	-7.829069363226279E+001	9.9126503E-002	-1.2662259E+000	0
1.5853900E+001	1.145299973018700E+002	-1.2681808E+000	-7.999172938167393E+001	1.0144398E-001	-1.2682270E+000	0
1.5509125E+001	1.147299972968176E+002	-1.2701485E+000	-8.189685275927718E+001	1.0402117E-001	-1.2702270E+000	0
1.5155714E+001	1.149300972917627E+002	-1.2721727E+000	-8.394013302365522E+001	1.0678635E-001	-1.2722279E+000	0
1.4930562E+001	1.151302972867052E+002	-1.2741615E+000	-8.533915142296610E+001	1.0873586E-001	-1.2742299E+000	0
1.4619073E+001	1.153303972816502E+002	-1.2761739E+000	-8.729513336795776E+001	1.1140378E-001	-1.2762311E+000	0
1.4338424E+001	1.155305972765927E+002	-1.2781484E+000	-8.914148829671547E+001	1.1393605E-001	-1.2782327E+000	0
1.4068860E+001	1.157308972715327E+002	-1.2801346E+000	-9.099063745644889E+001	1.1648026E-001	-1.2802360E+000	0
1.3788542E+001	1.159309972664778E+002	-1.2821573E+000	-9.298715674796131E+001	1.1922416E-001	-1.2822371E+000	0
1.3514625E+001	1.161309972614254E+002	-1.2841682E+000	-9.502064072193707E+001	1.2202249E-001	-1.2842370E+000	0
1.3283463E+001	1.163310972563704E+002	-1.2861977E+000	-9.682698361424491E+001	1.2453864E-001	-1.2862378E+000	0
1.3073740E+001	1.165311972513155E+002	-1.2881764E+000	-9.853158977296607E+001	1.2692606E-001	-1.2882390E+000	0
1.2791285E+001	1.167311972462630E+002	-1.2902038E+000	-1.008658493635596E+002	1.3013750E-001	-1.2902390E+000	0
1.2501655E+001	1.169311972412106E+002	-1.2921618E+000	-1.033592620220314E+002	1.3355689E-001	-1.2922390E+000	0
1.2231694E+001	1.171311972361582E+002	-1.2941746E+000	-1.058050152871614E+002	1.3693015E-001	-1.2942390E+000	0
1.1947175E+001	1.173311972311058E+002	-1.2961775E+000	-1.084923818798020E+002	1.4062539E-001	-1.2962390E+000	0
1.1606235E+001	1.175512972255456E+002	-1.2983408E+000	-1.118658046526066E+002	1.4523993E-001	-1.2984399E+000	0
1.1418344E+001	1.177514972204881E+002	-1.3003591E+000	-1.138833417587525E+002	1.4808924E-001	-1.3004419E+000	0
1.1198833E+001	1.179515972154331E+002	-1.3023366E+000	-1.162921729477084E+002	1.5145154E-001	-1.3024430E+000	0
1.1012825E+001	1.181515972103807E+002	-1.3043423E+000	-1.184384810410929E+002	1.5448432E-001	-1.3044430E+000	0
1.0833278E+001	1.183516972053258E+002	-1.3063732E+000	-1.205889133208708E+002	1.5753412E-001	-1.3064438E+000	0
1.0598184E+001	1.185519972002658E+002	-1.3083575E+000	-1.234511007346587E+002	1.6151817E-001	-1.3084469E+000	0
1.0300588E+001	1.187520971952108E+002	-1.3103597E+000	-1.272121314104400E+002	1.6669366E-001	-1.3104478E+000	0
1.0047794E+001	1.189521971901559E+002	-1.3123639E+000	-1.306121354838349E+002	1.7141065E-001	-1.3124491E+000	0
9.9166040E+000	1.191521971851034E+002	-1.3144064E+000	-1.325460203618422E+002	1.7421934E-001	-1.3144491E+000	0
9.7990398E+000	1.193521971800510E+002	-1.3164021E+000	-1.343399086647296E+002	1.7684534E-001	-1.3164490E+000	0
9.5576677E+000	1.195523971749935E+002	-1.3183668E+000	-1.379381240735974E+002	1.8185304E-001	-1.3184507E+000	0
9.3521900E+000	1.197525971699361E+002	-1.3203412E+000	-1.411798904704401E+002	1.8640563E-001	-1.3204532E+000	0
9.3027086E+000	1.199525971648836E+002	-1.3223526E+000	-1.421470526221667E+002	1.8796854E-001	-1.3224530E+000	0
9.1905413E+000	1.201526971598287E+002	-1.3243618E+000	-1.441005281163359E+002	1.9084123E-001	-1.3244538E+000	0
8.9182978E+000	1.203528971547712E+002	-1.3263353E+000	-1.487206750402208E+002	1.9725348E-001	-1.3264557E+000	0
8.7573824E+000	1.205529971497162E+002	-1.3283197E+000	-1.516799916031684E+002	2.0147951E-001	-1.3284570E+000	0
8.6466084E+000	1.207530971446613E+002	-1.3303268E+000	-1.538553335259471E+002	2.0467788E-001	-1.3304578E+000	0
8.4318733E+000	1.209531971396063E+002	-1.3323092E+000	-1.580086837387951E+002	2.1051642E-001	-1.3324591E+000	0
8.2734423E+000	1.211531971345539E+002	-1.3343554E+000	-1.612817538017048E+002	2.1520717E-001	-1.3344589E+000	0
8.2254562E+000	1.213532971294990E+002	-1.3363534E+000	-1.624655745470551E+002	2.1711142E-001	-1.3364596E+000	0
8.1144857E+000	1.215534971244415E+002	-1.3383501E+000	-1.649334454176073E+002	2.2073868E-001	-1.3384618E+000	0
7.9939179E+000	1.217535971193865E+002	-1.3403800E+000	-1.676749737354628E+002	2.2474818E-001	-1.3404630E+000	0
7.8302321E+000	1.219536971143316E+002	-1.3423579E+000	-1.714327096335174E+002	2.3012404E-001	-1.3424639E+000	0
7.6898499E+000	1.221537971092766E+002	-1.3443620E+000	-1.748229174332819E+002	2.3502529E-001	-1.3444650E+000	0
7.5568647E+000	1.223537971042242E+002	-1.3463674E+000	-1.781648036519950E+002	2.3987527E-001	-1.3464650E+000	0
7.4353671E+000	1.225538970991693E+002	-1.3483872E+000	-1.813477735064907E+002	2.4452703E-001	-1.3484657E+000	0
7.3168540E+000	1.227539970941143E+002	-1.3503765E+000	-1.845569810056359E+002	2.4922141E-001	-1.3504671E+000	0
7.2013531E+000	1.229539970890619E+002	-1.3523817E+000	-1.877954966886800E+002	2.5397119E-001	-1.3524671E+000	0
7.0194635E+000	1.231539970840095E+002	-1.3543476E+000	-1.929417500290465E+002	2.6131019E-001	-1.3544670E+000	0
6.9959669E+000	1.233539970789570E+002	-1.3563869E+000	-1.938812589948141E+002	2.6297799E-001	-1.3564670E+000	0
6.8821154E+000	1.235540970739021E+002	-1.3583869E+000	-1.973792620544546E+002	2.6811740E-001	-1.3584678E+000	0
6.7940760E+000	1.237541970688471E+002	-1.3603854E+000	-2.002311182476215E+002	2.7239150E-001	-1.3604690E+000	0
6.7090740E+000	1.239541970637947E+002	-1.3623976E+000	-2.030678967283420E+002	2.7665919E-001	-1.3624691E+000	0
6.6405787E+000	1.241542970587398E+002	-1.3644092E+000	-2.054654107106660E+002	2.8033891E-001	-1.3644699E+000	0
6.5450940E+000	1.243543970536848E+002	-1.3664346E+000	-2.087723330153904E+002	2.8527373E-001	-1.3664711E+000	0
6.4785385E+000	1.245544970486299E+002	-1.3684074E+000	-2.112216191177387E+002	2.8903723E-001	-1.3684719E+000	0
6.4533062E+000	1.247547970435699E+002	-1.3703840E+000	-2.123537746749161E+002	2.9100621E-001	-1.3704743E+000	0
6.2935977E+000	1.249549970385124E+002	-1.3724550E+000	-2.180716046962607E+002	2.9929346E-001	-1.3724771E+000	0
6.1478772E+000	1.251152970344629E+002	-1.3740175E+000	-2.234946160041441E+002	3.0708551E-001	-1.3740793E+000	0
6.1356091E+000	1.252656970306634E+002	-1.3755113E+000	-2.241849635000081E+002	3.0836895E-001	-1.3755828E+000	0
6.0778446E+000	1.253862970276168E+002	-1.3767281E+000	-2.265158428757331E+002	3.1185073E-001	-1.3767892E+000	0
6.0454650E+000	1.255366970238174E+002	-1.3782303E+000	-2.279775490753395E+002	3.1420559E-001	-1.3782930E+000	0
6.0376782E+000	1.257171970192576E+002	-1.3800491E+000	-2.285728156669476E+002	3.1544170E-001	-1.3800982E+000	0
5.9778280E+000	1.258676970154556E+002	-1.3815354E+000	-2.311099233239540E+002	3.1928656E-001	-1.3816031E+000	0
5.9097457E+000	1.259880970124141E+002	-1.3827602E+000	-2.339796350890933E+002	3.2353771E-001	-1.3828073E+000	0
5.7736092E+000	1.261285970088647E+002	-1.3841569E+000	-2.397385938687557E+002	3.3183584E-001	-1.3842121E+000	0
5.6516242E+000	1.262689970053179E+002	-1.3855234E+000	-2.451549147387295E+002	3.3966789E-001	-1.3856159E+000	0
5.6152830E+000	1.264295970012608E+002	-1.3871655E+000	-2.470339433082390E+002	3.4267697E-001	-1.3872222E+000	0
5.6162567E+000	1.266100969967010E+002	-1.3890158E+000	-2.473205631812984E+002	3.4353217E-001	-1.3890276E+000	0
5.5732708E+000	1.267505969931517E+002	-1.3903883E+000	-2.494743653199234E+002	3.4686622E-001	-1.3904316E+000	0
5.5735712E+000	1.269010969893498E+002	-1.3919150E+000	-2.497348576977820E+002	3.4760970E-001	-1.3919373E+000	0
5.4779558E+000	1.270514969855503E+002	-1.3933932E+000	-2.543637102422520E+002	3.5442865E-001	-1.3934416E+000	0
5.3455796E+000	1.271918969820035E+002	-1.3948039E+000	-2.609265982533561E+002	3.6394143E-001	-1.3948449E+000	0
5.2849479E+000	1.273226969786992E+002	-1.3961561E+000	-2.641759382768946E+002	3.6883083E-001	-1.3961531E+000	0
5.2615671E+000	1.274933969743870E+002	-1.3978456E+000	-2.656709693315706E+002	3.7136701E-001	-1.3978602E+000	0
5.1819162E+000	1.276640969700748E+002	-1.3995011E+000	-2.700740551746812E+002	3.7796894E-001	-1.3995671E+000	0
5.1357703E+000	1.278346969657650E+002	-1.4012496E+000	-2.728411905208536E+002	3.8231862E-001	-1.4012733E+000	0
5.0721726E+000	1.279852969619606E+002	-1.4027559E+000	-2.765591826921773E+002	3.8794503E-001	-1.4027792E+000	0
5.0244083E+000	1.281357969581586E+002	-1.4042351E+000	-2.794826727745908E+002	3.9245939E-001	-1.4042839E+000	0
5.0404978E+000	1.282765969546017E+002	-1.4056436E+000	-2.788699865207464E+002	3.9199179E-001	-1.4056921E+000	0
4.9925380E+000	1.284570969500419E+002	-1.4074628E+000	-2.819133049071838E+002	3.9678249E-001	-1.4074973E+000	0
4.9358082E+000	1.286376969454795E+002	-1.4092586E+000	-2.855173002977826E+002	4.0236771E-001	-1.4093028E+000	0
4.9032006E+000	1.288180969409223E+002	-1.4111223E+000	-2.877961492254799E+002	4.0611556E-001	-1.4111072E+000	0
4.9118166E+000	1.289885969366151E+002	-1.4127741E+000	-2.876276040020803E+002	4.0635282E-001	-1.4128126E+000	0
4.8327656E+000	1.291290969330657E+002	-1.4141499E+000	-2.926170952164246E+002	4.1380444E-001	-1.4142174E+000	0
4.7637258E+000	1.292794969292663E+002	-1.4156704E+000	-2.971771503765976E+002	4.2070490E-001	-1.4157212E+000	0
4.7242246E+000	1.294401969252067E+002	-1.4172578E+000	-2.999979711903316E+002	4.2517447E-001	-1.4173280E+000	0
4.6708536E+000	1.296105969209020E+002	-1.4190160E+000	-3.038022998215092E+002	4.3110034E-001	-1.4190325E+000	0
4.5900040E+000	1.297910969163422E+002	-1.4208170E+000	-3.095459393814617E+002	4.3980813E-001	-1.4208373E+000	0
4.5655637E+000	1.299516969122851E+002	-1.4224383E+000	-3.115580776775159E+002	4.4317213E-001	-1.4224432E+000	0
4.4942737E+000	1.301221969079779E+002	-1.4241261E+000	-3.168756911323799E+002	4.5127097E-001	-1.4241487E+000	0
4.4953947E+000	1.302923969036783E+002	-1.4258051E+000	-3.171701777116605E+002	4.5222285E-001	-1.4258504E+000	0
4.4734330E+000	1.304528968996237E+002	-1.4273913E+000	-3.190818351358475E+002	4.5545462E-001	-1.4274549E+000	0
4.4886394E+000	1.306234968953140E+002	-1.4290928E+000	-3.183799326165918E+002	4.5499447E-001	-1.4291613E+000	0
4.4627686E+000	1.307640968917622E+002	-1.4305239E+000	-3.205462722822831E+002	4.5854908E-001	-1.4305670E+000	0
4.4283829E+000	1.309246968877051E+002	-1.4321501E+000	-3.234025154408910E+002	4.6316096E-001	-1.4321730E+000	0
4.3322563E+000	1.310950968834004E+002	-1.4338540E+000	-3.309716572480957E+002	4.7456503E-001	-1.4338773E+000	0
4.2849326E+000	1.312554968793484E+002	-1.4354302E+000	-3.349948197359572E+002	4.8086166E-001	-1.4354811E+000	0
4.2498407E+000	1.314159968752938E+002	-1.4370631E+000	-3.381451639894394E+002	4.8593593E-001	-1.4370863E+000	0
4.2245231E+000	1.315464968719971E+002	-1.4384179E+000	-3.404923912026325E+002	4.8977035E-001	-1.4383913E+000	0
4.2007079E+000	1.316968968681977E+002	-1.4399433E+000	-3.427858639000460E+002	4.9359220E-001	-1.4398953E+000	0
4.2174497E+000	1.318374968646458E+002	-1.4413235E+000	-3.417523755455322E+002	4.9257573E-001	-1.4413011E+000	0
4.1123447E+000	1.319979968605912E+002	-1.4429064E+000	-3.508719224834003E+002	5.0627536E-001	-1.4429063E+000	0
4.0758400E+000	1.321485968567868E+002	-1.4443965E+000	-3.543800637169304E+002	5.1186532E-001	-1.4444124E+000	0
4.0288100E+000	1.323087968527398E+002	-1.4460138E+000	-3.589183239585927E+002	5.1900083E-001	-1.4460145E+000	0
4.0391955E+000	1.324693968486827E+002	-1.4476143E+000	-3.583917344291685E+002	5.1881301E-001	-1.4476203E+000	0
4.0398860E+000	1.325995968453935E+002	-1.4489505E+000	-3.586612615416698E+002	5.1968241E-001	-1.4489219E+000	0
4.0296192E+000	1.327301968420943E+002	-1.4502656E+000	-3.599013989933406E+002	5.2195263E-001	-1.4502282E+000	0
3.9890792E+000	1.329007968377846E+002	-1.4519684E+000	-3.639858617802220E+002	5.2849597E-001	-1.4519342E+000	0
3.9701374E+000	1.330513968339801E+002	-1.4534737E+000	-3.661016034409522E+002	5.3211904E-001	-1.4534400E+000	0
3.9008098E+000	1.332121968299180E+002	-1.4550953E+000	-3.730239029731265E+002	5.4278535E-001	-1.4550482E+000	0
3.8787394E+000	1.333725968258659E+002	-1.4566691E+000	-3.755521886655374E+002	5.4705524E-001	-1.4566520E+000	0
3.8543530E+000	1.335330968218113E+002	-1.4582521E+000	-3.783390006899581E+002	5.5171365E-001	-1.4582572E+000	0
3.7956073E+000	1.337137968172465E+002	-1.4600849E+000	-3.846775511490828E+002	5.6166190E-001	-1.4600644E+000	0
3.7555301E+000	1.338445968139422E+002	-1.4613554E+000	-3.891209470009767E+002	5.6864399E-001	-1.4613714E+000	0
3.7571614E+000	1.339948968101453E+002	-1.4628826E+000	-3.893584820121214E+002	5.6958574E-001	-1.4628756E+000	0
3.7051392E+000	1.341454968063408E+002	-1.4644578E+000	-3.952504063782499E+002	5.7882750E-001	-1.4643810E+000	0
3.7027860E+000	1.342959968025389E+002	-1.4659482E+000	-3.959041128434214E+002	5.8037496E-001	-1.4658862E+000	0
3.6610348E+000	1.344363967989921E+002	-1.4673289E+000	-4.007962162102303E+002	5.8809990E-001	-1.4672905E+000	0
3.6487458E+000	1.346065967946925E+002	-1.4690583E+000	-4.026200629715272E+002	5.9147233E-001	-1.4689927E+000	0
3.6475396E+000	1.347767967903928E+002	-1.4707183E+000	-4.032082998009910E+002	5.9300584E-001	-1.4706942E+000	0
3.6020517E+000	1.349371967863408E+002	-1.4723318E+000	-4.087480780703827E+002	6.0181278E-001	-1.4722980E+000	0
3.6034248E+000	1.350877967825363E+002	-1.4738210E+000	-4.090056255180662E+002	6.0280108E-001	-1.4738041E+000	0
3.5071008E+000	1.352383967787318E+002	-1.4753262E+000	-4.206683082130558E+002	6.2062299E-001	-1.4753101E+000	0
3.4755044E+000	1.354088967744246E+002	-1.4770529E+000	-4.249895287160748E+002	6.2773204E-001	-1.4770154E+000	0
3.5190313E+000	1.355692967703726E+002	-1.4786711E+000	-4.201926600228492E+002	6.2132674E-001	-1.4786196E+000	0
3.5125563E+000	1.357396967660679E+002	-1.4803672E+000	-4.214500913977809E+002	6.2390089E-001	-1.4803231E+000	0
3.4617345E+000	1.359301967612555E+002	-1.4822624E+000	-4.281848799358195E+002	6.3468236E-001	-1.4822288E+000	0
3.4799926E+000	1.361301967562031E+002	-1.4842930E+000	-4.265218721376805E+002	6.3308340E-001	-1.4842288E+000	0
3.4395976E+000	1.363301967511507E+002	-1.4862878E+000	-4.321109586962234E+002	6.4224124E-001	-1.4862288E+000	0
3.4132397E+000	1.365301967460982E+002	-1.4882932E+000	-4.360353502762282E+002	6.4894843E-001	-1.4882288E+000	0
3.3675554E+000	1.367301967410458E+002	-1.4902712E+000	-4.425379934159516E+002	6.5950161E-001	-1.4902287E+000	0
3.3720529E+000	1.369301967359934E+002	-1.4922733E+000	-4.425414944560089E+002	6.6039288E-001	-1.4922287E+000	0
3.4053681E+000	1.371301967309410E+002	-1.4942416E+000	-4.387900427690702E+002	6.5565830E-001	-1.4942288E+000	0
3.3513763E+000	1.373301967258885E+002	-1.4962817E+000	-4.464678495714179E+002	6.6804171E-001	-1.4962288E+000	0
3.2693522E+000	1.375301967208361E+002	-1.4983531E+000	-4.583027724441208E+002	6.8669939E-001	-1.4982289E+000	0
3.2776418E+000	1.377301967157837E+002	-1.5003068E+000	-4.577397251085895E+002	6.8675005E-001	-1.5002289E+000	0
3.2748814E+000	1.379301967107313E+002	-1.5023674E+000	-4.587547483682101E+002	6.8921816E-001	-1.5022289E+000	0
3.2479532E+000	1.381301967056788E+002	-1.5042858E+000	-4.631488550406739E+002	6.9670826E-001	-1.5042288E+000	0
3.2471104E+000	1.383301967006264E+002	-1.5063015E+000	-4.638898322349768E+002	6.9875795E-001	-1.5062289E+000	0
3.1651886E+000	1.385301966955740E+002	-1.5083011E+000	-4.765280528209105E+002	7.1874779E-001	-1.5082288E+000	0
3.1868618E+000	1.387301966905216E+002	-1.5103145E+000	-4.739190544595531E+002	7.1576679E-001	-1.5102289E+000	0
3.1385834E+000	1.389301966854691E+002	-1.5123955E+000	-4.818719928594401E+002	7.2878104E-001	-1.5122287E+000	0
3.1001391E+000	1.391301966804167E+002	-1.5143143E+000	-4.884665608352016E+002	7.3969191E-001	-1.5142288E+000	0
3.0580509E+000	1.393301966753643E+002	-1.5163537E+000	-4.958562799786750E+002	7.5189352E-001	-1.5162289E+000	0
3.0487037E+000	1.395301966703119E+002	-1.5183100E+000	-4.980182004353337E+002	7.5614601E-001	-1.5182288E+000	0
3.0238378E+000	1.397301966652594E+002	-1.5203210E+000	-5.027786292251276E+002	7.6438493E-001	-1.5202289E+000	0
3.0174634E+000	1.399301966602070E+002	-1.5223478E+000	-5.045124425520435E+002	7.6804340E-001	-1.5222290E+000	0
2.9918985E+000	1.401301966551546E+002	-1.5243083E+000	-5.094785977491192E+002	7.7660245E-001	-1.5242288E+000	0
3.0244570E+000	1.403301966501022E+002	-1.5263231E+000	-5.046601897475391E+002	7.7027452E-001	-1.5262289E+000	0
2.9593105E+000	1.405301966450497E+002	-1.5283458E+000	-5.164533643571153E+002	7.8931934E-001	-1.5282288E+000	0
2.9324393E+000	1.407301966399973E+002	-1.5303469E+000	-5.218682272818087E+002	7.9863942E-001	-1.5302289E+000	0
2.8980558E+000	1.409301966349449E+002	-1.5323265E+000	-5.287429203673537E+002	8.1020677E-001	-1.5322287E+000	0
2.8754196E+000	1.411301966298925E+002	-1.5343313E+000	-5.336025827498670E+002	8.1872314E-001	-1.5342288E+000	0
2.8565722E+000	1.413301966248400E+002	-1.5363034E+000	-5.378136016084495E+002	8.2624489E-001	-1.5362289E+000	0
2.8969944E+000	1.415301966197876E+002	-1.5383303E+000	-5.310090813582719E+002	8.1686735E-001	-1.5382288E+000	0
2.9158204E+000	1.417301966147352E+002	-1.5403178E+000	-5.282622518258304E+002	8.1369174E-001	-1.5402288E+000	0
2.8878672E+000	1.419301966096828E+002	-1.5423589E+000	-5.340823501362001E+002	8.2374668E-001	-1.5422288E+000	0
2.9042144E+000	1.421301966046303E+002	-1.5443135E+000	-5.317491660777669E+002	8.2118744E-001	-1.5442288E+000	0
2.9010050E+000	1.423301965995779E+002	-1.5463403E+000	-5.330360785979547E+002	8.2425517E-001	-1.5462289E+000	0
2.8264823E+000	1.425301965945255E+002	-1.5487707E+000	-5.479499053003537E+002	8.4864873E-001	-1.5482287E+000	0
2.7625065E+000	1.427301965894731E+002	-1.5509132E+000	-5.614152315576584E+002	8.7070632E-001	-1.5502288E+000	0
2.7580357E+000	1.429301965844206E+002	-1.5528734E+000	-5.630360261437036E+002	8.7432367E-001	-1.5522288E+000	0
2.7653377E+000	1.431301965793682E+002	-1.5548651E+000	-5.622695192696001E+002	8.7425327E-001	-1.5542288E+000	0
2.7990839E+000	1.433301965743158E+002	-1.5568947E+000	-5.562157704359834E+002	8.6596936E-001	-1.5562288E+000	0
2.7321944E+000	1.434901965702738E+002	-1.5584817E+000	-5.704138980943353E+002	8.8897961E-001	-1.5578287E+000	0
2.7208567E+000	1.435411965689855E+002	-1.5592219E+000	-5.730628540039061E+002	8.9353216E-001	-1.5585285E+000	1