EC-Lab ASCII FILE
Nb header lines : 61                          

Linear Sweep Voltammetry

Run on channel : 1 (SN 1340)
User : 
Electrode connection : standard
Potential control : Ewe
Ewe ctrl range : min = -5.00 V, max = 5.00 V
Ewe,I filtering : 50 kHz
Channel : Grounded
Acquisition started on : 02/25/2026 12:04:18.585
Technique started on : 02/25/2026 12:04:21.423
Loaded Setting File :  NONE
Saved on :
	File : Pt_nomagnet_2_25_02_LSV_C01.mpr
	Directory : C:\Users\volt\Documents\Platalytix\
	Host : 127.0.0.1
Device : SP-200 (SN 0262)
Address : USB
EC-LAB for windows v11.60 (software)
Internet server v11.60 (firmware)
Command interpretor v11.60 (firmware)
Electrode material : Pt
Initial state : 
Electrolyte : KOH (1M)
Comments : 
Cable : standard
Reference electrode : Hg/HgO (0.140 V)
Electrode surface area : 1.000 cm˛
Characteristic mass : 0.001 g
Equivalent Weight : 0.000 g/eq.
Density : 0.000 g/cm3
Volume (V) : 0.001 cmł
Cycle Definition : Charge/Discharge alternance
tR (h:m:s)          0:00:5.0000         
dER/dt (mV/h)       0.0                 
dER (mV)            0                   
dtR (s)             0.0000              
dE/dt               10.000              
dE/dt unit          mV/s                
Ei (V)              -0.200              
vs.                 Ref                 
EL (V)              -2.500              
vs.                 Ref                 
record              <I>                 
dI                  0.000               
unit dI             µA                  
tI (s)              0.0000              
step percent        50                  
N                   10                  
E range min (V)     -5.000              
E range max (V)     5.000               
I Range             Auto                
I Range min         Unset               
I Range max         Unset               
I Range init        Unset               
Bandwidth           8                   

Rwe/Ohm	time/s	Ewe/V	<I>/mA	Pwe/W	control/V	error	
0.0000000E+000	2.838400134787662E+000	-1.6530499E-001	0.000000000000000E+000	0.0000000E+000	0.0000000E+000	0
0.0000000E+000	7.838200008482090E+000	-3.7952889E-002	0.000000000000000E+000	0.0000000E+000	-1.9993971E-001	0
2.7080286E+003	7.978200004945393E+000	-2.0105371E-001	7.424356720435454E-002	-1.4926944E-005	-2.0123950E-001	0
2.0639695E+003	8.098200001913938E+000	-2.0225315E-001	-9.799231977399270E-002	1.9819256E-005	-2.0243955E-001	0
1.8733135E+003	8.308199996608892E+000	-2.0435457E-001	-1.090872239726939E-001	2.2292472E-005	-2.0453952E-001	0
1.9996057E+003	8.508199991556467E+000	-2.0635800E-001	-1.031993438474954E-001	2.1296009E-005	-2.0653954E-001	0
2.1292900E+003	8.708199986504042E+000	-2.0835362E-001	-9.785122258214851E-002	2.0387657E-005	-2.0853953E-001	0
2.2494541E+003	8.908199981451617E+000	-2.1035750E-001	-9.351491595590966E-002	1.9671565E-005	-2.1053953E-001	0
2.3599573E+003	9.108199976399192E+000	-2.1235734E-001	-8.998355603631181E-002	1.9108669E-005	-2.1253954E-001	0
2.4630464E+003	9.308199971346767E+000	-2.1435124E-001	-8.702688076472143E-002	1.8654320E-005	-2.1453954E-001	0
2.5601204E+003	9.508199966294342E+000	-2.1635193E-001	-8.450850179680819E-002	1.8283577E-005	-2.1653953E-001	0
2.6527476E+003	9.708199961241917E+000	-2.1834221E-001	-8.230795217318976E-002	1.7971301E-005	-2.1853954E-001	0
2.7404871E+003	9.908199956189492E+000	-2.2034527E-001	-8.040368786480800E-002	1.7716573E-005	-2.2053957E-001	0
2.8262632E+003	1.010819995113707E+001	-2.2235125E-001	-7.867323012986616E-002	1.7493092E-005	-2.2253953E-001	0
2.9082234E+003	1.030819994608464E+001	-2.2435576E-001	-7.714529836691852E-002	1.7307992E-005	-2.2453955E-001	0
2.9863374E+003	1.050819994103222E+001	-2.2634797E-001	-7.579450498128115E-002	1.7155931E-005	-2.2653955E-001	0
3.0646748E+003	1.070819993597979E+001	-2.2835247E-001	-7.451116083962783E-002	1.7014809E-005	-2.2853953E-001	0
3.1409434E+003	1.090819993092737E+001	-2.3033896E-001	-7.333432754888169E-002	1.6891752E-005	-2.3053955E-001	0
3.2116360E+003	1.110819992587494E+001	-2.3234898E-001	-7.234598927161828E-002	1.6809518E-005	-2.3253955E-001	0
3.2806328E+003	1.130819992082252E+001	-2.3436771E-001	-7.143978644352433E-002	1.6743179E-005	-2.3453954E-001	0
3.3517917E+003	1.150819991577009E+001	-2.3636141E-001	-7.051792786332003E-002	1.6667716E-005	-2.3653954E-001	0
3.4196001E+003	1.170819991071767E+001	-2.3835170E-001	-6.970162821200832E-002	1.6613501E-005	-2.3853956E-001	0
3.4896453E+003	1.190819990566524E+001	-2.4033988E-001	-6.887229638440273E-002	1.6552760E-005	-2.4053954E-001	0
3.5532300E+003	1.210819990061282E+001	-2.4235371E-001	-6.820659292492254E-002	1.6530121E-005	-2.4253954E-001	0
3.6166709E+003	1.230819989556039E+001	-2.4436738E-001	-6.756693681241632E-002	1.6511154E-005	-2.4453956E-001	0
3.6815415E+003	1.250819989050797E+001	-2.4636443E-001	-6.691882630351864E-002	1.6486418E-005	-2.4653952E-001	0
3.7446416E+003	1.270819988545554E+001	-2.4834391E-001	-6.631981041398594E-002	1.6470121E-005	-2.4853955E-001	0
3.8070867E+003	1.290819988040312E+001	-2.5035501E-001	-6.576025691105158E-002	1.6463409E-005	-2.5053951E-001	0
3.8673484E+003	1.310819987535069E+001	-2.5236353E-001	-6.525492448309023E-002	1.6467964E-005	-2.5253952E-001	0
3.9241716E+003	1.330819987029827E+001	-2.5436532E-001	-6.482013433753542E-002	1.6487995E-005	-2.5453955E-001	0
3.9829634E+003	1.350819986524584E+001	-2.5636065E-001	-6.436429906883559E-002	1.6500473E-005	-2.5653955E-001	0
4.0420554E+003	1.370819986019342E+001	-2.5835288E-001	-6.391621218274091E-002	1.6512937E-005	-2.5853953E-001	0
4.0964932E+003	1.390819985514099E+001	-2.6033533E-001	-6.355077805485390E-002	1.6544513E-005	-2.6053953E-001	0
4.1517251E+003	1.410819985008857E+001	-2.6233879E-001	-6.318789592821594E-002	1.6576636E-005	-2.6253957E-001	0
4.2083027E+003	1.430819984503614E+001	-2.6434204E-001	-6.281440510190661E-002	1.6604488E-005	-2.6453954E-001	0
4.2649175E+003	1.450819983998372E+001	-2.6634759E-001	-6.245081635855132E-002	1.6633625E-005	-2.6653957E-001	0
4.3148213E+003	1.470819983493129E+001	-2.6833874E-001	-6.218999775196266E-002	1.6687985E-005	-2.6853952E-001	0
4.3665020E+003	1.490819982987887E+001	-2.7034536E-001	-6.191348408764907E-002	1.6738024E-005	-2.7053952E-001	0
4.4199507E+003	1.510819982482644E+001	-2.7234608E-001	-6.161744476511413E-002	1.6781269E-005	-2.7253953E-001	0
4.4686489E+003	1.530819981977402E+001	-2.7432811E-001	-6.138949677962691E-002	1.6840864E-005	-2.7453953E-001	0
4.5218374E+003	1.550819981472159E+001	-2.7633134E-001	-6.111040704222618E-002	1.6886721E-005	-2.7653953E-001	0
4.5707739E+003	1.570819980966917E+001	-2.7834433E-001	-6.089654369987185E-002	1.6950207E-005	-2.7853954E-001	0
4.6201973E+003	1.590819980461674E+001	-2.8034502E-001	-6.067815253061226E-002	1.7010818E-005	-2.8053954E-001	0
4.6725776E+003	1.610819979956432E+001	-2.8233215E-001	-6.042321219611602E-002	1.7059416E-005	-2.8253955E-001	0
4.7157227E+003	1.630819979451189E+001	-2.8435719E-001	-6.029981245231864E-002	1.7146685E-005	-2.8453955E-001	0
4.7631455E+003	1.650819978945947E+001	-2.8635135E-001	-6.011811869278083E-002	1.7214905E-005	-2.8653955E-001	0
4.8126826E+003	1.670819978440704E+001	-2.8832996E-001	-5.991044465046991E-002	1.7273976E-005	-2.8853953E-001	0
4.8516982E+003	1.690819977935462E+001	-2.9034847E-001	-5.984470925648655E-002	1.7375820E-005	-2.9053953E-001	0
4.9022261E+003	1.710819977430219E+001	-2.9233876E-001	-5.963388131403458E-002	1.7433294E-005	-2.9253954E-001	0
4.9460552E+003	1.730819976924977E+001	-2.9434457E-001	-5.951097470554068E-002	1.7516733E-005	-2.9453954E-001	0
4.9858599E+003	1.750819976419734E+001	-2.9635096E-001	-5.943828614432856E-002	1.7614593E-005	-2.9653955E-001	0
5.0316465E+003	1.770819975914492E+001	-2.9833385E-001	-5.929149680109932E-002	1.7688661E-005	-2.9853955E-001	0
5.0755142E+003	1.790819975409249E+001	-3.0034772E-001	-5.917582319639700E-002	1.7773324E-005	-3.0053955E-001	0
5.1184775E+003	1.810819974904007E+001	-3.0234414E-001	-5.906915339501884E-002	1.7859213E-005	-3.0253956E-001	0
5.1576753E+003	1.830819974398764E+001	-3.0433950E-001	-5.900710668571085E-002	1.7958193E-005	-3.0453953E-001	0
5.1990483E+003	1.850819973893522E+001	-3.0635208E-001	-5.892464452182394E-002	1.8051687E-005	-3.0653954E-001	0
5.2399414E+003	1.870819973388279E+001	-3.0833456E-001	-5.884313066711733E-002	1.8143372E-005	-3.0853954E-001	0
5.2793569E+003	1.890819972883037E+001	-3.1034586E-001	-5.878478682350773E-002	1.8243614E-005	-3.1053954E-001	0
5.3142310E+003	1.910819972377794E+001	-3.1233847E-001	-5.877397354806235E-002	1.8357374E-005	-3.1253952E-001	0
5.3566606E+003	1.930819971872552E+001	-3.1434172E-001	-5.868240588454454E-002	1.8446328E-005	-3.1453955E-001	0
5.3982007E+003	1.950819971367309E+001	-3.1633222E-001	-5.859956542312972E-002	1.8536930E-005	-3.1653956E-001	0
5.4325229E+003	1.970819970862067E+001	-3.1835181E-001	-5.860109619221868E-002	1.8655765E-005	-3.1853956E-001	0
5.4691040E+003	1.990819970356824E+001	-3.2034847E-001	-5.857421683470676E-002	1.8764162E-005	-3.2053956E-001	0
5.5058950E+003	2.010819969851582E+001	-3.2234043E-001	-5.854459925525113E-002	1.8871291E-005	-3.2253954E-001	0
5.5429512E+003	2.030819969346339E+001	-3.2433841E-001	-5.851366857748896E-002	1.8978229E-005	-3.2453954E-001	0
5.5793584E+003	2.050819968841097E+001	-3.2633334E-001	-5.848940412826470E-002	1.9087043E-005	-3.2653958E-001	0
5.6157915E+003	2.070819968335854E+001	-3.2835439E-001	-5.846983060618771E-002	1.9198826E-005	-3.2853955E-001	0
5.6446514E+003	2.090819967830612E+001	-3.3035126E-001	-5.852465165405185E-002	1.9333693E-005	-3.3053952E-001	0
5.6805747E+003	2.110819967325369E+001	-3.3234668E-001	-5.850581896634949E-002	1.9444215E-005	-3.3253953E-001	0
5.7127295E+003	2.130819966820127E+001	-3.3434337E-001	-5.852603001515821E-002	1.9567789E-005	-3.3453953E-001	0
5.7419907E+003	2.150819966314884E+001	-3.3634126E-001	-5.857572197077876E-002	1.9701432E-005	-3.3653954E-001	0
5.7853179E+003	2.170819965809642E+001	-3.3833453E-001	-5.848158035815931E-002	1.9786337E-005	-3.3853954E-001	0
5.8103213E+003	2.190819965304399E+001	-3.4034669E-001	-5.857622376991567E-002	1.9936224E-005	-3.4053954E-001	0
5.8453647E+003	2.210819964799157E+001	-3.4234565E-001	-5.856703221797965E-002	2.0050169E-005	-3.4253955E-001	0
5.8729316E+003	2.230819964293914E+001	-3.4433705E-001	-5.863120500737484E-002	2.0188896E-005	-3.4453952E-001	0
5.9009067E+003	2.250819963788672E+001	-3.4634197E-001	-5.869300964567142E-002	2.0327852E-005	-3.4653956E-001	0
5.9352339E+003	2.270819963283429E+001	-3.4834990E-001	-5.869185843804847E-002	2.0445303E-005	-3.4853956E-001	0
5.9708672E+003	2.290819962778187E+001	-3.5034719E-001	-5.867609978324018E-002	2.0557007E-005	-3.5053959E-001	0
6.0003740E+003	2.310819962272944E+001	-3.5232964E-001	-5.871794611593617E-002	2.0688072E-005	-3.5253954E-001	0
6.0314971E+003	2.330819961767702E+001	-3.5432842E-001	-5.874634929404676E-002	2.0815502E-005	-3.5453954E-001	0
6.0557725E+003	2.350819961262459E+001	-3.5632780E-001	-5.884101527295343E-002	2.0966690E-005	-3.5653958E-001	0
6.0892686E+003	2.370819960757217E+001	-3.5833785E-001	-5.884743664601655E-002	2.1087264E-005	-3.5853955E-001	0
6.1137046E+003	2.390819960251974E+001	-3.6032769E-001	-5.893770021031641E-002	2.1236885E-005	-3.6053956E-001	0
6.1428096E+003	2.410819959746732E+001	-3.6230782E-001	-5.898079873894746E-002	2.1369204E-005	-3.6253956E-001	0
6.1735815E+003	2.430819959241489E+001	-3.6432546E-001	-5.901363325334885E-002	2.1500169E-005	-3.6453956E-001	0
6.2010962E+003	2.450819958736247E+001	-3.6632344E-001	-5.907398037340000E-002	2.1640184E-005	-3.6653954E-001	0
6.2279434E+003	2.470819958231004E+001	-3.6834425E-001	-5.914380160464483E-002	2.1785279E-005	-3.6853957E-001	0
6.2517280E+003	2.490819957725762E+001	-3.7032121E-001	-5.923501531542796E-002	2.1935983E-005	-3.7053955E-001	0
6.2872632E+003	2.510819957220519E+001	-3.7233275E-001	-5.922016301487965E-002	2.2049606E-005	-3.7253952E-001	0
6.3131221E+003	2.530819956715277E+001	-3.7432218E-001	-5.929272089157756E-002	2.2194581E-005	-3.7453955E-001	0
6.3383984E+003	2.550819956210034E+001	-3.7633601E-001	-5.937399141872679E-002	2.2344571E-005	-3.7653956E-001	0
6.3582783E+003	2.570819955704792E+001	-3.7833181E-001	-5.950224277290972E-002	2.2511591E-005	-3.7853953E-001	0
6.3848691E+003	2.590819955199549E+001	-3.8033339E-001	-5.956792515119669E-002	2.2655671E-005	-3.8053957E-001	0
6.4153452E+003	2.610819954694307E+001	-3.8232830E-001	-5.959590409445203E-002	2.2785202E-005	-3.8253954E-001	0
6.4390762E+003	2.630819954189064E+001	-3.8434005E-001	-5.968869450003697E-002	2.2940756E-005	-3.8453957E-001	0
6.4631372E+003	2.650819953683822E+001	-3.8633060E-001	-5.977447002824152E-002	2.3092707E-005	-3.8653955E-001	0
6.4890859E+003	2.670819953178579E+001	-3.8834271E-001	-5.984551602469834E-002	2.3240569E-005	-3.8853958E-001	0
6.5134497E+003	2.690819952673337E+001	-3.9033872E-001	-5.992811001455034E-002	2.3392262E-005	-3.9053956E-001	0
6.5367202E+003	2.710819952168094E+001	-3.9233410E-001	-6.002002391729788E-002	2.3547902E-005	-3.9253959E-001	0
6.5634370E+003	2.730819951662852E+001	-3.9434034E-001	-6.008137541331016E-002	2.3692510E-005	-3.9453956E-001	0
6.5881587E+003	2.750819951157609E+001	-3.9633045E-001	-6.015799881292738E-002	2.3842447E-005	-3.9653954E-001	0
6.6096660E+003	2.770819950652367E+001	-3.9833394E-001	-6.026536709990116E-002	2.4005742E-005	-3.9853957E-001	0
6.6316655E+003	2.790819950147124E+001	-4.0033609E-001	-6.036735098923018E-002	2.4167230E-005	-4.0053958E-001	0
6.6609756E+003	2.810819949641882E+001	-4.0234119E-001	-6.040273969169368E-002	2.4302510E-005	-4.0253958E-001	0
6.6802432E+003	2.830819949136639E+001	-4.0432745E-001	-6.052585970715985E-002	2.4472267E-005	-4.0453959E-001	0
6.7029214E+003	2.850819948631397E+001	-4.0633625E-001	-6.062077080974537E-002	2.4632416E-005	-4.0653959E-001	0
6.7233608E+003	2.870819948126154E+001	-4.0833801E-001	-6.073421108707500E-002	2.4800087E-005	-4.0853959E-001	0
6.7492407E+003	2.890819947620912E+001	-4.1033575E-001	-6.079732060966725E-002	2.4947314E-005	-4.1053957E-001	0
6.7711831E+003	2.910819947115669E+001	-4.1235954E-001	-6.089918758105622E-002	2.5112360E-005	-4.1253954E-001	0
6.7887793E+003	2.930819946610427E+001	-4.1438121E-001	-6.103913278462536E-002	2.5293470E-005	-4.1453958E-001	0
6.8110044E+003	2.950819946105185E+001	-4.1636559E-001	-6.113130720268911E-002	2.5452973E-005	-4.1653955E-001	0
6.8355767E+003	2.970819945599942E+001	-4.1838330E-001	-6.120672964600771E-002	2.5607873E-005	-4.1853958E-001	0
6.8528472E+003	2.990819945094700E+001	-4.2035976E-001	-6.134089430088760E-002	2.5785244E-005	-4.2053956E-001	0
6.8769834E+003	3.010819944589457E+001	-4.2238081E-001	-6.141948758290822E-002	2.5942412E-005	-4.2253959E-001	0
6.9014204E+003	3.030819944084215E+001	-4.2436665E-001	-6.148975424082048E-002	2.6094202E-005	-4.2453954E-001	0
6.9176035E+003	3.050819943578972E+001	-4.2637411E-001	-6.163609870962905E-002	2.6280037E-005	-4.2653957E-001	0
6.9432109E+003	3.070819943073730E+001	-4.2836446E-001	-6.169544052081299E-002	2.6428133E-005	-4.2853960E-001	0
6.9678384E+003	3.090819942568487E+001	-4.3038398E-001	-6.176721792701878E-002	2.6583621E-005	-4.3053958E-001	0
6.9829380E+003	3.110819942063245E+001	-4.3236500E-001	-6.191734746394162E-002	2.6770895E-005	-4.3253955E-001	0
7.0046831E+003	3.130819941558002E+001	-4.3436524E-001	-6.201069243041091E-002	2.6935289E-005	-4.3453959E-001	0
7.0215200E+003	3.150819941052760E+001	-4.3637785E-001	-6.214863092368228E-002	2.7120286E-005	-4.3653956E-001	0
7.0441001E+003	3.170819940547517E+001	-4.3837726E-001	-6.223325246507883E-002	2.7281643E-005	-4.3853956E-001	0
7.0684712E+003	3.190819940042275E+001	-4.4037327E-001	-6.230106384993928E-002	2.7435723E-005	-4.4053957E-001	0
7.0902017E+003	3.210819939537032E+001	-4.4238141E-001	-6.239334628875048E-002	2.7601656E-005	-4.4253960E-001	0
7.1103921E+003	3.230819939031790E+001	-4.4438076E-001	-6.249736325473215E-002	2.7772625E-005	-4.4453955E-001	0
7.1321143E+003	3.250819938526547E+001	-4.4638854E-001	-6.258852818300803E-002	2.7938802E-005	-4.4653958E-001	0
7.1525181E+003	3.270819938021305E+001	-4.4837755E-001	-6.268806842709063E-002	2.8107923E-005	-4.4853958E-001	0
7.1713550E+003	3.290819937516062E+001	-4.5037839E-001	-6.280241098546313E-002	2.8284849E-005	-4.5053962E-001	0
7.1940210E+003	3.310819937010820E+001	-4.5238039E-001	-6.288282828439296E-002	2.8446959E-005	-4.5253956E-001	0
7.2160234E+003	3.330819936505577E+001	-4.5435926E-001	-6.296532562629739E-002	2.8608880E-005	-4.5453957E-001	0
7.2335259E+003	3.350819936000335E+001	-4.5638138E-001	-6.309252163414281E-002	2.8794253E-005	-4.5653963E-001	0
7.2581665E+003	3.370819935495092E+001	-4.5836315E-001	-6.315136812004318E-002	2.8946260E-005	-4.5853958E-001	0
7.2767710E+003	3.390819934989850E+001	-4.6037042E-001	-6.326575676251711E-002	2.9125684E-005	-4.6053958E-001	0
7.2920635E+003	3.410819934484607E+001	-4.6236137E-001	-6.340611009814232E-002	2.9316536E-005	-4.6253958E-001	0
7.3177690E+003	3.430819933979365E+001	-4.6435887E-001	-6.345634339504003E-002	2.9466515E-005	-4.6453959E-001	0
7.3411553E+003	3.450819933474122E+001	-4.6636039E-001	-6.352684021845068E-002	2.9626402E-005	-4.6653953E-001	0
7.3630156E+003	3.470819932968880E+001	-4.6835816E-001	-6.360955464087709E-002	2.9792054E-005	-4.6853957E-001	0
7.3787988E+003	3.490819932463637E+001	-4.7038305E-001	-6.374791471811392E-002	2.9985938E-005	-4.7053960E-001	0
7.4023110E+003	3.510819931958395E+001	-4.7235316E-001	-6.381157823667244E-002	3.0141600E-005	-4.7253957E-001	0
7.4221538E+003	3.530819931453152E+001	-4.7436041E-001	-6.391142202539102E-002	3.0317047E-005	-4.7453955E-001	0
7.4477202E+003	3.550819930947910E+001	-4.7633672E-001	-6.395738648014176E-002	3.0465251E-005	-4.7653958E-001	0
7.4673101E+003	3.570819930442667E+001	-4.7836477E-001	-6.406118928839222E-002	3.0644616E-005	-4.7853956E-001	0
7.4876987E+003	3.590819929937425E+001	-4.8035020E-001	-6.415191325232333E-002	3.0815383E-005	-4.8053956E-001	0
7.5108135E+003	3.610819929432182E+001	-4.8235467E-001	-6.422136048311189E-002	3.0977473E-005	-4.8253959E-001	0
7.5362104E+003	3.630819928926940E+001	-4.8436430E-001	-6.427159798996784E-002	3.1130869E-005	-4.8453960E-001	0
7.5612095E+003	3.650819928421697E+001	-4.8636094E-001	-6.432316517890324E-002	3.1284275E-005	-4.8653954E-001	0
7.5771304E+003	3.670819927916455E+001	-4.8835737E-001	-6.445149400391825E-002	3.1475363E-005	-4.8853958E-001	0
7.6051436E+003	3.690819927411212E+001	-4.9037230E-001	-6.447903258417687E-002	3.1618732E-005	-4.9053961E-001	0
7.6233887E+003	3.710819926905970E+001	-4.9236792E-001	-6.458649051464356E-002	3.1800315E-005	-4.9253955E-001	0
7.6491255E+003	3.730819926400727E+001	-4.9437094E-001	-6.463103837760187E-002	3.1951706E-005	-4.9453956E-001	0
7.6734980E+003	3.750819925895485E+001	-4.9635640E-001	-6.468450345992294E-002	3.2106567E-005	-4.9653959E-001	0
7.6937065E+003	3.770819925390242E+001	-4.9835986E-001	-6.477500306856299E-002	3.2281263E-005	-4.9853963E-001	0
7.7196948E+003	3.790819924885000E+001	-5.0036728E-001	-6.481697659700880E-002	3.2432294E-005	-5.0053960E-001	0
7.7482808E+003	3.810819924379757E+001	-5.0236911E-001	-6.483620489723624E-002	3.2571705E-005	-5.0253958E-001	0
7.7753936E+003	3.830819923874515E+001	-5.0436336E-001	-6.486660102223918E-002	3.2716336E-005	-5.0453961E-001	0
7.7966372E+003	3.850819923369272E+001	-5.0637436E-001	-6.494779092821446E-002	3.2887896E-005	-5.0653958E-001	0
7.8218032E+003	3.870819922864030E+001	-5.0836921E-001	-6.499386325166023E-002	3.3040880E-005	-5.0853956E-001	0
7.8495210E+003	3.890819922358787E+001	-5.1037461E-001	-6.501984041840991E-002	3.3184475E-005	-5.1053965E-001	0
7.8717075E+003	3.910819921853545E+001	-5.1235133E-001	-6.508769780342499E-002	3.3347769E-005	-5.1253957E-001	0
7.9019722E+003	3.930819921348302E+001	-5.1436532E-001	-6.509328508789713E-002	3.3481727E-005	-5.1453954E-001	0
7.9206543E+003	3.950819920843060E+001	-5.1637667E-001	-6.519369093084587E-002	3.3664503E-005	-5.1653957E-001	0
7.9448252E+003	3.970819920337817E+001	-5.1833898E-001	-6.524233743516716E-002	3.3817647E-005	-5.1853955E-001	0
7.9780249E+003	3.990819919832575E+001	-5.2036428E-001	-6.522469883869153E-002	3.3940603E-005	-5.2053958E-001	0
7.9981846E+003	4.010819919327332E+001	-5.2235162E-001	-6.530877203593985E-002	3.4114142E-005	-5.2253956E-001	0
8.0308887E+003	4.030819918822090E+001	-5.2436316E-001	-6.529329097703063E-002	3.4237397E-005	-5.2453959E-001	0
8.0538057E+003	4.050819918316847E+001	-5.2637011E-001	-6.535669239427966E-002	3.4401808E-005	-5.2653962E-001	0
8.0861470E+003	4.070819917811605E+001	-5.2836072E-001	-6.534147004347712E-002	3.4523866E-005	-5.2853954E-001	0
8.1160073E+003	4.090819917306362E+001	-5.3035903E-001	-6.534728405325579E-002	3.4657522E-005	-5.3053957E-001	0
8.1407310E+003	4.110819916801120E+001	-5.3236145E-001	-6.539479692101202E-002	3.4813667E-005	-5.3253961E-001	0
8.1686558E+003	4.130819916295877E+001	-5.3433985E-001	-6.541343578433101E-002	3.4953006E-005	-5.3453958E-001	0
8.2004648E+003	4.150819915790635E+001	-5.3635794E-001	-6.540579880406150E-002	3.5080920E-005	-5.3653961E-001	0
8.2284873E+003	4.170819915285392E+001	-5.3834397E-001	-6.542441374389973E-002	3.5220837E-005	-5.3853959E-001	0
8.2515947E+003	4.190819914780150E+001	-5.4036504E-001	-6.548613314928629E-002	3.5386416E-005	-5.4053962E-001	0
8.2738740E+003	4.210819914274907E+001	-5.4235470E-001	-6.555027508413400E-002	3.5551500E-005	-5.4253954E-001	0
8.3104473E+003	4.230819913769665E+001	-5.4435241E-001	-6.550217940484715E-002	3.5656270E-005	-5.4453957E-001	0
8.3384502E+003	4.250819913264422E+001	-5.4637390E-001	-6.552463684858256E-002	3.5800953E-005	-5.4653960E-001	0
8.3655947E+003	4.270819912759180E+001	-5.4836887E-001	-6.555049690627002E-002	3.5945854E-005	-5.4853952E-001	0
8.3986504E+003	4.290819912253937E+001	-5.5035365E-001	-6.552881722986809E-002	3.6064022E-005	-5.5053961E-001	0
8.4220557E+003	4.310819911748695E+001	-5.5235881E-001	-6.558479325129929E-002	3.6226338E-005	-5.5253965E-001	0
8.4493018E+003	4.330819911243452E+001	-5.5434865E-001	-6.560881232659077E-002	3.6370155E-005	-5.5453962E-001	0
8.4837217E+003	4.350819910738210E+001	-5.5635434E-001	-6.557904177106667E-002	3.6485184E-005	-5.5653954E-001	0
8.5091055E+003	4.370819910232967E+001	-5.5836111E-001	-6.561925037301486E-002	3.6639238E-005	-5.5853957E-001	0
8.5393398E+003	4.390819909727725E+001	-5.6035167E-001	-6.562002224355634E-002	3.6770289E-005	-5.6053966E-001	0
8.5637871E+003	4.410819909222482E+001	-5.6236887E-001	-6.566824667343707E-002	3.6929778E-005	-5.6253952E-001	0
8.5856064E+003	4.430819908717240E+001	-5.6436086E-001	-6.573337155801817E-002	3.7097343E-005	-5.6453955E-001	0
8.6167852E+003	4.450819908211997E+001	-5.6633395E-001	-6.572450609833363E-002	3.7222020E-005	-5.6653965E-001	0
8.6490146E+003	4.470819907706755E+001	-5.6833458E-001	-6.571090427626469E-002	3.7345781E-005	-5.6853956E-001	0
8.6783672E+003	4.490819907201512E+001	-5.7033855E-001	-6.571956924131128E-002	3.7482405E-005	-5.7053959E-001	0
8.6991787E+003	4.510819906696270E+001	-5.7232159E-001	-6.579030505455430E-002	3.7653212E-005	-5.7253957E-001	0
8.7271494E+003	4.530819906191027E+001	-5.7434350E-001	-6.581112131415157E-002	3.7798189E-005	-5.7453966E-001	0
8.7538389E+003	4.550819905685785E+001	-5.7631618E-001	-6.583582097347707E-002	3.7942249E-005	-5.7653958E-001	0
8.7771270E+003	4.570819905180542E+001	-5.7833916E-001	-6.589162841496266E-002	3.8107708E-005	-5.7853955E-001	0
8.8129600E+003	4.590819904675300E+001	-5.8033621E-001	-6.585031960797272E-002	3.8215327E-005	-5.8053964E-001	0
8.8337568E+003	4.610819904170057E+001	-5.8234501E-001	-6.592268615490127E-002	3.8389746E-005	-5.8253956E-001	0
8.8631104E+003	4.630819903664815E+001	-5.8433688E-001	-6.592909763081445E-002	3.8524802E-005	-5.8453959E-001	0
8.8875166E+003	4.650819903159572E+001	-5.8633614E-001	-6.597299805035611E-002	3.8682352E-005	-5.8653963E-001	0
8.9176670E+003	4.670819902654330E+001	-5.8834028E-001	-6.597468855868949E-002	3.8815568E-005	-5.8853960E-001	0
8.9456016E+003	4.690819902149087E+001	-5.9033757E-001	-6.599193645742574E-002	3.8957518E-005	-5.9053957E-001	0
8.9741221E+003	4.710819901643845E+001	-5.9234422E-001	-6.600581321288779E-002	3.9098162E-005	-5.9253955E-001	0
9.0032236E+003	4.730819901138602E+001	-5.9433895E-001	-6.601401388036968E-002	3.9234699E-005	-5.9453964E-001	0
9.0243496E+003	4.750819900633360E+001	-5.9633225E-001	-6.608035902982645E-002	3.9405848E-005	-5.9653956E-001	0
9.0630264E+003	4.770819900128117E+001	-5.9833992E-001	-6.601987688172828E-002	3.9502327E-005	-5.9853953E-001	0
9.0804961E+003	4.790819899622875E+001	-6.0033357E-001	-6.611242138911580E-002	3.9689505E-005	-6.0053962E-001	0
9.1049551E+003	4.810819899117632E+001	-6.0233539E-001	-6.615468255052026E-002	3.9847306E-005	-6.0253954E-001	0
9.1411357E+003	4.830819898612390E+001	-6.0434669E-001	-6.611287010972977E-002	3.9955095E-005	-6.0453957E-001	0
9.1742793E+003	4.850819898107147E+001	-6.0634589E-001	-6.609193386474110E-002	4.0074574E-005	-6.0653955E-001	0
9.1925664E+003	4.870819897601905E+001	-6.0834533E-001	-6.617796507689377E-002	4.0259056E-005	-6.0853958E-001	0
9.2292051E+003	4.890819897096662E+001	-6.1032838E-001	-6.613011576621775E-002	4.0361087E-005	-6.1053956E-001	0
9.2514609E+003	4.910819896591420E+001	-6.1235666E-001	-6.619026594797423E-002	4.0532050E-005	-6.1253959E-001	0
9.2798418E+003	4.930819896086177E+001	-6.1434507E-001	-6.620210511483204E-002	4.0670937E-005	-6.1453962E-001	0
9.3040615E+003	4.950819895580935E+001	-6.1636549E-001	-6.624692593872250E-002	4.0832318E-005	-6.1653960E-001	0
9.3391123E+003	4.970819895075692E+001	-6.1837202E-001	-6.621315116337301E-002	4.0944360E-005	-6.1853957E-001	0
9.3647959E+003	4.990819894570450E+001	-6.2038022E-001	-6.624599563933561E-002	4.1097705E-005	-6.2053961E-001	0
9.3899902E+003	5.010819894065207E+001	-6.2237161E-001	-6.628032752984257E-002	4.1250994E-005	-6.2253958E-001	0
9.4183867E+003	5.030819893559965E+001	-6.2436569E-001	-6.629221263086094E-002	4.1390584E-005	-6.2453961E-001	0
9.4496025E+003	5.050819893054722E+001	-6.2635499E-001	-6.628373779130503E-002	4.1517149E-005	-6.2653959E-001	0
9.4841230E+003	5.070819892549480E+001	-6.2836599E-001	-6.625451732483878E-002	4.1632087E-005	-6.2853962E-001	0
9.5006396E+003	5.090819892044237E+001	-6.3034976E-001	-6.634814078737983E-002	4.1822535E-005	-6.3053960E-001	0
9.5264355E+003	5.110819891538995E+001	-6.3235992E-001	-6.637948873091726E-002	4.1975727E-005	-6.3253957E-001	0
9.5492256E+003	5.130819891033752E+001	-6.3435304E-001	-6.642979186433706E-002	4.2139942E-005	-6.3453960E-001	0
9.5680449E+003	5.150819890528510E+001	-6.3636178E-001	-6.650906773716991E-002	4.2323827E-005	-6.3653964E-001	0
9.5933994E+003	5.170819890023267E+001	-6.3834655E-001	-6.654018149214885E-002	4.2475694E-005	-6.3853955E-001	0
9.6187422E+003	5.190819889518025E+001	-6.4035976E-001	-6.657416918610615E-002	4.2631418E-005	-6.4053959E-001	0
9.6377451E+003	5.210819889012782E+001	-6.4235979E-001	-6.665042641545182E-002	4.2813554E-005	-6.4253968E-001	0
9.6529307E+003	5.230819888507540E+001	-6.4436430E-001	-6.675323059459265E-002	4.3013399E-005	-6.4453959E-001	0
9.6773164E+003	5.250819888002297E+001	-6.4636481E-001	-6.679174380985142E-002	4.3171833E-005	-6.4653957E-001	0
9.6987617E+003	5.270819887497055E+001	-6.4836931E-001	-6.685073437093170E-002	4.3343964E-005	-6.4853960E-001	0
9.7065264E+003	5.290819886991812E+001	-6.5036064E-001	-6.700240992708661E-002	4.3575732E-005	-6.5053964E-001	0
9.7262930E+003	5.310819886486570E+001	-6.5237814E-001	-6.707366534810760E-002	4.3757394E-005	-6.5253955E-001	0
9.7419199E+003	5.330819885981327E+001	-6.5437347E-001	-6.717089622264588E-002	4.3954853E-005	-6.5453959E-001	0
9.7598486E+003	5.350819885476085E+001	-6.5635723E-001	-6.725076011322939E-002	4.4140521E-005	-6.5653962E-001	0
9.7729209E+003	5.370819884970842E+001	-6.5835500E-001	-6.736522019141744E-002	4.4350229E-005	-6.5853953E-001	0
9.7805342E+003	5.390819884465600E+001	-6.6038817E-001	-6.752066431744497E-002	4.4589848E-005	-6.6053957E-001	0
9.7797764E+003	5.410819883960357E+001	-6.6238904E-001	-6.773049242334117E-002	4.4863937E-005	-6.6253960E-001	0
9.8004414E+003	5.430819883455115E+001	-6.6435850E-001	-6.778863069385965E-002	4.5035951E-005	-6.6453964E-001	0
9.8040986E+003	5.450819882949872E+001	-6.6637069E-001	-6.796858513035092E-002	4.5292272E-005	-6.6653955E-001	0
9.8305869E+003	5.470819882444630E+001	-6.6834670E-001	-6.798645250959623E-002	4.5438523E-005	-6.6853958E-001	0
9.8205654E+003	5.490819881939387E+001	-6.7035359E-001	-6.826018458052802E-002	4.5758461E-005	-6.7053962E-001	0
9.8311563E+003	5.510819881434145E+001	-6.7233878E-001	-6.838858010914672E-002	4.5980294E-005	-6.7253953E-001	0
9.8353701E+003	5.530819880928902E+001	-6.7435116E-001	-6.856388001187452E-002	4.6236131E-005	-6.7453957E-001	0
9.8304189E+003	5.550819880423660E+001	-6.7635632E-001	-6.880238709777048E-002	4.6534929E-005	-6.7653966E-001	0
9.8322520E+003	5.570819879918417E+001	-6.7833978E-001	-6.899129343166299E-002	4.6799538E-005	-6.7853957E-001	0
9.8470645E+003	5.590819879413175E+001	-6.8034893E-001	-6.909155016479868E-002	4.7006364E-005	-6.8053955E-001	0
9.8328828E+003	5.610819878907932E+001	-6.8234646E-001	-6.939434165888958E-002	4.7350983E-005	-6.8253958E-001	0
9.8288965E+003	5.630819878402690E+001	-6.8433785E-001	-6.962509618970691E-002	4.7647089E-005	-6.8453962E-001	0
9.8393818E+003	5.650819877897447E+001	-6.8635130E-001	-6.975553069388274E-002	4.7876798E-005	-6.8653959E-001	0
9.8355156E+003	5.670819877392205E+001	-6.8835127E-001	-6.998629198734840E-002	4.8175152E-005	-6.8853956E-001	0
9.8352412E+003	5.690819876886962E+001	-6.9035345E-001	-7.019181710999478E-002	4.8457165E-005	-6.9053966E-001	0
9.8166973E+003	5.710819876381720E+001	-6.9234675E-001	-7.052746425275060E-002	4.8829461E-005	-6.9253957E-001	0
9.8171377E+003	5.730819875876477E+001	-6.9434536E-001	-7.072788510733424E-002	4.9109578E-005	-6.9453961E-001	0
9.8157383E+003	5.750819875371235E+001	-6.9634497E-001	-7.094168026198777E-002	4.9399881E-005	-6.9653964E-001	0
9.8112949E+003	5.770819874865992E+001	-6.9834489E-001	-7.117764393549830E-002	4.9706545E-005	-6.9853961E-001	0
9.8049131E+003	5.790819874360750E+001	-7.0035487E-001	-7.142897446369489E-002	5.0025632E-005	-7.0053959E-001	0
9.7800000E+003	5.810819873855507E+001	-7.0234942E-001	-7.181487195647804E-002	5.0439136E-005	-7.0253956E-001	0
9.7772119E+003	5.830819873350265E+001	-7.0435965E-001	-7.204095471139316E-002	5.0742743E-005	-7.0453972E-001	0
9.7697852E+003	5.850819872845022E+001	-7.0638025E-001	-7.230253590011149E-002	5.1073082E-005	-7.0653963E-001	0
9.7784834E+003	5.870819872339780E+001	-7.0835382E-001	-7.244004846218943E-002	5.1313185E-005	-7.0853961E-001	0
9.7502773E+003	5.890819871834537E+001	-7.1034205E-001	-7.285352304045656E-002	5.1750922E-005	-7.1053964E-001	0
9.7538203E+003	5.910819871329295E+001	-7.1235281E-001	-7.303320857814510E-002	5.2025411E-005	-7.1253955E-001	0
9.7602979E+003	5.930819870824052E+001	-7.1434468E-001	-7.318882156235285E-002	5.2282045E-005	-7.1453965E-001	0
9.7330283E+003	5.950819870318810E+001	-7.1634573E-001	-7.359947357696328E-002	5.2722669E-005	-7.1653962E-001	0
9.7297266E+003	5.970819869813567E+001	-7.1835303E-001	-7.383075445656007E-002	5.3036547E-005	-7.1853971E-001	0
9.7253633E+003	5.990819869308325E+001	-7.2035432E-001	-7.406965822832479E-002	5.3356398E-005	-7.2053957E-001	0
9.7121260E+003	6.010819868803083E+001	-7.2235489E-001	-7.437659940384567E-002	5.3726300E-005	-7.2253954E-001	0
9.7131924E+003	6.030819868297840E+001	-7.2435701E-001	-7.457455953840766E-002	5.4018605E-005	-7.2453964E-001	0
9.7160684E+003	6.050819867792598E+001	-7.2634715E-001	-7.475731284737730E-002	5.4299762E-005	-7.2653961E-001	0
9.7083457E+003	6.070819867287355E+001	-7.2834992E-001	-7.502307126756835E-002	5.4643049E-005	-7.2853959E-001	0
9.6885732E+003	6.090819866782113E+001	-7.3033702E-001	-7.538128049163528E-002	5.5053741E-005	-7.3053962E-001	0
9.6840586E+003	6.110819866276870E+001	-7.3234618E-001	-7.562388701611522E-002	5.5382865E-005	-7.3253965E-001	0
9.6761045E+003	6.130819865771628E+001	-7.3434031E-001	-7.589214271865785E-002	5.5730659E-005	-7.3453957E-001	0
9.6758975E+003	6.150819865266385E+001	-7.3634988E-001	-7.610145913090641E-002	5.6037301E-005	-7.3653954E-001	0
9.6713740E+003	6.170819864761143E+001	-7.3836190E-001	-7.634508370499948E-002	5.6370300E-005	-7.3853970E-001	0
9.6676123E+003	6.190819864255900E+001	-7.4035937E-001	-7.658140937683677E-002	5.6697765E-005	-7.4053961E-001	0
9.6551182E+003	6.210819863750658E+001	-7.4234438E-001	-7.688609684042480E-002	5.7075962E-005	-7.4253958E-001	0
9.6560635E+003	6.230819863245415E+001	-7.4436140E-001	-7.708746049808679E-002	5.7380930E-005	-7.4453962E-001	0
9.6385049E+003	6.250819862740173E+001	-7.4635273E-001	-7.743449333332930E-002	5.7793444E-005	-7.4653965E-001	0
9.6306885E+003	6.270819862234930E+001	-7.4834853E-001	-7.770457309026657E-002	5.8150104E-005	-7.4853963E-001	0
9.6116768E+003	6.290819861729688E+001	-7.5035030E-001	-7.806653515150677E-002	5.8577247E-005	-7.5053960E-001	0
9.6189951E+003	6.310819861224445E+001	-7.5235611E-001	-7.821566677893038E-002	5.8846035E-005	-7.5253969E-001	0
9.6069805E+003	6.330819860719203E+001	-7.5435340E-001	-7.852138672024023E-002	5.9232876E-005	-7.5453967E-001	0
9.6198301E+003	6.350819860213960E+001	-7.5636405E-001	-7.862551383887417E-002	5.9469512E-005	-7.5653952E-001	0
9.6069629E+003	6.370819859708718E+001	-7.5837255E-001	-7.893988532341525E-002	5.9865841E-005	-7.5853962E-001	0
9.5922715E+003	6.390819859203475E+001	-7.6035839E-001	-7.926781710961639E-002	6.0271948E-005	-7.6053959E-001	0
9.5935938E+003	6.410819858698233E+001	-7.6234108E-001	-7.946355486565304E-002	6.0578332E-005	-7.6253957E-001	0
9.5800469E+003	6.430819858192990E+001	-7.6436174E-001	-7.978684527803714E-002	6.0986011E-005	-7.6453960E-001	0
9.5535186E+003	6.450819857687748E+001	-7.6635861E-001	-8.021742118049437E-002	6.1475315E-005	-7.6653963E-001	0
9.5534551E+003	6.470819857182505E+001	-7.6837289E-001	-8.042879485791260E-002	6.1799306E-005	-7.6853961E-001	0
9.5196016E+003	6.490819856677263E+001	-7.7035445E-001	-8.092297382796332E-002	6.2339372E-005	-7.7053958E-001	0
9.5506494E+003	6.510819856172020E+001	-7.7233738E-001	-8.086752728031121E-002	6.2457017E-005	-7.7253968E-001	0
9.5299521E+003	6.530819855666778E+001	-7.7433866E-001	-8.125315419220858E-002	6.2917461E-005	-7.7453959E-001	0
9.5221807E+003	6.550819855161535E+001	-7.7635378E-001	-8.153109148814153E-002	6.3296968E-005	-7.7653956E-001	0
9.4970781E+003	6.570819854656293E+001	-7.7834940E-001	-8.195672338182258E-002	6.3790969E-005	-7.7853966E-001	0
9.4905645E+003	6.590819854151050E+001	-7.8035647E-001	-8.222445172348514E-002	6.4164386E-005	-7.8053963E-001	0
9.4709863E+003	6.610819853645808E+001	-7.8235054E-001	-8.260496622880648E-002	6.4626038E-005	-7.8253961E-001	0
9.4550293E+003	6.630819853140565E+001	-7.8434771E-001	-8.295560836931370E-002	6.5066044E-005	-7.8453958E-001	0
9.4475059E+003	6.650819852635323E+001	-7.8632963E-001	-8.323145454935310E-002	6.5447355E-005	-7.8653967E-001	0
9.4127363E+003	6.670819852130080E+001	-7.8833896E-001	-8.375237064801405E-002	6.6025255E-005	-7.8853971E-001	0
9.4048984E+003	6.690819851624838E+001	-7.9032850E-001	-8.403371118089331E-002	6.6414235E-005	-7.9053962E-001	0
9.3889668E+003	6.710819851119595E+001	-7.9234666E-001	-8.439125013727777E-002	6.6867127E-005	-7.9253966E-001	0
9.3842490E+003	6.730819850614353E+001	-7.9434621E-001	-8.464675456287540E-002	6.7238827E-005	-7.9453969E-001	0
9.3697148E+003	6.750819850109110E+001	-7.9635656E-001	-8.499261791883306E-002	6.7684428E-005	-7.9653955E-001	0
9.3366367E+003	6.770819849603868E+001	-7.9833531E-001	-8.550566324938802E-002	6.8262190E-005	-7.9853964E-001	0
9.3112939E+003	6.790819849098625E+001	-8.0034816E-001	-8.595456073879992E-002	6.8793575E-005	-8.0053973E-001	0
9.2928223E+003	6.810819848593383E+001	-8.0235600E-001	-8.634148025568478E-002	6.9276604E-005	-8.0253959E-001	0
9.2684658E+003	6.830819848088140E+001	-8.0434424E-001	-8.678288578611193E-002	6.9803311E-005	-8.0453968E-001	0
9.2641289E+003	6.850819847582898E+001	-8.0634671E-001	-8.703966707713451E-002	7.0184149E-005	-8.0653965E-001	0
9.2371680E+003	6.870819847077655E+001	-8.0835265E-001	-8.751087149978920E-002	7.0739647E-005	-8.0853963E-001	0
9.1904277E+003	6.890819846572413E+001	-8.1033075E-001	-8.817116363932831E-002	7.1447808E-005	-8.1053960E-001	0
9.1744648E+003	6.910819846067170E+001	-8.1234276E-001	-8.854388345461628E-002	7.1927985E-005	-8.1253964E-001	0
9.1227051E+003	6.930819845561928E+001	-8.1435251E-001	-8.926656197908600E-002	7.2694449E-005	-8.1453973E-001	0
9.1082656E+003	6.950819845056685E+001	-8.1633908E-001	-8.962618382943299E-002	7.3165356E-005	-8.1653965E-001	0
9.0825078E+003	6.970819844551443E+001	-8.1834418E-001	-9.010112316130170E-002	7.3733732E-005	-8.1853956E-001	0
9.0665674E+003	6.990819844046200E+001	-8.2035255E-001	-9.048104881627861E-002	7.4226358E-005	-8.2053971E-001	0
9.0270859E+003	7.010819843540958E+001	-8.2236362E-001	-9.109956838239081E-002	7.4916970E-005	-8.2253969E-001	0
8.9828906E+003	7.030819843035715E+001	-8.2437080E-001	-9.177122132740712E-002	7.5653516E-005	-8.2453960E-001	0
8.9365049E+003	7.050819842530473E+001	-8.2634586E-001	-9.246857296580391E-002	7.6411023E-005	-8.2653964E-001	0
8.9211885E+003	7.070819842025230E+001	-8.2833707E-001	-9.285052570877683E-002	7.6911536E-005	-8.2853967E-001	0
8.8774561E+003	7.090819841519988E+001	-8.3034807E-001	-9.353445813824290E-002	7.7666155E-005	-8.3053964E-001	0
8.8187354E+003	7.110819841014745E+001	-8.3234203E-001	-9.438337959970045E-002	7.8559257E-005	-8.3253962E-001	0
8.7692324E+003	7.130819840509503E+001	-8.3435923E-001	-9.514621364706688E-002	7.9386118E-005	-8.3453971E-001	0
8.7283418E+003	7.150819840004260E+001	-8.3633745E-001	-9.581859452415528E-002	8.0136677E-005	-8.3653957E-001	0
8.6674238E+003	7.170819839499018E+001	-8.3834696E-001	-9.672389070285881E-002	8.1088183E-005	-8.3853966E-001	0
8.6165068E+003	7.190819838993775E+001	-8.4034890E-001	-9.752778961722375E-002	8.1957369E-005	-8.4053963E-001	0
8.5620342E+003	7.210819838488533E+001	-8.4234715E-001	-9.838166582776187E-002	8.2871513E-005	-8.4253961E-001	0
8.4899209E+003	7.230819837983290E+001	-8.4436303E-001	-9.945475438592832E-002	8.3975916E-005	-8.4453970E-001	0
8.4199023E+003	7.250819837478048E+001	-8.4637314E-001	-1.005205427393604E-001	8.5077889E-005	-8.4653962E-001	0
8.3477207E+003	7.270819836972805E+001	-8.4837216E-001	-1.016291926177790E-001	8.6219377E-005	-8.4853977E-001	0
8.2722109E+003	7.290819836467563E+001	-8.5037988E-001	-1.027995929229676E-001	8.7418703E-005	-8.5053962E-001	0
8.1714492E+003	7.310819835962320E+001	-8.5236824E-001	-1.043105371942630E-001	8.8910987E-005	-8.5253954E-001	0
8.1056191E+003	7.330819835457078E+001	-8.5436642E-001	-1.054042136537376E-001	9.0053822E-005	-8.5453969E-001	0
7.9934932E+003	7.350819834951835E+001	-8.5636312E-001	-1.071325271958461E-001	9.1744347E-005	-8.5653967E-001	0
7.9001382E+003	7.370819834446593E+001	-8.5837698E-001	-1.086534147357776E-001	9.3265589E-005	-8.5853964E-001	0
7.7846880E+003	7.390819833941350E+001	-8.6036760E-001	-1.105204982241689E-001	9.5088253E-005	-8.6053967E-001	0
7.6554023E+003	7.410819833436108E+001	-8.6237407E-001	-1.126490852166213E-001	9.7145647E-005	-8.6253965E-001	0
7.5504014E+003	7.430819832930865E+001	-8.6437404E-001	-1.144805449449675E-001	9.8954013E-005	-8.6453962E-001	0
7.4196909E+003	7.450819832425623E+001	-8.6637610E-001	-1.167671422024266E-001	1.0116426E-004	-8.6653960E-001	0
7.2811802E+003	7.470819831920380E+001	-8.6838132E-001	-1.192638177536591E-001	1.0356647E-004	-8.6853969E-001	0
7.1323481E+003	7.490819831415138E+001	-8.7039065E-001	-1.220342334499267E-001	1.0621746E-004	-8.7053967E-001	0
6.9853394E+003	7.510819830909895E+001	-8.7237197E-001	-1.248861223505704E-001	1.0894716E-004	-8.7253964E-001	0
6.8450898E+003	7.530819830404653E+001	-8.7437165E-001	-1.277370606454053E-001	1.1168967E-004	-8.7453961E-001	0
6.7056768E+003	7.550819829899410E+001	-8.7635559E-001	-1.306886110399887E-001	1.1452969E-004	-8.7653959E-001	0
6.5443857E+003	7.570819829394168E+001	-8.7836307E-001	-1.342162775317137E-001	1.1789062E-004	-8.7853968E-001	0
6.3969199E+003	7.590819828888925E+001	-8.8035440E-001	-1.376216130071404E-001	1.2115579E-004	-8.8053960E-001	0
6.2600762E+003	7.610819828383683E+001	-8.8236165E-001	-1.409506198027235E-001	1.2436943E-004	-8.8253975E-001	0
6.1246187E+003	7.630819827878440E+001	-8.8434923E-001	-1.443925392845662E-001	1.2769343E-004	-8.8453972E-001	0
5.9830703E+003	7.650819827373198E+001	-8.8635600E-001	-1.481440106001330E-001	1.3130833E-004	-8.8653958E-001	0
5.8441792E+003	7.670819826867955E+001	-8.8835210E-001	-1.520063010954602E-001	1.3503512E-004	-8.8853967E-001	0
5.6411030E+003	7.690819826362713E+001	-8.9035076E-001	-1.578327457868243E-001	1.4052651E-004	-8.9053965E-001	0
5.4686738E+003	7.710819825857470E+001	-8.9236307E-001	-1.631772413431691E-001	1.4561335E-004	-8.9253962E-001	0
5.3373228E+003	7.730819825352228E+001	-8.9434260E-001	-1.675639014158934E-001	1.4985954E-004	-8.9453965E-001	0
5.1782144E+003	7.750819824846985E+001	-8.9634848E-001	-1.730999219296775E-001	1.5515785E-004	-8.9653969E-001	0
4.9987100E+003	7.770819824341743E+001	-8.9836574E-001	-1.797195186642102E-001	1.6145386E-004	-8.9853966E-001	0
4.8101431E+003	7.790819823836500E+001	-9.0035290E-001	-1.871779957889688E-001	1.6852625E-004	-9.0053964E-001	0
4.6179307E+003	7.810819823331258E+001	-9.0235716E-001	-1.954029185640417E-001	1.7632323E-004	-9.0253967E-001	0
4.4068599E+003	7.830819822826015E+001	-9.0436345E-001	-2.052172048929704E-001	1.8559094E-004	-9.0453964E-001	0
4.1872642E+003	7.850819822320773E+001	-9.0637439E-001	-2.164598188665012E-001	1.9619364E-004	-9.0653962E-001	0
3.9645789E+003	7.870819821815530E+001	-9.0835273E-001	-2.291170839017549E-001	2.0811913E-004	-9.0853971E-001	0
3.7305808E+003	7.890819821310288E+001	-9.1036391E-001	-2.440273997156357E-001	2.2215374E-004	-9.1053969E-001	0
3.5020159E+003	7.910819820805045E+001	-9.1235858E-001	-2.605238237382330E-001	2.3769114E-004	-9.1253966E-001	0
3.2717908E+003	7.930819820299803E+001	-9.1436505E-001	-2.794692872214624E-001	2.5553696E-004	-9.1453964E-001	0
3.0450432E+003	7.950819819794560E+001	-9.1637480E-001	-3.009398312660558E-001	2.7577367E-004	-9.1653973E-001	0
2.8168516E+003	7.970819819289318E+001	-9.1836518E-001	-3.260253974977817E-001	2.9941037E-004	-9.1853976E-001	0
2.5619360E+003	7.990819818784075E+001	-9.2035794E-001	-3.592431477932028E-001	3.3063229E-004	-9.2053968E-001	0
2.3674941E+003	8.010819818278833E+001	-9.2236501E-001	-3.895954760509512E-001	3.5934924E-004	-9.2253965E-001	0
2.1794365E+003	8.030819817773590E+001	-9.2437309E-001	-4.241340032096552E-001	3.9205805E-004	-9.2453974E-001	0
1.9980018E+003	8.050819817268348E+001	-9.2636222E-001	-4.636443369935304E-001	4.2950260E-004	-9.2653960E-001	0
1.8153433E+003	8.070819816763105E+001	-9.2837238E-001	-5.114032142751279E-001	4.7477262E-004	-9.2853963E-001	0
1.6434901E+003	8.090819816257863E+001	-9.3038058E-001	-5.661005237796548E-001	5.2668893E-004	-9.3053967E-001	0
1.5035841E+003	8.110819815752620E+001	-9.3237782E-001	-6.201035504032957E-001	5.7817082E-004	-9.3253964E-001	0
1.3626709E+003	8.130819815247378E+001	-9.3438452E-001	-6.857007832779569E-001	6.4070820E-004	-9.3453962E-001	0
1.2300245E+003	8.150819814742135E+001	-9.3637133E-001	-7.612622996576786E-001	7.1282417E-004	-9.3653965E-001	0
1.1213412E+003	8.170819814236893E+001	-9.3834150E-001	-8.368028120270754E-001	7.8520679E-004	-9.3853962E-001	0
1.0081050E+003	8.190819813731650E+001	-9.4034839E-001	-9.327880921446283E-001	8.7714579E-004	-9.4053960E-001	0
9.1207556E+002	8.211819813201146E+001	-9.4243062E-001	-1.033281295102281E+000	9.7379595E-004	-9.4263971E-001	0
8.2182031E+002	8.232819812670641E+001	-9.4452041E-001	-1.149302830636640E+000	1.0855399E-003	-9.4473976E-001	0
7.4177960E+002	8.252819812165399E+001	-9.4648945E-001	-1.275971283101371E+000	1.2076934E-003	-9.4673961E-001	0
6.7400500E+002	8.272819811660156E+001	-9.4851124E-001	-1.407276232674072E+000	1.3348174E-003	-9.4873965E-001	0
6.1067633E+002	8.292819811154914E+001	-9.5050204E-001	-1.556474371029744E+000	1.4794321E-003	-9.5073968E-001	0
5.5499182E+002	8.312819810649671E+001	-9.5252442E-001	-1.716285475122141E+000	1.6348038E-003	-9.5273966E-001	0
5.0444910E+002	8.332819810144429E+001	-9.5452207E-001	-1.892206868161011E+000	1.8061532E-003	-9.5473963E-001	0
4.5891522E+002	8.352819809639186E+001	-9.5653474E-001	-2.084338734969677E+000	1.9937423E-003	-9.5673966E-001	0
4.1810385E+002	8.372819809133944E+001	-9.5852655E-001	-2.292556120255909E+000	2.1974759E-003	-9.5873964E-001	0
3.8241812E+002	8.392819808628701E+001	-9.6053141E-001	-2.511730958038175E+000	2.4125965E-003	-9.6073961E-001	0
3.4913464E+002	8.412819808123459E+001	-9.6253586E-001	-2.756918749943083E+000	2.6536332E-003	-9.6273971E-001	0
3.2020508E+002	8.432819807618216E+001	-9.6452618E-001	-3.012213934964737E+000	2.9053593E-003	-9.6473968E-001	0
2.9375696E+002	8.452819807112974E+001	-9.6654123E-001	-3.290275331797782E+000	3.1801867E-003	-9.6673965E-001	0
2.7035941E+002	8.472819806607731E+001	-9.6853554E-001	-3.582399925271915E+000	3.4696816E-003	-9.6873963E-001	0
2.4911246E+002	8.492819806102489E+001	-9.7053784E-001	-3.895982740687665E+000	3.7811988E-003	-9.7073972E-001	0
2.3008496E+002	8.512819805597246E+001	-9.7252518E-001	-4.226809008355314E+000	4.1106781E-003	-9.7273976E-001	0
2.1296948E+002	8.532819805092004E+001	-9.7454929E-001	-4.576004585475076E+000	4.4595422E-003	-9.7473967E-001	0
1.9733093E+002	8.552819804586761E+001	-9.7653574E-001	-4.948720850067346E+000	4.8326026E-003	-9.7673965E-001	0
1.8359303E+002	8.572819804081519E+001	-9.7852987E-001	-5.329885632678241E+000	5.2154525E-003	-9.7873974E-001	0
1.7077248E+002	8.592819803576276E+001	-9.8054034E-001	-5.741793867107717E+000	5.6300606E-003	-9.8073959E-001	0
1.5956161E+002	8.612819803071034E+001	-9.8256111E-001	-6.157879181459663E+000	6.0504926E-003	-9.8273963E-001	0
1.4918085E+002	8.632819802565791E+001	-9.8454571E-001	-6.599678830968031E+000	6.4976853E-003	-9.8473966E-001	0
1.3977814E+002	8.652819802060549E+001	-9.8656946E-001	-7.058110154337349E+000	6.9633159E-003	-9.8673964E-001	0
1.3133434E+002	8.672819801555306E+001	-9.8854256E-001	-7.526916732931369E+000	7.4406774E-003	-9.8873967E-001	0
1.2350880E+002	8.692819801050064E+001	-9.9053603E-001	-8.019963571814486E+000	7.9440633E-003	-9.9073964E-001	0
1.1647504E+002	8.712819800544821E+001	-9.9256122E-001	-8.521664890505036E+000	8.4582744E-003	-9.9273962E-001	0
1.1010013E+002	8.732819800039579E+001	-9.9457288E-001	-9.033349251530908E+000	8.9843245E-003	-9.9473953E-001	0
1.0423529E+002	8.752819799534336E+001	-9.9656355E-001	-9.560711636226955E+000	9.5278565E-003	-9.9673969E-001	0
9.8892540E+001	8.772819799029094E+001	-9.9854684E-001	-1.009729167535193E+001	1.0082618E-002	-9.9873954E-001	0
9.3913963E+001	8.792819798523851E+001	-1.0005658E+000	-1.065406779299516E+001	1.0660095E-002	-1.0007397E+000	0
8.8701660E+001	8.814819797968084E+001	-1.0027368E+000	-1.130459982852818E+001	1.1335539E-002	-1.0029397E+000	0
8.4633301E+001	8.834839797462337E+001	-1.0047330E+000	-1.187160350548353E+001	1.1927792E-002	-1.0049411E+000	0
8.0874809E+001	8.854869796956336E+001	-1.0067351E+000	-1.244806799002501E+001	1.2531906E-002	-1.0069444E+000	0
7.7386375E+001	8.874889796450589E+001	-1.0087476E+000	-1.303520883251731E+001	1.3149235E-002	-1.0089465E+000	0
7.4175247E+001	8.894919795944588E+001	-1.0107579E+000	-1.362662083310227E+001	1.3773215E-002	-1.0109491E+000	0
7.1189087E+001	8.914949795438588E+001	-1.0127671E+000	-1.422643679534248E+001	1.4408067E-002	-1.0129524E+000	0
6.8462830E+001	8.934959794933093E+001	-1.0147671E+000	-1.482216057363813E+001	1.5041040E-002	-1.0149536E+000	0
6.5942467E+001	8.954959794427850E+001	-1.0167445E+000	-1.541866077317138E+001	1.5676839E-002	-1.0169536E+000	0
6.3575478E+001	8.974959793922608E+001	-1.0187577E+000	-1.602438098624719E+001	1.6324962E-002	-1.0189536E+000	0
6.1379547E+001	8.994959793417365E+001	-1.0207591E+000	-1.663028106005558E+001	1.6975511E-002	-1.0209537E+000	0
5.9355667E+001	9.014969792911870E+001	-1.0227518E+000	-1.723090427217267E+001	1.7622938E-002	-1.0229545E+000	0
5.7447018E+001	9.034979792406375E+001	-1.0247464E+000	-1.783811399888022E+001	1.8279543E-002	-1.0249557E+000	0
5.5629009E+001	9.054979791901133E+001	-1.0267524E+000	-1.845713858728783E+001	1.8950911E-002	-1.0269556E+000	0
5.3915569E+001	9.074989791395637E+001	-1.0287623E+000	-1.908098797669306E+001	1.9629803E-002	-1.0289564E+000	0
5.2310307E+001	9.095009790889890E+001	-1.0307857E+000	-1.970521168752946E+001	2.0311849E-002	-1.0309585E+000	0
5.0813839E+001	9.115039790383889E+001	-1.0327817E+000	-2.032481216554881E+001	2.0991094E-002	-1.0329611E+000	0
4.9401821E+001	9.135089789877384E+001	-1.0347900E+000	-2.094639460726967E+001	2.1675121E-002	-1.0349663E+000	0
4.8051853E+001	9.155099789371889E+001	-1.0367985E+000	-2.157665965981505E+001	2.2370648E-002	-1.0369676E+000	0
4.6791641E+001	9.175119788866141E+001	-1.0387912E+000	-2.220035770122152E+001	2.3061536E-002	-1.0389695E+000	0
4.5580070E+001	9.195119788360898E+001	-1.0408047E+000	-2.283464504572271E+001	2.3766408E-002	-1.0409696E+000	0
4.4437721E+001	9.215129787855403E+001	-1.0427873E+000	-2.346626469566824E+001	2.4470324E-002	-1.0429704E+000	0
4.3344955E+001	9.235139787349908E+001	-1.0448147E+000	-2.410464471673209E+001	2.5184887E-002	-1.0449717E+000	0
4.2284325E+001	9.255139786844666E+001	-1.0468006E+000	-2.475623398221819E+001	2.5914840E-002	-1.0469717E+000	0
4.1307079E+001	9.275139786339423E+001	-1.0488048E+000	-2.539043547101585E+001	2.6629610E-002	-1.0489717E+000	0
4.0373798E+001	9.295149785833928E+001	-1.0508026E+000	-2.602684389583985E+001	2.7349075E-002	-1.0509723E+000	0
3.9485645E+001	9.315179785327928E+001	-1.0528071E+000	-2.666303348297981E+001	2.8071031E-002	-1.0529755E+000	0
3.8594360E+001	9.335189784822433E+001	-1.0547975E+000	-2.733035530404823E+001	2.8827991E-002	-1.0549765E+000	0
3.7762745E+001	9.355199784316937E+001	-1.0567961E+000	-2.798515028883264E+001	2.9574597E-002	-1.0569776E+000	0
3.6939560E+001	9.375199783811695E+001	-1.0588027E+000	-2.866311179996899E+001	3.0348580E-002	-1.0589777E+000	0
3.6157703E+001	9.395209783306200E+001	-1.0607973E+000	-2.933807142426213E+001	3.1121748E-002	-1.0609785E+000	0
3.5388081E+001	9.415239782800199E+001	-1.0628119E+000	-3.003304444027063E+001	3.1919476E-002	-1.0629811E+000	0
3.4685398E+001	9.435279782293946E+001	-1.0648049E+000	-3.069893922976638E+001	3.2688383E-002	-1.0649855E+000	0
3.3991234E+001	9.455279781788704E+001	-1.0668226E+000	-3.138522976082754E+001	3.3482473E-002	-1.0669857E+000	0
3.3313568E+001	9.475289781283209E+001	-1.0688446E+000	-3.208436292270824E+001	3.4293197E-002	-1.0689863E+000	0
3.2662899E+001	9.495299780777714E+001	-1.0708112E+000	-3.278371374704398E+001	3.5105165E-002	-1.0709876E+000	0
3.2073738E+001	9.515299780272471E+001	-1.0728199E+000	-3.344854732003051E+001	3.5884269E-002	-1.0729877E+000	0
3.1487926E+001	9.535309779766976E+001	-1.0748061E+000	-3.413391176549339E+001	3.6687337E-002	-1.0749884E+000	0
3.0877674E+001	9.555319779261481E+001	-1.0768217E+000	-3.487379475650870E+001	3.7552860E-002	-1.0769898E+000	0
3.0327160E+001	9.575319778756239E+001	-1.0788169E+000	-3.557263102174596E+001	3.8376354E-002	-1.0789896E+000	0
2.9784647E+001	9.595339778250491E+001	-1.0808229E+000	-3.628792116190323E+001	3.9220817E-002	-1.0809911E+000	0
2.9259045E+001	9.615359777744743E+001	-1.0828124E+000	-3.700778554004884E+001	4.0072490E-002	-1.0829936E+000	0
2.8749447E+001	9.635369777239248E+001	-1.0848181E+000	-3.773353073543535E+001	4.0934019E-002	-1.0849943E+000	0
2.8237473E+001	9.655379776733753E+001	-1.0868342E+000	-3.848907592966987E+001	4.1831244E-002	-1.0869957E+000	0
2.7749035E+001	9.675389776228258E+001	-1.0888270E+000	-3.923837366882088E+001	4.2723801E-002	-1.0889965E+000	0
2.7276232E+001	9.695399775722763E+001	-1.0908209E+000	-3.999162665110872E+001	4.3623701E-002	-1.0909977E+000	0
2.6801355E+001	9.715409775217267E+001	-1.0928260E+000	-4.077502829979232E+001	4.4560011E-002	-1.0929985E+000	0
2.6362782E+001	9.735419774711772E+001	-1.0948340E+000	-4.152953300941007E+001	4.5467943E-002	-1.0949997E+000	0
2.5929596E+001	9.755429774206277E+001	-1.0968339E+000	-4.230046471428803E+001	4.6396587E-002	-1.0970004E+000	0
2.5492594E+001	9.775439773700782E+001	-1.0988255E+000	-4.310371284257803E+001	4.7363456E-002	-1.0990016E+000	0
2.5087755E+001	9.795449773195287E+001	-1.1008368E+000	-4.387944399026595E+001	4.8304103E-002	-1.1010025E+000	0
2.4719902E+001	9.815459772689792E+001	-1.1028292E+000	-4.461300930684911E+001	4.9200531E-002	-1.1030037E+000	0
2.4339455E+001	9.835469772184297E+001	-1.1048501E+000	-4.539337878361181E+001	5.0152875E-002	-1.1050044E+000	0
2.3918249E+001	9.855489771678549E+001	-1.1068411E+000	-4.627600626448429E+001	5.1220186E-002	-1.1070064E+000	0
2.3554365E+001	9.875509771172801E+001	-1.1088406E+000	-4.707580048255568E+001	5.2199557E-002	-1.1090084E+000	0
2.3192183E+001	9.895519770667306E+001	-1.1108519E+000	-4.789768534047272E+001	5.3207234E-002	-1.1110097E+000	0
2.2831715E+001	9.915519770162064E+001	-1.1128534E+000	-4.874156068431023E+001	5.4242212E-002	-1.1130097E+000	0
2.2502930E+001	9.935529769656569E+001	-1.1148658E+000	-4.954313769132921E+001	5.5233948E-002	-1.1150104E+000	0
2.2156597E+001	9.955549769150821E+001	-1.1168796E+000	-5.040844423751798E+001	5.6300163E-002	-1.1170124E+000	0
2.1818920E+001	9.975569768645073E+001	-1.1188531E+000	-5.127902999515193E+001	5.7373703E-002	-1.1190144E+000	0
2.1513193E+001	9.995579768139578E+001	-1.1208596E+000	-5.210103337835039E+001	5.8397945E-002	-1.1210157E+000	0
2.1207621E+001	1.001558976763408E+002	-1.1228521E+000	-5.294568774564652E+001	5.9450176E-002	-1.1230165E+000	0
2.0891537E+001	1.003559976712859E+002	-1.1248493E+000	-5.384234308655829E+001	6.0564522E-002	-1.1250178E+000	0
2.0596525E+001	1.005559976662335E+002	-1.1268405E+000	-5.471022382669150E+001	6.1649695E-002	-1.1270176E+000	0
2.0320328E+001	1.007559976611810E+002	-1.1288357E+000	-5.555204158196875E+001	6.2709123E-002	-1.1290176E+000	0
2.0064499E+001	1.009559976561286E+002	-1.1308513E+000	-5.636080224659980E+001	6.3735686E-002	-1.1310177E+000	0
1.9811979E+001	1.011559976510762E+002	-1.1328440E+000	-5.717974902442796E+001	6.4775735E-002	-1.1330178E+000	0
1.9550816E+001	1.013560976460212E+002	-1.1348516E+000	-5.804625092169920E+001	6.5873876E-002	-1.1350185E+000	0
1.9253838E+001	1.015564976409587E+002	-1.1368549E+000	-5.904562540033112E+001	6.7126311E-002	-1.1370223E+000	0
1.8967587E+001	1.017566976359012E+002	-1.1388471E+000	-6.004175413987650E+001	6.8378381E-002	-1.1390245E+000	0
1.8735649E+001	1.019568976308437E+002	-1.1408697E+000	-6.089299147034603E+001	6.9470972E-002	-1.1410264E+000	0
1.8477287E+001	1.021569976257888E+002	-1.1428626E+000	-6.185229061844677E+001	7.0688665E-002	-1.1430277E+000	0
1.8253841E+001	1.023569976207364E+002	-1.1448506E+000	-6.271833854089249E+001	7.1803130E-002	-1.1450278E+000	0
1.7994579E+001	1.025569976156839E+002	-1.1468629E+000	-6.373379888123643E+001	7.3093928E-002	-1.1470277E+000	0
1.7729633E+001	1.027570976106290E+002	-1.1488566E+000	-6.479867027354453E+001	7.4444383E-002	-1.1490284E+000	0
1.7524567E+001	1.029572976055715E+002	-1.1508757E+000	-6.567213248954658E+001	7.5580463E-002	-1.1510304E+000	0
1.7340038E+001	1.031574976005140E+002	-1.1528770E+000	-6.648641715073268E+001	7.6650657E-002	-1.1530324E+000	0
1.7111629E+001	1.033576975954566E+002	-1.1549072E+000	-6.749253144354907E+001	7.7947609E-002	-1.1550345E+000	0
1.6819969E+001	1.035579975903966E+002	-1.1569244E+000	-6.878278521573895E+001	7.9576477E-002	-1.1570373E+000	0
1.6573017E+001	1.037582975853366E+002	-1.1589290E+000	-6.992866709764962E+001	8.1042357E-002	-1.1590403E+000	0
1.6397520E+001	1.039584975802791E+002	-1.1609334E+000	-7.079933020511362E+001	8.2193308E-002	-1.1610423E+000	0
1.6232471E+001	1.041586975752216E+002	-1.1629382E+000	-7.164270624483629E+001	8.3316043E-002	-1.1630443E+000	0
1.5977340E+001	1.043587975701666E+002	-1.1649420E+000	-7.291213857938328E+001	8.4938414E-002	-1.1650456E+000	0
1.5795354E+001	1.045587975651142E+002	-1.1669421E+000	-7.387882151733442E+001	8.6212307E-002	-1.1670457E+000	0
1.5625276E+001	1.047587975600618E+002	-1.1689265E+000	-7.480997634961227E+001	8.7447360E-002	-1.1690457E+000	0
1.5467627E+001	1.049587975550094E+002	-1.1709546E+000	-7.570357282740201E+001	8.8645443E-002	-1.1710457E+000	0
1.5285888E+001	1.051589975499519E+002	-1.1729387E+000	-7.673343904732519E+001	9.0003617E-002	-1.1730472E+000	0
1.5145893E+001	1.053592975448919E+002	-1.1749471E+000	-7.757529581108179E+001	9.1146871E-002	-1.1750504E+000	0
1.4975691E+001	1.055593975398369E+002	-1.1769381E+000	-7.858990226959691E+001	9.2495449E-002	-1.1770517E+000	0
1.4850834E+001	1.057596975347769E+002	-1.1789517E+000	-7.938622985845467E+001	9.3592532E-002	-1.1790544E+000	0
1.4700514E+001	1.059598975297195E+002	-1.1809446E+000	-8.033355668483691E+001	9.4869480E-002	-1.1810565E+000	0
1.4487178E+001	1.061600975246620E+002	-1.1829479E+000	-8.165481797514008E+001	9.6593395E-002	-1.1830585E+000	0
1.4332210E+001	1.063601975196070E+002	-1.1849333E+000	-8.267624881045913E+001	9.7965844E-002	-1.1850597E+000	0
1.4191771E+001	1.065602975145521E+002	-1.1869528E+000	-8.363669600750315E+001	9.9272810E-002	-1.1870604E+000	0
1.3957770E+001	1.067603975094971E+002	-1.1889344E+000	-8.518082945038691E+001	1.0127442E-001	-1.1890616E+000	0
1.3812982E+001	1.069604975044422E+002	-1.1909469E+000	-8.621939806504793E+001	1.0268272E-001	-1.1910625E+000	0
1.3706010E+001	1.071606974993847E+002	-1.1929444E+000	-8.703805004679430E+001	1.0383155E-001	-1.1930645E+000	0
1.3528875E+001	1.073611974943196E+002	-1.1949221E+000	-8.832383120825193E+001	1.0554010E-001	-1.1950692E+000	0
1.3415572E+001	1.075613974892622E+002	-1.1969417E+000	-8.922032510991016E+001	1.0679153E-001	-1.1970717E+000	0
1.3316400E+001	1.077613974842097E+002	-1.1989378E+000	-9.003467834563480E+001	1.0794598E-001	-1.1990716E+000	0
1.3140476E+001	1.079614974791548E+002	-1.2009441E+000	-9.139273339114834E+001	1.0975756E-001	-1.2010726E+000	0
1.3033255E+001	1.081615974740998E+002	-1.2029662E+000	-9.229975817695538E+001	1.1103349E-001	-1.2030737E+000	0
1.2958530E+001	1.083616974690449E+002	-1.2049518E+000	-9.298521910865838E+001	1.1204270E-001	-1.2050744E+000	0
1.2854671E+001	1.085618974639874E+002	-1.2069546E+000	-9.389230036368122E+001	1.1332374E-001	-1.2070764E+000	0
1.2715848E+001	1.087620974589299E+002	-1.2089332E+000	-9.507295120687616E+001	1.1493685E-001	-1.2090784E+000	0
1.2617438E+001	1.089621974538750E+002	-1.2109556E+000	-9.597475844878431E+001	1.1622117E-001	-1.2110796E+000	0
1.2522152E+001	1.091622974488200E+002	-1.2129518E+000	-9.686448445005340E+001	1.1749195E-001	-1.2130805E+000	0
1.2319611E+001	1.093624974437626E+002	-1.2149470E+000	-9.861894653399895E+001	1.1981679E-001	-1.2150825E+000	0
1.2163731E+001	1.095626974387051E+002	-1.2169417E+000	-1.000467490532719E+002	1.2175106E-001	-1.2170845E+000	0
1.2073557E+001	1.097628974336476E+002	-1.2189457E+000	-1.009599523682534E+002	1.2306470E-001	-1.2190865E+000	0
1.1946031E+001	1.099631974285876E+002	-1.2209615E+000	-1.022064563442491E+002	1.2479015E-001	-1.2210892E+000	0
1.1853337E+001	1.101635974235251E+002	-1.2229705E+000	-1.031752028580412E+002	1.2618023E-001	-1.2230932E+000	0
1.1789083E+001	1.103638974184651E+002	-1.2249641E+000	-1.039066538555786E+002	1.2728192E-001	-1.2250965E+000	0
1.1683520E+001	1.105639974134101E+002	-1.2269748E+000	-1.050175600668204E+002	1.2885390E-001	-1.2270977E+000	0
1.1546949E+001	1.107642974083501E+002	-1.2289697E+000	-1.064324136854575E+002	1.3080221E-001	-1.2291003E+000	0
1.1481920E+001	1.109643974032952E+002	-1.2309648E+000	-1.072089662054505E+002	1.3197047E-001	-1.2311016E+000	0
1.1431814E+001	1.111643973982427E+002	-1.2329766E+000	-1.078548466288853E+002	1.3298249E-001	-1.2331017E+000	0
1.1317337E+001	1.113644973931878E+002	-1.2349727E+000	-1.091222030481269E+002	1.3476294E-001	-1.2351024E+000	0
1.1251645E+001	1.115748973878726E+002	-1.2370986E+000	-1.099482434125438E+002	1.3601682E-001	-1.2372061E+000	0
1.1110419E+001	1.117852973825575E+002	-1.2391555E+000	-1.115309413154237E+002	1.3820419E-001	-1.2393104E+000	0
1.0998442E+001	1.119854973775000E+002	-1.2411586E+000	-1.128485907826612E+002	1.4006300E-001	-1.2413125E+000	0
1.0948168E+001	1.121856973724425E+002	-1.2431765E+000	-1.135511013157122E+002	1.4116405E-001	-1.2433145E+000	0
1.0832722E+001	1.123857973673876E+002	-1.2451879E+000	-1.149469057286410E+002	1.4313050E-001	-1.2453157E+000	0
1.0697187E+001	1.125857973623351E+002	-1.2471727E+000	-1.165888393384794E+002	1.4540642E-001	-1.2473156E+000	0
1.0612944E+001	1.127858973572802E+002	-1.2491945E+000	-1.177048080857167E+002	1.4703619E-001	-1.2493166E+000	0
1.0587496E+001	1.129861973522202E+002	-1.2511816E+000	-1.181754042054527E+002	1.4785889E-001	-1.2513195E+000	0
1.0556721E+001	1.131861973471678E+002	-1.2531587E+000	-1.187071938503896E+002	1.4875895E-001	-1.2533197E+000	0
1.0485565E+001	1.133861973421153E+002	-1.2551744E+000	-1.197049824061578E+002	1.5025063E-001	-1.2553196E+000	0
1.0379265E+001	1.135861973370629E+002	-1.2571639E+000	-1.211226296943869E+002	1.5227100E-001	-1.2573197E+000	0
1.0273179E+001	1.137861973320105E+002	-1.2591722E+000	-1.225688936748197E+002	1.5433535E-001	-1.2593197E+000	0
1.0200175E+001	1.139864973269505E+002	-1.2611811E+000	-1.236430776318421E+002	1.5593632E-001	-1.2613224E+000	0
1.0146035E+001	1.141866973218930E+002	-1.2631754E+000	-1.244994022437975E+002	1.5726458E-001	-1.2633245E+000	0
1.0047671E+001	1.143868973168355E+002	-1.2651777E+000	-1.259175091592411E+002	1.5930803E-001	-1.2653265E+000	0
1.0031854E+001	1.145870973117781E+002	-1.2672071E+000	-1.263183470437516E+002	1.6007151E-001	-1.2673284E+000	0
9.9289856E+000	1.147871973067231E+002	-1.2691936E+000	-1.278271214729534E+002	1.6223738E-001	-1.2693297E+000	0
9.7955427E+000	1.149873973016656E+002	-1.2711836E+000	-1.297716344137739E+002	1.6496357E-001	-1.2713313E+000	0
9.7111549E+000	1.151875972966081E+002	-1.2731897E+000	-1.311058931393952E+002	1.6692267E-001	-1.2733337E+000	0
9.6641808E+000	1.153877972915507E+002	-1.2751954E+000	-1.319507006478717E+002	1.6826291E-001	-1.2753353E+000	0
9.6598244E+000	1.155879972864932E+002	-1.2771864E+000	-1.322163117521202E+002	1.6886488E-001	-1.2773378E+000	0
9.5827904E+000	1.157879972814408E+002	-1.2791864E+000	-1.334878839159769E+002	1.7075588E-001	-1.2793376E+000	0
9.5474730E+000	1.159879972763883E+002	-1.2811872E+000	-1.341912276274493E+002	1.7192408E-001	-1.2813377E+000	0
9.4627714E+000	1.161879972713359E+002	-1.2831879E+000	-1.356038078104832E+002	1.7400517E-001	-1.2833377E+000	0
9.3393192E+000	1.163879972662835E+002	-1.2852060E+000	-1.376123802202355E+002	1.7686026E-001	-1.2853378E+000	0
9.3134508E+000	1.165882972612235E+002	-1.2872188E+000	-1.382107253213655E+002	1.7790745E-001	-1.2873400E+000	0
9.3178911E+000	1.167888972561559E+002	-1.2892132E+000	-1.383589050546002E+002	1.7837413E-001	-1.2893460E+000	0
9.1927280E+000	1.169893972510909E+002	-1.2912160E+000	-1.404605975851059E+002	1.8136497E-001	-1.2913513E+000	0
9.1530161E+000	1.171896972460308E+002	-1.2932100E+000	-1.412878562458602E+002	1.8271488E-001	-1.2933544E+000	0
9.1569700E+000	1.173898972409734E+002	-1.2952199E+000	-1.414463451719935E+002	1.8320411E-001	-1.2953566E+000	0
9.1195784E+000	1.175901972359134E+002	-1.2972252E+000	-1.422461878756224E+002	1.8452534E-001	-1.2973591E+000	0
9.0032959E+000	1.177905972308508E+002	-1.2992489E+000	-1.443081519900817E+002	1.8749221E-001	-1.2993633E+000	0
8.9065657E+000	1.179907972257934E+002	-1.3012463E+000	-1.460996716655031E+002	1.9011165E-001	-1.3013657E+000	0
8.8887701E+000	1.181908972207384E+002	-1.3032472E+000	-1.466172642373054E+002	1.9107854E-001	-1.3033665E+000	0
8.7705994E+000	1.183909972156835E+002	-1.3052403E+000	-1.488199585700518E+002	1.9424580E-001	-1.3053677E+000	0
8.7503080E+000	1.185910972106285E+002	-1.3072438E+000	-1.493940412608450E+002	1.9529444E-001	-1.3073685E+000	0
8.7132101E+000	1.187912972055710E+002	-1.3092408E+000	-1.502592894807217E+002	1.9672559E-001	-1.3093704E+000	0
8.6415558E+000	1.189915972005110E+002	-1.3112414E+000	-1.517367198224219E+002	1.9896346E-001	-1.3113731E+000	0
8.5506639E+000	1.191917971954535E+002	-1.3132526E+000	-1.535848678526150E+002	2.0169573E-001	-1.3133757E+000	0
8.5217724E+000	1.193920971903935E+002	-1.3152401E+000	-1.543388040855500E+002	2.0299259E-001	-1.3153780E+000	0
8.4660006E+000	1.195925971853285E+002	-1.3172481E+000	-1.555927235106819E+002	2.0495422E-001	-1.3173835E+000	0
8.4273529E+000	1.197927971802710E+002	-1.3192434E+000	-1.565430345792197E+002	2.0651837E-001	-1.3193855E+000	0
8.3971577E+000	1.199931971752085E+002	-1.3212492E+000	-1.573448148102439E+002	2.0789172E-001	-1.3213891E+000	0
8.3585291E+000	1.201935971701459E+002	-1.3232694E+000	-1.583136594847114E+002	2.0949161E-001	-1.3233931E+000	0
8.2701206E+000	1.203939971650834E+002	-1.3252646E+000	-1.602473148370232E+002	2.1237008E-001	-1.3253970E+000	0
8.2809753E+000	1.205945971600158E+002	-1.3272731E+000	-1.602798029135727E+002	2.1273507E-001	-1.3274032E+000	0
8.2808170E+000	1.207949971549533E+002	-1.3292664E+000	-1.605235799971106E+002	2.1337861E-001	-1.3294072E+000	0
8.2584496E+000	1.209951971498958E+002	-1.3312771E+000	-1.612018235870501E+002	2.1460430E-001	-1.3314097E+000	0
8.1367731E+000	1.211951971448434E+002	-1.3332947E+000	-1.638603780891344E+002	2.1847418E-001	-1.3334097E+000	0
7.9812741E+000	1.213953971397859E+002	-1.3352813E+000	-1.673017703432720E+002	2.2339492E-001	-1.3354112E+000	0
7.8494358E+000	1.215956971347259E+002	-1.3372928E+000	-1.703680100829657E+002	2.2783192E-001	-1.3374144E+000	0
7.7456341E+000	1.217957971296710E+002	-1.3392787E+000	-1.729075574074736E+002	2.3157141E-001	-1.3394157E+000	0
7.7093506E+000	1.219957971246185E+002	-1.3412801E+000	-1.739809423412054E+002	2.3335718E-001	-1.3414158E+000	0
7.6925831E+000	1.221960971195585E+002	-1.3433008E+000	-1.746228599399556E+002	2.3457102E-001	-1.3434184E+000	0
7.6893415E+000	1.223962971145011E+002	-1.3452971E+000	-1.749560842666068E+002	2.3536791E-001	-1.3454205E+000	0
7.6788831E+000	1.225964971094436E+002	-1.3473226E+000	-1.754581457913186E+002	2.3639873E-001	-1.3474225E+000	0
7.6659780E+000	1.227965971043886E+002	-1.3492901E+000	-1.760101799229649E+002	2.3748881E-001	-1.3494236E+000	0
7.5423613E+000	1.229970970993236E+002	-1.3513101E+000	-1.791627443591151E+002	2.4210443E-001	-1.3514278E+000	0
7.4525123E+000	1.231974970942611E+002	-1.3533114E+000	-1.815913038397944E+002	2.4574958E-001	-1.3534324E+000	0
7.3817439E+000	1.233976970892036E+002	-1.3553118E+000	-1.836031932009305E+002	2.4883957E-001	-1.3554344E+000	0
7.3407712E+000	1.235978970841461E+002	-1.3573261E+000	-1.849023890265211E+002	2.5097284E-001	-1.3574364E+000	0
7.3374190E+000	1.237979970790911E+002	-1.3593291E+000	-1.852598401521609E+002	2.5182909E-001	-1.3594377E+000	0
7.2678027E+000	1.239981970740337E+002	-1.3613456E+000	-1.873118597044117E+002	2.5499618E-001	-1.3614391E+000	0
7.2296233E+000	1.241984970689737E+002	-1.3633355E+000	-1.885762803890917E+002	2.5709274E-001	-1.3634422E+000	0
7.1547141E+000	1.243985970639187E+002	-1.3653375E+000	-1.908304790933557E+002	2.6054800E-001	-1.3654435E+000	0
7.1471925E+000	1.245986970588638E+002	-1.3673460E+000	-1.913123251125980E+002	2.6159015E-001	-1.3674445E+000	0
7.0997524E+000	1.247987970538088E+002	-1.3693333E+000	-1.928705714965342E+002	2.6410410E-001	-1.3694457E+000	0
7.0441990E+000	1.249987970487564E+002	-1.3713388E+000	-1.946763334306734E+002	2.6696721E-001	-1.3714457E+000	0
7.0144076E+000	1.251988970437014E+002	-1.3733375E+000	-1.957880894873053E+002	2.6888314E-001	-1.3734465E+000	0
6.9791403E+000	1.253989970386465E+002	-1.3753473E+000	-1.970654207270709E+002	2.7103338E-001	-1.3754476E+000	0
6.9210882E+000	1.255991970335890E+002	-1.3773385E+000	-1.990060642909484E+002	2.7409872E-001	-1.3774492E+000	0
6.7611542E+000	1.257994970285290E+002	-1.3793565E+000	-2.040119889952534E+002	2.8140527E-001	-1.3794525E+000	0
6.6338100E+000	1.259997970234690E+002	-1.3813512E+000	-2.082289345394697E+002	2.8763729E-001	-1.3814554E+000	0
6.6559057E+000	1.261999970184115E+002	-1.3833517E+000	-2.078382333288391E+002	2.8751338E-001	-1.3834575E+000	0
6.6269002E+000	1.263999970133591E+002	-1.3853495E+000	-2.090493932040649E+002	2.8960648E-001	-1.3854576E+000	0
6.6009083E+000	1.265999970083067E+002	-1.3873580E+000	-2.101768200262336E+002	2.9159048E-001	-1.3874577E+000	0
6.6069970E+000	1.267999970032542E+002	-1.3893725E+000	-2.102880370297939E+002	2.9216841E-001	-1.3894577E+000	0
6.5554810E+000	1.270002969981942E+002	-1.3913599E+000	-2.122437647281854E+002	2.9530746E-001	-1.3914601E+000	0
6.5037241E+000	1.272007969931292E+002	-1.3933918E+000	-2.142452247856417E+002	2.9852754E-001	-1.3934655E+000	0
6.3773670E+000	1.273510969893323E+002	-1.3948772E+000	-2.187230565214852E+002	3.0509180E-001	-1.3949673E+000	0
6.3439002E+000	1.275014969855329E+002	-1.3963974E+000	-2.201165439008421E+002	3.0737016E-001	-1.3964721E+000	0
6.3556690E+000	1.276818969809756E+002	-1.3981944E+000	-2.199917039676466E+002	3.0759117E-001	-1.3982759E+000	0
6.3545318E+000	1.278620969764233E+002	-1.4000087E+000	-2.203165819528999E+002	3.0844513E-001	-1.4000782E+000	0
6.3272896E+000	1.280424969718661E+002	-1.4018121E+000	-2.215501683399762E+002	3.1057170E-001	-1.4018818E+000	0
6.3083549E+000	1.282030969678090E+002	-1.4033905E+000	-2.224653811786675E+002	3.1220582E-001	-1.4034878E+000	0
6.2665744E+000	1.283338969645047E+002	-1.4047074E+000	-2.241587413894308E+002	3.1487745E-001	-1.4047953E+000	0
6.2616272E+000	1.284642969612105E+002	-1.4060028E+000	-2.245427093661812E+002	3.1570768E-001	-1.4060993E+000	0
6.2234282E+000	1.285848969581639E+002	-1.4072180E+000	-2.261161978603498E+002	3.1819478E-001	-1.4073054E+000	0
6.0725636E+000	1.287053969551198E+002	-1.4084116E+000	-2.319303206731829E+002	3.2665336E-001	-1.4085104E+000	0
6.0201440E+000	1.288459969515679E+002	-1.4098248E+000	-2.341845815423767E+002	3.3015925E-001	-1.4099166E+000	0
5.9706998E+000	1.290164969472607E+002	-1.4115654E+000	-2.364154165999744E+002	3.3371583E-001	-1.4116223E+000	0
5.9884930E+000	1.291867969429586E+002	-1.4132391E+000	-2.359924565113270E+002	3.3351377E-001	-1.4133253E+000	0
5.9989662E+000	1.293474969388990E+002	-1.4148676E+000	-2.358519077756951E+002	3.3369923E-001	-1.4149317E+000	0
5.8842325E+000	1.294881969353446E+002	-1.4162428E+000	-2.406843710291608E+002	3.4086752E-001	-1.4163378E+000	0
5.7021790E+000	1.296189969320403E+002	-1.4175333E+000	-2.485950202034803E+002	3.5239172E-001	-1.4176463E+000	0
5.6579614E+000	1.297694969282384E+002	-1.4190531E+000	-2.508064370812876E+002	3.5590765E-001	-1.4191518E+000	0
5.6394973E+000	1.299298969241863E+002	-1.4206748E+000	-2.519151465555084E+002	3.5788950E-001	-1.4207560E+000	0
5.6131973E+000	1.300503969211422E+002	-1.4218509E+000	-2.533050011594078E+002	3.6016196E-001	-1.4219602E+000	0
5.6000772E+000	1.301907969175954E+002	-1.4232892E+000	-2.541552870710409E+002	3.6173648E-001	-1.4233646E+000	0
5.6393347E+000	1.303214969142937E+002	-1.4245805E+000	-2.526149791827675E+002	3.5987037E-001	-1.4246709E+000	0
5.6445827E+000	1.303828969127426E+002	-1.4252138E+000	-2.524923211634157E+002	3.5985553E-001	-1.4252849E+000	0
5.6161375E+000	1.304441969111940E+002	-1.4258202E+000	-2.538791605748975E+002	3.6198604E-001	-1.4258983E+000	0
5.5699458E+000	1.305747969078948E+002	-1.4271311E+000	-2.562199110573872E+002	3.6565939E-001	-1.4272039E+000	0
5.6106081E+000	1.306755969053484E+002	-1.4281524E+000	-2.545450376828849E+002	3.6352912E-001	-1.4282119E+000	0
5.6043668E+000	1.307961969023017E+002	-1.4293413E+000	-2.550406497686933E+002	3.6454013E-001	-1.4294178E+000	0
5.5386353E+000	1.309068968995052E+002	-1.4304299E+000	-2.582639727785663E+002	3.6942852E-001	-1.4305258E+000	0
5.5068688E+000	1.310673968954507E+002	-1.4320616E+000	-2.600500459667694E+002	3.7240767E-001	-1.4321308E+000	0
5.4317641E+000	1.312381968911359E+002	-1.4337366E+000	-2.639541341953043E+002	3.7844071E-001	-1.4338384E+000	0
5.3898168E+000	1.313788968875815E+002	-1.4351934E+000	-2.662787117172174E+002	3.8216147E-001	-1.4352458E+000	0
5.3872366E+000	1.315090968842924E+002	-1.4364733E+000	-2.666437971733613E+002	3.8302669E-001	-1.4365480E+000	0
5.4096508E+000	1.316494968807456E+002	-1.4378821E+000	-2.657994315882393E+002	3.8218823E-001	-1.4379513E+000	0
5.4246526E+000	1.317999968769436E+002	-1.4393855E+000	-2.653415159128731E+002	3.8192874E-001	-1.4394562E+000	0
5.4189339E+000	1.319406968733892E+002	-1.4407688E+000	-2.658768036099225E+002	3.8306701E-001	-1.4408635E+000	0
5.4011345E+000	1.320611968703452E+002	-1.4419941E+000	-2.669798547096441E+002	3.8498336E-001	-1.4420683E+000	0
5.3945589E+000	1.321718968675486E+002	-1.4430871E+000	-2.675079025751505E+002	3.8603720E-001	-1.4431748E+000	0
5.3007913E+000	1.323024968642494E+002	-1.4443902E+000	-2.724857577333787E+002	3.9357576E-001	-1.4444820E+000	0
5.2874084E+000	1.324626968602024E+002	-1.4460113E+000	-2.734820443413428E+002	3.9545813E-001	-1.4460840E+000	0
5.2822614E+000	1.325932968569032E+002	-1.4473165E+000	-2.739956403190149E+002	3.9655840E-001	-1.4473891E+000	0
5.2510505E+000	1.327236968536090E+002	-1.4486256E+000	-2.758734670042377E+002	3.9963737E-001	-1.4486935E+000	0
5.2220087E+000	1.328444968505573E+002	-1.4498125E+000	-2.776350374902515E+002	4.0251875E-001	-1.4499007E+000	0
5.1913285E+000	1.329553968477558E+002	-1.4509339E+000	-2.794918269635382E+002	4.0552416E-001	-1.4510106E+000	0
5.1448746E+000	1.330761968447041E+002	-1.4521405E+000	-2.822499106915338E+002	4.0986651E-001	-1.4522182E+000	0
5.0283551E+000	1.332267968408996E+002	-1.4536543E+000	-2.890914016148715E+002	4.2023894E-001	-1.4537247E+000	0
4.9523892E+000	1.333578968375878E+002	-1.4549642E+000	-2.937903383403973E+002	4.2745441E-001	-1.4550351E+000	0
5.0069876E+000	1.334883968342911E+002	-1.4562850E+000	-2.908505217309657E+002	4.2356125E-001	-1.4563406E+000	0
5.0056043E+000	1.336187968309969E+002	-1.4575861E+000	-2.911908269236574E+002	4.2443568E-001	-1.4576443E+000	0
4.9593229E+000	1.337294968282004E+002	-1.4586707E+000	-2.941269779788572E+002	4.2903441E-001	-1.4587516E+000	0
4.8833618E+000	1.338503968251462E+002	-1.4598838E+000	-2.989505659774186E+002	4.3643308E-001	-1.4599599E+000	0
4.8371396E+000	1.339711968220945E+002	-1.4610786E+000	-3.020542692814242E+002	4.4132504E-001	-1.4611688E+000	0
4.7531171E+000	1.341116968185452E+002	-1.4624940E+000	-3.076915469036749E+002	4.4999704E-001	-1.4625734E+000	0
4.7495866E+000	1.342523968149908E+002	-1.4639239E+000	-3.082213348941759E+002	4.5121258E-001	-1.4639806E+000	0
4.7770619E+000	1.343532968124418E+002	-1.4649183E+000	-3.066567405134795E+002	4.4922706E-001	-1.4649899E+000	0
4.7470522E+000	1.344542968098904E+002	-1.4659255E+000	-3.088075248851640E+002	4.5268881E-001	-1.4659992E+000	0
4.7655387E+000	1.345548968073490E+002	-1.4669383E+000	-3.078221343437226E+002	4.5155606E-001	-1.4670054E+000	0
4.6666231E+000	1.346955968037946E+002	-1.4683430E+000	-3.146478842512611E+002	4.6201104E-001	-1.4684125E+000	0
4.6581187E+000	1.348562967997350E+002	-1.4699543E+000	-3.155682392964366E+002	4.6387088E-001	-1.4700197E+000	0
4.6610556E+000	1.350267967954278E+002	-1.4716581E+000	-3.157349575398275E+002	4.6465391E-001	-1.4717246E+000	0
4.6540866E+000	1.352170967906204E+002	-1.4735688E+000	-3.166182503756932E+002	4.6655878E-001	-1.4736285E+000	0
4.6915359E+000	1.353972967860682E+002	-1.4753686E+000	-3.144745471578339E+002	4.6396589E-001	-1.4754304E+000	0
4.6843596E+000	1.355377967825189E+002	-1.4767534E+000	-3.152519258084869E+002	4.6554935E-001	-1.4768345E+000	0
4.7056613E+000	1.356982967784643E+002	-1.4783758E+000	-3.141696215799661E+002	4.6446076E-001	-1.4784398E+000	0
4.7280025E+000	1.358289967751625E+002	-1.4796720E+000	-3.129591998619577E+002	4.6307695E-001	-1.4797467E+000	0
4.5907440E+000	1.359793967713631E+002	-1.4812009E+000	-3.226494442758463E+002	4.7790867E-001	-1.4812506E+000	0
4.5113015E+000	1.361302967675510E+002	-1.4827071E+000	-3.286650437133139E+002	4.8731402E-001	-1.4827600E+000	0
4.5161614E+000	1.363009967632388E+002	-1.4844207E+000	-3.286907918434586E+002	4.8791540E-001	-1.4844671E+000	0
4.4830399E+000	1.364511967594444E+002	-1.4859052E+000	-3.314503575914841E+002	4.9250379E-001	-1.4859686E+000	0
4.3993092E+000	1.365718967563953E+002	-1.4871142E+000	-3.380335685843827E+002	5.0269449E-001	-1.4871751E+000	0
4.3880205E+000	1.366827967535937E+002	-1.4882548E+000	-3.391631511953242E+002	5.0476116E-001	-1.4882838E+000	0
4.3699327E+000	1.367933967507997E+002	-1.4893422E+000	-3.408158199165350E+002	5.0759137E-001	-1.4893900E+000	0
4.3996043E+000	1.369140967477506E+002	-1.4905778E+000	-3.387981490339816E+002	5.0500500E-001	-1.4905975E+000	0
4.3499575E+000	1.370647967439436E+002	-1.4920653E+000	-3.430068796047935E+002	5.1178867E-001	-1.4921048E+000	0
4.3078103E+000	1.372155967401341E+002	-1.4935837E+000	-3.467152680145070E+002	5.1784825E-001	-1.4936119E+000	0
4.3291755E+000	1.373363967370824E+002	-1.4948012E+000	-3.452854259345659E+002	5.1613307E-001	-1.4948206E+000	0
4.3660383E+000	1.374470967342859E+002	-1.4959091E+000	-3.426239163215168E+002	5.1253426E-001	-1.4959277E+000	0
4.3306012E+000	1.375675967312418E+002	-1.4970906E+000	-3.457003824864819E+002	5.1754481E-001	-1.4971323E+000	0
4.3312197E+000	1.377082967276874E+002	-1.4984908E+000	-3.459743450690266E+002	5.1843935E-001	-1.4985387E+000	0
4.2654233E+000	1.378291967246332E+002	-1.4997044E+000	-3.515956632042653E+002	5.2728957E-001	-1.4997486E+000	0
4.2463164E+000	1.379700967210738E+002	-1.5011289E+000	-3.535132135833422E+002	5.3066891E-001	-1.5011572E+000	0
4.1962929E+000	1.381009967177670E+002	-1.5024189E+000	-3.580348009056061E+002	5.3791827E-001	-1.5024667E+000	0
4.2046933E+000	1.382416967142126E+002	-1.5038481E+000	-3.576593971537368E+002	5.3786540E-001	-1.5038743E+000	0
4.1970811E+000	1.383823967106582E+002	-1.5052391E+000	-3.586395161495493E+002	5.3983825E-001	-1.5052805E+000	0
4.2067366E+000	1.385328967068563E+002	-1.5067627E+000	-3.581785537613296E+002	5.3969008E-001	-1.5067858E+000	0
4.2219334E+000	1.386733967033069E+002	-1.5081455E+000	-3.572167882664617E+002	5.3873485E-001	-1.5081899E+000	0
4.1679525E+000	1.387843967005028E+002	-1.5092369E+000	-3.621051096983124E+002	5.4650241E-001	-1.5093002E+000	0
4.1262517E+000	1.388950966977063E+002	-1.5103765E+000	-3.660407867265258E+002	5.5285937E-001	-1.5104076E+000	0
4.1182399E+000	1.389957966951624E+002	-1.5113703E+000	-3.669942563816485E+002	5.5466419E-001	-1.5114139E+000	0
4.1158566E+000	1.391263966918632E+002	-1.5126916E+000	-3.675277717966115E+002	5.5595618E-001	-1.5127202E+000	0
4.0469708E+000	1.392567966885690E+002	-1.5139753E+000	-3.741008757535765E+002	5.6637949E-001	-1.5140243E+000	0
3.9819355E+000	1.393775966855173E+002	-1.5152032E+000	-3.805192803512318E+002	5.7656407E-001	-1.5152321E+000	0
3.9533160E+000	1.394785966829659E+002	-1.5162065E+000	-3.835277806126987E+002	5.8150733E-001	-1.5162419E+000	0
3.9557714E+000	1.395597966809146E+002	-1.5170312E+000	-3.834981819076966E+002	5.8177871E-001	-1.5170540E+000	0
3.9722924E+000	1.396704966781181E+002	-1.5181688E+000	-3.821895981348130E+002	5.8022833E-001	-1.5181615E+000	0
4.0246701E+000	1.398111966745637E+002	-1.5195386E+000	-3.775560907707637E+002	5.7371110E-001	-1.5195686E+000	0
4.0240779E+000	1.399419966712594E+002	-1.5208324E+000	-3.779331359255261E+002	5.7477295E-001	-1.5208766E+000	0
3.9298654E+000	1.400725966679602E+002	-1.5221295E+000	-3.873235818787648E+002	5.8955663E-001	-1.5221829E+000	0
3.8699090E+000	1.401734966654112E+002	-1.5231322E+000	-3.935834566527810E+002	5.9947962E-001	-1.5231916E+000	0
3.8776865E+000	1.402643966631149E+002	-1.5241169E+000	-3.930479859537145E+002	5.9905106E-001	-1.5241002E+000	0
3.9155338E+000	1.403851966600632E+002	-1.5252961E+000	-3.895499848753800E+002	5.9417909E-001	-1.5253085E+000	0
3.8539414E+000	1.405057966570166E+002	-1.5264642E+000	-3.960787372493617E+002	6.0460001E-001	-1.5265145E+000	0
3.8293297E+000	1.406163966542226E+002	-1.5276078E+000	-3.989230364080711E+002	6.0939795E-001	-1.5276200E+000	0
3.8460193E+000	1.407270966514261E+002	-1.5287237E+000	-3.974820830161716E+002	6.0764027E-001	-1.5287271E+000	0
3.8747241E+000	1.408378966486271E+002	-1.5298539E+000	-3.948291209039999E+002	6.0403091E-001	-1.5298351E+000	0
3.8851035E+000	1.409782966450803E+002	-1.5312064E+000	-3.941224108357037E+002	6.0348272E-001	-1.5312397E+000	0
3.8749259E+000	1.411188966415284E+002	-1.5326333E+000	-3.955258429702180E+002	6.0619611E-001	-1.5326452E+000	0
3.8918288E+000	1.412395966384793E+002	-1.5338297E+000	-3.941154098543334E+002	6.0450590E-001	-1.5338522E+000	0
3.8570557E+000	1.413901966346748E+002	-1.5353366E+000	-3.980592296976456E+002	6.1115491E-001	-1.5353587E+000	0
3.8302965E+000	1.415509966306126E+002	-1.5369716E+000	-4.012669999641658E+002	6.1673599E-001	-1.5369663E+000	0
3.8134751E+000	1.416717966275610E+002	-1.5381713E+000	-4.033515923809403E+002	6.2042385E-001	-1.5381744E+000	0
3.7316418E+000	1.418221966237616E+002	-1.5396510E+000	-4.125934706930429E+002	6.3524997E-001	-1.5396792E+000	0
3.7403593E+000	1.419822966197171E+002	-1.5412551E+000	-4.120607026892999E+002	6.3509065E-001	-1.5412804E+000	0
3.6517279E+000	1.421224966161753E+002	-1.5426424E+000	-4.224417603546344E+002	6.5167654E-001	-1.5426819E+000	0
3.6062121E+000	1.422627966126311E+002	-1.5440717E+000	-4.281699457685254E+002	6.6112506E-001	-1.5440849E+000	0
3.6438518E+000	1.424030966090868E+002	-1.5454890E+000	-4.241360739812212E+002	6.5549761E-001	-1.5454874E+000	0
3.6600919E+000	1.425631966050423E+002	-1.5470850E+000	-4.226902078940166E+002	6.5393770E-001	-1.5470892E+000	0
3.6606567E+000	1.427332966007452E+002	-1.5487902E+000	-4.230908182307594E+002	6.5527892E-001	-1.5487903E+000	0
3.6874375E+000	1.429031965964532E+002	-1.5504644E+000	-4.204720310557077E+002	6.5192693E-001	-1.5504892E+000	0
3.6379299E+000	1.430831965919060E+002	-1.5522673E+000	-4.266897122350874E+002	6.6233647E-001	-1.5522892E+000	0
3.5432739E+000	1.432433965878590E+002	-1.5538882E+000	-4.385458737001413E+002	6.8145126E-001	-1.5538908E+000	0
3.5372944E+000	1.433937965840596E+002	-1.5554277E+000	-4.397224316121137E+002	6.8395644E-001	-1.5553946E+000	0
3.5415282E+000	1.435341965805128E+002	-1.5568191E+000	-4.395896254720833E+002	6.8436152E-001	-1.5567988E+000	0
3.4297504E+000	1.436845965767134E+002	-1.5583292E+000	-4.543564372782648E+002	7.0803690E-001	-1.5583028E+000	0
3.4465766E+000	1.438448965726639E+002	-1.5599293E+000	-4.526025286398854E+002	7.0602793E-001	-1.5599060E+000	0
3.4697471E+000	1.440151965683617E+002	-1.5616347E+000	-4.500716207308087E+002	7.0284742E-001	-1.5616088E+000	0
3.4384792E+000	1.441753965643147E+002	-1.5632380E+000	-4.546306551283205E+002	7.1069592E-001	-1.5632111E+000	0
3.4342706E+000	1.443253965605254E+002	-1.5647354E+000	-4.556238025530001E+002	7.1293068E-001	-1.5647111E+000	0
3.4248085E+000	1.444655965569837E+002	-1.5661179E+000	-4.572862514775070E+002	7.1616417E-001	-1.5661128E+000	0
3.3495564E+000	1.445861965539370E+002	-1.5673325E+000	-4.679224144224845E+002	7.3339003E-001	-1.5673190E+000	0
3.3578389E+000	1.447165965506429E+002	-1.5686541E+000	-4.671617911471221E+002	7.3281527E-001	-1.5686231E+000	0
3.3892236E+000	1.448568965470986E+002	-1.5700611E+000	-4.632509542236439E+002	7.2733229E-001	-1.5700259E+000	0
3.4187176E+000	1.450171965430491E+002	-1.5716516E+000	-4.597196312183030E+002	7.2251910E-001	-1.5716292E+000	0
3.3704538E+000	1.451773965390021E+002	-1.5732419E+000	-4.667745009764881E+002	7.3434925E-001	-1.5732310E+000	0
3.3594770E+000	1.453178965354527E+002	-1.5746527E+000	-4.687195766012751E+002	7.3807055E-001	-1.5746356E+000	0
3.3312559E+000	1.454682965316533E+002	-1.5761546E+000	-4.731412368947123E+002	7.4574375E-001	-1.5761399E+000	0
3.3096974E+000	1.456483965271036E+002	-1.5779749E+000	-4.767731766948527E+002	7.5233608E-001	-1.5779414E+000	0
3.2858815E+000	1.458184965228065E+002	-1.5796660E+000	-4.807434646729525E+002	7.5941414E-001	-1.5796421E+000	0
3.2629027E+000	1.459685965190147E+002	-1.5811592E+000	-4.845867042521375E+002	7.6620877E-001	-1.5811429E+000	0
3.2990263E+000	1.460987965157256E+002	-1.5824870E+000	-4.796830616282186E+002	7.5909221E-001	-1.5824443E+000	0
3.2501917E+000	1.462290965124339E+002	-1.5837584E+000	-4.872815187108154E+002	7.7173620E-001	-1.5837483E+000	0
3.2646382E+000	1.463590965091498E+002	-1.5850774E+000	-4.855292829919872E+002	7.6960152E-001	-1.5850477E+000	0
3.2825825E+000	1.464794965061083E+002	-1.5862887E+000	-4.832441321258329E+002	7.6656473E-001	-1.5862508E+000	0
3.2375324E+000	1.466099965028116E+002	-1.5875897E+000	-4.903703156290503E+002	7.7850688E-001	-1.5875571E+000	0
3.1674531E+000	1.467701964987646E+002	-1.5891839E+000	-5.017229704741758E+002	7.9733008E-001	-1.5891594E+000	0
3.1702812E+000	1.469402964944675E+002	-1.5908943E+000	-5.018149083961755E+002	7.9833448E-001	-1.5908604E+000	0
3.1904299E+000	1.470806964909207E+002	-1.5923004E+000	-4.990864712285020E+002	7.9469562E-001	-1.5922642E+000	0
3.2105212E+000	1.472112964876214E+002	-1.5935762E+000	-4.963605895740097E+002	7.9098845E-001	-1.5935698E+000	0
3.1695173E+000	1.473320964845698E+002	-1.5947978E+000	-5.031674261294693E+002	8.0245036E-001	-1.5947778E+000	0
3.1360171E+000	1.474724964810230E+002	-1.5961677E+000	-5.089792615179722E+002	8.1241626E-001	-1.5961818E+000	0
3.1235266E+000	1.476227964772261E+002	-1.5977292E+000	-5.115145314903566E+002	8.1726170E-001	-1.5976850E+000	0
3.1271920E+000	1.477731964734267E+002	-1.5992186E+000	-5.113912225872018E+002	8.1782633E-001	-1.5991886E+000	0
3.0825734E+000	1.479233964696323E+002	-1.6007149E+000	-5.192787571113186E+002	8.3121723E-001	-1.6006908E+000	0
3.0583274E+000	1.480936964653301E+002	-1.6025485E+000	-5.239950622782540E+002	8.3972746E-001	-1.6023942E+000	0
3.0477977E+000	1.482440964615307E+002	-1.6045669E+000	-5.264676672854130E+002	8.4475261E-001	-1.6038980E+000	0
3.0203512E+000	1.483743964582391E+002	-1.6058444E+000	-5.316747073238148E+002	8.5378683E-001	-1.6052004E+000	0
3.0164411E+000	1.485346964541895E+002	-1.6074474E+000	-5.328953440977311E+002	8.5660124E-001	-1.6068043E+000	0
3.0492566E+000	1.487049964498874E+002	-1.6091566E+000	-5.277209481188456E+002	8.4918565E-001	-1.6085068E+000	0
3.0501997E+000	1.488553964460880E+002	-1.6106533E+000	-5.280484681716980E+002	8.5050303E-001	-1.6100111E+000	0
3.0529833E+000	1.490255964417884E+002	-1.6123469E+000	-5.281217595617254E+002	8.5151547E-001	-1.6117135E+000	0
3.0045564E+000	1.491561964384891E+002	-1.6136338E+000	-5.370622429318591E+002	8.6662173E-001	-1.6130179E+000	0
2.9722509E+000	1.492668964356926E+002	-1.6147890E+000	-5.432882557105904E+002	8.7729591E-001	-1.6141262E+000	0
2.9893689E+000	1.494070964321509E+002	-1.6162032E+000	-5.406502809907852E+002	8.7380069E-001	-1.6155279E+000	0
2.9267092E+000	1.495277964291017E+002	-1.6173929E+000	-5.526319158899787E+002	8.9382291E-001	-1.6167351E+000	0
2.8717480E+000	1.496485964260501E+002	-1.6186188E+000	-5.636354253279051E+002	9.1231090E-001	-1.6179430E+000	0
2.9072750E+000	1.497890964225007E+002	-1.6200315E+000	-5.572336842862824E+002	9.0273613E-001	-1.6193480E+000	0
2.8987250E+000	1.499195964192040E+002	-1.6213250E+000	-5.593234745882510E+002	9.0684515E-001	-1.6206534E+000	0
2.9147060E+000	1.500003964171628E+002	-1.6221737E+000	-5.565479356127144E+002	9.0281743E-001	-1.6214601E+000	0
2.9029622E+000	1.501106964143764E+002	-1.6232141E+000	-5.591578346619206E+002	9.0763289E-001	-1.6225640E+000	0
2.9174039E+000	1.502408964110873E+002	-1.6245420E+000	-5.568450735729311E+002	9.0461820E-001	-1.6238655E+000	0
2.8867998E+000	1.504011964070378E+002	-1.6261448E+000	-5.633035960260363E+002	9.1601318E-001	-1.6254693E+000	0
2.9032862E+000	1.505011964045116E+002	-1.6271615E+000	-5.604550631776156E+002	9.1195089E-001	-1.6264691E+000	0
2.9060018E+000	1.505161964041326E+002	-1.6273518E+000	-5.599968388875332E+002	9.1131186E-001	-1.6266692E+000	1