EC-Lab ASCII FILE
Nb header lines : 61                          

Linear Sweep Voltammetry

Run on channel : 1 (SN 1340)
User : 
Electrode connection : standard
Potential control : Ewe
Ewe ctrl range : min = -5.00 V, max = 5.00 V
Ewe,I filtering : 50 kHz
Channel : Grounded
Acquisition started on : 02/25/2026 11:56:47.402
Technique started on : 02/25/2026 11:56:50.084
Loaded Setting File :  NONE
Saved on :
	File : Pt_sqmagnet_2_25_02_LSV_C01.mpr
	Directory : C:\Users\volt\Documents\Platalytix\
	Host : 127.0.0.1
Device : SP-200 (SN 0262)
Address : USB
EC-LAB for windows v11.60 (software)
Internet server v11.60 (firmware)
Command interpretor v11.60 (firmware)
Electrode material : Pt
Initial state : 
Electrolyte : KOH (1M)
Comments : with magnet
Cable : standard
Reference electrode : Hg/HgO (0.140 V)
Electrode surface area : 1.000 cm˛
Characteristic mass : 0.001 g
Equivalent Weight : 0.000 g/eq.
Density : 0.000 g/cm3
Volume (V) : 0.001 cmł
Cycle Definition : Charge/Discharge alternance
tR (h:m:s)          0:00:5.0000         
dER/dt (mV/h)       0.0                 
dER (mV)            0                   
dtR (s)             0.0000              
dE/dt               10.000              
dE/dt unit          mV/s                
Ei (V)              -0.200              
vs.                 Ref                 
EL (V)              -2.500              
vs.                 Ref                 
record              <I>                 
dI                  0.000               
unit dI             µA                  
tI (s)              0.0000              
step percent        50                  
N                   10                  
E range min (V)     -5.000              
E range max (V)     5.000               
I Range             Auto                
I Range min         Unset               
I Range max         Unset               
I Range init        Unset               
Bandwidth           8                   

Rwe/Ohm	time/s	Ewe/V	<I>/mA	Pwe/W	control/V	error	
0.0000000E+000	2.682400127378060E+000	-1.5679114E-001	0.000000000000000E+000	0.0000000E+000	0.0000000E+000	0
0.0000000E+000	7.682200001072488E+000	-4.5266043E-002	0.000000000000000E+000	0.0000000E+000	-1.9982889E-001	0
4.0361362E+003	7.822199997535790E+000	-2.0100482E-001	4.980129730963223E-002	-1.0010301E-005	-2.0112868E-001	0
1.7115648E+003	7.942199994504335E+000	-2.0214427E-001	-1.181049387504947E-001	2.3874236E-005	-2.0232874E-001	0
1.6052462E+003	8.152199989199289E+000	-2.0424864E-001	-1.272381999405295E-001	2.5988229E-005	-2.0442867E-001	0
1.7233710E+003	8.352199984146864E+000	-2.0626009E-001	-1.196840865518519E-001	2.4686049E-005	-2.0642862E-001	0
1.8390405E+003	8.552199979094439E+000	-2.0826602E-001	-1.132471071843422E-001	2.3585524E-005	-2.0842856E-001	0
1.9454161E+003	8.752199974042014E+000	-2.1027490E-001	-1.080873653845957E-001	2.2728060E-005	-2.1042848E-001	0
2.0439344E+003	8.952199968989589E+000	-2.1226071E-001	-1.038490759975398E-001	2.2043079E-005	-2.1242841E-001	0
2.1376021E+003	9.152199963937164E+000	-2.1426003E-001	-1.002338201931074E-001	2.1476100E-005	-2.1442835E-001	0
2.2250190E+003	9.352199958884739E+000	-2.1626662E-001	-9.719764707396727E-002	2.1020607E-005	-2.1642831E-001	0
2.3113630E+003	9.552199953832314E+000	-2.1827018E-001	-9.443353180342751E-002	2.0612024E-005	-2.1842824E-001	0
2.3935146E+003	9.752199948779889E+000	-2.2026806E-001	-9.202703517965194E-002	2.0270616E-005	-2.2042818E-001	0
2.4750435E+003	9.952199943727464E+000	-2.2225808E-001	-8.979967041648584E-002	1.9958701E-005	-2.2242810E-001	0
2.5524529E+003	1.015219993867504E+001	-2.2426167E-001	-8.786124242057847E-002	1.9703910E-005	-2.2442804E-001	0
2.6303560E+003	1.035219993362261E+001	-2.2625807E-001	-8.601804294933890E-002	1.9462277E-005	-2.2642796E-001	0
2.7038059E+003	1.055219992857019E+001	-2.2827077E-001	-8.442572664148484E-002	1.9271925E-005	-2.2842790E-001	0
2.7796133E+003	1.075219992351776E+001	-2.3024976E-001	-8.283517536730467E-002	1.9072779E-005	-2.3042783E-001	0
2.8543333E+003	1.095219991846534E+001	-2.3228179E-001	-8.137864818217899E-002	1.8902778E-005	-2.3242778E-001	0
2.9273977E+003	1.115219991341291E+001	-2.3426245E-001	-8.002413076912462E-002	1.8746648E-005	-2.3442769E-001	0
3.0032710E+003	1.135219990836049E+001	-2.3625691E-001	-7.866653225325548E-002	1.8585511E-005	-2.3642766E-001	0
3.0756711E+003	1.155219990330806E+001	-2.3824440E-001	-7.746094527027159E-002	1.8454637E-005	-2.3842758E-001	0
3.1489382E+003	1.175219989825564E+001	-2.4026474E-001	-7.630024282071679E-002	1.8332259E-005	-2.4042751E-001	0
3.2215256E+003	1.195219989320321E+001	-2.4225691E-001	-7.519943431197185E-002	1.8217583E-005	-2.4242744E-001	0
3.2948149E+003	1.215219988815079E+001	-2.4425775E-001	-7.413397885673156E-002	1.8107799E-005	-2.4442738E-001	0
3.3664177E+003	1.235219988309836E+001	-2.4626981E-001	-7.315485695347412E-002	1.8015833E-005	-2.4642733E-001	0
3.4375303E+003	1.255219987804594E+001	-2.4824941E-001	-7.221737285957652E-002	1.7927920E-005	-2.4842726E-001	0
3.5109531E+003	1.275219987299351E+001	-2.5025153E-001	-7.127737857785699E-002	1.7837274E-005	-2.5042722E-001	0
3.5813767E+003	1.295219986794109E+001	-2.5225687E-001	-7.043572446350399E-002	1.7767896E-005	-2.5242716E-001	0
3.6560051E+003	1.315219986288866E+001	-2.5426555E-001	-6.954736962371705E-002	1.7683500E-005	-2.5442708E-001	0
3.7311196E+003	1.335219985783624E+001	-2.5627038E-001	-6.868457973379283E-002	1.7601824E-005	-2.5642699E-001	0
3.8103542E+003	1.355209985278634E+001	-2.5824177E-001	-6.777369194670696E-002	1.7501998E-005	-2.5842693E-001	0
3.8864575E+003	1.375199984773644E+001	-2.6024893E-001	-6.696301896089185E-002	1.7427054E-005	-2.6042688E-001	0
3.9626785E+003	1.395199984268402E+001	-2.6224154E-001	-6.617785090118022E-002	1.7354581E-005	-2.6242682E-001	0
4.0362314E+003	1.415199983763159E+001	-2.6422495E-001	-6.546328089605424E-002	1.7297032E-005	-2.6442677E-001	0
4.1113320E+003	1.435199983257917E+001	-2.6623705E-001	-6.475688747020536E-002	1.7240684E-005	-2.6642668E-001	0
4.1838862E+003	1.455199982752674E+001	-2.6825228E-001	-6.411557788263733E-002	1.7199151E-005	-2.6842663E-001	0
4.2526909E+003	1.475199982247432E+001	-2.7024612E-001	-6.354708952275928E-002	1.7173354E-005	-2.7042654E-001	0
4.3273853E+003	1.495199981742189E+001	-2.7224633E-001	-6.291243377196559E-002	1.7127679E-005	-2.7242649E-001	0
4.3984536E+003	1.515199981236947E+001	-2.7423528E-001	-6.234811338524249E-002	1.7098053E-005	-2.7442643E-001	0
4.4661714E+003	1.535199980731704E+001	-2.7623352E-001	-6.185018606568385E-002	1.7085094E-005	-2.7642637E-001	0
4.5357798E+003	1.555199980226462E+001	-2.7825159E-001	-6.134591839284709E-002	1.7069598E-005	-2.7842629E-001	0
4.6048052E+003	1.575199979721219E+001	-2.8024966E-001	-6.086026437004055E-002	1.7056069E-005	-2.8042623E-001	0
4.6737778E+003	1.595199979215977E+001	-2.8224921E-001	-6.038995121780971E-002	1.7045017E-005	-2.8242618E-001	0
4.7404233E+003	1.615199978710734E+001	-2.8425092E-001	-5.996319035579223E-002	1.7044591E-005	-2.8442609E-001	0
4.8076387E+003	1.635199978205492E+001	-2.8625068E-001	-5.954080847959942E-002	1.7043598E-005	-2.8642601E-001	0
4.8721069E+003	1.655199977700249E+001	-2.8825682E-001	-5.916471422022697E-002	1.7054632E-005	-2.8842598E-001	0
4.9383472E+003	1.675199977195007E+001	-2.9024792E-001	-5.877430114658555E-002	1.7059119E-005	-2.9042593E-001	0
5.0043608E+003	1.695199976689764E+001	-2.9223770E-001	-5.839661072016755E-002	1.7065691E-005	-2.9242584E-001	0
5.0715796E+003	1.715199976184522E+001	-2.9424724E-001	-5.801885262186601E-002	1.7071887E-005	-2.9442579E-001	0
5.1301152E+003	1.735199975679279E+001	-2.9623833E-001	-5.774496708386279E-002	1.7106273E-005	-2.9642567E-001	0
5.1902153E+003	1.755199975174037E+001	-2.9823893E-001	-5.746176550925097E-002	1.7137336E-005	-2.9842564E-001	0
5.2539443E+003	1.775199974668794E+001	-3.0024129E-001	-5.714588567494172E-002	1.7157554E-005	-3.0042556E-001	0
5.3123608E+003	1.795199974163552E+001	-3.0224401E-001	-5.689448127132378E-002	1.7196016E-005	-3.0242550E-001	0
5.3707134E+003	1.815199973658309E+001	-3.0423337E-001	-5.664673402362710E-002	1.7233828E-005	-3.0442545E-001	0
5.4368721E+003	1.835199973153067E+001	-3.0623612E-001	-5.632579016663969E-002	1.7248991E-005	-3.0642539E-001	0
5.4888760E+003	1.855199972647824E+001	-3.0823421E-001	-5.615616210075333E-002	1.7309250E-005	-3.0842531E-001	0
5.5484141E+003	1.875199972142582E+001	-3.1025159E-001	-5.591716852024320E-002	1.7348391E-005	-3.1042525E-001	0
5.6039863E+003	1.895199971637339E+001	-3.1223693E-001	-5.571693568089207E-002	1.7396886E-005	-3.1242517E-001	0
5.6604575E+003	1.915199971132097E+001	-3.1424075E-001	-5.551508126110932E-002	1.7445102E-005	-3.1442511E-001	0
5.7193555E+003	1.935199970626854E+001	-3.1623670E-001	-5.529236951219929E-002	1.7485476E-005	-3.1642506E-001	0
5.7778745E+003	1.955199970121612E+001	-3.1822988E-001	-5.507732788575992E-002	1.7527253E-005	-3.1842500E-001	0
5.8303232E+003	1.975189969616622E+001	-3.2021296E-001	-5.492198928795899E-002	1.7586734E-005	-3.2042584E-001	0
5.8862964E+003	1.995179969111632E+001	-3.2224259E-001	-5.474454121792982E-002	1.7641023E-005	-3.2242486E-001	0
5.9386885E+003	2.015179968606390E+001	-3.2425529E-001	-5.460048991238564E-002	1.7704497E-005	-3.2442477E-001	0
5.9948325E+003	2.035179968101147E+001	-3.2623366E-001	-5.441914590512748E-002	1.7753357E-005	-3.2642469E-001	0
6.0438262E+003	2.055179967595905E+001	-3.2824805E-001	-5.431130158402409E-002	1.7827579E-005	-3.2842466E-001	0
6.0930361E+003	2.075179967090662E+001	-3.3024490E-001	-5.420038618607748E-002	1.7899401E-005	-3.3042458E-001	0
6.1489883E+003	2.095179966585420E+001	-3.3223253E-001	-5.403044071764405E-002	1.7950670E-005	-3.3242452E-001	0
6.1960352E+003	2.115179966080177E+001	-3.3422852E-001	-5.394232234613458E-002	1.8029063E-005	-3.3442447E-001	0
6.2420464E+003	2.135179965574935E+001	-3.3622128E-001	-5.386395204354044E-002	1.8110206E-005	-3.3642441E-001	0
6.2960156E+003	2.155179965069692E+001	-3.3823490E-001	-5.372205709873815E-002	1.8170675E-005	-3.3842432E-001	0
6.3459419E+003	2.175179964564450E+001	-3.4024057E-001	-5.361545701033954E-002	1.8242154E-005	-3.4042427E-001	0
6.3980371E+003	2.195179964059207E+001	-3.4222806E-001	-5.348954040635284E-002	1.8305622E-005	-3.4242421E-001	0
6.4425659E+003	2.215179963553965E+001	-3.4424946E-001	-5.343359293544941E-002	1.8394485E-005	-3.4442413E-001	0
6.4930669E+003	2.235179963048722E+001	-3.4623840E-001	-5.332432366282480E-002	1.8462928E-005	-3.4642407E-001	0
6.5424468E+003	2.255179962543480E+001	-3.4824076E-001	-5.322790760631402E-002	1.8536128E-005	-3.4842405E-001	0
6.5850293E+003	2.275179962038237E+001	-3.5022545E-001	-5.318509923482151E-002	1.8626775E-005	-3.5042396E-001	0
6.6306206E+003	2.295179961532995E+001	-3.5224199E-001	-5.312353255894531E-002	1.8712339E-005	-3.5242388E-001	0
6.6759766E+003	2.315179961027752E+001	-3.5422671E-001	-5.305990745427525E-002	1.8795236E-005	-3.5442382E-001	0
6.7221890E+003	2.335179960522510E+001	-3.5625425E-001	-5.299676344687709E-002	1.8880322E-005	-3.5642374E-001	0
6.7675938E+003	2.355179960017267E+001	-3.5824236E-001	-5.293496870309067E-002	1.8963548E-005	-3.5842371E-001	0
6.8038550E+003	2.375179959512025E+001	-3.6023366E-001	-5.294552244100303E-002	1.9072759E-005	-3.6042359E-001	0
6.8488604E+003	2.395179959006782E+001	-3.6223090E-001	-5.288922282246222E-002	1.9158111E-005	-3.6242354E-001	0
6.8967852E+003	2.415179958501540E+001	-3.6421901E-001	-5.280997053099190E-002	1.9234396E-005	-3.6442348E-001	0
6.9371631E+003	2.435179957996297E+001	-3.6625335E-001	-5.279583904243873E-002	1.9336652E-005	-3.6642340E-001	0
6.9747129E+003	2.455179957491055E+001	-3.6825082E-001	-5.279799090706794E-002	1.9442903E-005	-3.6842337E-001	0
7.0197002E+003	2.475179956985812E+001	-3.7023020E-001	-5.274159633427788E-002	1.9526531E-005	-3.7042332E-001	0
7.0666338E+003	2.495179956480570E+001	-3.7223488E-001	-5.267499243870155E-002	1.9607469E-005	-3.7242323E-001	0
7.1046128E+003	2.515179955975327E+001	-3.7424248E-001	-5.267598644551530E-002	1.9713592E-005	-3.7442318E-001	0
7.1432256E+003	2.535179955470085E+001	-3.7623167E-001	-5.266971667951870E-002	1.9816016E-005	-3.7642312E-001	0
7.1803276E+003	2.555179954964842E+001	-3.7823737E-001	-5.267689555942545E-002	1.9924370E-005	-3.7842306E-001	0
7.2256519E+003	2.575169954459852E+001	-3.8023901E-001	-5.262348969590969E-002	2.0009504E-005	-3.8042274E-001	0
7.2592134E+003	2.595159953954862E+001	-3.8223886E-001	-5.265568768924467E-002	2.0127050E-005	-3.8242289E-001	0
7.2983491E+003	2.615159953449620E+001	-3.8423797E-001	-5.264724393126011E-002	2.0229070E-005	-3.8442284E-001	0
7.3346606E+003	2.635159952944377E+001	-3.8624728E-001	-5.266055359469202E-002	2.0339996E-005	-3.8642275E-001	0
7.3717549E+003	2.655159952439135E+001	-3.8822797E-001	-5.266425282062948E-002	2.0445736E-005	-3.8842273E-001	0
7.4120322E+003	2.675159951933892E+001	-3.9022964E-001	-5.264813137449770E-002	2.0544861E-005	-3.9042261E-001	0
7.4475938E+003	2.695159951428650E+001	-3.9224944E-001	-5.266794114523538E-002	2.0658970E-005	-3.9242256E-001	0
7.4909648E+003	2.715159950923407E+001	-3.9422324E-001	-5.262649707156153E-002	2.0746589E-005	-3.9442250E-001	0
7.5260327E+003	2.735159950418165E+001	-3.9622831E-001	-5.264770056600410E-002	2.0860509E-005	-3.9642245E-001	0
7.5568784E+003	2.755159949912922E+001	-3.9824513E-001	-5.269968762039268E-002	2.0987394E-005	-3.9842239E-001	0
7.5889741E+003	2.775159949407680E+001	-4.0023959E-001	-5.273961607375258E-002	2.1108483E-005	-4.0042233E-001	0
7.6253994E+003	2.795159948902437E+001	-4.0224236E-001	-5.275033358136044E-002	2.1218419E-005	-4.0242228E-001	0
7.6669761E+003	2.815159948397195E+001	-4.0424716E-001	-5.272576409548313E-002	2.1314241E-005	-4.0442219E-001	0
7.7000845E+003	2.835159947891952E+001	-4.0623826E-001	-5.275763724001381E-002	2.1432170E-005	-4.0642217E-001	0
7.7326899E+003	2.855159947386710E+001	-4.0825695E-001	-5.279623795682953E-002	2.1554431E-005	-4.0842202E-001	0
7.7554736E+003	2.875159946881467E+001	-4.1024503E-001	-5.289748104768566E-002	2.1700929E-005	-4.1042203E-001	0
7.7945303E+003	2.895159946376225E+001	-4.1227406E-001	-5.289274145840600E-002	2.1806305E-005	-4.1242191E-001	0
7.8277227E+003	2.915159945870982E+001	-4.1427639E-001	-5.292425655586691E-002	2.1925271E-005	-4.1442186E-001	0
7.8592261E+003	2.935159945365740E+001	-4.1628152E-001	-5.296724175827383E-002	2.2049284E-005	-4.1642180E-001	0
7.8922153E+003	2.955159944860497E+001	-4.1827068E-001	-5.299788109204240E-002	2.2167460E-005	-4.1842175E-001	0
7.9265742E+003	2.975159944355255E+001	-4.2027086E-001	-5.302048984137864E-002	2.2282968E-005	-4.2042169E-001	0
7.9627100E+003	2.995159943850013E+001	-4.2228189E-001	-5.303243361255072E-002	2.2394637E-005	-4.2242163E-001	0
7.9849160E+003	3.015159943344770E+001	-4.2427510E-001	-5.313457170598503E-002	2.2543676E-005	-4.2442152E-001	0
8.0216152E+003	3.035159942839528E+001	-4.2629927E-001	-5.314381935321166E-002	2.2655171E-005	-4.2642146E-001	0
8.0482734E+003	3.055159942334285E+001	-4.2829603E-001	-5.321588935995725E-002	2.2792154E-005	-4.2842141E-001	0
8.0784282E+003	3.075159941829043E+001	-4.3028608E-001	-5.326358894891425E-002	2.2918581E-005	-4.3042135E-001	0
8.1085381E+003	3.095159941323800E+001	-4.3228269E-001	-5.331203775678878E-002	2.3045872E-005	-4.3242130E-001	0
8.1470225E+003	3.115159940818558E+001	-4.3428564E-001	-5.330605659414256E-002	2.3150054E-005	-4.3442121E-001	0
8.1641563E+003	3.135159940313315E+001	-4.3628561E-001	-5.343915559319765E-002	2.3314735E-005	-4.3642119E-001	0
8.1970215E+003	3.155159939808073E+001	-4.3829918E-001	-5.347053937998292E-002	2.3436094E-005	-4.3842104E-001	0
8.2314629E+003	3.175159939302830E+001	-4.4029304E-001	-5.348904067206954E-002	2.3550852E-005	-4.4042104E-001	0
8.2495117E+003	3.195149938797840E+001	-4.4226837E-001	-5.361145954031898E-002	2.3710652E-005	-4.4242075E-001	0
8.2908203E+003	3.215139938292850E+001	-4.4426987E-001	-5.358575459922388E-002	2.3806537E-005	-4.4442087E-001	0
8.3105215E+003	3.235139937787608E+001	-4.4628620E-001	-5.370135019298905E-002	2.3966171E-005	-4.4642082E-001	0
8.3356074E+003	3.255139937282365E+001	-4.4829211E-001	-5.378037912754230E-002	2.4109320E-005	-4.4842076E-001	0
8.3695254E+003	3.275139936777123E+001	-4.5029086E-001	-5.380123989052588E-002	2.4226207E-005	-4.5042071E-001	0
8.3902158E+003	3.295139936271880E+001	-4.5227322E-001	-5.390483444997968E-002	2.4379713E-005	-4.5242065E-001	0
8.4176221E+003	3.315139935766638E+001	-4.5428401E-001	-5.396821193477286E-002	2.4516896E-005	-4.5442054E-001	0
8.4447109E+003	3.335139935261395E+001	-4.5628527E-001	-5.403207586244024E-002	2.4654040E-005	-4.5642048E-001	0
8.4715928E+003	3.355139934756153E+001	-4.5827934E-001	-5.409600855064589E-002	2.4791083E-005	-4.5842049E-001	0
8.5006914E+003	3.375139934250910E+001	-4.6028143E-001	-5.414635353181052E-002	2.4922561E-005	-4.6042037E-001	0
8.5231943E+003	3.395139933745668E+001	-4.6228245E-001	-5.423816524407998E-002	2.5073352E-005	-4.6242037E-001	0
8.5542158E+003	3.415139933240425E+001	-4.6426547E-001	-5.427329229558410E-002	2.5197216E-005	-4.6442023E-001	0
8.5744697E+003	3.435139932735183E+001	-4.6626866E-001	-5.437871834892526E-002	2.5355092E-005	-4.6642020E-001	0
8.6060068E+003	3.455139932229940E+001	-4.6824768E-001	-5.440939965398128E-002	2.5477075E-005	-4.6842006E-001	0
8.6245527E+003	3.475139931724698E+001	-4.7025779E-001	-5.452546891238938E-002	2.5641026E-005	-4.7042009E-001	0
8.6545029E+003	3.495139931219455E+001	-4.7225463E-001	-5.456750288599332E-002	2.5769756E-005	-4.7241995E-001	0
8.6814092E+003	3.515139930714213E+001	-4.7424227E-001	-5.462733621480978E-002	2.5906593E-005	-4.7441995E-001	0
8.7031172E+003	3.535139930208970E+001	-4.7626284E-001	-5.472324626644853E-002	2.6062649E-005	-4.7641987E-001	0
8.7255186E+003	3.555139929703728E+001	-4.7824478E-001	-5.480990094151744E-002	2.6212549E-005	-4.7841978E-001	0
8.7540938E+003	3.575139929198485E+001	-4.8024881E-001	-5.485990880661218E-002	2.6346406E-005	-4.8041973E-001	0
8.7836787E+003	3.595139928693243E+001	-4.8225626E-001	-5.490367649948791E-002	2.6477643E-005	-4.8241967E-001	0
8.8055781E+003	3.615139928188000E+001	-4.8424244E-001	-5.499269265751183E-002	2.6629796E-005	-4.8441955E-001	0
8.8278076E+003	3.635139927682758E+001	-4.8626640E-001	-5.508348446385858E-002	2.6785248E-005	-4.8641950E-001	0
8.8551807E+003	3.655139927177515E+001	-4.8824134E-001	-5.513623997024242E-002	2.6919792E-005	-4.8841950E-001	0
8.8795068E+003	3.675139926672273E+001	-4.9025044E-001	-5.521144892581109E-002	2.7067437E-005	-4.9041939E-001	0
8.9079824E+003	3.695139926167030E+001	-4.9224836E-001	-5.525924244688617E-002	2.7201271E-005	-4.9241939E-001	0
8.9299912E+003	3.715139925661788E+001	-4.9425811E-001	-5.534810507342702E-002	2.7356249E-005	-4.9441925E-001	0
8.9563818E+003	3.735139925156545E+001	-4.9624380E-001	-5.540672491691045E-002	2.7495244E-005	-4.9641922E-001	0
8.9900781E+003	3.755139924651303E+001	-4.9824640E-001	-5.542181008981112E-002	2.7613718E-005	-4.9841908E-001	0
9.0082129E+003	3.775139924146060E+001	-5.0023383E-001	-5.553086224284476E-002	2.7778417E-005	-5.0041914E-001	0
9.0318516E+003	3.795129923641070E+001	-5.0224614E-001	-5.560832665901949E-002	2.7929067E-005	-5.0241905E-001	0
9.0567295E+003	3.815119923136081E+001	-5.0426966E-001	-5.567900361197564E-002	2.8077233E-005	-5.0441897E-001	0
9.0887559E+003	3.835119922630838E+001	-5.0625038E-001	-5.570073661768205E-002	2.8198519E-005	-5.0641888E-001	0
9.1116680E+003	3.855119922125596E+001	-5.0826269E-001	-5.578151837840273E-002	2.8351666E-005	-5.0841880E-001	0
9.1277949E+003	3.875119921620353E+001	-5.1027316E-001	-5.590322169384448E-002	2.8525914E-005	-5.1041877E-001	0
9.1555381E+003	3.895119921115111E+001	-5.1226479E-001	-5.595135632078757E-002	2.8661909E-005	-5.1241869E-001	0
9.1877773E+003	3.915119920609868E+001	-5.1424974E-001	-5.597107440588031E-002	2.8783110E-005	-5.1441860E-001	0
9.2156592E+003	3.935119920104626E+001	-5.1625305E-001	-5.601911100478663E-002	2.8920038E-005	-5.1641852E-001	0
9.2361709E+003	3.955119919599383E+001	-5.1825434E-001	-5.611138211567446E-002	2.9079967E-005	-5.1841855E-001	0
9.2635508E+003	3.975119919094141E+001	-5.2026075E-001	-5.616213098831496E-002	2.9218952E-005	-5.2041841E-001	0
9.2831641E+003	3.995119918588898E+001	-5.2226049E-001	-5.625888747490451E-002	2.9381794E-005	-5.2241838E-001	0
9.3220645E+003	4.015119918083656E+001	-5.2425027E-001	-5.623756968595772E-002	2.9482560E-005	-5.2441829E-001	0
9.3444512E+003	4.035119917578413E+001	-5.2625686E-001	-5.631757770768464E-002	2.9637511E-005	-5.2641827E-001	0
9.3718408E+003	4.055119917073171E+001	-5.2826554E-001	-5.636731550401573E-002	2.9776909E-005	-5.2841818E-001	0
9.3896309E+003	4.075119916567928E+001	-5.3026193E-001	-5.647313726702696E-002	2.9945555E-005	-5.3041810E-001	0
9.4178740E+003	4.095119916062686E+001	-5.3225726E-001	-5.651565050799190E-002	3.0080866E-005	-5.3241801E-001	0
9.4477393E+003	4.115119915557443E+001	-5.3426063E-001	-5.654904480903178E-002	3.0211928E-005	-5.3441799E-001	0
9.4705547E+003	4.135119915052201E+001	-5.3626269E-001	-5.662421325629263E-002	3.0365452E-005	-5.3641790E-001	0
9.5010117E+003	4.155119914546958E+001	-5.3827029E-001	-5.665399986181985E-002	3.0495165E-005	-5.3841782E-001	0
9.5223594E+003	4.175119914041716E+001	-5.4026949E-001	-5.673693542478536E-002	3.0653235E-005	-5.4041779E-001	0
9.5467676E+003	4.195119913536473E+001	-5.4227668E-001	-5.680212222489478E-002	3.0802465E-005	-5.4241771E-001	0
9.5792373E+003	4.215119913031231E+001	-5.4427093E-001	-5.681777254165121E-002	3.0924260E-005	-5.4441768E-001	0
9.6096777E+003	4.235119912525988E+001	-5.4627669E-001	-5.684651619630121E-002	3.1053925E-005	-5.4641759E-001	0
9.6328975E+003	4.255119912020746E+001	-5.4825097E-001	-5.691444373567078E-002	3.1203399E-005	-5.4841757E-001	0
9.6574941E+003	4.275119911515503E+001	-5.5025351E-001	-5.697684235292177E-002	3.1351708E-005	-5.5041742E-001	0
9.6853223E+003	4.295119911010261E+001	-5.5224991E-001	-5.701926209416885E-002	3.1488882E-005	-5.5241740E-001	0
9.7129590E+003	4.315119910505018E+001	-5.5426574E-001	-5.706456117015191E-002	3.1628930E-005	-5.5441731E-001	0
9.7395371E+003	4.335119909999776E+001	-5.5624861E-001	-5.711242782908699E-002	3.1768708E-005	-5.5641729E-001	0
9.7706357E+003	4.355119909494533E+001	-5.5825639E-001	-5.713613550791119E-002	3.1896612E-005	-5.5841720E-001	0
9.7973984E+003	4.375119908989291E+001	-5.6026834E-001	-5.718541888270937E-002	3.2039181E-005	-5.6041712E-001	0
9.8278760E+003	4.395119908484048E+001	-5.6224799E-001	-5.720950956947946E-002	3.2165932E-005	-5.6241727E-001	0
9.8490918E+003	4.415099907979311E+001	-5.6425846E-001	-5.729040683951636E-002	3.2326596E-005	-5.6441683E-001	0
9.8851416E+003	4.435099907474068E+001	-5.6625277E-001	-5.728322490701299E-002	3.2436783E-005	-5.6641692E-001	0
9.9096670E+003	4.455099906968826E+001	-5.6825358E-001	-5.734335647129331E-002	3.2585569E-005	-5.6841683E-001	0
9.9396631E+003	4.475099906463583E+001	-5.7025385E-001	-5.737154442466408E-002	3.2716343E-005	-5.7041681E-001	0
9.9707305E+003	4.495099905958341E+001	-5.7226229E-001	-5.739421906612807E-002	3.2844546E-005	-5.7241672E-001	0
9.9956396E+003	4.515099905453098E+001	-5.7424128E-001	-5.744917731776472E-002	3.2989690E-005	-5.7441670E-001	0
1.0025722E+004	4.535099904947856E+001	-5.7624292E-001	-5.747645220596809E-002	3.3120399E-005	-5.7641661E-001	0
1.0045495E+004	4.555099904442613E+001	-5.7826138E-001	-5.756424875801147E-002	3.3287182E-005	-5.7841659E-001	0
1.0080056E+004	4.575099903937371E+001	-5.8025879E-001	-5.756503892502818E-002	3.3402619E-005	-5.8041644E-001	0
1.0110244E+004	4.595099903432128E+001	-5.8225226E-001	-5.759032885860754E-002	3.3532098E-005	-5.8241642E-001	0
1.0131696E+004	4.615099902926886E+001	-5.8425015E-001	-5.766558101772401E-002	3.3691125E-005	-5.8441633E-001	0
1.0168286E+004	4.635099902421643E+001	-5.8625960E-001	-5.765569544093188E-002	3.3801207E-005	-5.8641630E-001	0
1.0191984E+004	4.655099901916401E+001	-5.8825392E-001	-5.771730677488685E-002	3.3952430E-005	-5.8841622E-001	0
1.0215195E+004	4.675099901411159E+001	-5.9025854E-001	-5.778240535171708E-002	3.4106557E-005	-5.9041613E-001	0
1.0250476E+004	4.695099900905916E+001	-5.9225827E-001	-5.777861339424484E-002	3.4219862E-005	-5.9241599E-001	0
1.0277960E+004	4.715099900400674E+001	-5.9425962E-001	-5.781883156547929E-002	3.4359397E-005	-5.9441602E-001	0
1.0304214E+004	4.735099899895431E+001	-5.9624326E-001	-5.786401983044320E-002	3.4501030E-005	-5.9641594E-001	0
1.0334694E+004	4.755099899390189E+001	-5.9825706E-001	-5.788821950364753E-002	3.4632038E-005	-5.9841585E-001	0
1.0368436E+004	4.775099898884946E+001	-6.0025829E-001	-5.789284829193914E-002	3.4750661E-005	-6.0041583E-001	0
1.0399224E+004	4.795099898379704E+001	-6.0224766E-001	-5.791274926207080E-002	3.4877816E-005	-6.0241574E-001	0
1.0428930E+004	4.815099897874461E+001	-6.0424024E-001	-5.793885676118449E-002	3.5008990E-005	-6.0441571E-001	0
1.0460385E+004	4.835099897369219E+001	-6.0625082E-001	-5.795683859437784E-002	3.5136381E-005	-6.0641563E-001	0
1.0488293E+004	4.855099896863976E+001	-6.0825378E-001	-5.799358897914253E-002	3.5274821E-005	-6.0841560E-001	0
1.0516560E+004	4.875099896358734E+001	-6.1024714E-001	-5.802725778011986E-002	3.5410969E-005	-6.1041546E-001	0
1.0540593E+004	4.895099895853491E+001	-6.1227310E-001	-5.808715975965872E-002	3.5565205E-005	-6.1241543E-001	0
1.0564996E+004	4.915099895348249E+001	-6.1425370E-001	-5.814045852381777E-002	3.5712990E-005	-6.1441535E-001	0
1.0596028E+004	4.935099894843006E+001	-6.1626983E-001	-5.816045415306854E-002	3.5842531E-005	-6.1641532E-001	0
1.0625650E+004	4.955099894337764E+001	-6.1829555E-001	-5.818895781264866E-002	3.5977973E-005	-6.1841524E-001	0
1.0660340E+004	4.975099893832521E+001	-6.2027317E-001	-5.818512287337231E-002	3.6090671E-005	-6.2041515E-001	0
1.0679987E+004	4.995099893327279E+001	-6.2226921E-001	-5.826497716457490E-002	3.6256501E-005	-6.2241501E-001	0
1.0714470E+004	5.015089892822289E+001	-6.2426704E-001	-5.826392114905349E-002	3.6372247E-005	-6.2441480E-001	0
1.0737985E+004	5.035079892317299E+001	-6.2627494E-001	-5.832332148176533E-002	3.6526435E-005	-6.2641501E-001	0
1.0761446E+004	5.055079891812056E+001	-6.2827700E-001	-5.838220956779637E-002	3.6680201E-005	-6.2841487E-001	0
1.0797582E+004	5.075079891306814E+001	-6.3026351E-001	-5.837080086889723E-002	3.6788984E-005	-6.3041490E-001	0
1.0812980E+004	5.095079890801571E+001	-6.3226378E-001	-5.847266491116065E-002	3.6970148E-005	-6.3241476E-001	0
1.0838247E+004	5.115079890296329E+001	-6.3426530E-001	-5.852102340608756E-002	3.7117854E-005	-6.3441479E-001	0
1.0864550E+004	5.135079889791086E+001	-6.3626677E-001	-5.856356318657807E-002	3.7262049E-005	-6.3641465E-001	0
1.0885286E+004	5.155079889285844E+001	-6.3826782E-001	-5.863583250691418E-002	3.7425365E-005	-6.3841462E-001	0
1.0903754E+004	5.175079888780601E+001	-6.4027077E-001	-5.872021458542531E-002	3.7596838E-005	-6.4041448E-001	0
1.0920365E+004	5.195079888275359E+001	-6.4229107E-001	-5.881589608870949E-002	3.7776925E-005	-6.4241451E-001	0
1.0941472E+004	5.215079887770116E+001	-6.4427394E-001	-5.888366116455790E-002	3.7937207E-005	-6.4441437E-001	0
1.0955617E+004	5.235079887264874E+001	-6.4629698E-001	-5.899229435970321E-002	3.8126542E-005	-6.4641434E-001	0
1.0971414E+004	5.255079886759631E+001	-6.4828259E-001	-5.908833270366654E-002	3.8305938E-005	-6.4841425E-001	0
1.0984789E+004	5.275079886254389E+001	-6.5027785E-001	-5.919802677342489E-002	3.8495167E-005	-6.5041417E-001	0
1.1007900E+004	5.295079885749146E+001	-6.5227979E-001	-5.925560467285196E-002	3.8651233E-005	-6.5241408E-001	0
1.1010659E+004	5.315079885243904E+001	-6.5427321E-001	-5.942180054209489E-002	3.8878094E-005	-6.5441406E-001	0
1.1027084E+004	5.335079884738661E+001	-6.5627611E-001	-5.951492655061408E-002	3.9058225E-005	-6.5641403E-001	0
1.1038533E+004	5.355079884233419E+001	-6.5827316E-001	-5.963411664985163E-002	3.9255538E-005	-6.5841389E-001	0
1.1048313E+004	5.375079883728176E+001	-6.6027164E-001	-5.976221595453657E-002	3.9459297E-005	-6.6041386E-001	0
1.1058328E+004	5.395079883222934E+001	-6.6227782E-001	-5.988950784689795E-002	3.9663493E-005	-6.6241378E-001	0
1.1069649E+004	5.415079882717691E+001	-6.6427708E-001	-6.000886422839596E-002	3.9862512E-005	-6.6441381E-001	0
1.1065374E+004	5.435079882212449E+001	-6.6627800E-001	-6.021287895965055E-002	4.0118517E-005	-6.6641366E-001	0
1.1066519E+004	5.455079881707206E+001	-6.6826779E-001	-6.038645197438863E-002	4.0354320E-005	-6.6841364E-001	0
1.1071451E+004	5.475079881201964E+001	-6.7025465E-001	-6.053900480525909E-002	4.0576550E-005	-6.7041349E-001	0
1.1065146E+004	5.495079880696721E+001	-6.7225569E-001	-6.075433961352295E-002	4.0842449E-005	-6.7241347E-001	0
1.1066059E+004	5.515079880191479E+001	-6.7427349E-001	-6.093167487369289E-002	4.1084611E-005	-6.7441344E-001	0
1.1053536E+004	5.535079879686236E+001	-6.7626303E-001	-6.118069613265845E-002	4.1374242E-005	-6.7641336E-001	0
1.1068843E+004	5.555079879180994E+001	-6.7826778E-001	-6.127720609066506E-002	4.1562354E-005	-6.7841327E-001	0
1.1053517E+004	5.575079878675751E+001	-6.8027109E-001	-6.154340639649192E-002	4.1866198E-005	-6.8041319E-001	0
1.1052982E+004	5.595079878170509E+001	-6.8226177E-001	-6.172648594501395E-002	4.2113621E-005	-6.8241310E-001	0
1.1045988E+004	5.615069877665519E+001	-6.8425709E-001	-6.194620581492503E-002	4.2387132E-005	-6.8441218E-001	0
1.1047030E+004	5.635069877160277E+001	-6.8627852E-001	-6.212334981143131E-002	4.2633921E-005	-6.8641371E-001	0
1.1024093E+004	5.655059876655287E+001	-6.8826216E-001	-6.243254199978884E-002	4.2969958E-005	-6.8841290E-001	0
1.1007686E+004	5.675059876150044E+001	-6.9027621E-001	-6.270856609886910E-002	4.3286233E-005	-6.9041288E-001	0
1.1005549E+004	5.695059875644802E+001	-6.9226432E-001	-6.290139035900388E-002	4.3544387E-005	-6.9241279E-001	0
1.0971705E+004	5.715059875139559E+001	-6.9427443E-001	-6.327862852324806E-002	4.3932734E-005	-6.9441283E-001	0
1.0971055E+004	5.735059874634317E+001	-6.9626421E-001	-6.346374613184314E-002	4.4187535E-005	-6.9641268E-001	0
1.0948116E+004	5.755059874129074E+001	-6.9825065E-001	-6.377815325372771E-002	4.4533139E-005	-6.9841272E-001	0
1.0930057E+004	5.775059873623832E+001	-7.0027757E-001	-6.406898010002557E-002	4.4866068E-005	-7.0041251E-001	0
1.0906911E+004	5.795059873118589E+001	-7.0227778E-001	-6.438832812944700E-002	4.5218490E-005	-7.0241249E-001	0
1.0889535E+004	5.815059872613347E+001	-7.0425594E-001	-6.467272993335560E-002	4.5546156E-005	-7.0441246E-001	0
1.0863009E+004	5.835059872108104E+001	-7.0627588E-001	-6.501659654163239E-002	4.5919653E-005	-7.0641237E-001	0
1.0842005E+004	5.855059871602862E+001	-7.0827031E-001	-6.532650587176403E-002	4.6268826E-005	-7.0841229E-001	0
1.0794903E+004	5.875059871097619E+001	-7.1026373E-001	-6.579621107361827E-002	4.6732661E-005	-7.1041226E-001	0
1.0779464E+004	5.895059870592377E+001	-7.1227068E-001	-6.607663142442055E-002	4.7064448E-005	-7.1241218E-001	0
1.0760855E+004	5.915059870087134E+001	-7.1426344E-001	-6.637608355002012E-002	4.7410009E-005	-7.1441215E-001	0
1.0729368E+004	5.935059869581892E+001	-7.1626985E-001	-6.675787992688850E-002	4.7816658E-005	-7.1641207E-001	0
1.0693493E+004	5.955059869076649E+001	-7.1826982E-001	-6.716886781474940E-002	4.8245372E-005	-7.1841192E-001	0
1.0674991E+004	5.975059868571407E+001	-7.2025186E-001	-6.747095325228891E-002	4.8596081E-005	-7.2041196E-001	0
1.0642530E+004	5.995059868066164E+001	-7.2226077E-001	-6.786551295257998E-002	4.9016598E-005	-7.2241181E-001	0
1.0613472E+004	6.015059867560922E+001	-7.2427058E-001	-6.824068238751768E-002	4.9424718E-005	-7.2441185E-001	0
1.0591074E+004	6.035059867055679E+001	-7.2626716E-001	-6.857351235656776E-002	4.9802689E-005	-7.2641170E-001	0
1.0565023E+004	6.055059866550437E+001	-7.2827053E-001	-6.893222236925589E-002	5.0201306E-005	-7.2841173E-001	0
1.0536207E+004	6.075059866045194E+001	-7.3023182E-001	-6.930689562414094E-002	5.0610102E-005	-7.3041153E-001	0
1.0485978E+004	6.095059865539952E+001	-7.3224199E-001	-6.983058771874506E-002	5.1132887E-005	-7.3241150E-001	0
1.0468002E+004	6.115059865034709E+001	-7.3425072E-001	-7.014239594274843E-002	5.1502106E-005	-7.3441142E-001	0
1.0430894E+004	6.135059864529467E+001	-7.3625422E-001	-7.058400536471310E-002	5.1967771E-005	-7.3641139E-001	0
1.0401274E+004	6.155059864024224E+001	-7.3826313E-001	-7.097814274347844E-002	5.2400545E-005	-7.3841131E-001	0
1.0374175E+004	6.175059863518982E+001	-7.4024487E-001	-7.135457571811335E-002	5.2819858E-005	-7.4041128E-001	0
1.0328316E+004	6.195059863013739E+001	-7.4224526E-001	-7.186507594628078E-002	5.3341511E-005	-7.4241120E-001	0
1.0292740E+004	6.215059862508497E+001	-7.4427879E-001	-7.231104213695794E-002	5.3819575E-005	-7.4441117E-001	0
1.0264335E+004	6.235059862003254E+001	-7.4628156E-001	-7.270627710908517E-002	5.4259355E-005	-7.4641174E-001	0
1.0225293E+004	6.255039861498517E+001	-7.4826288E-001	-7.317764976960095E-002	5.4756118E-005	-7.4841094E-001	0
1.0187798E+004	6.275039860993274E+001	-7.5025582E-001	-7.364259045381039E-002	5.5250781E-005	-7.5041097E-001	0
1.0150498E+004	6.295039860488032E+001	-7.5225836E-001	-7.411048427390976E-002	5.5750232E-005	-7.5241083E-001	0
1.0114103E+004	6.315039859982789E+001	-7.5425518E-001	-7.457460575397057E-002	5.6248282E-005	-7.5441086E-001	0
1.0072721E+004	6.335039859477547E+001	-7.5626183E-001	-7.508019150378353E-002	5.6780282E-005	-7.5641072E-001	0
1.0046251E+004	6.355039858972305E+001	-7.5827241E-001	-7.547814429414473E-002	5.7232995E-005	-7.5841075E-001	0
9.9955732E+003	6.375039858467062E+001	-7.6027489E-001	-7.606116091450266E-002	5.7827390E-005	-7.6041055E-001	0
9.9514014E+003	6.395039857961820E+001	-7.6225936E-001	-7.659819665103040E-002	5.8387694E-005	-7.6241052E-001	0
9.9211650E+003	6.415039857456577E+001	-7.6427102E-001	-7.703440023592445E-002	5.8875161E-005	-7.6441044E-001	0
9.8735840E+003	6.435039856951335E+001	-7.6625741E-001	-7.760681372184441E-002	5.9466794E-005	-7.6641041E-001	0
9.8432236E+003	6.455039856446092E+001	-7.6826864E-001	-7.805051527761109E-002	5.9963764E-005	-7.6841033E-001	0
9.7890762E+003	6.475039855940850E+001	-7.7028090E-001	-7.868780301885914E-002	6.0611710E-005	-7.7041030E-001	0
9.7633691E+003	6.495039855435607E+001	-7.7225870E-001	-7.909756218497127E-002	6.1083781E-005	-7.7241021E-001	0
9.7243291E+003	6.515039854930365E+001	-7.7425206E-001	-7.962010146748039E-002	6.1646024E-005	-7.7441013E-001	0
9.6852842E+003	6.535039854425122E+001	-7.7624786E-001	-8.014714071641171E-002	6.2214043E-005	-7.7641010E-001	0
9.6408428E+003	6.555039853919880E+001	-7.7824312E-001	-8.072355939413223E-002	6.2822553E-005	-7.7841002E-001	0
9.5933848E+003	6.575039853414637E+001	-7.8024882E-001	-8.133196267890674E-002	6.3459171E-005	-7.8040999E-001	0
9.5307959E+003	6.595039852909395E+001	-7.8224933E-001	-8.207597043850989E-002	6.4203872E-005	-7.8240997E-001	0
9.4987217E+003	6.615039852404152E+001	-7.8424436E-001	-8.256314906540863E-002	6.4749685E-005	-7.8440988E-001	0
9.4679160E+003	6.635039851898910E+001	-7.8623325E-001	-8.304184702248249E-002	6.5290260E-005	-7.8640974E-001	0
9.4184551E+003	6.655039851393667E+001	-7.8824437E-001	-8.369146911121161E-002	6.5969332E-005	-7.8840977E-001	0
9.3679482E+003	6.675039850888425E+001	-7.9024398E-001	-8.435614186850127E-002	6.6661931E-005	-7.9040962E-001	0
9.3465078E+003	6.695039850383182E+001	-7.9224819E-001	-8.476408507913591E-002	6.7154193E-005	-7.9240966E-001	0
9.3047832E+003	6.715039849877940E+001	-7.9424220E-001	-8.535848790462963E-002	6.7795314E-005	-7.9440951E-001	0
9.2368633E+003	6.735039849372697E+001	-7.9623884E-001	-8.620229850749150E-002	6.8637615E-005	-7.9640949E-001	0
9.2107646E+003	6.755039848867455E+001	-7.9824477E-001	-8.666432842447525E-002	6.9179347E-005	-7.9840934E-001	0
9.1750430E+003	6.775039848362212E+001	-8.0024183E-001	-8.721940885688600E-002	6.9796617E-005	-8.0040932E-001	0
9.1310039E+003	6.795039847856970E+001	-8.0223811E-001	-8.785869545924152E-002	7.0483591E-005	-8.0240923E-001	0
9.0849443E+003	6.815039847351727E+001	-8.0423373E-001	-8.852379515243403E-002	7.1193819E-005	-8.0440921E-001	0
9.0436182E+003	6.835039846846485E+001	-8.0622542E-001	-8.914854632301950E-002	7.1873823E-005	-8.0640918E-001	0
8.9888311E+003	6.855029846341495E+001	-8.0823773E-001	-8.991577652712801E-002	7.2673320E-005	-8.0840969E-001	0
8.9530391E+003	6.875019845836505E+001	-8.1023663E-001	-9.049850708198923E-002	7.3325209E-005	-8.1040901E-001	0
8.9179316E+003	6.895019845331262E+001	-8.1223023E-001	-9.107832179157760E-002	7.3976567E-005	-8.1240898E-001	0
8.8787861E+003	6.915019844826020E+001	-8.1424296E-001	-9.170656554008116E-002	7.4671429E-005	-8.1440896E-001	0
8.8421445E+003	6.935019844320777E+001	-8.1622386E-001	-9.231062036149118E-002	7.5346128E-005	-8.1640875E-001	0
8.8159531E+003	6.955019843815535E+001	-8.1824118E-001	-9.281369707866061E-002	7.5943986E-005	-8.1840879E-001	0
8.7733916E+003	6.975019843310292E+001	-8.2023871E-001	-9.349163252355597E-002	7.6685457E-005	-8.2040864E-001	0
8.7134424E+003	6.995019842805050E+001	-8.2224476E-001	-9.436509287557127E-002	7.7591205E-005	-8.2240868E-001	0
8.6884316E+003	7.015019842299807E+001	-8.2424247E-001	-9.486665884391887E-002	7.8193130E-005	-8.2440853E-001	0
8.6618457E+003	7.035019841794565E+001	-8.2623434E-001	-9.538779235677242E-002	7.8812671E-005	-8.2640851E-001	0
8.6178584E+003	7.055019841289322E+001	-8.2824582E-001	-9.610807491559248E-002	7.9601108E-005	-8.2840842E-001	0
8.5953555E+003	7.075019840784080E+001	-8.3024853E-001	-9.659268834222678E-002	8.0195940E-005	-8.3040833E-001	0
8.5474580E+003	7.095019840278837E+001	-8.3223480E-001	-9.736635559238488E-002	8.1031671E-005	-8.3240831E-001	0
8.4951563E+003	7.115019839773595E+001	-8.3423537E-001	-9.820129252260656E-002	8.1922990E-005	-8.3440822E-001	0
8.4522500E+003	7.135019839268352E+001	-8.3624685E-001	-9.893777852459806E-002	8.2736406E-005	-8.3640820E-001	0
8.4303037E+003	7.155019838763110E+001	-8.3823764E-001	-9.943149340298896E-002	8.3347222E-005	-8.3840811E-001	0
8.4033623E+003	7.175019838257867E+001	-8.4022641E-001	-9.998692870731363E-002	8.4011655E-005	-8.4040803E-001	0
8.3551240E+003	7.195019837752625E+001	-8.4223616E-001	-1.008047424119534E-001	8.4901396E-005	-8.4240800E-001	0
8.3071729E+003	7.215019837247382E+001	-8.4423554E-001	-1.016273020635738E-001	8.5797379E-005	-8.4440798E-001	0
8.2543838E+003	7.235019836742140E+001	-8.4625566E-001	-1.025219679273701E-001	8.6759799E-005	-8.4640777E-001	0
8.2029805E+003	7.255019836236897E+001	-8.4824651E-001	-1.034071142288969E-001	8.7714725E-005	-8.4840780E-001	0
8.1623779E+003	7.275019835731655E+001	-8.5023832E-001	-1.041655186785473E-001	8.8565517E-005	-8.5040766E-001	0
8.0891035E+003	7.295019835226412E+001	-8.5225242E-001	-1.053580839362191E-001	8.9791683E-005	-8.5240769E-001	0
8.0273877E+003	7.315019834721170E+001	-8.5424483E-001	-1.064162921929169E-001	9.0905567E-005	-8.5440755E-001	0
7.9605464E+003	7.335019834215927E+001	-8.5624480E-001	-1.075610598452099E-001	9.2098599E-005	-8.5640758E-001	0
7.8735679E+003	7.355019833710685E+001	-8.5825115E-001	-1.090040973529152E-001	9.3552895E-005	-8.5840744E-001	0
7.8108994E+003	7.375019833205442E+001	-8.6024070E-001	-1.101333752650417E-001	9.4741212E-005	-8.6040735E-001	0
7.7217373E+003	7.395019832700200E+001	-8.6224556E-001	-1.116647073194434E-001	9.6282398E-005	-8.6240733E-001	0
7.6330112E+003	7.415019832194957E+001	-8.6423290E-001	-1.132230592908461E-001	9.7851094E-005	-8.6440724E-001	0
7.5347319E+003	7.435019831689715E+001	-8.6625260E-001	-1.149679384502642E-001	9.9591278E-005	-8.6640722E-001	0
7.4183545E+003	7.455019831184472E+001	-8.6825258E-001	-1.170411302313181E-001	1.0162126E-004	-8.6840713E-001	0
7.3008311E+003	7.475009830679483E+001	-8.7025821E-001	-1.191998836889268E-001	1.0373468E-004	-8.7040669E-001	0
7.1890894E+003	7.494999830174493E+001	-8.7224382E-001	-1.213288334073699E-001	1.0582832E-004	-8.7240702E-001	0
7.0539155E+003	7.514999829669250E+001	-8.7423962E-001	-1.239367866901309E-001	1.0835045E-004	-8.7440699E-001	0
6.9179917E+003	7.534999829164008E+001	-8.7624466E-001	-1.266617130471257E-001	1.1098665E-004	-8.7640679E-001	0
6.7757158E+003	7.554999828658765E+001	-8.7823915E-001	-1.296156986834078E-001	1.1383358E-004	-8.7840682E-001	0
6.6311748E+003	7.574999828153523E+001	-8.8022816E-001	-1.327409041314778E-001	1.1684228E-004	-8.8040680E-001	0
6.4777100E+003	7.594999827648280E+001	-8.8223177E-001	-1.361950140007155E-001	1.2015557E-004	-8.8240683E-001	0
6.3102188E+003	7.614999827143038E+001	-8.8422149E-001	-1.401253361476673E-001	1.2390183E-004	-8.8440686E-001	0
6.1570537E+003	7.634999826637795E+001	-8.8623470E-001	-1.439381109945512E-001	1.2756295E-004	-8.8640684E-001	0
5.9860112E+003	7.654999826132553E+001	-8.8822889E-001	-1.483840993088146E-001	1.3179904E-004	-8.8840681E-001	0
5.8145103E+003	7.674999825627310E+001	-8.9022589E-001	-1.531041967650855E-001	1.3629731E-004	-8.9040679E-001	0
5.6245469E+003	7.694999825122068E+001	-8.9222103E-001	-1.586298544832059E-001	1.4153289E-004	-8.9240688E-001	0
5.4319834E+003	7.714999824616825E+001	-8.9422673E-001	-1.646225024236456E-001	1.4720984E-004	-8.9440686E-001	0
5.2294614E+003	7.734999824111583E+001	-8.9624095E-001	-1.713830261436333E-001	1.5360049E-004	-8.9640683E-001	0
5.0157202E+003	7.754999823606340E+001	-8.9823294E-001	-1.790835460808440E-001	1.6085873E-004	-8.9840686E-001	0
4.7986177E+003	7.774999823101098E+001	-9.0023702E-001	-1.876034114209939E-001	1.6888753E-004	-9.0040678E-001	0
4.5745859E+003	7.794999822595855E+001	-9.0222794E-001	-1.972261426205870E-001	1.7794293E-004	-9.0240687E-001	0
4.3443008E+003	7.814999822090613E+001	-9.0423203E-001	-2.081421307898433E-001	1.8820878E-004	-9.0440685E-001	0
4.1032944E+003	7.834999821585370E+001	-9.0624541E-001	-2.208580058427051E-001	2.0015155E-004	-9.0640682E-001	0
3.6987156E+003	7.854999821080128E+001	-9.0823299E-001	-2.455536170890076E-001	2.2301989E-004	-9.0840691E-001	0
3.5569810E+003	7.874999820574885E+001	-9.1024220E-001	-2.559030279474950E-001	2.3293373E-004	-9.1040683E-001	0
3.3431248E+003	7.894999820069643E+001	-9.1223973E-001	-2.728703827649985E-001	2.4892320E-004	-9.1240680E-001	0
3.1157756E+003	7.914999819564400E+001	-9.1423857E-001	-2.934224593163774E-001	2.6825813E-004	-9.1440684E-001	0
2.8914072E+003	7.934999819059158E+001	-9.1622818E-001	-3.168796684335327E-001	2.9033408E-004	-9.1640681E-001	0
2.6759399E+003	7.954999818553915E+001	-9.1825241E-001	-3.431513402970037E-001	3.1509955E-004	-9.1840684E-001	0
2.4698772E+003	7.974999818048673E+001	-9.2024255E-001	-3.725863467931503E-001	3.4286981E-004	-9.2040688E-001	0
2.2439907E+003	7.994999817543430E+001	-9.2226356E-001	-4.109925807046100E-001	3.7904349E-004	-9.2240685E-001	0
2.0531628E+003	8.014999817038188E+001	-9.2426032E-001	-4.501641829098997E-001	4.1606888E-004	-9.2440677E-001	0
1.8848021E+003	8.034999816532945E+001	-9.2626131E-001	-4.914368965796068E-001	4.5519898E-004	-9.2640686E-001	0
1.7058585E+003	8.054999816027703E+001	-9.2824203E-001	-5.441494787073893E-001	5.0510239E-004	-9.2840683E-001	0
1.5522745E+003	8.074999815522460E+001	-9.3025702E-001	-5.992863884157655E-001	5.5749039E-004	-9.3040681E-001	0
1.4105284E+003	8.094999815017218E+001	-9.3225282E-001	-6.609244905496658E-001	6.1614870E-004	-9.3240690E-001	0
1.2753588E+003	8.114999814511975E+001	-9.3425769E-001	-7.325449812050699E-001	6.8438577E-004	-9.3440688E-001	0
1.1543483E+003	8.134999814006733E+001	-9.3624723E-001	-8.110613108838525E-001	7.5935392E-004	-9.3640685E-001	0
1.0494330E+003	8.154999813501490E+001	-9.3822753E-001	-8.940328643013178E-001	8.3880627E-004	-9.3840683E-001	0
9.4438635E+002	8.174999812996248E+001	-9.4023472E-001	-9.956038976320478E-001	9.3610137E-004	-9.4040692E-001	0
8.5022247E+002	8.195999812465743E+001	-9.4229031E-001	-1.108286717054408E+000	1.0443279E-003	-9.4250691E-001	0
7.6858966E+002	8.216999811935239E+001	-9.4439733E-001	-1.228740654066371E+000	1.1604194E-003	-9.4460678E-001	0
6.9719019E+002	8.236999811429996E+001	-9.4639826E-001	-1.357446329892021E+000	1.2846849E-003	-9.4660687E-001	0
6.3075977E+002	8.256999810924754E+001	-9.4840777E-001	-1.503595875597256E+000	1.4260220E-003	-9.4860685E-001	0
5.7322180E+002	8.276999810419511E+001	-9.5041931E-001	-1.658030637808129E+000	1.5758243E-003	-9.5060676E-001	0
5.2058411E+002	8.296999809914269E+001	-9.5242131E-001	-1.829524277964962E+000	1.7424779E-003	-9.5260692E-001	0
4.7402969E+002	8.316999809409026E+001	-9.5441324E-001	-2.013403867884557E+000	1.9216193E-003	-9.5460677E-001	0
4.3263446E+002	8.336999808903784E+001	-9.5642895E-001	-2.210709059015418E+000	2.1143861E-003	-9.5660686E-001	0
3.9479935E+002	8.356999808398541E+001	-9.5844167E-001	-2.427667910617490E+000	2.3267781E-003	-9.5860684E-001	0
3.6044067E+002	8.376999807893299E+001	-9.6041822E-001	-2.664566763015691E+000	2.5590984E-003	-9.6060693E-001	0
3.3005518E+002	8.396999807388056E+001	-9.6240997E-001	-2.915906232771153E+000	2.8062973E-003	-9.6260691E-001	0
3.0331870E+002	8.416999806882814E+001	-9.6442205E-001	-3.179566701472886E+000	3.0664443E-003	-9.6460682E-001	0
2.7912589E+002	8.436999806377571E+001	-9.6643001E-001	-3.462344793370534E+000	3.3461140E-003	-9.6660686E-001	0
2.5734695E+002	8.456999805872329E+001	-9.6842152E-001	-3.763097068079487E+000	3.6442641E-003	-9.6860683E-001	0
2.3766460E+002	8.476999805367086E+001	-9.7041011E-001	-4.083107523434283E+000	3.9622886E-003	-9.7060680E-001	0
2.2008215E+002	8.496999804861844E+001	-9.7241336E-001	-4.418410757738183E+000	4.2965217E-003	-9.7260684E-001	0
2.0399321E+002	8.516999804356601E+001	-9.7441161E-001	-4.776686654035434E+000	4.6544587E-003	-9.7460687E-001	0
1.8959285E+002	8.536999803851359E+001	-9.7642142E-001	-5.150096031678800E+000	5.0286641E-003	-9.7660685E-001	0
1.7630125E+002	8.556999803346116E+001	-9.7840965E-001	-5.549646727521136E+000	5.4298281E-003	-9.7860676E-001	0
1.6457274E+002	8.576999802840874E+001	-9.8041844E-001	-5.957356333631225E+000	5.8407020E-003	-9.8060685E-001	0
1.5417401E+002	8.596999802335631E+001	-9.8241848E-001	-6.372140575495962E+000	6.2601087E-003	-9.8260683E-001	0
1.4446138E+002	8.616999801830389E+001	-9.8442113E-001	-6.814424033067632E+000	6.7082630E-003	-9.8460680E-001	0
1.3548819E+002	8.636999801325146E+001	-9.8643810E-001	-7.280620481894964E+000	7.1818815E-003	-9.8660690E-001	0
1.2754375E+002	8.656999800819904E+001	-9.8843527E-001	-7.749774629161465E+000	7.6601505E-003	-9.8860687E-001	0
1.2018549E+002	8.676999800314661E+001	-9.9043906E-001	-8.240920134480035E+000	8.1621287E-003	-9.9060678E-001	0
1.1361543E+002	8.696999799809419E+001	-9.9242568E-001	-8.734954896224586E+000	8.6687934E-003	-9.9260676E-001	0
1.0757396E+002	8.716999799304176E+001	-9.9441630E-001	-9.244024567255394E+000	9.1924090E-003	-9.9460673E-001	0
1.0204242E+002	8.736999798798934E+001	-9.9644178E-001	-9.764975856220929E+000	9.7302301E-003	-9.9660677E-001	0
9.6900467E+001	8.756999798293691E+001	-9.9843806E-001	-1.030374896107341E+001	1.0287656E-002	-9.9860680E-001	0
9.1777023E+001	8.777999797763187E+001	-1.0005285E+000	-1.090173157386636E+001	1.0907493E-002	-1.0007069E+000	0
8.7116364E+001	8.798999797232682E+001	-1.0026062E+000	-1.150881544323192E+001	1.1538809E-002	-1.0028068E+000	0
8.3215446E+001	8.818999796727439E+001	-1.0046021E+000	-1.207230335129367E+001	1.2127861E-002	-1.0048068E+000	0
7.9556152E+001	8.838999796222197E+001	-1.0066252E+000	-1.265301460669701E+001	1.2736843E-002	-1.0068069E+000	0
7.6213882E+001	8.858999795716954E+001	-1.0086503E+000	-1.323446979909261E+001	1.3348952E-002	-1.0088068E+000	0
7.3107231E+001	8.878999795211712E+001	-1.0106391E+000	-1.382406501691625E+001	1.3971141E-002	-1.0108068E+000	0
7.0232170E+001	8.898999794706469E+001	-1.0126458E+000	-1.441854637334143E+001	1.4600881E-002	-1.0128068E+000	0
6.7584061E+001	8.918999794201227E+001	-1.0146278E+000	-1.501282683940703E+001	1.5232432E-002	-1.0148069E+000	0
6.5061493E+001	8.938999793695984E+001	-1.0166501E+000	-1.562598840949761E+001	1.5886161E-002	-1.0168068E+000	0
6.2773857E+001	8.958999793190742E+001	-1.0186324E+000	-1.622701624894084E+001	1.6529365E-002	-1.0188068E+000	0
6.0535286E+001	8.978999792685499E+001	-1.0206249E+000	-1.685999909347419E+001	1.7207734E-002	-1.0208069E+000	0
5.8526474E+001	8.998999792180257E+001	-1.0226405E+000	-1.747312588310572E+001	1.7868726E-002	-1.0228068E+000	0
5.6592407E+001	9.018999791675014E+001	-1.0246421E+000	-1.810564642658034E+001	1.8551808E-002	-1.0248067E+000	0
5.4800785E+001	9.038999791169772E+001	-1.0266358E+000	-1.873396098857024E+001	1.9232955E-002	-1.0268068E+000	0
5.3075550E+001	9.058999790664529E+001	-1.0286585E+000	-1.938102356700936E+001	1.9936455E-002	-1.0288069E+000	0
5.1513294E+001	9.078999790159287E+001	-1.0306422E+000	-2.000730362744014E+001	2.0620370E-002	-1.0308068E+000	0
4.9986000E+001	9.098999789654044E+001	-1.0326439E+000	-2.065866292604244E+001	2.1333043E-002	-1.0328068E+000	0
4.8532291E+001	9.118999789148802E+001	-1.0346371E+000	-2.131853046830815E+001	2.2056943E-002	-1.0348068E+000	0
4.7175701E+001	9.138999788643559E+001	-1.0366479E+000	-2.197419194610208E+001	2.2779500E-002	-1.0368068E+000	0
4.5889580E+001	9.158999788138317E+001	-1.0386680E+000	-2.263407234621155E+001	2.3509288E-002	-1.0388068E+000	0
4.4668705E+001	9.178999787633074E+001	-1.0406564E+000	-2.329721618279845E+001	2.4244398E-002	-1.0408068E+000	0
4.3511570E+001	9.198999787127832E+001	-1.0426508E+000	-2.396261012702849E+001	2.4984635E-002	-1.0428067E+000	0
4.2413261E+001	9.218999786622589E+001	-1.0446272E+000	-2.462972952003099E+001	2.5728885E-002	-1.0448068E+000	0
4.1368420E+001	9.238999786117347E+001	-1.0466304E+000	-2.530022633913703E+001	2.6479986E-002	-1.0468068E+000	0
4.0330635E+001	9.258999785612104E+001	-1.0486258E+000	-2.600072612378597E+001	2.7265033E-002	-1.0488069E+000	0
3.9359322E+001	9.278999785106862E+001	-1.0506399E+000	-2.669354540501593E+001	2.8045302E-002	-1.0508069E+000	0
3.8419582E+001	9.298999784601619E+001	-1.0526329E+000	-2.739834362417122E+001	2.8840398E-002	-1.0528069E+000	0
3.7521637E+001	9.318999784096377E+001	-1.0546269E+000	-2.810716747210415E+001	2.9642576E-002	-1.0548068E+000	0
3.6689770E+001	9.338999783591134E+001	-1.0566525E+000	-2.879965107997810E+001	3.0431224E-002	-1.0568069E+000	0
3.5872601E+001	9.358999783085892E+001	-1.0586549E+000	-2.951151725359250E+001	3.1242512E-002	-1.0588069E+000	0
3.5059555E+001	9.378999782580649E+001	-1.0606440E+000	-3.025263881872587E+001	3.2087281E-002	-1.0608069E+000	0
3.4325294E+001	9.398999782075407E+001	-1.0626419E+000	-3.095798130451692E+001	3.2897245E-002	-1.0628068E+000	0
3.3600948E+001	9.418999781570164E+001	-1.0646653E+000	-3.168557191057261E+001	3.3734530E-002	-1.0648068E+000	0
3.2904892E+001	9.438999781064922E+001	-1.0666562E+000	-3.241634289261441E+001	3.4577094E-002	-1.0668069E+000	0
3.2245369E+001	9.458999780559679E+001	-1.0686548E+000	-3.314134216119376E+001	3.5416655E-002	-1.0688069E+000	0
3.1594494E+001	9.478999780054437E+001	-1.0706518E+000	-3.388728991603648E+001	3.6281485E-002	-1.0708069E+000	0
3.0940834E+001	9.498999779549195E+001	-1.0726471E+000	-3.466768590392962E+001	3.7186194E-002	-1.0728068E+000	0
3.0366631E+001	9.518999779043952E+001	-1.0746365E+000	-3.538872932279456E+001	3.8030017E-002	-1.0748068E+000	0
2.9788168E+001	9.538999778538710E+001	-1.0766671E+000	-3.614411896805103E+001	3.8915183E-002	-1.0768069E+000	0
2.9205999E+001	9.558999778033467E+001	-1.0786567E+000	-3.693270779872415E+001	3.9837711E-002	-1.0788069E+000	0
2.8672338E+001	9.578999777528225E+001	-1.0806549E+000	-3.768980452506167E+001	4.0729672E-002	-1.0808069E+000	0
2.8142521E+001	9.598999777022982E+001	-1.0826550E+000	-3.847043131646672E+001	4.1650202E-002	-1.0828068E+000	0
2.7631847E+001	9.618999776517740E+001	-1.0846591E+000	-3.925394796649337E+001	4.2577151E-002	-1.0848069E+000	0
2.7121611E+001	9.638999776012497E+001	-1.0866556E+000	-4.006604407622960E+001	4.3537993E-002	-1.0868069E+000	0
2.6637434E+001	9.658999775507255E+001	-1.0886608E+000	-4.086958431413677E+001	4.4493116E-002	-1.0888069E+000	0
2.6171335E+001	9.678999775002012E+001	-1.0906641E+000	-4.167399632876695E+001	4.5452334E-002	-1.0908068E+000	0
2.5696529E+001	9.698999774496770E+001	-1.0926684E+000	-4.252202356321220E+001	4.6462473E-002	-1.0928067E+000	0
2.5291599E+001	9.718999773991527E+001	-1.0946747E+000	-4.328214582861682E+001	4.7379870E-002	-1.0948069E+000	0
2.4851271E+001	9.738999773486285E+001	-1.0966710E+000	-4.412937426350823E+001	4.8395403E-002	-1.0968069E+000	0
2.4438194E+001	9.758999772981042E+001	-1.0986769E+000	-4.495736755184043E+001	4.9393620E-002	-1.0988069E+000	0
2.4020348E+001	9.778999772475800E+001	-1.1006743E+000	-4.582257818175549E+001	5.0435733E-002	-1.1008068E+000	0
2.3633762E+001	9.798999771970557E+001	-1.1026735E+000	-4.665670845432896E+001	5.1447116E-002	-1.1028068E+000	0
2.3230062E+001	9.818999771465315E+001	-1.1046638E+000	-4.755320185355311E+001	5.2530304E-002	-1.1048069E+000	0
2.2833097E+001	9.838999770960072E+001	-1.1066784E+000	-4.846816631861007E+001	5.3638671E-002	-1.1068069E+000	0
2.2471973E+001	9.858999770454830E+001	-1.1086549E+000	-4.933500276076819E+001	5.4695491E-002	-1.1088067E+000	0
2.2141289E+001	9.878999769949587E+001	-1.1106534E+000	-5.016209212344245E+001	5.5712700E-002	-1.1108068E+000	0
2.1819506E+001	9.898999769444345E+001	-1.1126516E+000	-5.099343684957694E+001	5.6737930E-002	-1.1128068E+000	0
2.1490011E+001	9.918999768939102E+001	-1.1146560E+000	-5.186856166521710E+001	5.7815600E-002	-1.1148068E+000	0
2.1169977E+001	9.938999768433860E+001	-1.1166605E+000	-5.274736281371179E+001	5.8900896E-002	-1.1168069E+000	0
2.0859777E+001	9.958999767928617E+001	-1.1186513E+000	-5.362718863227735E+001	5.9990123E-002	-1.1188068E+000	0
2.0534100E+001	9.978999767423375E+001	-1.1206598E+000	-5.457555245109711E+001	6.1160628E-002	-1.1208068E+000	0
2.0234913E+001	9.998999766918132E+001	-1.1226629E+000	-5.548147692972304E+001	6.2286995E-002	-1.1228068E+000	0
1.9930843E+001	1.001899976641289E+002	-1.1246741E+000	-5.642882752094170E+001	6.3464038E-002	-1.1248069E+000	0
1.9641552E+001	1.003899976590765E+002	-1.1266812E+000	-5.736212794202243E+001	6.4628832E-002	-1.1268070E+000	0
1.9331944E+001	1.005899976540240E+002	-1.1286824E+000	-5.838432280384751E+001	6.5897353E-002	-1.1288069E+000	0
1.9045364E+001	1.007899976489716E+002	-1.1306694E+000	-5.936716653430233E+001	6.7124635E-002	-1.1308069E+000	0
1.8780594E+001	1.009899976439192E+002	-1.1326840E+000	-6.031140316803180E+001	6.8313763E-002	-1.1328069E+000	0
1.8518766E+001	1.011899976388668E+002	-1.1346748E+000	-6.127161789372906E+001	6.9523357E-002	-1.1348069E+000	0
1.8278986E+001	1.013899976338143E+002	-1.1366868E+000	-6.218543821938192E+001	7.0685364E-002	-1.1368068E+000	0
1.8032124E+001	1.015899976287619E+002	-1.1386951E+000	-6.314814290221830E+001	7.1906485E-002	-1.1388068E+000	0
1.7794891E+001	1.017899976237095E+002	-1.1407237E+000	-6.410399651527416E+001	7.3124945E-002	-1.1408069E+000	0
1.7549049E+001	1.019899976186571E+002	-1.1427085E+000	-6.511512565937142E+001	7.4407607E-002	-1.1428068E+000	0
1.7328888E+001	1.021899976136046E+002	-1.1447072E+000	-6.605774058722614E+001	7.5616769E-002	-1.1448069E+000	0
1.7096004E+001	1.023899976085522E+002	-1.1467111E+000	-6.707479988744763E+001	7.6915421E-002	-1.1468068E+000	0
1.6875004E+001	1.025899976034998E+002	-1.1487186E+000	-6.807219856558470E+001	7.8195803E-002	-1.1488068E+000	0
1.6643185E+001	1.027899975984474E+002	-1.1507083E+000	-6.913991291236448E+001	7.9559870E-002	-1.1508069E+000	0
1.6430773E+001	1.029899975933949E+002	-1.1527181E+000	-7.015604312403678E+001	8.0870137E-002	-1.1528069E+000	0
1.6181816E+001	1.031899975883425E+002	-1.1547345E+000	-7.136000572418629E+001	8.2401857E-002	-1.1548069E+000	0
1.5942108E+001	1.033899975832901E+002	-1.1567135E+000	-7.255712282144032E+001	8.3927803E-002	-1.1568069E+000	0
1.5740987E+001	1.035899975782377E+002	-1.1587188E+000	-7.361157272516206E+001	8.5295118E-002	-1.1588069E+000	0
1.5546927E+001	1.037899975731852E+002	-1.1607337E+000	-7.466000434546777E+001	8.6660385E-002	-1.1608068E+000	0
1.5372642E+001	1.039899975681328E+002	-1.1627278E+000	-7.563617491559899E+001	8.7944284E-002	-1.1628069E+000	0
1.5222529E+001	1.041899975630804E+002	-1.1647159E+000	-7.651264000533627E+001	8.9115486E-002	-1.1648068E+000	0
1.5050453E+001	1.043899975580280E+002	-1.1667204E+000	-7.752061344544620E+001	9.0444878E-002	-1.1668069E+000	0
1.4859453E+001	1.045899975529755E+002	-1.1687096E+000	-7.865091597952755E+001	9.1920085E-002	-1.1688069E+000	0
1.4672556E+001	1.047899975479231E+002	-1.1707096E+000	-7.978907140582612E+001	9.3409836E-002	-1.1708068E+000	0
1.4528457E+001	1.049899975428707E+002	-1.1727216E+000	-8.071893910648021E+001	9.4660848E-002	-1.1728069E+000	0
1.4384046E+001	1.051899975378183E+002	-1.1747099E+000	-8.166756215063106E+001	9.5935695E-002	-1.1748068E+000	0
1.4247143E+001	1.053899975327658E+002	-1.1767209E+000	-8.259346514115782E+001	9.7189456E-002	-1.1768068E+000	0
1.4091716E+001	1.055899975277134E+002	-1.1787063E+000	-8.364533421566182E+001	9.8593280E-002	-1.1788069E+000	0
1.3918545E+001	1.057899975226610E+002	-1.1807029E+000	-8.482948057343378E+001	1.0015842E-001	-1.1808069E+000	0
1.3789158E+001	1.059899975176086E+002	-1.1827174E+000	-8.577155129493212E+001	1.0144351E-001	-1.1828067E+000	0
1.3644402E+001	1.061899975125561E+002	-1.1847019E+000	-8.682695869469615E+001	1.0286406E-001	-1.1848068E+000	0
1.3460480E+001	1.063899975075037E+002	-1.1867163E+000	-8.816300338952749E+001	1.0462447E-001	-1.1868069E+000	0
1.3310643E+001	1.065899975024513E+002	-1.1887051E+000	-8.930486002584757E+001	1.0615714E-001	-1.1888068E+000	0
1.3179068E+001	1.067899974973989E+002	-1.1907020E+000	-9.034796757114157E+001	1.0757750E-001	-1.1908069E+000	0
1.2964717E+001	1.069899974923464E+002	-1.1927088E+000	-9.199651781934153E+001	1.0972506E-001	-1.1928068E+000	0
1.2857222E+001	1.071899974872940E+002	-1.1947005E+000	-9.292057825864850E+001	1.1101226E-001	-1.1948069E+000	0
1.2757259E+001	1.073899974822416E+002	-1.1967008E+000	-9.380548024664080E+001	1.1225709E-001	-1.1968069E+000	0
1.2637575E+001	1.075899974771892E+002	-1.1986920E+000	-9.485142467784266E+001	1.1369764E-001	-1.1988068E+000	0
1.2490724E+001	1.077899974721367E+002	-1.2007192E+000	-9.612887766355811E+001	1.1542379E-001	-1.2008069E+000	0
1.2362677E+001	1.079899974670843E+002	-1.2026930E+000	-9.728418700062494E+001	1.1700301E-001	-1.2028068E+000	0
1.2313249E+001	1.081899974620319E+002	-1.2047036E+000	-9.783799445061504E+001	1.1786578E-001	-1.2048068E+000	0
1.2183355E+001	1.083899974569795E+002	-1.2066914E+000	-9.904426139444490E+001	1.1951586E-001	-1.2068069E+000	0
1.2072708E+001	1.085899974519270E+002	-1.2087137E+000	-1.001195110431336E+002	1.2101582E-001	-1.2088069E+000	0
1.1911303E+001	1.087899974468746E+002	-1.2107193E+000	-1.016445840156537E+002	1.2306307E-001	-1.2108068E+000	0
1.1757297E+001	1.089899974418222E+002	-1.2127221E+000	-1.031463355444998E+002	1.2508784E-001	-1.2128068E+000	0
1.1651073E+001	1.091899974367698E+002	-1.2147170E+000	-1.042579496982685E+002	1.2664391E-001	-1.2148069E+000	0
1.1555548E+001	1.093899974317173E+002	-1.2167139E+000	-1.052926190185979E+002	1.2811099E-001	-1.2168069E+000	0
1.1438351E+001	1.095899974266649E+002	-1.2187126E+000	-1.065461824908009E+002	1.2984917E-001	-1.2188069E+000	0
1.1340165E+001	1.097899974216125E+002	-1.2207065E+000	-1.076445035966888E+002	1.3140234E-001	-1.2208068E+000	0
1.1253616E+001	1.099899974165601E+002	-1.2226996E+000	-1.086494852636945E+002	1.3284568E-001	-1.2228068E+000	0
1.1082678E+001	1.101999974112550E+002	-1.2247709E+000	-1.105121793649635E+002	1.3535210E-001	-1.2249069E+000	0
1.0996945E+001	1.104099974059500E+002	-1.2268641E+000	-1.115640835989084E+002	1.3687398E-001	-1.2270068E+000	0
1.0874464E+001	1.106099974008976E+002	-1.2288605E+000	-1.130042345042671E+002	1.3886644E-001	-1.2290069E+000	0
1.0812356E+001	1.108099973958451E+002	-1.2308598E+000	-1.138382592439111E+002	1.4011893E-001	-1.2310069E+000	0
1.0761248E+001	1.110099973907927E+002	-1.2328647E+000	-1.145652237273670E+002	1.4124343E-001	-1.2330068E+000	0
1.0668230E+001	1.112099973857403E+002	-1.2348850E+000	-1.157534967669008E+002	1.4294225E-001	-1.2350069E+000	0
1.0599871E+001	1.114099973806879E+002	-1.2368777E+000	-1.166879939200385E+002	1.4432877E-001	-1.2370069E+000	0
1.0499859E+001	1.116099973756354E+002	-1.2388757E+000	-1.179897512038001E+002	1.4617464E-001	-1.2390069E+000	0
1.0405360E+001	1.118099973705830E+002	-1.2408584E+000	-1.192518483830152E+002	1.4797466E-001	-1.2410069E+000	0
1.0369173E+001	1.120099973655306E+002	-1.2428676E+000	-1.198617894492718E+002	1.4897233E-001	-1.2430068E+000	0
1.0289178E+001	1.122099973604782E+002	-1.2448597E+000	-1.209872902418207E+002	1.5061221E-001	-1.2450069E+000	0
1.0197538E+001	1.124099973554257E+002	-1.2468807E+000	-1.222727089987866E+002	1.5245947E-001	-1.2470069E+000	0
1.0110330E+001	1.126099973503733E+002	-1.2488743E+000	-1.235245830520755E+002	1.5426669E-001	-1.2490069E+000	0
1.0022605E+001	1.128099973453209E+002	-1.2508872E+000	-1.248065943285444E+002	1.5611896E-001	-1.2510068E+000	0
9.9537210E+000	1.130099973402685E+002	-1.2528864E+000	-1.258711653426117E+002	1.5770227E-001	-1.2530069E+000	0
9.8495779E+000	1.132099973352160E+002	-1.2548760E+000	-1.274040413562402E+002	1.5987627E-001	-1.2550069E+000	0
9.7929049E+000	1.134099973301636E+002	-1.2568958E+000	-1.283475922208256E+002	1.6131955E-001	-1.2570070E+000	0
9.7326527E+000	1.136099973251112E+002	-1.2588842E+000	-1.293464631234169E+002	1.6283222E-001	-1.2590069E+000	0
9.6733027E+000	1.138099973200588E+002	-1.2608945E+000	-1.303478871137922E+002	1.6435494E-001	-1.2610068E+000	0
9.5620193E+000	1.140099973150063E+002	-1.2629231E+000	-1.320770300369952E+002	1.6680314E-001	-1.2630069E+000	0
9.5270338E+000	1.142099973099539E+002	-1.2649046E+000	-1.327700325215476E+002	1.6794142E-001	-1.2650069E+000	0
9.4676275E+000	1.144099973049015E+002	-1.2668978E+000	-1.338136455704571E+002	1.6952822E-001	-1.2670069E+000	0
9.3279161E+000	1.146099972998491E+002	-1.2689071E+000	-1.360332778424632E+002	1.7261359E-001	-1.2690068E+000	0
9.2506762E+000	1.148099972947966E+002	-1.2709237E+000	-1.373871162667567E+002	1.7460854E-001	-1.2710068E+000	0
9.1692247E+000	1.150099972897442E+002	-1.2729228E+000	-1.388255616196696E+002	1.7671421E-001	-1.2730068E+000	0
9.1092329E+000	1.152099972846918E+002	-1.2749213E+000	-1.399592390990301E+002	1.7843701E-001	-1.2750070E+000	0
9.0659666E+000	1.154099972796394E+002	-1.2769060E+000	-1.408460961912756E+002	1.7984723E-001	-1.2770069E+000	0
9.0092621E+000	1.156099972745869E+002	-1.2789005E+000	-1.419539630894219E+002	1.8154499E-001	-1.2790068E+000	0
8.9291039E+000	1.158099972695345E+002	-1.2809010E+000	-1.434523593941510E+002	1.8374826E-001	-1.2810069E+000	0
8.8592663E+000	1.160099972644821E+002	-1.2828932E+000	-1.448080613359034E+002	1.8577327E-001	-1.2830069E+000	0
8.8565044E+000	1.162099972594297E+002	-1.2848969E+000	-1.450794633229571E+002	1.8641214E-001	-1.2850069E+000	0
8.8081331E+000	1.164099972543772E+002	-1.2868956E+000	-1.461031073075030E+002	1.8801945E-001	-1.2870069E+000	0
8.7288980E+000	1.166099972493248E+002	-1.2888885E+000	-1.476576412432319E+002	1.9031423E-001	-1.2890068E+000	0
8.7022915E+000	1.168099972442724E+002	-1.2908989E+000	-1.483401187985392E+002	1.9149210E-001	-1.2910068E+000	0
8.6771736E+000	1.170099972392200E+002	-1.2929035E+000	-1.490005340922172E+002	1.9264331E-001	-1.2930068E+000	0
8.5845327E+000	1.172099972341675E+002	-1.2948939E+000	-1.508403496871999E+002	1.9532225E-001	-1.2950069E+000	0
8.4539881E+000	1.174099972291151E+002	-1.2969071E+000	-1.534077283627862E+002	1.9895557E-001	-1.2970068E+000	0
8.3701735E+000	1.176099972240627E+002	-1.2989103E+000	-1.551831949854650E+002	2.0156905E-001	-1.2990068E+000	0
8.3663301E+000	1.178099972190103E+002	-1.3009307E+000	-1.554959864616386E+002	2.0228951E-001	-1.3010068E+000	0
8.3044043E+000	1.180099972139578E+002	-1.3029209E+000	-1.568951695738465E+002	2.0442200E-001	-1.3030069E+000	0
8.2575598E+000	1.182099972089054E+002	-1.3049195E+000	-1.580272574781561E+002	2.0621285E-001	-1.3050069E+000	0
8.2023706E+000	1.184099972038530E+002	-1.3069082E+000	-1.593329962159505E+002	2.0823361E-001	-1.3070068E+000	0
8.1570253E+000	1.186099971988006E+002	-1.3089101E+000	-1.604641526194114E+002	2.1003315E-001	-1.3090069E+000	0
8.1068163E+000	1.188099971937481E+002	-1.3109021E+000	-1.617036861227218E+002	2.1197771E-001	-1.3110069E+000	0
8.0943842E+000	1.190099971886957E+002	-1.3128921E+000	-1.621978871503384E+002	2.1294832E-001	-1.3130069E+000	0
7.9876342E+000	1.192099971836433E+002	-1.3149074E+000	-1.646178855539174E+002	2.1645728E-001	-1.3150069E+000	0
7.9034252E+000	1.194099971785909E+002	-1.3168941E+000	-1.666232099597955E+002	2.1942511E-001	-1.3170068E+000	0
7.8646708E+000	1.196099971735384E+002	-1.3189186E+000	-1.677016869672570E+002	2.2118486E-001	-1.3190069E+000	0
7.8347626E+000	1.198099971684860E+002	-1.3208991E+000	-1.685946604367559E+002	2.2269654E-001	-1.3210069E+000	0
7.7985930E+000	1.200099971634336E+002	-1.3229247E+000	-1.696363347966121E+002	2.2441611E-001	-1.3230069E+000	0
7.7309275E+000	1.202099971583812E+002	-1.3248962E+000	-1.713760988696089E+002	2.2705555E-001	-1.3250070E+000	0
7.6985307E+000	1.204099971533287E+002	-1.3269070E+000	-1.723584791548947E+002	2.2870368E-001	-1.3270069E+000	0
7.6888413E+000	1.206099971482763E+002	-1.3289101E+000	-1.728361946752557E+002	2.2968377E-001	-1.3290068E+000	0
7.6407833E+000	1.208099971432239E+002	-1.3309076E+000	-1.741847026202136E+002	2.3182374E-001	-1.3310068E+000	0
7.6286530E+000	1.210099971381715E+002	-1.3328731E+000	-1.747193296188125E+002	2.3287870E-001	-1.3330069E+000	0
7.5305305E+000	1.212099971331190E+002	-1.3348880E+000	-1.772634768788776E+002	2.3662688E-001	-1.3350068E+000	0
7.4688377E+000	1.214099971280666E+002	-1.3368952E+000	-1.789964158399847E+002	2.3929946E-001	-1.3370069E+000	0
7.4416418E+000	1.216099971230142E+002	-1.3389217E+000	-1.799228908134428E+002	2.4090266E-001	-1.3390068E+000	0
7.3348670E+000	1.218099971179618E+002	-1.3409100E+000	-1.828131231266898E+002	2.4513593E-001	-1.3410068E+000	0
7.3352084E+000	1.220099971129093E+002	-1.3428998E+000	-1.830758935837521E+002	2.4585257E-001	-1.3430068E+000	0
7.3261142E+000	1.222099971078569E+002	-1.3449097E+000	-1.835774872394920E+002	2.4689513E-001	-1.3450069E+000	0
7.2947183E+000	1.224099971028045E+002	-1.3469143E+000	-1.846424064009097E+002	2.4869749E-001	-1.3470069E+000	0
7.1562986E+000	1.226099970977521E+002	-1.3489090E+000	-1.884925608278131E+002	2.5425932E-001	-1.3490069E+000	0
7.0489521E+000	1.228100970926971E+002	-1.3509257E+000	-1.916491506362831E+002	2.5890377E-001	-1.3510077E+000	0
7.0457730E+000	1.230101970876422E+002	-1.3529273E+000	-1.920197208313020E+002	2.5978872E-001	-1.3530083E+000	0
7.0299625E+000	1.232103970825847E+002	-1.3549341E+000	-1.927370298141255E+002	2.6114598E-001	-1.3550109E+000	0
7.0402589E+000	1.234103970775323E+002	-1.3569285E+000	-1.927384291754834E+002	2.6153225E-001	-1.3570107E+000	0
7.0107651E+000	1.236103970724798E+002	-1.3589418E+000	-1.938364479687752E+002	2.6341245E-001	-1.3590108E+000	0
6.9773626E+000	1.238103970674274E+002	-1.3609198E+000	-1.950478858288188E+002	2.6544455E-001	-1.3610108E+000	0
6.8981080E+000	1.240105970623699E+002	-1.3629401E+000	-1.975817241281816E+002	2.6929206E-001	-1.3630122E+000	0
6.8779407E+000	1.242107970573124E+002	-1.3649436E+000	-1.984523683935067E+002	2.7087629E-001	-1.3650148E+000	0
6.7841287E+000	1.244110970522524E+002	-1.3669511E+000	-2.014925141579697E+002	2.7543041E-001	-1.3670171E+000	0
6.6835079E+000	1.246114970471899E+002	-1.3689457E+000	-2.048244390527466E+002	2.8039354E-001	-1.3690217E+000	0
6.6433997E+000	1.248115970421350E+002	-1.3709637E+000	-2.063647758825551E+002	2.8291860E-001	-1.3710228E+000	0
6.6284447E+000	1.250117970370775E+002	-1.3729641E+000	-2.071321772148499E+002	2.8438506E-001	-1.3730247E+000	0
6.5965829E+000	1.252118970320225E+002	-1.3749521E+000	-2.084339826560067E+002	2.8658673E-001	-1.3750256E+000	0
6.5213265E+000	1.254119970269676E+002	-1.3769511E+000	-2.111458572746670E+002	2.9073751E-001	-1.3770269E+000	0
6.4576588E+000	1.256119970219152E+002	-1.3789560E+000	-2.135380643533208E+002	2.9445958E-001	-1.3790269E+000	0
6.3911700E+000	1.258120970168602E+002	-1.3809643E+000	-2.160737856197834E+002	2.9839018E-001	-1.3810277E+000	0
6.3669887E+000	1.260123970118002E+002	-1.3829647E+000	-2.172086081445241E+002	3.0039185E-001	-1.3830304E+000	0
6.3522978E+000	1.262127970067377E+002	-1.3849597E+000	-2.180249991303053E+002	3.0195585E-001	-1.3850344E+000	0
6.3223572E+000	1.264130970016777E+002	-1.3869705E+000	-2.193755428374739E+002	3.0426741E-001	-1.3870376E+000	0
6.2739611E+000	1.266133969966177E+002	-1.3889771E+000	-2.213875808543680E+002	3.0750227E-001	-1.3890407E+000	0
6.2211275E+000	1.268133969915652E+002	-1.3909914E+000	-2.235915302678832E+002	3.1101391E-001	-1.3910409E+000	0
6.1736856E+000	1.270133969865128E+002	-1.3929641E+000	-2.256292609238574E+002	3.1429347E-001	-1.3930410E+000	0
6.1207757E+000	1.272133969814604E+002	-1.3949763E+000	-2.279084076697600E+002	3.1792682E-001	-1.3950409E+000	0
6.0211086E+000	1.274135969764029E+002	-1.3969785E+000	-2.320135026515136E+002	3.2411787E-001	-1.3970425E+000	0
6.0242758E+000	1.276137969713454E+002	-1.3989676E+000	-2.322217025843333E+002	3.2487065E-001	-1.3990449E+000	0
5.9999161E+000	1.278137969662930E+002	-1.4009664E+000	-2.334976736358499E+002	3.2712239E-001	-1.4010448E+000	0
5.9492612E+000	1.280137969612406E+002	-1.4029704E+000	-2.358226342752666E+002	3.3085218E-001	-1.4030449E+000	0
5.8397160E+000	1.282138969561856E+002	-1.4049757E+000	-2.405897152199545E+002	3.3802268E-001	-1.4050459E+000	0
5.7679095E+000	1.284139969511307E+002	-1.4069961E+000	-2.439351952827429E+002	3.4321588E-001	-1.4070469E+000	0
5.7715721E+000	1.286139969460783E+002	-1.4089947E+000	-2.441266710839309E+002	3.4397319E-001	-1.4090468E+000	0
5.7650280E+000	1.288139969410258E+002	-1.4109850E+000	-2.447490237640421E+002	3.4533721E-001	-1.4110469E+000	0
5.6668506E+000	1.290139969359734E+002	-1.4129879E+000	-2.493427201960913E+002	3.5231826E-001	-1.4130470E+000	0
5.6228228E+000	1.292139969309210E+002	-1.4150187E+000	-2.516562751847864E+002	3.5609832E-001	-1.4150470E+000	0
5.6281161E+000	1.294140969258660E+002	-1.4169879E+000	-2.517694939855928E+002	3.5675433E-001	-1.4170476E+000	0
5.5698881E+000	1.296142969208086E+002	-1.4189972E+000	-2.547622452733644E+002	3.6150691E-001	-1.4190496E+000	0
5.5363445E+000	1.298146969157460E+002	-1.4209944E+000	-2.566665424445391E+002	3.6472172E-001	-1.4210534E+000	0
5.4421282E+000	1.300149969106860E+002	-1.4229840E+000	-2.614756429221570E+002	3.7207565E-001	-1.4230567E+000	0
5.4364147E+000	1.302150969056311E+002	-1.4249965E+000	-2.621206316618868E+002	3.7352097E-001	-1.4250578E+000	0
5.4201875E+000	1.304153969005711E+002	-1.4270064E+000	-2.632761938795538E+002	3.7569681E-001	-1.4270606E+000	0
5.4360809E+000	1.306155968955136E+002	-1.4290036E+000	-2.628738655202787E+002	3.7564769E-001	-1.4290627E+000	0
5.4324760E+000	1.308155968904612E+002	-1.4310002E+000	-2.634158308349229E+002	3.7694812E-001	-1.4310629E+000	0
5.4373603E+000	1.310156968854062E+002	-1.4330094E+000	-2.635487259952442E+002	3.7766778E-001	-1.4330636E+000	0
5.3081326E+000	1.312159968803462E+002	-1.4350222E+000	-2.703440763295330E+002	3.8794976E-001	-1.4350669E+000	0
5.2000771E+000	1.314159968752938E+002	-1.4370333E+000	-2.763484586966570E+002	3.9712194E-001	-1.4370669E+000	0
5.2380233E+000	1.316160968702388E+002	-1.4390224E+000	-2.747262240354298E+002	3.9533719E-001	-1.4390676E+000	0
5.2264471E+000	1.318161968651839E+002	-1.4410374E+000	-2.757202819685813E+002	3.9732325E-001	-1.4410689E+000	0
5.1444750E+000	1.320163968601264E+002	-1.4430373E+000	-2.805023406571336E+002	4.0477532E-001	-1.4430702E+000	0
5.0620770E+000	1.322167968550639E+002	-1.4450542E+000	-2.854666360571964E+002	4.1251475E-001	-1.4450743E+000	0
5.0189013E+000	1.324169968500064E+002	-1.4470459E+000	-2.883192657894560E+002	4.1721120E-001	-1.4470769E+000	0
4.9231424E+000	1.326170968449514E+002	-1.4490646E+000	-2.943373389210494E+002	4.2651382E-001	-1.4490777E+000	0
4.9106278E+000	1.328172968398940E+002	-1.4510481E+000	-2.954913591617997E+002	4.2877218E-001	-1.4510797E+000	0
4.8378916E+000	1.330175968348340E+002	-1.4530450E+000	-3.003467499047028E+002	4.3641734E-001	-1.4530823E+000	0
4.7250223E+000	1.332178968297740E+002	-1.4550576E+000	-3.079472404947292E+002	4.4808099E-001	-1.4550856E+000	0
4.7233195E+000	1.334180968247165E+002	-1.4570718E+000	-3.084847076823714E+002	4.4948435E-001	-1.4570876E+000	0
4.7335191E+000	1.336182968196590E+002	-1.4590503E+000	-3.082379691596698E+002	4.4973469E-001	-1.4590899E+000	0
4.7743535E+000	1.338181968146091E+002	-1.4610730E+000	-3.060253285864311E+002	4.4712535E-001	-1.4610889E+000	0
4.7601914E+000	1.340182968095542E+002	-1.4630560E+000	-3.073523286548095E+002	4.4967365E-001	-1.4630897E+000	0
4.7257752E+000	1.342184968044967E+002	-1.4650571E+000	-3.100141299559687E+002	4.5418841E-001	-1.4650917E+000	0
4.6857615E+000	1.344187967994367E+002	-1.4670693E+000	-3.130908905590877E+002	4.5932603E-001	-1.4670944E+000	0
4.6149859E+000	1.346189967943792E+002	-1.4690795E+000	-3.183280574361747E+002	4.6764922E-001	-1.4690968E+000	0
4.5958281E+000	1.348189967893268E+002	-1.4710673E+000	-3.200875580997413E+002	4.7087035E-001	-1.4710969E+000	0
4.5740113E+000	1.350189967842744E+002	-1.4730701E+000	-3.220521495196285E+002	4.7440541E-001	-1.4730970E+000	0
4.5728045E+000	1.352189967792219E+002	-1.4750669E+000	-3.225738011314761E+002	4.7581795E-001	-1.4750968E+000	0
4.5878105E+000	1.354190967741670E+002	-1.4770736E+000	-3.219560902696580E+002	4.7555283E-001	-1.4770977E+000	0
4.5928030E+000	1.356190967691145E+002	-1.4790902E+000	-3.220452068187724E+002	4.7633392E-001	-1.4790976E+000	0
4.5608826E+000	1.358192967640571E+002	-1.4810780E+000	-3.247349458898298E+002	4.8095781E-001	-1.4810996E+000	0
4.4804230E+000	1.360194967589996E+002	-1.4830989E+000	-3.310175849687716E+002	4.9093181E-001	-1.4831018E+000	0
4.3851027E+000	1.362196967539421E+002	-1.4850743E+000	-3.386635155182214E+002	5.0294048E-001	-1.4851036E+000	0
4.4016786E+000	1.364198967488846E+002	-1.4870987E+000	-3.378480801432966E+002	5.0241345E-001	-1.4871056E+000	0
4.3097677E+000	1.366199967438297E+002	-1.4890831E+000	-3.455135183334340E+002	5.1449835E-001	-1.4891067E+000	0
4.2847419E+000	1.368199967387773E+002	-1.4910749E+000	-3.479964503874317E+002	5.1888877E-001	-1.4911066E+000	0
4.2904024E+000	1.370199967337248E+002	-1.4930676E+000	-3.480017635989889E+002	5.1959014E-001	-1.4931066E+000	0
4.2806635E+000	1.372199967286724E+002	-1.4950897E+000	-3.492658601553248E+002	5.2218378E-001	-1.4951067E+000	0
4.2773595E+000	1.374199967236200E+002	-1.4970928E+000	-3.500039742138920E+002	5.2398843E-001	-1.4971067E+000	0
4.2629628E+000	1.376199967185676E+002	-1.4990927E+000	-3.516551184275804E+002	5.2716362E-001	-1.4991066E+000	0
4.2200165E+000	1.378199967135151E+002	-1.5010839E+000	-3.557056854965992E+002	5.3394407E-001	-1.5011067E+000	0
4.1770821E+000	1.380199967084627E+002	-1.5030828E+000	-3.598403508171195E+002	5.4086983E-001	-1.5031067E+000	0
4.1519489E+000	1.382199967034103E+002	-1.5051281E+000	-3.625112464130616E+002	5.4562587E-001	-1.5051067E+000	0
4.1130409E+000	1.384199966983579E+002	-1.5071230E+000	-3.664254792812471E+002	5.5224824E-001	-1.5071067E+000	0
4.0375834E+000	1.386199966933054E+002	-1.5091127E+000	-3.737663207173068E+002	5.6405550E-001	-1.5091066E+000	0
4.0292668E+000	1.388199966882530E+002	-1.5111315E+000	-3.750388261877224E+002	5.6673300E-001	-1.5111067E+000	0
3.9437358E+000	1.390199966832006E+002	-1.5131227E+000	-3.836774915340537E+002	5.8055109E-001	-1.5131066E+000	0
3.9307027E+000	1.392199966781482E+002	-1.5151194E+000	-3.854576649633386E+002	5.8401442E-001	-1.5151067E+000	0
3.9571514E+000	1.394199966730957E+002	-1.5171248E+000	-3.833881040646647E+002	5.8164757E-001	-1.5171068E+000	0
3.9596698E+000	1.396199966680433E+002	-1.5191262E+000	-3.836497084688963E+002	5.8281231E-001	-1.5191066E+000	0
3.9499929E+000	1.398199966629909E+002	-1.5211124E+000	-3.850924512858837E+002	5.8576894E-001	-1.5211067E+000	0
3.8332953E+000	1.400199966579385E+002	-1.5231099E+000	-3.973369611515227E+002	6.0518789E-001	-1.5231066E+000	0
3.7959552E+000	1.402199966528860E+002	-1.5251292E+000	-4.017774402938471E+002	6.1276251E-001	-1.5251067E+000	0
3.7253618E+000	1.404199966478336E+002	-1.5271140E+000	-4.099236861680920E+002	6.2600023E-001	-1.5271068E+000	0
3.7288725E+000	1.406199966427812E+002	-1.5291214E+000	-4.100760614693563E+002	6.2705606E-001	-1.5291066E+000	0
3.6703732E+000	1.408199966377288E+002	-1.5311143E+000	-4.171549533013576E+002	6.3871193E-001	-1.5311067E+000	0
3.6668847E+000	1.410199966326763E+002	-1.5331249E+000	-4.181001166302613E+002	6.4099973E-001	-1.5331066E+000	0
3.6202118E+000	1.412199966276239E+002	-1.5351044E+000	-4.240371769539638E+002	6.5094131E-001	-1.5351067E+000	0
3.5417056E+000	1.414199966225715E+002	-1.5371243E+000	-4.340067959696808E+002	6.6712236E-001	-1.5371065E+000	0
3.4743354E+000	1.416199966175191E+002	-1.5395484E+000	-4.431202417836450E+002	6.8220508E-001	-1.5391066E+000	0
3.4664218E+000	1.418199966124666E+002	-1.5417154E+000	-4.447569941349852E+002	6.8568867E-001	-1.5411067E+000	0
3.4780495E+000	1.420199966074142E+002	-1.5437020E+000	-4.438412861423976E+002	6.8515867E-001	-1.5431066E+000	0
3.4631317E+000	1.422199966023618E+002	-1.5457087E+000	-4.463326392833337E+002	6.8990022E-001	-1.5451066E+000	0
3.4817305E+000	1.424199965973094E+002	-1.5477087E+000	-4.445228487693803E+002	6.8799192E-001	-1.5471067E+000	0
3.4927967E+000	1.426199965922569E+002	-1.5497156E+000	-4.436890485378617E+002	6.8759185E-001	-1.5491066E+000	0
3.5062327E+000	1.428199965872045E+002	-1.5517067E+000	-4.425566605721488E+002	6.8671811E-001	-1.5511067E+000	0
3.5044744E+000	1.430199965821521E+002	-1.5537121E+000	-4.433509719615067E+002	6.8883979E-001	-1.5531067E+000	0
3.5323207E+000	1.432199965770997E+002	-1.5557055E+000	-4.404202405968481E+002	6.8516421E-001	-1.5551066E+000	0
3.5056493E+000	1.434199965720472E+002	-1.5576990E+000	-4.443396434654187E+002	6.9214737E-001	-1.5571067E+000	0
3.4835613E+000	1.436199965669948E+002	-1.5596910E+000	-4.477288701972175E+002	6.9831866E-001	-1.5591066E+000	0
3.4555159E+000	1.438199965619424E+002	-1.5617226E+000	-4.519506543217868E+002	7.0582157E-001	-1.5611066E+000	0
3.4784093E+000	1.440199965568900E+002	-1.5637127E+000	-4.495482148280748E+002	7.0296425E-001	-1.5631067E+000	0
3.4750156E+000	1.442199965518375E+002	-1.5656995E+000	-4.505589690349016E+002	7.0543993E-001	-1.5651066E+000	0
3.4271431E+000	1.444199965467851E+002	-1.5677230E+000	-4.574431335855807E+002	7.1714413E-001	-1.5671067E+000	0
3.4152372E+000	1.446199965417327E+002	-1.5697250E+000	-4.596240318540549E+002	7.2148335E-001	-1.5691068E+000	0
3.4028480E+000	1.448199965366803E+002	-1.5717316E+000	-4.618870878327721E+002	7.2596252E-001	-1.5711067E+000	0
3.2887118E+000	1.450199965316278E+002	-1.5737441E+000	-4.785290331635078E+002	7.5308222E-001	-1.5731066E+000	0
3.3193560E+000	1.452199965265754E+002	-1.5757293E+000	-4.747093323385361E+002	7.4801338E-001	-1.5751067E+000	0
3.2298653E+000	1.454199965215230E+002	-1.5777389E+000	-4.884844133762008E+002	7.7070087E-001	-1.5771067E+000	0
3.1665285E+000	1.456199965164706E+002	-1.5797292E+000	-4.988836145119885E+002	7.8810102E-001	-1.5791068E+000	0
3.2047966E+000	1.458199965114181E+002	-1.5817325E+000	-4.935516264952239E+002	7.8066665E-001	-1.5811067E+000	0
3.2108953E+000	1.460199965063657E+002	-1.5837163E+000	-4.932319843698806E+002	7.8113949E-001	-1.5831066E+000	0
3.1985805E+000	1.462199965013133E+002	-1.5857385E+000	-4.957631964391585E+002	7.8615081E-001	-1.5851067E+000	0
3.1297593E+000	1.464199964962609E+002	-1.5877326E+000	-5.073017982041774E+002	8.0545956E-001	-1.5871067E+000	0
3.1154552E+000	1.466199964912084E+002	-1.5897527E+000	-5.102794421924768E+002	8.1121808E-001	-1.5891067E+000	0
3.0673890E+000	1.468199964861560E+002	-1.5917375E+000	-5.189226118593783E+002	8.2598859E-001	-1.5911068E+000	0
3.0331836E+000	1.470199964811036E+002	-1.5937512E+000	-5.254384195020666E+002	8.3741808E-001	-1.5931066E+000	0
2.9972765E+000	1.472199964760512E+002	-1.5957569E+000	-5.324022987780936E+002	8.4958464E-001	-1.5951067E+000	0
2.9586492E+000	1.474199964709987E+002	-1.5977750E+000	-5.400352929692690E+002	8.6285490E-001	-1.5971068E+000	0
2.8836391E+000	1.476199964659463E+002	-1.5997585E+000	-5.547707101125579E+002	8.8749915E-001	-1.5991067E+000	0
2.9010627E+000	1.478199964608939E+002	-1.6017677E+000	-5.521313592517172E+002	8.8438618E-001	-1.6011068E+000	0
2.9160380E+000	1.480199964558415E+002	-1.6037730E+000	-5.499835667253356E+002	8.8204879E-001	-1.6031066E+000	0
2.9155486E+000	1.482199964507890E+002	-1.6057692E+000	-5.507605515002115E+002	8.8439429E-001	-1.6051067E+000	0
2.9129214E+000	1.484199964457366E+002	-1.6077616E+000	-5.519412831114004E+002	8.8739002E-001	-1.6071068E+000	0
2.9438601E+000	1.486199964406842E+002	-1.6097686E+000	-5.468224050431054E+002	8.8025755E-001	-1.6091067E+000	0
2.9401150E+000	1.488199964356318E+002	-1.6117713E+000	-5.482001282482206E+002	8.8357323E-001	-1.6111065E+000	0
2.9669800E+000	1.490199964305793E+002	-1.6137651E+000	-5.439083359992974E+002	8.7774032E-001	-1.6131066E+000	0
2.9210188E+000	1.492199964255269E+002	-1.6157726E+000	-5.531537982352447E+002	8.9377075E-001	-1.6151067E+000	0
2.8299556E+000	1.494199964204745E+002	-1.6177860E+000	-5.716648381940377E+002	9.2483139E-001	-1.6171068E+000	0
2.8756590E+000	1.496199964154221E+002	-1.6197820E+000	-5.632733256108650E+002	9.1237998E-001	-1.6191067E+000	0
2.9135046E+000	1.498199964103696E+002	-1.6217965E+000	-5.566480110540406E+002	9.0276980E-001	-1.6211066E+000	0
2.8500040E+000	1.500199964053172E+002	-1.6237961E+000	-5.697522072089241E+002	9.2516142E-001	-1.6231066E+000	0
2.7543662E+000	1.501599964017805E+002	-1.6251862E+000	-5.900399742904979E+002	9.5892483E-001	-1.6245065E+000	0
2.7229638E+000	1.502069964005932E+002	-1.6256930E+000	-5.970306683708641E+002	9.7058856E-001	-1.6250063E+000	1