EC-Lab ASCII FILE
Nb header lines : 66                          

Linear Sweep Voltammetry

Run on channel : 1 (SN 1340)
User : 
Electrode connection : standard
Potential control : Ewe
Ewe ctrl range : min = -10.00 V, max = 10.00 V
Ewe,I filtering : 50 kHz
Channel : Grounded
Acquisition started on : 02/10/2026 15:07:03.670
Technique started on : 02/10/2026 15:07:06.351
Loaded Setting File :  NONE
Saved on :
	File : Ni10Co10_polished_2-10_02_LSV_C01.mpr
	Directory : C:\Users\volt\Documents\Platalytix\
	Host : 127.0.0.1
Device : SP-200 (SN 0262)
Address : USB
EC-LAB for windows v11.60 (software)
Internet server v11.60 (firmware)
Command interpretor v11.60 (firmware)
Electrode material : 
Initial state : 
Electrolyte : 
Comments : 
Mass of active material : 0.001 mg
 at x = 0.000
Molecular weight of active material (at x = 0) : 0.001 g/mol
Atomic weight of intercalated ion : 0.001 g/mol
Acquisition started at : xo = 0.000
Number of e- transfered per intercalated ion : 1
for DX = 1, DQ = 26.802 mA.h
Battery capacity : 0.000 A.h
Cable : standard
Electrode surface area : 0.000 cm˛
Characteristic mass : 0.001 g
Volume (V) : 0.001 cmł
Cycle Definition : Charge/Discharge alternance
tR (h:m:s)          0:00:5.0000         
dER/dt (mV/h)       0.0                 
dER (mV)            0                   
dtR (s)             0.0000              
dE/dt               10.000              
dE/dt unit          mV/s                
Ei (V)              -0.200              
vs.                 Ref                 
EL (V)              -2.500              
vs.                 Ref                 
record              <I>                 
dI                  0.000               
unit dI             µA                  
tI (s)              0.0000              
step percent        50                  
N                   10                  
E range min (V)     -5.000              
E range max (V)     5.000               
I Range             Auto                
I Range min         Unset               
I Range max         Unset               
I Range init        Unset               
Bandwidth           8                   

Rwe/Ohm	time/s	Ewe/V	<I>/mA	Pwe/W	control/V	error	
0.0000000E+000	2.681400127330562E+000	-1.7480576E-001	0.000000000000000E+000	0.0000000E+000	0.0000000E+000	0
0.0000000E+000	7.681200001024990E+000	-2.1626953E-002	0.000000000000000E+000	0.0000000E+000	-1.9984020E-001	0
1.5259783E+005	7.881199995972565E+000	-2.0151791E-001	-1.320581714971923E-003	2.6612088E-007	-2.0173998E-001	0
1.7821533E+003	8.001199992941110E+000	-2.0278801E-001	-1.137881981204174E-001	2.3074883E-005	-2.0294006E-001	0
1.8535435E+003	8.211199987636064E+000	-2.0489427E-001	-1.105419293345871E-001	2.2649408E-005	-2.0504002E-001	0
2.0502236E+003	8.411199982583639E+000	-2.0681807E-001	-1.008758632362716E-001	2.0862952E-005	-2.0703995E-001	0
2.2265161E+003	8.611199977531214E+000	-2.0887558E-001	-9.381273963178205E-002	1.9595191E-005	-2.0903988E-001	0
2.3829570E+003	8.811199972478789E+000	-2.1087150E-001	-8.849152601313448E-002	1.8660341E-005	-2.1103980E-001	0
2.5251003E+003	9.011199967426364E+000	-2.1285433E-001	-8.429539413349785E-002	1.7942639E-005	-2.1303973E-001	0
2.6556157E+003	9.211199962373939E+000	-2.1484709E-001	-8.090292443384040E-002	1.7381757E-005	-2.1503964E-001	0
2.7772664E+003	9.411199957321514E+000	-2.1686535E-001	-7.808589940001573E-002	1.6934126E-005	-2.1703956E-001	0
2.8897739E+003	9.611199952269089E+000	-2.1883371E-001	-7.572693442514011E-002	1.6571606E-005	-2.1903947E-001	0
2.9992900E+003	9.811199947216664E+000	-2.2081244E-001	-7.362157092883735E-002	1.6256559E-005	-2.2103940E-001	0
3.1019636E+003	1.001119994216424E+001	-2.2285615E-001	-7.184357315675682E-002	1.6010783E-005	-2.2303931E-001	0
3.2018340E+003	1.021119993711181E+001	-2.2483113E-001	-7.021948583571891E-002	1.5787527E-005	-2.2503924E-001	0
3.2993328E+003	1.041119993205939E+001	-2.2684023E-001	-6.875336332122062E-002	1.5596028E-005	-2.2703914E-001	0
3.3912205E+003	1.061119992700696E+001	-2.2886142E-001	-6.748644789351355E-002	1.5445044E-005	-2.2903906E-001	0
3.4823667E+003	1.081119992195454E+001	-2.3084870E-001	-6.629075050827044E-002	1.5303134E-005	-2.3103899E-001	0
3.5718137E+003	1.101119991690211E+001	-2.3287332E-001	-6.519749947050668E-002	1.5182758E-005	-2.3303890E-001	0
3.6581304E+003	1.121119991184969E+001	-2.3482575E-001	-6.419282945405191E-002	1.5074129E-005	-2.3503883E-001	0
3.7440063E+003	1.141119990679726E+001	-2.3688051E-001	-6.326925869536970E-002	1.4987254E-005	-2.3703875E-001	0
3.8274060E+003	1.161119990174484E+001	-2.3884311E-001	-6.240339227899257E-002	1.4904621E-005	-2.3903868E-001	0
3.9117427E+003	1.181119989669241E+001	-2.4085818E-001	-6.157311391193079E-002	1.4830388E-005	-2.4103859E-001	0
3.9941047E+003	1.201119989163999E+001	-2.4286856E-001	-6.080675809728592E-002	1.4768049E-005	-2.4303849E-001	0
4.0742126E+003	1.221119988658756E+001	-2.4489212E-001	-6.010783911057549E-002	1.4719936E-005	-2.4503842E-001	0
4.1543613E+003	1.241119988153514E+001	-2.4686344E-001	-5.942271635899338E-002	1.4669296E-005	-2.4703833E-001	0
4.2337661E+003	1.261119987648271E+001	-2.4883077E-001	-5.877290923642520E-002	1.4624508E-005	-2.4903826E-001	0
4.3131313E+003	1.281099987143534E+001	-2.5086641E-001	-5.816340901574241E-002	1.4591245E-005	-2.5103819E-001	0
4.3905586E+003	1.301099986638292E+001	-2.5282457E-001	-5.758369141976338E-002	1.4558573E-005	-2.5303811E-001	0
4.4689521E+003	1.321099986133049E+001	-2.5485471E-001	-5.702784407225003E-002	1.4533814E-005	-2.5503802E-001	0
4.5453755E+003	1.341099985627807E+001	-2.5684854E-001	-5.650766315297662E-002	1.4513911E-005	-2.5703794E-001	0
4.6247261E+003	1.361099985122564E+001	-2.5884515E-001	-5.596983161239566E-002	1.4487519E-005	-2.5903785E-001	0
4.6973594E+003	1.381099984617322E+001	-2.6081496E-001	-5.552374153364170E-002	1.4481423E-005	-2.6103780E-001	0
4.7724683E+003	1.401099984112079E+001	-2.6284999E-001	-5.507632095869330E-002	1.4476810E-005	-2.6303771E-001	0
4.8501182E+003	1.421099983606837E+001	-2.6479289E-001	-5.459514380033514E-002	1.4456406E-005	-2.6503763E-001	0
4.9214888E+003	1.441099983101594E+001	-2.6681983E-001	-5.421526959617906E-002	1.4465710E-005	-2.6703754E-001	0
5.0010625E+003	1.461099982596352E+001	-2.6882750E-001	-5.375407841331148E-002	1.4450575E-005	-2.6903746E-001	0
5.0740913E+003	1.481099982091109E+001	-2.7082998E-001	-5.337507106087080E-002	1.4455569E-005	-2.7103737E-001	0
5.1447871E+003	1.501099981585867E+001	-2.7284527E-001	-5.303334607901111E-002	1.4469898E-005	-2.7303728E-001	0
5.2199819E+003	1.521099981080624E+001	-2.7483529E-001	-5.265062143276467E-002	1.4470249E-005	-2.7503723E-001	0
5.2939307E+003	1.541099980575382E+001	-2.7686071E-001	-5.229775756945987E-002	1.4479195E-005	-2.7703714E-001	0
5.3669507E+003	1.561099980070139E+001	-2.7884308E-001	-5.195558636793507E-002	1.4487456E-005	-2.7903706E-001	0
5.4463447E+003	1.581099979564897E+001	-2.8083649E-001	-5.156421725682570E-002	1.4481114E-005	-2.8103697E-001	0
5.5151167E+003	1.601099979059654E+001	-2.8281277E-001	-5.127956218861218E-002	1.4502515E-005	-2.8303692E-001	0
5.5868037E+003	1.621099978554412E+001	-2.8482351E-001	-5.098147752859500E-002	1.4520723E-005	-2.8503683E-001	0
5.6584746E+003	1.641099978049169E+001	-2.8687912E-001	-5.069901944399979E-002	1.4544490E-005	-2.8703675E-001	0
5.7298735E+003	1.661099977543927E+001	-2.8881484E-001	-5.040509953129763E-002	1.4557741E-005	-2.8903663E-001	0
5.8020342E+003	1.681099977038684E+001	-2.9084918E-001	-5.012883049702010E-002	1.4579929E-005	-2.9103655E-001	0
5.8759956E+003	1.701099976533442E+001	-2.9284981E-001	-4.983833095622670E-002	1.4595145E-005	-2.9303646E-001	0
5.9509131E+003	1.721099976028199E+001	-2.9483685E-001	-4.954480866916366E-002	1.4607635E-005	-2.9503641E-001	0
6.0201118E+003	1.741099975522957E+001	-2.9686952E-001	-4.931295716389589E-002	1.4639514E-005	-2.9703632E-001	0
6.0889224E+003	1.761089975017967E+001	-2.9890317E-001	-4.908966817011984E-002	1.4673057E-005	-2.9903603E-001	0
6.1613232E+003	1.781079974512977E+001	-3.0087817E-001	-4.883336749396683E-002	1.4692894E-005	-3.0103618E-001	0
6.2377051E+003	1.801079974007735E+001	-3.0282766E-001	-4.854792975340150E-002	1.4701655E-005	-3.0303609E-001	0
6.3061538E+003	1.821079973502492E+001	-3.0491316E-001	-4.835168624142641E-002	1.4743066E-005	-3.0503598E-001	0
6.3805601E+003	1.841079972997250E+001	-3.0688155E-001	-4.809633416335946E-002	1.4759878E-005	-3.0703592E-001	0
6.4463628E+003	1.861079972492007E+001	-3.0885479E-001	-4.791148130353262E-002	1.4797691E-005	-3.0903587E-001	0
6.5135552E+003	1.881079971986765E+001	-3.1086284E-001	-4.772552486314793E-002	1.4836092E-005	-3.1103575E-001	0
6.5810459E+003	1.901079971481522E+001	-3.1289998E-001	-4.754563081057117E-002	1.4877027E-005	-3.1303567E-001	0
6.6561851E+003	1.921079970976280E+001	-3.1484583E-001	-4.730124181229434E-002	1.4892598E-005	-3.1503561E-001	0
6.7234478E+003	1.941079970471037E+001	-3.1685728E-001	-4.712720292666822E-002	1.4932597E-005	-3.1703550E-001	0
6.7950664E+003	1.961079969965795E+001	-3.1887084E-001	-4.692681659437525E-002	1.4963593E-005	-3.1903544E-001	0
6.8599893E+003	1.981079969460552E+001	-3.2083839E-001	-4.676951976311394E-002	1.5005457E-005	-3.2103536E-001	0
6.9316943E+003	2.001079968955310E+001	-3.2285848E-001	-4.657713716264707E-002	1.5037824E-005	-3.2303527E-001	0
6.9993042E+003	2.021079968450067E+001	-3.2483706E-001	-4.640990633585074E-002	1.5075658E-005	-3.2503515E-001	0
7.0660854E+003	2.041079967944825E+001	-3.2682666E-001	-4.625286043161225E-002	1.5116668E-005	-3.2703510E-001	0
7.1393726E+003	2.061079967439582E+001	-3.2885295E-001	-4.606188526414029E-002	1.5147587E-005	-3.2903501E-001	0
7.2095894E+003	2.081079966934340E+001	-3.3086058E-001	-4.589173735342211E-002	1.5183767E-005	-3.3103493E-001	0
7.2708486E+003	2.101079966429097E+001	-3.3285606E-001	-4.577953211145869E-002	1.5237994E-005	-3.3303484E-001	0
7.3373794E+003	2.121079965923855E+001	-3.3487540E-001	-4.563964773766682E-002	1.5283595E-005	-3.3503479E-001	0
7.4082783E+003	2.141079965418612E+001	-3.3685228E-001	-4.546971121658261E-002	1.5316577E-005	-3.3703470E-001	0
7.4785571E+003	2.161079964913370E+001	-3.3884060E-001	-4.530828700811673E-002	1.5352287E-005	-3.3903462E-001	0
7.5407563E+003	2.181079964408127E+001	-3.4085310E-001	-4.520144790111114E-002	1.5407053E-005	-3.4103453E-001	0
7.6049927E+003	2.201079963902885E+001	-3.4283757E-001	-4.508059215071980E-002	1.5455320E-005	-3.4303448E-001	0
7.7803223E+003	2.225079963296594E+001	-3.4527871E-001	-4.437845913607810E-002	1.5322938E-005	-3.4543434E-001	0
7.8504395E+003	2.245079962791351E+001	-3.4731716E-001	-4.424174683344861E-002	1.5365918E-005	-3.4743425E-001	0
7.9113169E+003	2.265059962286614E+001	-3.4927130E-001	-4.414831256674856E-002	1.5419739E-005	-3.4943420E-001	0
7.9677607E+003	2.285059961781371E+001	-3.5121760E-001	-4.407983708729674E-002	1.5481615E-005	-3.5143411E-001	0
8.0354297E+003	2.305059961276129E+001	-3.5327083E-001	-4.396414790432404E-002	1.5531252E-005	-3.5343406E-001	0
8.1111899E+003	2.325059960770886E+001	-3.5525680E-001	-4.379835648329122E-002	1.5559664E-005	-3.5543394E-001	0
8.1860928E+003	2.345059960265644E+001	-3.5733786E-001	-4.365182081564778E-002	1.5598449E-005	-3.5743386E-001	0
8.2401094E+003	2.365059959760401E+001	-3.5928267E-001	-4.360168744374882E-002	1.5665331E-005	-3.5943380E-001	0
8.3062598E+003	2.385059959255159E+001	-3.6120033E-001	-4.348531761391472E-002	1.5706912E-005	-3.6143374E-001	0
8.3610098E+003	2.405059958749916E+001	-3.6324531E-001	-4.344514938326927E-002	1.5781246E-005	-3.6343363E-001	0
8.4317686E+003	2.425059958244674E+001	-3.6522812E-001	-4.331571909877768E-002	1.5820118E-005	-3.6543354E-001	0
8.4943359E+003	2.445059957739431E+001	-3.6726671E-001	-4.323665875294230E-002	1.5879386E-005	-3.6743346E-001	0
8.5610938E+003	2.465059957234189E+001	-3.6928177E-001	-4.313488008587485E-002	1.5928925E-005	-3.6943337E-001	0
8.6188467E+003	2.485059956728946E+001	-3.7126052E-001	-4.307543025262317E-002	1.5992207E-005	-3.7143329E-001	0
8.6742959E+003	2.505059956223704E+001	-3.7330040E-001	-4.303523883764172E-002	1.6065072E-005	-3.7343323E-001	0
8.7331611E+003	2.525059955718461E+001	-3.7520701E-001	-4.296348173548253E-002	1.6120199E-005	-3.7543315E-001	0
8.8110947E+003	2.545059955213219E+001	-3.7722528E-001	-4.281253293457576E-002	1.6149970E-005	-3.7743306E-001	0
8.8672266E+003	2.565059954707976E+001	-3.7924564E-001	-4.276936200538184E-002	1.6220094E-005	-3.7943298E-001	0
8.9300684E+003	2.585059954202734E+001	-3.8118324E-001	-4.268536664748274E-002	1.6270946E-005	-3.8143292E-001	0
8.9838906E+003	2.605059953697491E+001	-3.8326833E-001	-4.266173024281721E-002	1.6350890E-005	-3.8343284E-001	0
9.0514277E+003	2.625059953192249E+001	-3.8528314E-001	-4.256600939062621E-002	1.6399967E-005	-3.8543278E-001	0
9.0972393E+003	2.645059952687006E+001	-3.8724813E-001	-4.256765451625449E-002	1.6484244E-005	-3.8743266E-001	0
9.1754297E+003	2.665059952181764E+001	-3.8920546E-001	-4.241822685496224E-002	1.6509406E-005	-3.8943258E-001	0
9.2325381E+003	2.685059951676521E+001	-3.9125195E-001	-4.237750626582015E-002	1.6580281E-005	-3.9143252E-001	0
9.2911279E+003	2.705059951171279E+001	-3.9329648E-001	-4.233032882993931E-002	1.6648370E-005	-3.9343241E-001	0
9.3586309E+003	2.725059950666036E+001	-3.9520755E-001	-4.222920504050173E-002	1.6689301E-005	-3.9543232E-001	0
9.4126738E+003	2.745049950161047E+001	-3.9726466E-001	-4.220529349947622E-002	1.6766671E-005	-3.9743209E-001	0
9.4617695E+003	2.765039949656057E+001	-3.9929309E-001	-4.220067737138325E-002	1.6850439E-005	-3.9943221E-001	0
9.5311611E+003	2.785039949150814E+001	-4.0119439E-001	-4.209292047422664E-002	1.6887443E-005	-4.0143210E-001	0
9.5906924E+003	2.805039948645572E+001	-4.0325120E-001	-4.204609881518429E-002	1.6955140E-005	-4.0343201E-001	0
9.6444238E+003	2.825039948140329E+001	-4.0528816E-001	-4.202305552388114E-002	1.7031447E-005	-4.0543196E-001	0
9.7123096E+003	2.845039947635087E+001	-4.0723127E-001	-4.192939458537392E-002	1.7074961E-005	-4.0743184E-001	0
9.7705107E+003	2.865039947129844E+001	-4.0926373E-001	-4.188764864677055E-002	1.7143095E-005	-4.0943179E-001	0
9.8229453E+003	2.885039946624602E+001	-4.1125181E-001	-4.186644475952506E-002	1.7217651E-005	-4.1143170E-001	0
9.8687754E+003	2.905039946119359E+001	-4.1327384E-001	-4.187691295012647E-002	1.7306633E-005	-4.1343164E-001	0
9.9350498E+003	2.925039945614117E+001	-4.1525453E-001	-4.179692721810579E-002	1.7356364E-005	-4.1543153E-001	0
9.9960908E+003	2.945039945108874E+001	-4.1727936E-001	-4.174425532880865E-002	1.7419015E-005	-4.1743147E-001	0
1.0048845E+004	2.965039944603632E+001	-4.1926068E-001	-4.172227607143492E-002	1.7492510E-005	-4.1943139E-001	0
1.0126203E+004	2.985039944098389E+001	-4.2130268E-001	-4.160519596294859E-002	1.7528380E-005	-4.2143133E-001	0
1.0168263E+004	3.005039943593147E+001	-4.2324537E-001	-4.162415607870396E-002	1.7617231E-005	-4.2343122E-001	0
1.0224652E+004	3.025039943087904E+001	-4.2527679E-001	-4.159327709541605E-002	1.7688655E-005	-4.2543116E-001	0
1.0280498E+004	3.045039942582662E+001	-4.2731071E-001	-4.156517688567224E-002	1.7761246E-005	-4.2743102E-001	0
1.0341895E+004	3.065039942077419E+001	-4.2928058E-001	-4.150889061054520E-002	1.7818960E-005	-4.2943096E-001	0
1.0405005E+004	3.085039941572177E+001	-4.3129817E-001	-4.145102875434958E-002	1.7877752E-005	-4.3143088E-001	0
1.0464210E+004	3.105039941066934E+001	-4.3328473E-001	-4.140634798680276E-002	1.7940738E-005	-4.3343076E-001	0
1.0519848E+004	3.125039940561692E+001	-4.3532085E-001	-4.138090788168172E-002	1.8013972E-005	-4.3543071E-001	0
1.0571563E+004	3.145039940056449E+001	-4.3728474E-001	-4.136424625393786E-002	1.8087954E-005	-4.3743065E-001	0
1.0627658E+004	3.165039939551207E+001	-4.3928766E-001	-4.133437848343691E-002	1.8157683E-005	-4.3943056E-001	0
1.0690709E+004	3.185039939045964E+001	-4.4130597E-001	-4.127939326436270E-002	1.8216842E-005	-4.4143045E-001	0
1.0743503E+004	3.205039938540722E+001	-4.4326583E-001	-4.125896531559509E-002	1.8288689E-005	-4.4343039E-001	0
1.0790819E+004	3.225039938035479E+001	-4.4527534E-001	-4.126427343982118E-002	1.8373963E-005	-4.4543031E-001	0
1.0863662E+004	3.245029937530489E+001	-4.4732076E-001	-4.117587112879939E-002	1.8418821E-005	-4.4743049E-001	0
1.0916971E+004	3.265019937025500E+001	-4.4931397E-001	-4.115738467706165E-002	1.8492588E-005	-4.4943014E-001	0
1.0973494E+004	3.285019936520257E+001	-4.5128721E-001	-4.112520761515465E-002	1.8559280E-005	-4.5143008E-001	0
1.1012094E+004	3.305019936015015E+001	-4.5329994E-001	-4.116382764846649E-002	1.8659561E-005	-4.5343000E-001	0
1.1088368E+004	3.325019935509772E+001	-4.5528892E-001	-4.106004615002828E-002	1.8694183E-005	-4.5542991E-001	0
1.1138354E+004	3.345019935004530E+001	-4.5729908E-001	-4.105625198066409E-002	1.8774987E-005	-4.5742983E-001	0
1.1193487E+004	3.365019934499287E+001	-4.5931897E-001	-4.103448270010179E-002	1.8847915E-005	-4.5942977E-001	0
1.1251287E+004	3.385019933994045E+001	-4.6125403E-001	-4.099566768590879E-002	1.8909417E-005	-4.6142969E-001	0
1.1312005E+004	3.405019933488802E+001	-4.6326277E-001	-4.095319735864073E-002	1.8972092E-005	-4.6342960E-001	0
1.1371395E+004	3.425019932983560E+001	-4.6524936E-001	-4.091401000073180E-002	1.9035217E-005	-4.6542951E-001	0
1.1422714E+004	3.445019932478317E+001	-4.6725741E-001	-4.090599090472291E-002	1.9113628E-005	-4.6742943E-001	0
1.1480936E+004	3.465019931973075E+001	-4.6926758E-001	-4.087363610380979E-002	1.9180672E-005	-4.6942928E-001	0
1.1532035E+004	3.485019931467832E+001	-4.7126943E-001	-4.086611114596517E-002	1.9258949E-005	-4.7142929E-001	0
1.1591629E+004	3.505019930962590E+001	-4.7322619E-001	-4.082482353817934E-002	1.9319375E-005	-4.7342917E-001	0
1.1639517E+004	3.525019930457347E+001	-4.7524762E-001	-4.083053007602593E-002	1.9404612E-005	-4.7542912E-001	0
1.1703088E+004	3.545019929952105E+001	-4.7729233E-001	-4.078345086775054E-002	1.9465628E-005	-4.7742897E-001	0
1.1755430E+004	3.565019929446862E+001	-4.7931415E-001	-4.077385290068614E-002	1.9543484E-005	-4.7942898E-001	0
1.1826920E+004	3.585019928941620E+001	-4.8129445E-001	-4.069482510811237E-002	1.9586194E-005	-4.8142883E-001	0
1.1887421E+004	3.605019928436377E+001	-4.8328674E-001	-4.065530691132191E-002	1.9648171E-005	-4.8342881E-001	0
1.1942093E+004	3.625019927931135E+001	-4.8524794E-001	-4.063340946488170E-002	1.9717278E-005	-4.8542866E-001	0
1.1986735E+004	3.645019927425892E+001	-4.8724645E-001	-4.064880331578007E-002	1.9805986E-005	-4.8742867E-001	0
1.2044528E+004	3.665019926920650E+001	-4.8930568E-001	-4.062472537393280E-002	1.9877909E-005	-4.8942852E-001	0
1.2103237E+004	3.685019926415407E+001	-4.9128160E-001	-4.059092375072870E-002	1.9941574E-005	-4.9142849E-001	0
1.2163924E+004	3.705019925910165E+001	-4.9325258E-001	-4.055045063495433E-002	2.0001615E-005	-4.9342835E-001	0
1.2207560E+004	3.725019925404922E+001	-4.9525893E-001	-4.056985662165676E-002	2.0092584E-005	-4.9542829E-001	0
1.2285252E+004	3.744999924900185E+001	-4.9726546E-001	-4.047661760131371E-002	2.0127623E-005	-4.9742815E-001	0
1.2343683E+004	3.764999924394942E+001	-4.9920246E-001	-4.044194024635894E-002	2.0188716E-005	-4.9942818E-001	0
1.2406309E+004	3.784999923889700E+001	-5.0132436E-001	-4.040882485425590E-002	2.0257929E-005	-5.0142807E-001	0
1.2460862E+004	3.804999923384457E+001	-5.0325555E-001	-4.038689686159674E-002	2.0324929E-005	-5.0342798E-001	0
1.2531482E+004	3.824999922879215E+001	-5.0522965E-001	-4.031683173919706E-002	2.0369258E-005	-5.0542790E-001	0
1.2588381E+004	3.844999922373972E+001	-5.0722557E-001	-4.029315381042678E-002	2.0437717E-005	-5.0742787E-001	0
1.2640943E+004	3.864999921868730E+001	-5.0929862E-001	-4.028960664797776E-002	2.0519441E-005	-5.0942773E-001	0
1.2697574E+004	3.884999921363487E+001	-5.1131380E-001	-4.026861938140042E-002	2.0589901E-005	-5.1142776E-001	0
1.2766903E+004	3.904999920858245E+001	-5.1333272E-001	-4.020808357402245E-002	2.0640126E-005	-5.1342762E-001	0
1.2819618E+004	3.924999920353002E+001	-5.1530021E-001	-4.019622196012562E-002	2.0713122E-005	-5.1542753E-001	0
1.2879976E+004	3.944999919847760E+001	-5.1728362E-001	-4.016184883140445E-002	2.0775067E-005	-5.1742738E-001	0
1.2950165E+004	3.964999919342517E+001	-5.1929951E-001	-4.009983807331263E-002	2.0823825E-005	-5.1942736E-001	0
1.3021537E+004	3.984999918837275E+001	-5.2125603E-001	-4.003029964524241E-002	2.0866035E-005	-5.2142721E-001	0
1.3072252E+004	4.004999918332032E+001	-5.2329552E-001	-4.003101642388213E-002	2.0948051E-005	-5.2342725E-001	0
1.3142755E+004	4.024999917826790E+001	-5.2522743E-001	-3.996326844709508E-002	2.0989804E-005	-5.2542710E-001	0
1.3200198E+004	4.044999917321547E+001	-5.2726704E-001	-3.994387139322331E-002	2.1061087E-005	-5.2742708E-001	0
1.3269861E+004	4.064999916816305E+001	-5.2924222E-001	-3.988302551059986E-002	2.1107780E-005	-5.2942693E-001	0
1.3330725E+004	4.084999916311062E+001	-5.3125727E-001	-3.985209140637291E-002	2.1171714E-005	-5.3142691E-001	0
1.3404875E+004	4.104999915805820E+001	-5.3331941E-001	-3.978548070855115E-002	2.1218370E-005	-5.3342676E-001	0
1.3464262E+004	4.124999915300577E+001	-5.3532583E-001	-3.975901731591910E-002	2.1284030E-005	-5.3542674E-001	0
1.3510924E+004	4.144999914795335E+001	-5.3727084E-001	-3.976566366885116E-002	2.1364931E-005	-5.3742659E-001	0
1.3594132E+004	4.164999914290092E+001	-5.3927016E-001	-3.966933408543005E-002	2.1392489E-005	-5.3942657E-001	0
1.3631396E+004	4.184999913784850E+001	-5.4132378E-001	-3.971154603456702E-002	2.1496804E-005	-5.4142642E-001	0
1.3698484E+004	4.204999913279607E+001	-5.4329139E-001	-3.966069245993956E-002	2.1547312E-005	-5.4342639E-001	0
1.3781390E+004	4.224989912774618E+001	-5.4536581E-001	-3.957262885257073E-002	2.1581558E-005	-5.4542679E-001	0
1.3844641E+004	4.244979912269628E+001	-5.4730999E-001	-3.953226340080385E-002	2.1636402E-005	-5.4742628E-001	0
1.3906897E+004	4.264979911764385E+001	-5.4927075E-001	-3.949628122966065E-002	2.1694152E-005	-5.4942614E-001	0
1.3966948E+004	4.284979911259143E+001	-5.5127364E-001	-3.946987178457517E-002	2.1758700E-005	-5.5142611E-001	0
1.4034199E+004	4.304979910753900E+001	-5.5324948E-001	-3.942152090944007E-002	2.1809936E-005	-5.5342597E-001	0
1.4105868E+004	4.324979910248658E+001	-5.5524772E-001	-3.936288966227086E-002	2.1856154E-005	-5.5542594E-001	0
1.4181406E+004	4.344979909743415E+001	-5.5732816E-001	-3.929992102492019E-002	2.1902953E-005	-5.5742580E-001	0
1.4237217E+004	4.364979909238173E+001	-5.5924779E-001	-3.928069777331638E-002	2.1967644E-005	-5.5942577E-001	0
1.4302442E+004	4.384979908732930E+001	-5.6130904E-001	-3.924567673314161E-002	2.2028953E-005	-5.6142563E-001	0
1.4363592E+004	4.404979908227688E+001	-5.6333405E-001	-3.921958096293718E-002	2.2093725E-005	-5.6342560E-001	0
1.4441142E+004	4.424979907722445E+001	-5.6526148E-001	-3.914243705959286E-002	2.2125712E-005	-5.6542552E-001	0
1.4510089E+004	4.444979907217203E+001	-5.6725621E-001	-3.909391799678741E-002	2.2176268E-005	-5.6742543E-001	0
1.4561638E+004	4.464979906711960E+001	-5.6923479E-001	-3.909139977472398E-002	2.2252185E-005	-5.6942534E-001	0
1.4638340E+004	4.484979906206718E+001	-5.7130235E-001	-3.902781102700748E-002	2.2296681E-005	-5.7142526E-001	0
1.4698443E+004	4.504979905701475E+001	-5.7331091E-001	-3.900487267712127E-002	2.2361919E-005	-5.7342517E-001	0
1.4761648E+004	4.524979905196233E+001	-5.7524914E-001	-3.896916754039059E-002	2.2416980E-005	-5.7542515E-001	0
1.4834486E+004	4.544979904690990E+001	-5.7730323E-001	-3.891629391838744E-002	2.2466502E-005	-5.7742500E-001	0
1.4887953E+004	4.564979904185748E+001	-5.7923359E-001	-3.890619445180350E-002	2.2535774E-005	-5.7942486E-001	0
1.4949150E+004	4.584979903680505E+001	-5.8124566E-001	-3.888151844564297E-002	2.2599714E-005	-5.8142489E-001	0
1.4997760E+004	4.604979903175263E+001	-5.8326799E-001	-3.889034063050578E-002	2.2683491E-005	-5.8342475E-001	0
1.5082810E+004	4.624979902670020E+001	-5.8520854E-001	-3.879970404485256E-002	2.2705917E-005	-5.8542472E-001	0
1.5141691E+004	4.644979902164778E+001	-5.8721042E-001	-3.878103310528458E-002	2.2772627E-005	-5.8742464E-001	0
1.5194528E+004	4.664979901659535E+001	-5.8929574E-001	-3.878341887574932E-002	2.2854903E-005	-5.8942449E-001	0
1.5280089E+004	4.684979901154293E+001	-5.9131795E-001	-3.869859474819870E-002	2.2883174E-005	-5.9142447E-001	0
1.5337313E+004	4.704969900649303E+001	-5.9325081E-001	-3.868023234895246E-002	2.2947079E-005	-5.9342372E-001	0
1.5414836E+004	4.724959900144313E+001	-5.9528458E-001	-3.861763992646700E-002	2.2988486E-005	-5.9542423E-001	0
1.5466819E+004	4.744959899639071E+001	-5.9729868E-001	-3.861806854181182E-002	2.3066521E-005	-5.9742421E-001	0
1.5526966E+004	4.764959899133828E+001	-5.9924877E-001	-3.859406740741506E-002	2.3127448E-005	-5.9942412E-001	0
1.5585752E+004	4.784959898628586E+001	-6.0126406E-001	-3.857780358032903E-002	2.3195447E-005	-6.0142404E-001	0
1.5643875E+004	4.804959898123343E+001	-6.0331237E-001	-3.856540556924204E-002	2.3266986E-005	-6.0342395E-001	0
1.5702270E+004	4.824959897618101E+001	-6.0523832E-001	-3.854464033176144E-002	2.3328694E-005	-6.0542387E-001	0
1.5745453E+004	4.844959897112858E+001	-6.0723341E-001	-3.856563620251335E-002	2.3418343E-005	-6.0742372E-001	0
1.5825910E+004	4.864959896607616E+001	-6.0929412E-001	-3.849978410230220E-002	2.3457693E-005	-6.0942370E-001	0
1.5876965E+004	4.884959896102373E+001	-6.1128479E-001	-3.850136344245056E-002	2.3535298E-005	-6.1142361E-001	0
1.5947438E+004	4.904959895597131E+001	-6.1335564E-001	-3.846107792877963E-002	2.3590319E-005	-6.1342353E-001	0
1.5999243E+004	4.924959895091888E+001	-6.1525297E-001	-3.845512877348299E-002	2.3659632E-005	-6.1542338E-001	0
1.6059380E+004	4.944959894586646E+001	-6.1724246E-001	-3.843501229272096E-002	2.3723722E-005	-6.1742336E-001	0
1.6124808E+004	4.964959894081403E+001	-6.1927217E-001	-3.840493345253004E-002	2.3783106E-005	-6.1942327E-001	0
1.6175148E+004	4.984959893576161E+001	-6.2130529E-001	-3.841110224842959E-002	2.3865021E-005	-6.2142324E-001	0
1.6221755E+004	5.004959893070918E+001	-6.2329292E-001	-3.842327417330624E-002	2.3948955E-005	-6.2342310E-001	0
1.6281638E+004	5.024959892565676E+001	-6.2536830E-001	-3.840942298592223E-002	2.4020035E-005	-6.2542307E-001	0
1.6345403E+004	5.044959892060433E+001	-6.2720531E-001	-3.837196905241943E-002	2.4067103E-005	-6.2742299E-001	0
1.6383252E+004	5.064959891555191E+001	-6.2929338E-001	-3.841077254915104E-002	2.4171644E-005	-6.2942290E-001	0
1.6453643E+004	5.084959891049948E+001	-6.3131285E-001	-3.836918238744706E-002	2.4222958E-005	-6.3142282E-001	0
1.6499305E+004	5.104959890544706E+001	-6.3331157E-001	-3.838413586373318E-002	2.4309118E-005	-6.3342273E-001	0
1.6546479E+004	5.124959890039463E+001	-6.3518214E-001	-3.838775432304342E-002	2.4383216E-005	-6.3542265E-001	0
1.6599367E+004	5.144959889534221E+001	-6.3728911E-001	-3.839237338682766E-002	2.4467041E-005	-6.3742262E-001	0
1.6643273E+004	5.164959889028978E+001	-6.3929462E-001	-3.841159058668248E-002	2.4556324E-005	-6.3942248E-001	0
1.6675482E+004	5.184959888523736E+001	-6.4122725E-001	-3.845329509753415E-002	2.4657300E-005	-6.4142245E-001	0
1.6751902E+004	5.204949888018746E+001	-6.4324045E-001	-3.839805352665526E-002	2.4699182E-005	-6.4342231E-001	0
1.6802568E+004	5.224939887513756E+001	-6.4534289E-001	-3.840739345267752E-002	2.4785939E-005	-6.4542228E-001	0
1.6827123E+004	5.244939887008513E+001	-6.4721131E-001	-3.846238514190931E-002	2.4893290E-005	-6.4742213E-001	0
1.6897350E+004	5.264939886503271E+001	-6.4926308E-001	-3.842396205190840E-002	2.4947260E-005	-6.4942211E-001	0
1.6957275E+004	5.284939885998028E+001	-6.5131336E-001	-3.840908082149286E-002	2.5016348E-005	-6.5142196E-001	0
1.6997438E+004	5.304939885492786E+001	-6.5329760E-001	-3.843506401121746E-002	2.5109535E-005	-6.5342194E-001	0
1.7053385E+004	5.324939884987543E+001	-6.5535676E-001	-3.842971891232358E-002	2.5185176E-005	-6.5542179E-001	0
1.7085559E+004	5.344939884482301E+001	-6.5730989E-001	-3.847166642128530E-002	2.5287807E-005	-6.5742177E-001	0
1.7144410E+004	5.364939883977058E+001	-6.5936506E-001	-3.845947875235811E-002	2.5358837E-005	-6.5942162E-001	0
1.7193225E+004	5.384939883471816E+001	-6.6124052E-001	-3.845936553199025E-002	2.5430891E-005	-6.6142166E-001	0
1.7239389E+004	5.404939882966573E+001	-6.6330671E-001	-3.847623204172504E-002	2.5521544E-005	-6.6342151E-001	0
1.7278393E+004	5.424939882461331E+001	-6.6533023E-001	-3.850648996748596E-002	2.5619533E-005	-6.6542149E-001	0
1.7349400E+004	5.444939881956088E+001	-6.6727698E-001	-3.846109916916418E-002	2.5664205E-005	-6.6742134E-001	0
1.7415711E+004	5.464939881450846E+001	-6.6927123E-001	-3.842916430682658E-002	2.5719533E-005	-6.6942126E-001	0
1.7439750E+004	5.484939880945603E+001	-6.7126805E-001	-3.849069019563081E-002	2.5837571E-005	-6.7142117E-001	0
1.7497822E+004	5.504939880440361E+001	-6.7328459E-001	-3.847819147684320E-002	2.5906773E-005	-6.7342114E-001	0
1.7555346E+004	5.524939879935118E+001	-6.7524099E-001	-3.846355422126446E-002	2.5972169E-005	-6.7542100E-001	0
1.7608545E+004	5.544939879429876E+001	-6.7724341E-001	-3.846106663464555E-002	2.6047504E-005	-6.7742103E-001	0
1.7671963E+004	5.564939878924633E+001	-6.7927605E-001	-3.843806604743871E-002	2.6110058E-005	-6.7942089E-001	0
1.7717633E+004	5.584939878419391E+001	-6.8125176E-001	-3.845049778333176E-002	2.6194470E-005	-6.8142080E-001	0
1.7762844E+004	5.604939877914148E+001	-6.8332732E-001	-3.846947948950985E-002	2.6287245E-005	-6.8342066E-001	0
1.7815500E+004	5.624939877408906E+001	-6.8528467E-001	-3.846564532712719E-002	2.6359918E-005	-6.8542063E-001	0
1.7848910E+004	5.644939876903663E+001	-6.8728721E-001	-3.850583740153152E-002	2.6464570E-005	-6.8742049E-001	0
1.7920496E+004	5.664939876398421E+001	-6.8931144E-001	-3.846497482080612E-002	2.6514348E-005	-6.8942046E-001	0
1.7980855E+004	5.684929875893431E+001	-6.9122857E-001	-3.844247371018916E-002	2.6572536E-005	-6.9141948E-001	0
1.8013166E+004	5.704929875388189E+001	-6.9328189E-001	-3.848750802611911E-002	2.6682692E-005	-6.9342124E-001	0
1.8083576E+004	5.724919874883199E+001	-6.9527668E-001	-3.844796464453246E-002	2.6731974E-005	-6.9542021E-001	0
1.8123102E+004	5.744919874377956E+001	-6.9732881E-001	-3.847734320379770E-002	2.6831360E-005	-6.9742018E-001	0
1.8177174E+004	5.764919873872714E+001	-6.9926637E-001	-3.846947522121202E-002	2.6900410E-005	-6.9942009E-001	0
1.8292701E+004	5.784919873367471E+001	-7.0128375E-001	-3.833680609404790E-002	2.6884980E-005	-7.0142007E-001	0
1.8338924E+004	5.804919872862229E+001	-7.0328379E-001	-3.834924106897944E-002	2.6970400E-005	-7.0341986E-001	0
1.8390873E+004	5.824919872356986E+001	-7.0528364E-001	-3.834965564532289E-002	2.7047385E-005	-7.0541978E-001	0
1.8463879E+004	5.844919871851744E+001	-7.0721811E-001	-3.830279165202055E-002	2.7088428E-005	-7.0741975E-001	0
1.8512371E+004	5.864919871346501E+001	-7.0920736E-001	-3.830991637557235E-002	2.7169675E-005	-7.0941967E-001	0
1.8614389E+004	5.884919870841259E+001	-7.1122742E-001	-3.820847390460325E-002	2.7174914E-005	-7.1141958E-001	0
1.8639246E+004	5.904919870336016E+001	-7.1333140E-001	-3.827039910772868E-002	2.7299477E-005	-7.1341956E-001	0
1.8706201E+004	5.924919869830774E+001	-7.1525723E-001	-3.823636902724287E-002	2.7348839E-005	-7.1541947E-001	0
1.8770666E+004	5.944919869325531E+001	-7.1725672E-001	-3.821157723852120E-002	2.7407510E-005	-7.1741939E-001	0
1.8844441E+004	5.964919868820289E+001	-7.1928328E-001	-3.816952096174792E-002	2.7454698E-005	-7.1941924E-001	0
1.8876678E+004	5.984919868315046E+001	-7.2130990E-001	-3.821169604233708E-002	2.7562475E-005	-7.2141916E-001	0
1.9009799E+004	6.004919867809804E+001	-7.2330236E-001	-3.804892344271457E-002	2.7520877E-005	-7.2341907E-001	0
1.9046291E+004	6.024919867304561E+001	-7.2537321E-001	-3.808474954578783E-002	2.7625658E-005	-7.2541898E-001	0
1.9102555E+004	6.044919866799319E+001	-7.2729743E-001	-3.807330758220051E-002	2.7690619E-005	-7.2741896E-001	0
1.9131248E+004	6.064919866294076E+001	-7.2930795E-001	-3.812129316004631E-002	2.7802162E-005	-7.2941887E-001	0
1.9217854E+004	6.084919865788834E+001	-7.3126978E-001	-3.805158314133558E-002	2.7825972E-005	-7.3141879E-001	0
1.9359572E+004	6.104919865283591E+001	-7.3331857E-001	-3.787886292347359E-002	2.7777274E-005	-7.3341864E-001	0
1.9400238E+004	6.124919864778349E+001	-7.3523057E-001	-3.789801838070722E-002	2.7863782E-005	-7.3541862E-001	0
1.9476387E+004	6.144919864273106E+001	-7.3731071E-001	-3.785664586945848E-002	2.7912110E-005	-7.3741853E-001	0
1.9564922E+004	6.164919863767864E+001	-7.3927802E-001	-3.778589168424090E-002	2.7934278E-005	-7.3941845E-001	0
1.9601668E+004	6.184909863262874E+001	-7.4128729E-001	-3.781756018607919E-002	2.8033677E-005	-7.4141794E-001	0
1.9657402E+004	6.204899862757884E+001	-7.4324381E-001	-3.780986750477289E-002	2.8101949E-005	-7.4341834E-001	0
1.9705154E+004	6.224899862252641E+001	-7.4521518E-001	-3.781828690872482E-002	2.8182762E-005	-7.4541813E-001	0
1.9823279E+004	6.244899861747399E+001	-7.4729198E-001	-3.769769901019055E-002	2.8171189E-005	-7.4741817E-001	0
1.9907807E+004	6.264899861242156E+001	-7.4933118E-001	-3.764006877956851E-002	2.8204877E-005	-7.4941802E-001	0
1.9903762E+004	6.284899860736914E+001	-7.5127345E-001	-3.774530021526545E-002	2.8357043E-005	-7.5141799E-001	0
1.9958992E+004	6.304899860231671E+001	-7.5336033E-001	-3.774540823416522E-002	2.8435894E-005	-7.5341785E-001	0
2.0019447E+004	6.324899859726429E+001	-7.5531012E-001	-3.772881995995318E-002	2.8496959E-005	-7.5541782E-001	0
2.0154928E+004	6.344899859221186E+001	-7.5732219E-001	-3.757503721757449E-002	2.8456410E-005	-7.5741774E-001	0
2.0108643E+004	6.364899858715944E+001	-7.5924408E-001	-3.775710257745915E-002	2.8666856E-005	-7.5941771E-001	0
2.0170652E+004	6.384899858210702E+001	-7.6128674E-001	-3.774229756133018E-002	2.8732711E-005	-7.6141751E-001	0
2.0203283E+004	6.404899857705459E+001	-7.6323730E-001	-3.777788326518017E-002	2.8833490E-005	-7.6341754E-001	0
2.0286660E+004	6.424899857200217E+001	-7.6532966E-001	-3.772576075932121E-002	2.8872644E-005	-7.6541734E-001	0
2.0421604E+004	6.444899856694974E+001	-7.6729739E-001	-3.757282721735068E-002	2.8829532E-005	-7.6741731E-001	0
2.0455826E+004	6.464899856189732E+001	-7.6931041E-001	-3.760837739948072E-002	2.8932516E-005	-7.6941723E-001	0
2.0366605E+004	6.484899855684489E+001	-7.7125001E-001	-3.786836185438727E-002	2.9205974E-005	-7.7141720E-001	0
2.0493592E+004	6.504899855179247E+001	-7.7332789E-001	-3.773510882070247E-002	2.9181612E-005	-7.7341700E-001	0
2.0566014E+004	6.524899854674004E+001	-7.7530324E-001	-3.769827556089950E-002	2.9227594E-005	-7.7541703E-001	0
2.0522814E+004	6.544899854168762E+001	-7.7727717E-001	-3.787380809417359E-002	2.9438446E-005	-7.7741688E-001	0
2.0574967E+004	6.564899853663519E+001	-7.7934778E-001	-3.787844611385667E-002	2.9520483E-005	-7.7941680E-001	0
2.0612186E+004	6.584899853158277E+001	-7.8125763E-001	-3.790270608993440E-002	2.9611778E-005	-7.8141677E-001	0
2.0568756E+004	6.604899852653034E+001	-7.8328186E-001	-3.808115042778792E-002	2.9828274E-005	-7.8341669E-001	0
2.0622270E+004	6.624899852147792E+001	-7.8526801E-001	-3.807864003643696E-002	2.9901938E-005	-7.8541660E-001	0
2.0736357E+004	6.644899851642549E+001	-7.8725654E-001	-3.796503339395735E-002	2.9888221E-005	-7.8741652E-001	0
2.0682715E+004	6.664899851137307E+001	-7.8923529E-001	-3.815917421872528E-002	3.0116567E-005	-7.8941649E-001	0
2.0762613E+004	6.684889850632317E+001	-7.9127181E-001	-3.811041509971236E-002	3.0155697E-005	-7.9141718E-001	0
2.0627023E+004	6.704879850127327E+001	-7.9323459E-001	-3.845608551789059E-002	3.0504698E-005	-7.9341626E-001	0
2.0706260E+004	6.724879849622084E+001	-7.9527742E-001	-3.840758379172904E-002	3.0544685E-005	-7.9541630E-001	0
2.0674314E+004	6.744879849116842E+001	-7.9725927E-001	-3.856279069606361E-002	3.0744541E-005	-7.9741615E-001	0
2.0643238E+004	6.764879848611599E+001	-7.9925704E-001	-3.871762091156661E-002	3.0945332E-005	-7.9941607E-001	0
2.0664367E+004	6.784879848106357E+001	-8.0129528E-001	-3.877666649248129E-002	3.1071559E-005	-8.0141598E-001	0
2.0624104E+004	6.804879847601114E+001	-8.0330354E-001	-3.894974351353736E-002	3.1288466E-005	-8.0341589E-001	0
2.0609072E+004	6.824879847095872E+001	-8.0523622E-001	-3.907192793813086E-002	3.1462132E-005	-8.0541587E-001	0
2.0538777E+004	6.844879846590629E+001	-8.0726761E-001	-3.930455928931309E-002	3.1729298E-005	-8.0741578E-001	0
2.0528830E+004	6.864879846085387E+001	-8.0933511E-001	-3.942431628655496E-002	3.1907482E-005	-8.0941558E-001	0
2.0400785E+004	6.884879845580144E+001	-8.1125230E-001	-3.976573835020411E-002	3.2260046E-005	-8.1141555E-001	0
2.0343318E+004	6.904879845074902E+001	-8.1328052E-001	-3.997777289522975E-002	3.2513144E-005	-8.1341547E-001	0
2.0279338E+004	6.924879844569659E+001	-8.1527579E-001	-4.020228992953308E-002	3.2775955E-005	-8.1541544E-001	0
2.0220338E+004	6.944879844064417E+001	-8.1727129E-001	-4.041828125949665E-002	3.3032702E-005	-8.1741530E-001	0
2.0144355E+004	6.964879843559174E+001	-8.1932652E-001	-4.067276019070823E-002	3.3324271E-005	-8.1941515E-001	0
2.0086613E+004	6.984879843053932E+001	-8.2123065E-001	-4.088447742980372E-002	3.3575587E-005	-8.2141513E-001	0
1.9969262E+004	7.004879842548689E+001	-8.2325816E-001	-4.122626853081479E-002	3.3939861E-005	-8.2341504E-001	0
1.9795379E+004	7.024879842043447E+001	-8.2526535E-001	-4.168979869257922E-002	3.4405148E-005	-8.2541496E-001	0
1.9705902E+004	7.044879841538204E+001	-8.2730955E-001	-4.198282828571376E-002	3.4732795E-005	-8.2741493E-001	0
1.9483689E+004	7.064879841032962E+001	-8.2928771E-001	-4.256317738518586E-002	3.5297118E-005	-8.2941484E-001	0
1.9374152E+004	7.084879840527719E+001	-8.3126092E-001	-4.290566702485255E-002	3.5665806E-005	-8.3141482E-001	0
1.9210805E+004	7.104879840022477E+001	-8.3328807E-001	-4.337601254159862E-002	3.6144713E-005	-8.3341467E-001	0
1.8988746E+004	7.124879839517234E+001	-8.3528841E-001	-4.398860229346102E-002	3.6743171E-005	-8.3541453E-001	0
1.8716463E+004	7.144879839011992E+001	-8.3727300E-001	-4.473457357354138E-002	3.7455051E-005	-8.3741456E-001	0
1.8477119E+004	7.164879838506749E+001	-8.3927244E-001	-4.542225474056694E-002	3.8121645E-005	-8.3941442E-001	0
1.8097984E+004	7.184869838001759E+001	-8.4129810E-001	-4.648573310354469E-002	3.9108359E-005	-8.4141421E-001	0
1.7822637E+004	7.204859837496770E+001	-8.4325850E-001	-4.731390265380450E-002	3.9897852E-005	-8.4341425E-001	0
1.7348998E+004	7.224859836991527E+001	-8.4523278E-001	-4.871940042859446E-002	4.1179235E-005	-8.4541422E-001	0
1.6778969E+004	7.244859836486285E+001	-8.4723628E-001	-5.049394159482762E-002	4.2780299E-005	-8.4741414E-001	0
1.6271391E+004	7.264859835981042E+001	-8.4925687E-001	-5.219325650316520E-002	4.4325483E-005	-8.4941405E-001	0
1.5573946E+004	7.284859835475800E+001	-8.5130769E-001	-5.466229621164675E-002	4.6534435E-005	-8.5141391E-001	0
1.4804099E+004	7.304859834970557E+001	-8.5329503E-001	-5.763910760651103E-002	4.9183163E-005	-8.5341394E-001	0
1.3999290E+004	7.324859834465315E+001	-8.5527474E-001	-6.109415001896889E-002	5.2252282E-005	-8.5541373E-001	0
1.3267183E+004	7.344859833960072E+001	-8.5727620E-001	-6.461629408090708E-002	5.5394012E-005	-8.5741371E-001	0
1.2556132E+004	7.364859833454830E+001	-8.5926449E-001	-6.843385161185728E-002	5.8802780E-005	-8.5941350E-001	0
1.1348268E+004	7.385859832924325E+001	-8.6134386E-001	-7.590091411566025E-002	6.5376786E-005	-8.6151397E-001	0
1.0568164E+004	7.406859832393820E+001	-8.6343849E-001	-8.170184345605458E-002	7.0544513E-005	-8.6361408E-001	0
1.0307742E+004	7.426859831888578E+001	-8.6544931E-001	-8.396109432360066E-002	7.2664072E-005	-8.6561400E-001	0
1.0201729E+004	7.446859831383335E+001	-8.6750174E-001	-8.503477388302327E-002	7.3767813E-005	-8.6761397E-001	0
1.0218087E+004	7.466859830878093E+001	-8.6946958E-001	-8.509122837406746E-002	7.3984236E-005	-8.6961389E-001	0
1.0327699E+004	7.486859830372850E+001	-8.7143767E-001	-8.437868359851386E-002	7.3530762E-005	-8.7161380E-001	0
1.0551863E+004	7.506859829867608E+001	-8.7344265E-001	-8.277615100987962E-002	7.2300223E-005	-8.7361366E-001	0
1.0770054E+004	7.526859829362365E+001	-8.7546027E-001	-8.128652824806959E-002	7.1163129E-005	-8.7561369E-001	0
1.0968636E+004	7.546859828857123E+001	-8.7737930E-001	-7.998982781455635E-002	7.0181421E-005	-8.7761348E-001	0
1.1086867E+004	7.566859828351880E+001	-8.7945533E-001	-7.932406116241086E-002	6.9761969E-005	-8.7961346E-001	0
1.1126472E+004	7.586859827846638E+001	-8.8144356E-001	-7.922040084968229E-002	6.9828311E-005	-8.8161325E-001	0
1.1091307E+004	7.606859827341395E+001	-8.8345706E-001	-7.965310717048030E-002	7.0370101E-005	-8.8361329E-001	0
1.0977742E+004	7.626859826836153E+001	-8.8545328E-001	-8.065896284715812E-002	7.1419745E-005	-8.8561326E-001	0
1.0749122E+004	7.646859826330910E+001	-8.8744140E-001	-8.255942780239411E-002	7.3266652E-005	-8.8761318E-001	0
1.0459989E+004	7.666859825825668E+001	-8.8947123E-001	-8.503557830444980E-002	7.5636701E-005	-8.8961303E-001	0
1.0113221E+004	7.686859825320425E+001	-8.9140266E-001	-8.814231629690350E-002	7.8570294E-005	-8.9161307E-001	0
9.7530889E+003	7.706859824815183E+001	-8.9342701E-001	-9.160451909797551E-002	8.1841950E-005	-8.9361286E-001	0
9.3058418E+003	7.726859824309940E+001	-8.9540142E-001	-9.621927804417096E-002	8.6154876E-005	-8.9561284E-001	0
8.8382373E+003	7.746859823804698E+001	-8.9745361E-001	-1.015421482206418E-001	9.1129368E-005	-8.9761275E-001	0
8.3369492E+003	7.766859823299455E+001	-8.9943713E-001	-1.078856423858323E-001	9.7036354E-005	-8.9961350E-001	0
7.7866655E+003	7.786859822794213E+001	-9.0144455E-001	-1.157677278910967E-001	1.0435819E-004	-9.0161413E-001	0
7.2056606E+003	7.806859822288970E+001	-9.0338171E-001	-1.253711153127997E-001	1.1325797E-004	-9.0361416E-001	0
6.6299307E+003	7.826859821783728E+001	-9.0540731E-001	-1.365636162694268E-001	1.2364570E-004	-9.0561420E-001	0
6.0479429E+003	7.846859821278485E+001	-9.0743345E-001	-1.500400180639088E-001	1.3615133E-004	-9.0761423E-001	0
5.4971104E+003	7.866859820773243E+001	-9.0942210E-001	-1.654363871972304E-001	1.5045151E-004	-9.0961415E-001	0
4.9672271E+003	7.886859820268000E+001	-9.1144758E-001	-1.834922366059661E-001	1.6724356E-004	-9.1161412E-001	0
4.4740850E+003	7.906859819762758E+001	-9.1347009E-001	-2.041691434263444E-001	1.8650241E-004	-9.1361421E-001	0
3.9133984E+003	7.926859819257515E+001	-9.1546226E-001	-2.339302462582686E-001	2.1415431E-004	-9.1561407E-001	0
3.5275928E+003	7.946859818752273E+001	-9.1747129E-001	-2.600842478860357E-001	2.3861983E-004	-9.1761410E-001	0
3.1592261E+003	7.966859818247030E+001	-9.1946411E-001	-2.910409264283388E-001	2.6760169E-004	-9.1961414E-001	0
2.7586174E+003	7.986859817741788E+001	-9.2149013E-001	-3.340405732321461E-001	3.0781509E-004	-9.2161411E-001	0
2.4548059E+003	8.006859817236546E+001	-9.2349964E-001	-3.762006611075428E-001	3.4742118E-004	-9.2361408E-001	0
2.1850818E+003	8.026859816731303E+001	-9.2547500E-001	-4.235425125934249E-001	3.9197801E-004	-9.2561418E-001	0
1.9037401E+003	8.046859816226061E+001	-9.2747200E-001	-4.871841502922871E-001	4.5184966E-004	-9.2761415E-001	0
1.6741849E+003	8.066859815720818E+001	-9.2950100E-001	-5.551961128834351E-001	5.1605533E-004	-9.2961413E-001	0
1.4912993E+003	8.086859815215576E+001	-9.3147761E-001	-6.246081049429453E-001	5.8180845E-004	-9.3161416E-001	0
1.2998079E+003	8.106859814710333E+001	-9.3348044E-001	-7.181679910416285E-001	6.7039579E-004	-9.3361419E-001	0
1.1410332E+003	8.126859814205091E+001	-9.3545389E-001	-8.198305705177855E-001	7.6691370E-004	-9.3561411E-001	0
1.0090098E+003	8.146859813699848E+001	-9.3748003E-001	-9.291088988248468E-001	8.7102107E-004	-9.3761414E-001	0
8.7942493E+002	8.167859813169343E+001	-9.3957961E-001	-1.068402262585368E+000	1.0038490E-003	-9.3971419E-001	0
7.7765710E+002	8.188859812638839E+001	-9.4163638E-001	-1.210863264256457E+000	1.1401928E-003	-9.4181412E-001	0
6.8837994E+002	8.208859812133596E+001	-9.4364816E-001	-1.370824547564766E+000	1.2935761E-003	-9.4381410E-001	0
6.1025958E+002	8.228859811628354E+001	-9.4569075E-001	-1.549653264518634E+000	1.4654928E-003	-9.4581413E-001	0
5.3937836E+002	8.248859811123111E+001	-9.4768721E-001	-1.756998935068140E+000	1.6650854E-003	-9.4781417E-001	0
4.8081021E+002	8.268859810617869E+001	-9.4963926E-001	-1.975081255697475E+000	1.8756147E-003	-9.4981414E-001	0
4.2856625E+002	8.288859810112626E+001	-9.5167243E-001	-2.220595887408102E+000	2.1132799E-003	-9.5181417E-001	0
3.8446277E+002	8.308859809607384E+001	-9.5369416E-001	-2.480589221191522E+000	2.3657235E-003	-9.5381421E-001	0
3.4444888E+002	8.328859809102141E+001	-9.5567769E-001	-2.774512368332509E+000	2.6515396E-003	-9.5581412E-001	0
3.0975894E+002	8.348859808596899E+001	-9.5769334E-001	-3.091737393669938E+000	2.9609364E-003	-9.5781416E-001	0
2.8042120E+002	8.368859808091656E+001	-9.5968992E-001	-3.422315655179037E+000	3.2843619E-003	-9.5981419E-001	0
2.5401239E+002	8.388859807586414E+001	-9.6164387E-001	-3.785814741030848E+000	3.6406056E-003	-9.6181422E-001	0
2.3046898E+002	8.408859807081171E+001	-9.6369624E-001	-4.181457544197565E+000	4.0296549E-003	-9.6381414E-001	0
2.0999701E+002	8.428859806575929E+001	-9.6570003E-001	-4.598637162253720E+000	4.4409041E-003	-9.6581411E-001	0
1.9224663E+002	8.448859806070686E+001	-9.6771592E-001	-5.033721357955692E+000	4.8712124E-003	-9.6781421E-001	0
1.7614105E+002	8.468859805565444E+001	-9.6966219E-001	-5.505032579915056E+000	5.3380220E-003	-9.6981418E-001	0
1.6201886E+002	8.488859805060201E+001	-9.7166252E-001	-5.997218752495286E+000	5.8272728E-003	-9.7181410E-001	0
1.4956448E+002	8.508859804554959E+001	-9.7364229E-001	-6.509849292283178E+000	6.3382648E-003	-9.7381413E-001	0
1.3840530E+002	8.528859804049716E+001	-9.7570038E-001	-7.049588181804905E+000	6.8782857E-003	-9.7581410E-001	0
1.2833653E+002	8.548859803544474E+001	-9.7765172E-001	-7.617875817884396E+000	7.4476292E-003	-9.7781420E-001	0
1.1941537E+002	8.568859803039231E+001	-9.7968054E-001	-8.203973584569752E+000	8.0372728E-003	-9.7981417E-001	0
1.1146487E+002	8.588859802533989E+001	-9.8164833E-001	-8.806795796231569E+000	8.6451760E-003	-9.8181415E-001	0
1.0419144E+002	8.608859802028746E+001	-9.8366022E-001	-9.440893462793639E+000	9.2866309E-003	-9.8381406E-001	0
9.7685623E+001	8.628859801523504E+001	-9.8571992E-001	-1.009073709556307E+001	9.9466406E-003	-9.8581415E-001	0
9.1403252E+001	8.649859800992999E+001	-9.8771590E-001	-1.080613552331928E+001	1.0673392E-002	-9.8791420E-001	0
8.5584778E+001	8.670859800462495E+001	-9.8986471E-001	-1.156589670050170E+001	1.1448673E-002	-9.9001402E-001	0
8.0729973E+001	8.690859799957252E+001	-9.9185169E-001	-1.228604070041453E+001	1.2185930E-002	-9.9201411E-001	0
7.6437904E+001	8.710859799452010E+001	-9.9382311E-001	-1.300170523252616E+001	1.2921395E-002	-9.9401414E-001	0
7.2369385E+001	8.730859798946767E+001	-9.9586660E-001	-1.376088189362395E+001	1.3704003E-002	-9.9601406E-001	0
6.8646950E+001	8.750859798441525E+001	-9.9787039E-001	-1.453626653153336E+001	1.4505310E-002	-9.9801403E-001	0
6.5199860E+001	8.770859797936282E+001	-9.9989432E-001	-1.533583582258552E+001	1.5334215E-002	-1.0000142E+000	0
6.2043694E+001	8.790859797431040E+001	-1.0018889E+000	-1.614811751226179E+001	1.6178619E-002	-1.0020142E+000	0
5.9138325E+001	8.810859796925797E+001	-1.0038879E+000	-1.697525020954019E+001	1.7041247E-002	-1.0040140E+000	0
5.6438046E+001	8.830859796420555E+001	-1.0058589E+000	-1.782235556503008E+001	1.7926775E-002	-1.0060142E+000	0
5.3916973E+001	8.850859795915312E+001	-1.0078700E+000	-1.869300026309730E+001	1.8840114E-002	-1.0080142E+000	0
5.1601009E+001	8.870859795410070E+001	-1.0098959E+000	-1.957124334979216E+001	1.9764919E-002	-1.0100142E+000	0
4.9474957E+001	8.890859794904827E+001	-1.0119096E+000	-2.045296613524022E+001	2.0696552E-002	-1.0120142E+000	0
4.7408554E+001	8.910859794399585E+001	-1.0138576E+000	-2.138554197333561E+001	2.1681894E-002	-1.0140142E+000	0
4.5543396E+001	8.930859793894342E+001	-1.0158900E+000	-2.230597836603656E+001	2.2660421E-002	-1.0160142E+000	0
4.3732727E+001	8.950859793389100E+001	-1.0179162E+000	-2.327584600529701E+001	2.3692861E-002	-1.0180142E+000	0
4.2065845E+001	8.970859792883857E+001	-1.0199075E+000	-2.424549982782929E+001	2.4728166E-002	-1.0200143E+000	0
4.0556107E+001	8.990859792378615E+001	-1.0219263E+000	-2.519784015363038E+001	2.5750335E-002	-1.0220141E+000	0
3.9062824E+001	9.010859791873372E+001	-1.0238563E+000	-2.621050407935152E+001	2.6835790E-002	-1.0240141E+000	0
3.7692474E+001	9.030859791368130E+001	-1.0258858E+000	-2.721725816548266E+001	2.7921800E-002	-1.0260141E+000	0
3.6466507E+001	9.050859790862887E+001	-1.0278826E+000	-2.818703004373174E+001	2.8972957E-002	-1.0280142E+000	0
3.5265965E+001	9.070859790357645E+001	-1.0299008E+000	-2.920381729835285E+001	3.0077035E-002	-1.0300142E+000	0
3.4160446E+001	9.090859789852402E+001	-1.0318297E+000	-3.020539383309767E+001	3.1166824E-002	-1.0320140E+000	0
3.3074627E+001	9.110859789347160E+001	-1.0338532E+000	-3.125819583139172E+001	3.2316387E-002	-1.0340141E+000	0
3.2096828E+001	9.130859788841917E+001	-1.0358154E+000	-3.227157928343524E+001	3.3427399E-002	-1.0360141E+000	0
3.1156624E+001	9.150859788336675E+001	-1.0378668E+000	-3.331127296607792E+001	3.4572665E-002	-1.0380142E+000	0
3.0247820E+001	9.170859787831432E+001	-1.0398694E+000	-3.437832680283748E+001	3.5748970E-002	-1.0400141E+000	0
2.9416906E+001	9.190859787326190E+001	-1.0418984E+000	-3.541835276420966E+001	3.6902323E-002	-1.0420141E+000	0
2.8641983E+001	9.210859786820947E+001	-1.0438628E+000	-3.644520140180799E+001	3.8043790E-002	-1.0440141E+000	0
2.7836388E+001	9.230859786315705E+001	-1.0458814E+000	-3.757245512668237E+001	3.9296333E-002	-1.0460141E+000	0
2.7021559E+001	9.250859785810462E+001	-1.0478731E+000	-3.877915256580252E+001	4.0635630E-002	-1.0480142E+000	0
2.6322166E+001	9.270859785305220E+001	-1.0498863E+000	-3.988601681542777E+001	4.1875783E-002	-1.0500141E+000	0
2.5665071E+001	9.290859784799977E+001	-1.0518839E+000	-4.098503937202253E+001	4.3111503E-002	-1.0520141E+000	0
2.5062115E+001	9.310859784294735E+001	-1.0538907E+000	-4.205114820727948E+001	4.4317313E-002	-1.0540141E+000	0
2.4451462E+001	9.330859783789492E+001	-1.0558623E+000	-4.318197161837765E+001	4.5594215E-002	-1.0560142E+000	0
2.3816530E+001	9.350859783284250E+001	-1.0578861E+000	-4.441814801860539E+001	4.6989344E-002	-1.0580143E+000	0
2.3241812E+001	9.370859782779007E+001	-1.0598627E+000	-4.560155336521666E+001	4.8331387E-002	-1.0600141E+000	0
2.2750286E+001	9.390859782273765E+001	-1.0618855E+000	-4.667569822491964E+001	4.9564246E-002	-1.0620141E+000	0
2.2250769E+001	9.410859781768522E+001	-1.0638858E+000	-4.781344051020494E+001	5.0868042E-002	-1.0640141E+000	0
2.1763620E+001	9.430859781263280E+001	-1.0658948E+000	-4.897598816856510E+001	5.2203253E-002	-1.0660142E+000	0
2.1173285E+001	9.450859780758037E+001	-1.0679106E+000	-5.043669778176172E+001	5.3861883E-002	-1.0680141E+000	0
2.0600155E+001	9.470859780252795E+001	-1.0698971E+000	-5.193636137990484E+001	5.5566560E-002	-1.0700141E+000	0
2.0168472E+001	9.490859779747552E+001	-1.0719072E+000	-5.314766376575375E+001	5.6969363E-002	-1.0720141E+000	0
1.9769733E+001	9.510859779242310E+001	-1.0739017E+000	-5.432049379056843E+001	5.8334868E-002	-1.0740141E+000	0
1.9286358E+001	9.530859778737067E+001	-1.0759077E+000	-5.578594550686353E+001	6.0020529E-002	-1.0760142E+000	0
1.8943316E+001	9.550859778231825E+001	-1.0778598E+000	-5.689921435098790E+001	6.1329372E-002	-1.0780141E+000	0
1.8583075E+001	9.570859777726582E+001	-1.0798931E+000	-5.811165024850334E+001	6.2754370E-002	-1.0800142E+000	0
1.8139128E+001	9.590859777221340E+001	-1.0818999E+000	-5.964454008284076E+001	6.4529419E-002	-1.0820142E+000	0
1.7691359E+001	9.610859776716097E+001	-1.0838875E+000	-6.126649257223085E+001	6.6405982E-002	-1.0840142E+000	0
1.7297312E+001	9.630859776210855E+001	-1.0859007E+000	-6.277857861172834E+001	6.8171300E-002	-1.0860142E+000	0
1.6986284E+001	9.650859775705612E+001	-1.0879112E+000	-6.404645441394803E+001	6.9676861E-002	-1.0880142E+000	0
1.6714705E+001	9.670859775200370E+001	-1.0899326E+000	-6.520800660526925E+001	7.1072333E-002	-1.0900142E+000	0
1.6342964E+001	9.690859774695127E+001	-1.0918936E+000	-6.681122831909056E+001	7.2950751E-002	-1.0920142E+000	0
1.6027300E+001	9.710859774189885E+001	-1.0939207E+000	-6.825358781955174E+001	7.4664012E-002	-1.0940142E+000	0
1.5542390E+001	9.730859773684642E+001	-1.0959297E+000	-7.051230415627492E+001	7.7276528E-002	-1.0960141E+000	0
1.5246082E+001	9.750859773179400E+001	-1.0979134E+000	-7.201281858625896E+001	7.9063840E-002	-1.0980142E+000	0
1.5019800E+001	9.770859772674157E+001	-1.0999254E+000	-7.323169191191801E+001	8.0549397E-002	-1.1000142E+000	0
1.4796826E+001	9.790859772168915E+001	-1.1019183E+000	-7.446991141258741E+001	8.2059763E-002	-1.1020141E+000	0
1.4589248E+001	9.810859771663672E+001	-1.1039405E+000	-7.566809094141362E+001	8.3533071E-002	-1.1040142E+000	0
1.4304569E+001	9.830859771158430E+001	-1.1059465E+000	-7.731421647050217E+001	8.5505389E-002	-1.1060141E+000	0
1.4030568E+001	9.850859770653187E+001	-1.1079587E+000	-7.896748302637019E+001	8.7492704E-002	-1.1080142E+000	0
1.3694459E+001	9.870859770147945E+001	-1.1099652E+000	-8.105213834801492E+001	8.9965053E-002	-1.1100142E+000	0
1.3535681E+001	9.890859769642702E+001	-1.1119729E+000	-8.215123995523595E+001	9.1349952E-002	-1.1120142E+000	0
1.3401915E+001	9.910859769137460E+001	-1.1139657E+000	-8.311989529765356E+001	9.2592716E-002	-1.1140140E+000	0
1.3204486E+001	9.930859768632217E+001	-1.1160119E+000	-8.451763173836433E+001	9.4322681E-002	-1.1160142E+000	0
1.2933708E+001	9.950859768126975E+001	-1.1179967E+000	-8.644053827716084E+001	9.6640237E-002	-1.1180142E+000	0
1.2574934E+001	9.970859767621732E+001	-1.1200097E+000	-8.906683961063800E+001	9.9755719E-002	-1.1200141E+000	0
1.2263327E+001	9.990859767116490E+001	-1.1219670E+000	-9.148961132724321E+001	1.0264832E-001	-1.1220142E+000	0
1.2073540E+001	1.001085976661125E+002	-1.1239439E+000	-9.309150209502604E+001	1.0462963E-001	-1.1240141E+000	0
1.1829484E+001	1.003085976610600E+002	-1.1259660E+000	-9.518301808212345E+001	1.0717284E-001	-1.1260142E+000	0
1.1735832E+001	1.005085976560076E+002	-1.1279424E+000	-9.611098749729513E+001	1.0840766E-001	-1.1280142E+000	0
1.1591023E+001	1.007085976509552E+002	-1.1299486E+000	-9.748480497249966E+001	1.1015282E-001	-1.1300141E+000	0
1.1382867E+001	1.009085976459028E+002	-1.1319518E+000	-9.944347522696671E+001	1.1256522E-001	-1.1320142E+000	0
1.1246358E+001	1.011085976408503E+002	-1.1339831E+000	-1.008311430169883E+002	1.1434081E-001	-1.1340141E+000	0
1.1181224E+001	1.013085976357979E+002	-1.1360049E+000	-1.015993323369360E+002	1.1541734E-001	-1.1360141E+000	0
1.1088634E+001	1.015085976307455E+002	-1.1379572E+000	-1.026237455419937E+002	1.1678143E-001	-1.1380142E+000	0
1.0942228E+001	1.017085976256931E+002	-1.1399716E+000	-1.041809402528534E+002	1.1876331E-001	-1.1400142E+000	0
1.0770974E+001	1.019085976206406E+002	-1.1419796E+000	-1.060237958393401E+002	1.2107701E-001	-1.1420141E+000	0
1.0596742E+001	1.021085976155882E+002	-1.1439638E+000	-1.079543014762088E+002	1.2349582E-001	-1.1440141E+000	0
1.0319015E+001	1.023185976102832E+002	-1.1460981E+000	-1.110666315866977E+002	1.2729326E-001	-1.1461142E+000	0
1.0022154E+001	1.025285976049781E+002	-1.1481258E+000	-1.145587895516633E+002	1.3152790E-001	-1.1482142E+000	0
9.7335691E+000	1.027285975999257E+002	-1.1501219E+000	-1.181603541028202E+002	1.3589881E-001	-1.1502141E+000	0
9.6187210E+000	1.029285975948733E+002	-1.1521420E+000	-1.197812159931852E+002	1.3800497E-001	-1.1522141E+000	0
9.5633869E+000	1.031285975898209E+002	-1.1541471E+000	-1.206839318697148E+002	1.3928701E-001	-1.1542141E+000	0
9.4917364E+000	1.033285975847684E+002	-1.1561239E+000	-1.218032041579963E+002	1.4081959E-001	-1.1562141E+000	0
9.4412966E+000	1.035285975797160E+002	-1.1581253E+000	-1.226659142089809E+002	1.4206250E-001	-1.1582142E+000	0
9.3293772E+000	1.037285975746636E+002	-1.1601030E+000	-1.243494583203410E+002	1.4425817E-001	-1.1602142E+000	0
9.2056074E+000	1.039285975696112E+002	-1.1621115E+000	-1.262395291804187E+002	1.4670441E-001	-1.1622142E+000	0
9.0087471E+000	1.041285975645587E+002	-1.1641332E+000	-1.292225464779772E+002	1.5043226E-001	-1.1642141E+000	0
8.9572687E+000	1.043285975595063E+002	-1.1661648E+000	-1.301920019753128E+002	1.5182532E-001	-1.1662142E+000	0
8.8471041E+000	1.045285975544539E+002	-1.1681520E+000	-1.320377764420714E+002	1.5424019E-001	-1.1682142E+000	0
8.6828270E+000	1.047285975494015E+002	-1.1701607E+000	-1.347672381563252E+002	1.5769932E-001	-1.1702142E+000	0
8.4779119E+000	1.049285975443490E+002	-1.1721191E+000	-1.382556351339472E+002	1.6205208E-001	-1.1722142E+000	0
8.3439131E+000	1.051285975392966E+002	-1.1741334E+000	-1.407173633705190E+002	1.6522096E-001	-1.1742141E+000	0
8.3375139E+000	1.053285975342442E+002	-1.1761334E+000	-1.410652330575890E+002	1.6591153E-001	-1.1762142E+000	0
8.3487921E+000	1.055285975291918E+002	-1.1781391E+000	-1.411149172836965E+002	1.6625300E-001	-1.1782142E+000	0
8.3091736E+000	1.057285975241393E+002	-1.1801287E+000	-1.420272031392633E+002	1.6761038E-001	-1.1802142E+000	0
8.1364441E+000	1.059285975190869E+002	-1.1821613E+000	-1.452921326403716E+002	1.7175874E-001	-1.1822141E+000	0
8.0588446E+000	1.061285975140345E+002	-1.1841364E+000	-1.469362517073582E+002	1.7399256E-001	-1.1842141E+000	0
7.8799114E+000	1.063285975089821E+002	-1.1861035E+000	-1.505224354661786E+002	1.7853518E-001	-1.1862142E+000	0
7.8084984E+000	1.065285975039296E+002	-1.1881133E+000	-1.521564464244711E+002	1.8077910E-001	-1.1882142E+000	0
7.7690983E+000	1.067285974988772E+002	-1.1901091E+000	-1.531849785683644E+002	1.8230684E-001	-1.1902142E+000	0
7.7270761E+000	1.069285974938248E+002	-1.1921570E+000	-1.542830697619729E+002	1.8392965E-001	-1.1922141E+000	0
7.5534649E+000	1.071285974887724E+002	-1.1941029E+000	-1.580867743708375E+002	1.8877187E-001	-1.1942142E+000	0
7.5021915E+000	1.073285974837199E+002	-1.1961379E+000	-1.594384602711042E+002	1.9071038E-001	-1.1962141E+000	0
7.4942136E+000	1.075285974786675E+002	-1.1981473E+000	-1.598763239810803E+002	1.9155538E-001	-1.1982142E+000	0
7.4444871E+000	1.077285974736151E+002	-1.2001768E+000	-1.612168565066758E+002	1.9348873E-001	-1.2002141E+000	0
7.4326959E+000	1.079285974685627E+002	-1.2021224E+000	-1.617343788503786E+002	1.9442452E-001	-1.2022140E+000	0
7.3130870E+000	1.081285974635102E+002	-1.2041246E+000	-1.646533863247118E+002	1.9826318E-001	-1.2042141E+000	0
7.2001948E+000	1.083285974584578E+002	-1.2061352E+000	-1.675142334031948E+002	2.0204480E-001	-1.2062142E+000	0
7.0631871E+000	1.085285974534054E+002	-1.2081681E+000	-1.710514188126369E+002	2.0665887E-001	-1.2082143E+000	0
6.9167256E+000	1.087285974483530E+002	-1.2101550E+000	-1.749606764030023E+002	2.1172954E-001	-1.2102141E+000	0
6.8996921E+000	1.089285974433005E+002	-1.2121227E+000	-1.756777928918939E+002	2.1294303E-001	-1.2122141E+000	0
6.8557429E+000	1.091285974382481E+002	-1.2141581E+000	-1.771008721306205E+002	2.1502845E-001	-1.2142142E+000	0
6.7555676E+000	1.093285974331957E+002	-1.2160822E+000	-1.800118520632896E+002	2.1890922E-001	-1.2162142E+000	0
6.7148619E+000	1.095285974281433E+002	-1.2181454E+000	-1.814103371713165E+002	2.2098416E-001	-1.2182140E+000	0
6.6578665E+000	1.097285974230908E+002	-1.2201760E+000	-1.832683146243194E+002	2.2361960E-001	-1.2202141E+000	0
6.6281667E+000	1.099285974180384E+002	-1.2221626E+000	-1.843892331955929E+002	2.2535363E-001	-1.2222141E+000	0
6.6183033E+000	1.101285974129860E+002	-1.2241479E+000	-1.849640110279702E+002	2.2642331E-001	-1.2242141E+000	0
6.5655026E+000	1.103285974079336E+002	-1.2261322E+000	-1.867537412524493E+002	2.2898477E-001	-1.2262142E+000	0
6.5168138E+000	1.105285974028811E+002	-1.2281399E+000	-1.884571023322551E+002	2.3145168E-001	-1.2282141E+000	0
6.3448820E+000	1.107285973978287E+002	-1.2301605E+000	-1.938823194417278E+002	2.3850636E-001	-1.2302141E+000	0
6.3052602E+000	1.109285973927763E+002	-1.2321320E+000	-1.954133451985120E+002	2.4077503E-001	-1.2322141E+000	0
6.2608237E+000	1.111285973877239E+002	-1.2341470E+000	-1.971221299636395E+002	2.4327767E-001	-1.2342142E+000	0
6.1975980E+000	1.113285973826714E+002	-1.2361537E+000	-1.994569013145774E+002	2.4655940E-001	-1.2362142E+000	0
6.1781487E+000	1.115285973776190E+002	-1.2381545E+000	-2.004086561267877E+002	2.4813689E-001	-1.2382141E+000	0
6.1753197E+000	1.117285973725666E+002	-1.2401226E+000	-2.008191736874405E+002	2.4904038E-001	-1.2402141E+000	0
6.1518188E+000	1.119285973675142E+002	-1.2421695E+000	-2.019190727696678E+002	2.5081772E-001	-1.2422141E+000	0
6.1356621E+000	1.121285973624617E+002	-1.2441530E+000	-2.027740531021773E+002	2.5228196E-001	-1.2442142E+000	0
6.1319532E+000	1.123285973574093E+002	-1.2461690E+000	-2.032254462188066E+002	2.5325325E-001	-1.2462142E+000	0
6.1312308E+000	1.125285973523569E+002	-1.2481264E+000	-2.035686509030744E+002	2.5407940E-001	-1.2482141E+000	0
6.1108484E+000	1.127285973473045E+002	-1.2501040E+000	-2.045712575912472E+002	2.5573534E-001	-1.2502142E+000	0
6.0115938E+000	1.129286973422495E+002	-1.2521261E+000	-2.082852058233723E+002	2.6079935E-001	-1.2522149E+000	0
5.9598894E+000	1.131289973371895E+002	-1.2541335E+000	-2.104289872902477E+002	2.6390603E-001	-1.2542176E+000	0
5.9395590E+000	1.133295973321219E+002	-1.2561926E+000	-2.114959380673351E+002	2.6567963E-001	-1.2562237E+000	0
5.9479780E+000	1.135297973270644E+002	-1.2581718E+000	-2.115293312968192E+002	2.6614025E-001	-1.2582260E+000	0
5.9312553E+000	1.137298973220095E+002	-1.2601933E+000	-2.124665457529704E+002	2.6774892E-001	-1.2602270E+000	0
5.8234587E+000	1.139301973169495E+002	-1.2621604E+000	-2.167372493924522E+002	2.7355719E-001	-1.2622298E+000	0
5.5345287E+000	1.141306973118844E+002	-1.2642101E+000	-2.284223631971189E+002	2.8877386E-001	-1.2642344E+000	0
5.5117965E+000	1.143310973068219E+002	-1.2661449E+000	-2.297154602752630E+002	2.9085305E-001	-1.2662387E+000	0
5.4875813E+000	1.145312973017644E+002	-1.2681915E+000	-2.311020903233648E+002	2.9308170E-001	-1.2682410E+000	0
5.4454775E+000	1.147315972967044E+002	-1.2701914E+000	-2.332562129551375E+002	2.9628006E-001	-1.2702440E+000	0
5.3333516E+000	1.149318972916444E+002	-1.2721907E+000	-2.385349303796013E+002	3.0346191E-001	-1.2722468E+000	0
5.2701888E+000	1.151322972865819E+002	-1.2742124E+000	-2.417773647837585E+002	3.0807570E-001	-1.2742509E+000	0
5.2977591E+000	1.153323972815269E+002	-1.2762293E+000	-2.408998365467096E+002	3.0744341E-001	-1.2762522E+000	0
5.2826452E+000	1.155327972764644E+002	-1.2782433E+000	-2.419703027702449E+002	3.0929691E-001	-1.2782557E+000	0
5.1991677E+000	1.157331972714019E+002	-1.2802126E+000	-2.462341412166534E+002	3.1523207E-001	-1.2802594E+000	0
5.1547360E+000	1.159333972663444E+002	-1.2821946E+000	-2.487410914222589E+002	3.1893450E-001	-1.2822620E+000	0
5.1714239E+000	1.161334972612894E+002	-1.2842314E+000	-2.483322689239185E+002	3.1891611E-001	-1.2842625E+000	0
5.1213055E+000	1.163336972562320E+002	-1.2862394E+000	-2.511545845266103E+002	3.2304493E-001	-1.2862650E+000	0
5.0810280E+000	1.165339972511720E+002	-1.2882441E+000	-2.535400654922228E+002	3.2662150E-001	-1.2882677E+000	0
5.0626078E+000	1.167343972461094E+002	-1.2901999E+000	-2.548488755047484E+002	3.2880598E-001	-1.2902716E+000	0
5.0021901E+000	1.169347972410469E+002	-1.2922786E+000	-2.583425579720609E+002	3.3385056E-001	-1.2922758E+000	0
4.9283395E+000	1.171350972359869E+002	-1.2942433E+000	-2.626124545765556E+002	3.3988443E-001	-1.2942790E+000	0
4.8703790E+000	1.173353972309269E+002	-1.2962413E+000	-2.661479203804878E+002	3.4499192E-001	-1.2962817E+000	0
4.8064919E+000	1.175355972258694E+002	-1.2982726E+000	-2.701081514321031E+002	3.5067400E-001	-1.2982839E+000	0
4.8044806E+000	1.177357972208119E+002	-1.3002781E+000	-2.706386484238442E+002	3.5190549E-001	-1.3002857E+000	0
4.7915378E+000	1.179360972157519E+002	-1.3022746E+000	-2.717863464175049E+002	3.5394046E-001	-1.3022890E+000	0
4.7547879E+000	1.181363972106919E+002	-1.3042334E+000	-2.742989790352111E+002	3.5774991E-001	-1.3042917E+000	0
4.7025542E+000	1.183366972056319E+002	-1.3062364E+000	-2.777716683576625E+002	3.6283547E-001	-1.3062949E+000	0
4.6791325E+000	1.185370972005694E+002	-1.3082891E+000	-2.796007681549507E+002	3.6579862E-001	-1.3082985E+000	0
4.6298685E+000	1.187374971955069E+002	-1.3102230E+000	-2.829935633190237E+002	3.7078467E-001	-1.3103030E+000	0
4.6259542E+000	1.189377971904469E+002	-1.3122643E+000	-2.836743074213719E+002	3.7225568E-001	-1.3123058E+000	0
4.5679498E+000	1.191380971853869E+002	-1.3142687E+000	-2.877152193512438E+002	3.7813511E-001	-1.3143090E+000	0
4.5658350E+000	1.193382971803294E+002	-1.3163284E+000	-2.882995995222918E+002	3.7949696E-001	-1.3163110E+000	0
4.5468793E+000	1.195385971752694E+002	-1.3182974E+000	-2.899345336578390E+002	3.8221994E-001	-1.3183136E+000	0
4.4998221E+000	1.197389971702069E+002	-1.3203400E+000	-2.934204950329099E+002	3.8741481E-001	-1.3203176E+000	0
4.4922762E+000	1.199393971651443E+002	-1.3223130E+000	-2.943525599206760E+002	3.8922620E-001	-1.3223220E+000	0
4.5140276E+000	1.201395971600869E+002	-1.3243185E+000	-2.933784768034989E+002	3.8852656E-001	-1.3243239E+000	0
4.5126243E+000	1.203398971550268E+002	-1.3262850E+000	-2.939054841979289E+002	3.8980243E-001	-1.3263267E+000	0
4.4862537E+000	1.205401971499668E+002	-1.3283314E+000	-2.960892133170382E+002	3.9330459E-001	-1.3283296E+000	0
4.5133929E+000	1.207404971449068E+002	-1.3303293E+000	-2.947514852478425E+002	3.9211655E-001	-1.3303330E+000	0
4.5211296E+000	1.209407971398468E+002	-1.3323718E+000	-2.946988804324521E+002	3.9264849E-001	-1.3323357E+000	0
4.5369768E+000	1.211409971347894E+002	-1.3342779E+000	-2.940896357408742E+002	3.9239728E-001	-1.3343381E+000	0
4.4936743E+000	1.213411971297319E+002	-1.3363230E+000	-2.973786922371321E+002	3.9739400E-001	-1.3363397E+000	0
4.3510017E+000	1.215414971246719E+002	-1.3383514E+000	-3.075961527051559E+002	4.1167173E-001	-1.3383429E+000	0
4.2966170E+000	1.217416971196144E+002	-1.3403500E+000	-3.119547404841808E+002	4.1812855E-001	-1.3403450E+000	0
4.3281078E+000	1.219419971145544E+002	-1.3423368E+000	-3.101440181452399E+002	4.1631773E-001	-1.3423476E+000	0
4.3529387E+000	1.221426971094843E+002	-1.3443203E+000	-3.088305313439005E+002	4.1516715E-001	-1.3443545E+000	0
4.3369246E+000	1.223431971044192E+002	-1.3463242E+000	-3.104329287272644E+002	4.1794336E-001	-1.3463597E+000	0
4.3277397E+000	1.225434970993592E+002	-1.3483300E+000	-3.115552382236576E+002	4.2007929E-001	-1.3483629E+000	0
4.1858253E+000	1.227439970942942E+002	-1.3503501E+000	-3.226006834183286E+002	4.3562388E-001	-1.3503674E+000	0
4.1612787E+000	1.229445970892266E+002	-1.3523742E+000	-3.249900617811027E+002	4.3950817E-001	-1.3523737E+000	0
4.1971855E+000	1.231447970841691E+002	-1.3543829E+000	-3.226883499746677E+002	4.3704358E-001	-1.3543761E+000	0
4.2275672E+000	1.233447970791167E+002	-1.3563894E+000	-3.208439651151912E+002	4.3518937E-001	-1.3563762E+000	0
4.1970072E+000	1.235448970740617E+002	-1.3583931E+000	-3.236575540004269E+002	4.3965417E-001	-1.3583771E+000	0
4.1819315E+000	1.237451970690017E+002	-1.3603809E+000	-3.252996424762059E+002	4.4253141E-001	-1.3603796E+000	0
4.1927094E+000	1.239451970639493E+002	-1.3623878E+000	-3.249420994169668E+002	4.4269714E-001	-1.3623801E+000	0
4.1745262E+000	1.241456970588843E+002	-1.3643776E+000	-3.268341420194261E+002	4.4592518E-001	-1.3643843E+000	0
4.1596384E+000	1.243459970538242E+002	-1.3663712E+000	-3.284831624560902E+002	4.4882992E-001	-1.3663881E+000	0
4.1898170E+000	1.245461970487668E+002	-1.3683656E+000	-3.265931939753787E+002	4.4689891E-001	-1.3683897E+000	0
4.2194986E+000	1.247464970437068E+002	-1.3703365E+000	-3.247628820717960E+002	4.4503444E-001	-1.3703929E+000	0
4.2339482E+000	1.249466970386493E+002	-1.3723866E+000	-3.241387309849372E+002	4.4484365E-001	-1.3723949E+000	0
4.2176352E+000	1.251470970335868E+002	-1.3743867E+000	-3.258666689043163E+002	4.4786680E-001	-1.3743985E+000	0
4.1767068E+000	1.253476970285192E+002	-1.3764139E+000	-3.295452514539588E+002	4.5359069E-001	-1.3764044E+000	0
4.1700439E+000	1.255479970234592E+002	-1.3783616E+000	-3.305388753960187E+002	4.5560208E-001	-1.3784082E+000	0
4.1412239E+000	1.257480970184042E+002	-1.3803926E+000	-3.333295990019333E+002	4.6012568E-001	-1.3804089E+000	0
4.0572162E+000	1.259481970133493E+002	-1.3823570E+000	-3.407156582549051E+002	4.7099069E-001	-1.3824099E+000	0
3.9363248E+000	1.261481970082968E+002	-1.3843707E+000	-3.516911712136134E+002	4.8687094E-001	-1.3844099E+000	0
3.8929715E+000	1.263481970032444E+002	-1.3863769E+000	-3.561230426342845E+002	4.9372074E-001	-1.3864100E+000	0
3.8966632E+000	1.265481969981920E+002	-1.3884065E+000	-3.563065184011484E+002	4.9469829E-001	-1.3884100E+000	0
3.8410242E+000	1.267481969931396E+002	-1.3904344E+000	-3.619957349673427E+002	5.0333130E-001	-1.3904099E+000	0
3.8710155E+000	1.269481969880871E+002	-1.3924212E+000	-3.597043896045816E+002	5.0086004E-001	-1.3924100E+000	0
3.8900731E+000	1.271481969830347E+002	-1.3944132E+000	-3.584542618360110E+002	4.9983338E-001	-1.3944099E+000	0
3.9203115E+000	1.273481969779823E+002	-1.3964611E+000	-3.562117874097939E+002	4.9743593E-001	-1.3964100E+000	0
3.9264522E+000	1.275481969729299E+002	-1.3984303E+000	-3.561562274643084E+002	4.9805969E-001	-1.3984101E+000	0
3.9000123E+000	1.277481969678774E+002	-1.4004537E+000	-3.590895567221451E+002	5.0288832E-001	-1.4004099E+000	0
3.8873804E+000	1.279481969628250E+002	-1.4024560E+000	-3.607715077605635E+002	5.0596619E-001	-1.4024100E+000	0
3.9075620E+000	1.281481969577726E+002	-1.4044250E+000	-3.594120900571488E+002	5.0476736E-001	-1.4044099E+000	0
3.8854139E+000	1.283481969527202E+002	-1.4064724E+000	-3.619877983512783E+002	5.0912589E-001	-1.4064100E+000	0
3.8568294E+000	1.285481969476677E+002	-1.4084450E+000	-3.651820729724941E+002	5.1433885E-001	-1.4084101E+000	0
3.8672295E+000	1.287481969426153E+002	-1.4104332E+000	-3.647141157115680E+002	5.1440489E-001	-1.4104099E+000	0
3.8725824E+000	1.289481969375629E+002	-1.4124217E+000	-3.647234662179217E+002	5.1514333E-001	-1.4124100E+000	0
3.8227410E+000	1.291481969325105E+002	-1.4144461E+000	-3.700083473058530E+002	5.2335685E-001	-1.4144099E+000	0
3.8213804E+000	1.293481969274580E+002	-1.4164265E+000	-3.706583422360272E+002	5.2501029E-001	-1.4164100E+000	0
3.8278978E+000	1.295481969224056E+002	-1.4184142E+000	-3.705465180857655E+002	5.2558845E-001	-1.4184098E+000	0
3.8538997E+000	1.297481969173532E+002	-1.4204253E+000	-3.685683146928714E+002	5.2352375E-001	-1.4204099E+000	0
3.8503971E+000	1.299481969123008E+002	-1.4224099E+000	-3.694190002039159E+002	5.2546525E-001	-1.4224100E+000	0
3.7819989E+000	1.301481969072483E+002	-1.4244190E+000	-3.766312676622201E+002	5.3648072E-001	-1.4244099E+000	0
3.7927015E+000	1.303481969021959E+002	-1.4264516E+000	-3.761043544021040E+002	5.3649467E-001	-1.4264100E+000	0
3.7905567E+000	1.305481968971435E+002	-1.4284425E+000	-3.768423963252681E+002	5.3829771E-001	-1.4284101E+000	0
3.8229415E+000	1.307481968920911E+002	-1.4304323E+000	-3.741705991481181E+002	5.3522569E-001	-1.4304099E+000	0
3.8412161E+000	1.309481968870386E+002	-1.4324436E+000	-3.729141052336927E+002	5.3417844E-001	-1.4324099E+000	0
3.8697522E+000	1.311481968819862E+002	-1.4344302E+000	-3.706775383419481E+002	5.3171104E-001	-1.4344099E+000	0
3.8569505E+000	1.313481968769338E+002	-1.4364462E+000	-3.724305450716256E+002	5.3497642E-001	-1.4364100E+000	0
3.6691685E+000	1.315481968718814E+002	-1.4384181E+000	-3.920283768452750E+002	5.6390071E-001	-1.4384100E+000	0
3.5073819E+000	1.317481968668289E+002	-1.4409811E+000	-4.108423766397844E+002	5.9201610E-001	-1.4404099E+000	0
3.5491512E+000	1.319481968617765E+002	-1.4430103E+000	-4.065789891543582E+002	5.8669770E-001	-1.4424099E+000	0
3.5301483E+000	1.321481968567241E+002	-1.4449389E+000	-4.093139523400168E+002	5.9143364E-001	-1.4444100E+000	0
3.5575364E+000	1.323481968516717E+002	-1.4469696E+000	-4.067336202002980E+002	5.8853120E-001	-1.4464099E+000	0
3.5825665E+000	1.325481968466192E+002	-1.4489146E+000	-4.044348357237395E+002	5.8599156E-001	-1.4484099E+000	0
3.6234994E+000	1.327481968415668E+002	-1.4509653E+000	-4.004320596470034E+002	5.8101302E-001	-1.4504100E+000	0
3.6520023E+000	1.329481968365144E+002	-1.4529110E+000	-3.978395759470063E+002	5.7802552E-001	-1.4524099E+000	0
3.6503572E+000	1.331481968314620E+002	-1.4549605E+000	-3.985802842505664E+002	5.7991856E-001	-1.4544100E+000	0
3.6277883E+000	1.333481968264095E+002	-1.4569569E+000	-4.016102130894196E+002	5.8512878E-001	-1.4564099E+000	0
3.4502559E+000	1.335481968213571E+002	-1.4589766E+000	-4.228604020921030E+002	6.1694342E-001	-1.4584100E+000	0
3.2362018E+000	1.337481968163047E+002	-1.4609990E+000	-4.514548565395307E+002	6.5957510E-001	-1.4604100E+000	0
3.2749510E+000	1.339481968112523E+002	-1.4629940E+000	-4.467224215033912E+002	6.5355223E-001	-1.4624100E+000	0
3.3124981E+000	1.341481968061998E+002	-1.4649763E+000	-4.422572669204380E+002	6.4789641E-001	-1.4644099E+000	0
3.3120995E+000	1.343481968011474E+002	-1.4669793E+000	-4.429152343300193E+002	6.4974749E-001	-1.4664100E+000	0
3.2850442E+000	1.345481967960950E+002	-1.4689888E+000	-4.471747430295370E+002	6.5689468E-001	-1.4684099E+000	0
3.2672954E+000	1.347481967910426E+002	-1.4709809E+000	-4.502136231463510E+002	6.6225564E-001	-1.4704100E+000	0
3.2932663E+000	1.349481967859901E+002	-1.4729904E+000	-4.472733919442126E+002	6.5882939E-001	-1.4724098E+000	0
3.3201182E+000	1.351481967809377E+002	-1.4750061E+000	-4.442631260229614E+002	6.5529084E-001	-1.4744099E+000	0
3.3236530E+000	1.353481967758853E+002	-1.4770384E+000	-4.444021169268908E+002	6.5639901E-001	-1.4764100E+000	0
3.3345008E+000	1.355481967708329E+002	-1.4790361E+000	-4.435554846636021E+002	6.5603459E-001	-1.4784100E+000	0
3.3157730E+000	1.357481967657804E+002	-1.4809848E+000	-4.466484420369820E+002	6.6147953E-001	-1.4804100E+000	0
3.2335627E+000	1.359481967607280E+002	-1.4830096E+000	-4.586302070704187E+002	6.8015301E-001	-1.4824098E+000	0
3.2421553E+000	1.361481967556756E+002	-1.4849969E+000	-4.580276845036742E+002	6.8016970E-001	-1.4844099E+000	0
3.2189169E+000	1.363481967506232E+002	-1.4869959E+000	-4.619553697979645E+002	6.8692577E-001	-1.4864100E+000	0
3.2390697E+000	1.365481967455707E+002	-1.4889868E+000	-4.596958419081839E+002	6.8448108E-001	-1.4884101E+000	0
3.2553046E+000	1.367481967405183E+002	-1.4909962E+000	-4.580204982195301E+002	6.8290687E-001	-1.4904100E+000	0
3.2330954E+000	1.369481967354659E+002	-1.4930370E+000	-4.617979854056084E+002	6.8948150E-001	-1.4924098E+000	0
3.1968825E+000	1.371481967304135E+002	-1.4949973E+000	-4.676422202570902E+002	6.9912386E-001	-1.4944099E+000	0
3.2246447E+000	1.373481967253610E+002	-1.4969891E+000	-4.642338105891549E+002	6.9495296E-001	-1.4964100E+000	0
3.2447350E+000	1.375481967203086E+002	-1.4990250E+000	-4.619868610278263E+002	6.9252986E-001	-1.4984099E+000	0
3.2591619E+000	1.377481967152562E+002	-1.5010287E+000	-4.605566187618533E+002	6.9130868E-001	-1.5004100E+000	0
3.3011451E+000	1.379481967102038E+002	-1.5029975E+000	-4.552957969025447E+002	6.8430847E-001	-1.5024098E+000	0
3.3124647E+000	1.381481967051513E+002	-1.5049810E+000	-4.543387317441247E+002	6.8377119E-001	-1.5044099E+000	0
3.3079045E+000	1.383481967000989E+002	-1.5070168E+000	-4.555804973654185E+002	6.8656743E-001	-1.5064100E+000	0
3.2768536E+000	1.385481966950465E+002	-1.5089976E+000	-4.605019912243988E+002	6.9489640E-001	-1.5084099E+000	0
3.1649518E+000	1.387481966899941E+002	-1.5109918E+000	-4.774138542097430E+002	7.2136843E-001	-1.5104100E+000	0
3.1691504E+000	1.389481966849416E+002	-1.5130168E+000	-4.774203407391406E+002	7.2234499E-001	-1.5124099E+000	0
3.1983073E+000	1.391481966798892E+002	-1.5150199E+000	-4.736942913851217E+002	7.1765625E-001	-1.5144099E+000	0
3.2300434E+000	1.393481966748368E+002	-1.5169880E+000	-4.696494249443331E+002	7.1245253E-001	-1.5164100E+000	0
3.2278321E+000	1.395481966697844E+002	-1.5190252E+000	-4.706022850867039E+002	7.1485674E-001	-1.5184101E+000	0
3.1986508E+000	1.397481966647320E+002	-1.5210301E+000	-4.755223789128604E+002	7.2328383E-001	-1.5204098E+000	0
2.9778318E+000	1.399481966596795E+002	-1.5230584E+000	-5.114655719722468E+002	7.7899194E-001	-1.5224099E+000	0
2.9029856E+000	1.401481966546271E+002	-1.5250658E+000	-5.253438851276514E+002	8.0118400E-001	-1.5244099E+000	0
2.9242692E+000	1.403481966495747E+002	-1.5270897E+000	-5.222124206992794E+002	7.9746521E-001	-1.5264100E+000	0
2.9286363E+000	1.405481966445223E+002	-1.5290629E+000	-5.221074701685493E+002	7.9833513E-001	-1.5284101E+000	0
2.9265471E+000	1.407481966394698E+002	-1.5310732E+000	-5.231671107285681E+002	8.0100715E-001	-1.5304099E+000	0
2.9691160E+000	1.409481966344174E+002	-1.5330604E+000	-5.163356483571952E+002	7.9157376E-001	-1.5324099E+000	0
2.9948902E+000	1.411481966293650E+002	-1.5350584E+000	-5.125591491604073E+002	7.8680819E-001	-1.5344100E+000	0
2.9913156E+000	1.413481966243126E+002	-1.5370523E+000	-5.138382058695042E+002	7.8979617E-001	-1.5364100E+000	0
3.0172415E+000	1.415481966192601E+002	-1.5390664E+000	-5.100905885761276E+002	7.8506333E-001	-1.5384099E+000	0
3.0064390E+000	1.417481966142077E+002	-1.5410683E+000	-5.125892410494580E+002	7.8993505E-001	-1.5404100E+000	0
3.0112131E+000	1.419481966091553E+002	-1.5430667E+000	-5.124402272576917E+002	7.9072946E-001	-1.5424099E+000	0
3.0008116E+000	1.421481966041029E+002	-1.5450575E+000	-5.148799022146923E+002	7.9551905E-001	-1.5444100E+000	0
2.9684706E+000	1.423481965990504E+002	-1.5470685E+000	-5.211668700479883E+002	8.0628085E-001	-1.5464101E+000	0
2.9694855E+000	1.425481965939980E+002	-1.5489936E+000	-5.216370432803997E+002	8.0801243E-001	-1.5484099E+000	0
2.9588361E+000	1.427481965889456E+002	-1.5510620E+000	-5.242135705623496E+002	8.1308776E-001	-1.5504100E+000	0
2.8858812E+000	1.429481965838932E+002	-1.5530518E+000	-5.381551500134450E+002	8.3578283E-001	-1.5524100E+000	0
2.8312399E+000	1.431481965788407E+002	-1.5550380E+000	-5.492427441603477E+002	8.5409331E-001	-1.5544100E+000	0
2.8038564E+000	1.433481965737883E+002	-1.5570756E+000	-5.553336026846955E+002	8.6469644E-001	-1.5564101E+000	0
2.8171751E+000	1.435481965687359E+002	-1.5590861E+000	-5.534217981005477E+002	8.6283225E-001	-1.5584099E+000	0
2.8198838E+000	1.437481965636835E+002	-1.5611069E+000	-5.536068114239621E+002	8.6423939E-001	-1.5604100E+000	0
2.7781744E+000	1.439481965586310E+002	-1.5630904E+000	-5.626322189036946E+002	8.7944502E-001	-1.5624099E+000	0
2.7796013E+000	1.441481965535786E+002	-1.5650558E+000	-5.630504739592659E+002	8.8120544E-001	-1.5644100E+000	0
2.7604294E+000	1.443481965485262E+002	-1.5670683E+000	-5.676900460984962E+002	8.8960910E-001	-1.5664101E+000	0
2.7757137E+000	1.445481965434738E+002	-1.5690563E+000	-5.652802929997142E+002	8.8695657E-001	-1.5684099E+000	0
2.7884936E+000	1.446881965399371E+002	-1.5704647E+000	-5.631946499493661E+002	8.8447732E-001	-1.5698097E+000	0
2.7949855E+000	1.447381965386739E+002	-1.5711422E+000	-5.621288962850767E+002	8.8318443E-001	-1.5703096E+000	1