EC-Lab ASCII FILE
Nb header lines : 61                          

Linear Sweep Voltammetry

Run on channel : 1 (SN 1340)
User : 
Electrode connection : standard
Potential control : Ewe
Ewe ctrl range : min = -5.00 V, max = 5.00 V
Ewe,I filtering : <None>
Channel : Grounded
Acquisition started on : 01/30/2026 13:36:56.223
Technique started on : 01/30/2026 13:36:59.060
Loaded Setting File :  C:\Users\volt\Documents\Platalytix\PtPdNiCoCr_oxidized_IR.mps
Saved on :
	File : PtPdNiCoCr_polished_IR_02_LSV_C01.mpr
	Directory : C:\Users\volt\Documents\Platalytix\
	Host : 127.0.0.1
Device : SP-200 (SN 0262)
Address : USB
EC-LAB for windows v11.60 (software)
Internet server v11.60 (firmware)
Command interpretor v11.60 (firmware)
Electrode material : PtPdNiCoCr
Initial state : 
Electrolyte : KOH (1 M)
Comments : 
Cable : standard
Reference electrode : Hg/HgO (0.140 V)
Electrode surface area : 1.000 cm˛
Characteristic mass : 0.001 g
Equivalent Weight : 0.000 g/eq.
Density : 0.000 g/cm3
Volume (V) : 0.001 cmł
Cycle Definition : Charge/Discharge alternance
tR (h:m:s)          0:00:5.0000         
dER/dt (mV/h)       0.0                 
dER (mV)            0                   
dtR (s)             0.0000              
dE/dt               10.000              
dE/dt unit          mV/s                
Ei (V)              -0.200              
vs.                 Ref                 
EL (V)              -2.000              
vs.                 Ref                 
record              <I>                 
dI                  0.000               
unit dI             µA                  
tI (s)              0.0000              
step percent        50                  
N                   10                  
E range min (V)     -5.000              
E range max (V)     5.000               
I Range             Auto                
I Range min         Unset               
I Range max         Unset               
I Range init        Unset               
Bandwidth           8                   

Rwe/Ohm	time/s	Ewe/V	<I>/mA	Pwe/W	control/V	error	
0.0000000E+000	2.837400134740165E+000	-1.4051971E-001	0.000000000000000E+000	0.0000000E+000	0.0000000E+000	0
0.0000000E+000	7.837200008434593E+000	-2.6413623E-002	0.000000000000000E+000	0.0000000E+000	-1.9980645E-001	0
2.0565396E+003	8.037200003382168E+000	-2.0154053E-001	-9.799983285367492E-002	1.9750938E-005	-2.0170623E-001	0
9.8303735E+002	8.157200000350713E+000	-2.0273092E-001	-2.062291098444970E-001	4.1809017E-005	-2.0290630E-001	0
1.0285077E+003	8.367199995045667E+000	-2.0485152E-001	-1.991735527243317E-001	4.0801006E-005	-2.0500629E-001	0
1.1134822E+003	8.567199989993242E+000	-2.0688556E-001	-1.858005168606991E-001	3.8439444E-005	-2.0700629E-001	0
1.1899967E+003	8.767199984940817E+000	-2.0888397E-001	-1.755332341005864E-001	3.6666079E-005	-2.0900629E-001	0
1.2573772E+003	8.967199979888392E+000	-2.1089019E-001	-1.677222866691701E-001	3.5370984E-005	-2.1100627E-001	0
1.3181388E+003	9.167199974835967E+000	-2.1288608E-001	-1.615050624329561E-001	3.4382181E-005	-2.1300629E-001	0
1.3737880E+003	9.367199969783542E+000	-2.1490656E-001	-1.564335682906646E-001	3.3618599E-005	-2.1500629E-001	0
1.4245750E+003	9.567199964731117E+000	-2.1686609E-001	-1.522321389584703E-001	3.3013988E-005	-2.1700630E-001	0
1.4717668E+003	9.767199959678692E+000	-2.1884048E-001	-1.486923506044175E-001	3.2539905E-005	-2.1900627E-001	0
1.5160388E+003	9.967199954626267E+000	-2.2085077E-001	-1.456761935920099E-001	3.2172698E-005	-2.2100630E-001	0
1.5585529E+003	1.016719994957384E+001	-2.2290009E-001	-1.430173511205075E-001	3.1878582E-005	-2.2300628E-001	0
1.5982302E+003	1.036719994452142E+001	-2.2488897E-001	-1.407112450467720E-001	3.1644406E-005	-2.2500627E-001	0
1.6357715E+003	1.056719993946899E+001	-2.2688417E-001	-1.387016281882576E-001	3.1469204E-005	-2.2700630E-001	0
1.6724731E+003	1.076719993441657E+001	-2.2888872E-001	-1.368564404314905E-001	3.1324897E-005	-2.2900626E-001	0
1.7072047E+003	1.096719992936414E+001	-2.3086950E-001	-1.352324678854018E-001	3.1221054E-005	-2.3100628E-001	0
1.7406953E+003	1.116719992431172E+001	-2.3283838E-001	-1.337617057514989E-001	3.1144860E-005	-2.3300628E-001	0
1.7743009E+003	1.136719991925929E+001	-2.3492169E-001	-1.324024017617238E-001	3.1104195E-005	-2.3500627E-001	0
1.8060253E+003	1.156719991420687E+001	-2.3688951E-001	-1.311662198971458E-001	3.1071901E-005	-2.3700628E-001	0
1.8358239E+003	1.176719990915444E+001	-2.3885313E-001	-1.301067792937209E-001	3.1076412E-005	-2.3900628E-001	0
1.8646807E+003	1.196719990410202E+001	-2.4089648E-001	-1.291891303380139E-001	3.1121206E-005	-2.4100628E-001	0
1.8905483E+003	1.216719989904959E+001	-2.4291167E-001	-1.284874118220427E-001	3.1211090E-005	-2.4300627E-001	0
1.9150685E+003	1.236719989399717E+001	-2.4489649E-001	-1.278787059096991E-001	3.1317046E-005	-2.4500629E-001	0
1.9404689E+003	1.256719988894474E+001	-2.4688445E-001	-1.272292725304708E-001	3.1410927E-005	-2.4700628E-001	0
1.9657479E+003	1.276719988389232E+001	-2.4889815E-001	-1.266175321432130E-001	3.1514868E-005	-2.4900627E-001	0
1.9902889E+003	1.296719987883989E+001	-2.5092432E-001	-1.260743175988046E-001	3.1635111E-005	-2.5100628E-001	0
2.0150786E+003	1.316719987378747E+001	-2.5290215E-001	-1.255048552217586E-001	3.1740448E-005	-2.5300625E-001	0
2.0398887E+003	1.336719986873504E+001	-2.5497103E-001	-1.249926161441251E-001	3.1869495E-005	-2.5500628E-001	0
2.0641504E+003	1.356719986368262E+001	-2.5691822E-001	-1.244668179738608E-001	3.1977794E-005	-2.5700629E-001	0
2.0880400E+003	1.376719985863019E+001	-2.5890222E-001	-1.239929342644534E-001	3.2102045E-005	-2.5900626E-001	0
2.1115730E+003	1.396719985357777E+001	-2.6087284E-001	-1.235443095226774E-001	3.2229356E-005	-2.6100630E-001	0
2.1349739E+003	1.416719984852534E+001	-2.6284194E-001	-1.231124866806614E-001	3.2359127E-005	-2.6300627E-001	0
2.1587610E+003	1.436719984347292E+001	-2.6481083E-001	-1.226679761725101E-001	3.2483807E-005	-2.6500630E-001	0
2.1834055E+003	1.456719983842049E+001	-2.6683977E-001	-1.222126430635451E-001	3.2611195E-005	-2.6700628E-001	0
2.2076826E+003	1.476719983336807E+001	-2.6885238E-001	-1.217803532815203E-001	3.2740940E-005	-2.6900628E-001	0
2.2328838E+003	1.496719982831564E+001	-2.7092397E-001	-1.213336655122491E-001	3.2872198E-005	-2.7100626E-001	0
2.2561943E+003	1.516719982326322E+001	-2.7285850E-001	-1.209375026156440E-001	3.2998825E-005	-2.7300629E-001	0
2.2796624E+003	1.536719981821079E+001	-2.7483189E-001	-1.205581605926476E-001	3.3133227E-005	-2.7500629E-001	0
2.3038538E+003	1.556719981315837E+001	-2.7684596E-001	-1.201664614786826E-001	3.3267599E-005	-2.7700627E-001	0
2.3280562E+003	1.576719980810594E+001	-2.7889317E-001	-1.197965840868185E-001	3.3410448E-005	-2.7900627E-001	0
2.3526965E+003	1.596719980305352E+001	-2.8088224E-001	-1.193873595516032E-001	3.3533790E-005	-2.8100628E-001	0
2.3766187E+003	1.616719979800109E+001	-2.8285113E-001	-1.190140940061015E-001	3.3663269E-005	-2.8300628E-001	0
2.4003301E+003	1.636719979294867E+001	-2.8490978E-001	-1.186960835786972E-001	3.3817676E-005	-2.8500628E-001	0
2.4251987E+003	1.656719978789624E+001	-2.8686106E-001	-1.182835336252964E-001	3.3930941E-005	-2.8700632E-001	0
2.4485796E+003	1.676719978284382E+001	-2.8889254E-001	-1.179837193530128E-001	3.4084616E-005	-2.8900626E-001	0
2.4730730E+003	1.696719977779139E+001	-2.9091027E-001	-1.176310953242772E-001	3.4220095E-005	-2.9100627E-001	0
2.4973726E+003	1.716719977273897E+001	-2.9288280E-001	-1.172763753709831E-001	3.4348232E-005	-2.9300627E-001	0
2.5206436E+003	1.736719976768654E+001	-2.9487780E-001	-1.169851260616649E-001	3.4496315E-005	-2.9500628E-001	0
2.5442844E+003	1.756719976263412E+001	-2.9690063E-001	-1.166931714338846E-001	3.4646277E-005	-2.9700628E-001	0
2.5689304E+003	1.776719975758169E+001	-2.9890791E-001	-1.163550040995083E-001	3.4779430E-005	-2.9900628E-001	0
2.5911113E+003	1.796719975252927E+001	-3.0084074E-001	-1.161049028579784E-001	3.4929086E-005	-3.0100626E-001	0
2.6125420E+003	1.816719974747684E+001	-3.0286205E-001	-1.159261895360552E-001	3.5109642E-005	-3.0300629E-001	0
2.6360452E+003	1.836719974242442E+001	-3.0487403E-001	-1.156558460817832E-001	3.5260466E-005	-3.0500630E-001	0
2.6609968E+003	1.856719973737199E+001	-3.0686179E-001	-1.153183561515342E-001	3.5386798E-005	-3.0700624E-001	0
2.6852297E+003	1.876719973231957E+001	-3.0887946E-001	-1.150290611349969E-001	3.5530116E-005	-3.0900627E-001	0
2.7096968E+003	1.896719972726714E+001	-3.1087512E-001	-1.147269072705912E-001	3.5665740E-005	-3.1100625E-001	0
2.7349060E+003	1.916719972221472E+001	-3.1287906E-001	-1.144021269126192E-001	3.5794030E-005	-3.1300628E-001	0
2.7603660E+003	1.936719971716229E+001	-3.1492069E-001	-1.140865681950605E-001	3.5928220E-005	-3.1500629E-001	0
2.7836082E+003	1.956719971210987E+001	-3.1691864E-001	-1.138517438252444E-001	3.6081739E-005	-3.1700617E-001	0
2.8071621E+003	1.976719970705744E+001	-3.1890711E-001	-1.136048029645718E-001	3.6229379E-005	-3.1900629E-001	0
2.8325420E+003	1.996719970200502E+001	-3.2090083E-001	-1.132907596630071E-001	3.6355097E-005	-3.2100624E-001	0
2.8582573E+003	2.016719969695259E+001	-3.2289252E-001	-1.129683170239534E-001	3.6476624E-005	-3.2300612E-001	0
2.8864231E+003	2.036719969190017E+001	-3.2488233E-001	-1.125553361279574E-001	3.6567239E-005	-3.2500604E-001	0
2.9142146E+003	2.056719968684774E+001	-3.2687235E-001	-1.121648136080751E-001	3.6663576E-005	-3.2700592E-001	0
2.9417178E+003	2.076719968179532E+001	-3.2888171E-001	-1.117992029438753E-001	3.6768713E-005	-3.2900584E-001	0
2.9701936E+003	2.096719967674289E+001	-3.3089617E-001	-1.114055853539790E-001	3.6863683E-005	-3.3100626E-001	0
2.9996716E+003	2.116719967169047E+001	-3.3288750E-001	-1.109746497846682E-001	3.6942074E-005	-3.3300614E-001	0
3.0284287E+003	2.136719966663804E+001	-3.3490866E-001	-1.105882574481005E-001	3.7036967E-005	-3.3500603E-001	0
3.0586174E+003	2.156719966158562E+001	-3.3690378E-001	-1.101490380939381E-001	3.7109628E-005	-3.3700594E-001	0
3.0883757E+003	2.176719965653319E+001	-3.3885771E-001	-1.097203663427830E-001	3.7179590E-005	-3.3900583E-001	0
3.1210447E+003	2.196719965148077E+001	-3.4089530E-001	-1.092247426786508E-001	3.7234200E-005	-3.4100571E-001	0
3.1514580E+003	2.216719964642834E+001	-3.4289104E-001	-1.088039328116093E-001	3.7307895E-005	-3.4300560E-001	0
3.1827478E+003	2.236719964137592E+001	-3.4489229E-001	-1.083630590906572E-001	3.7373586E-005	-3.4500551E-001	0
3.2144907E+003	2.256719963632349E+001	-3.4694275E-001	-1.079308634999792E-001	3.7445832E-005	-3.4700540E-001	0
3.2448174E+003	2.276719963127107E+001	-3.4886849E-001	-1.075155987634475E-001	3.7508806E-005	-3.4900531E-001	0
3.2787773E+003	2.296719962621864E+001	-3.5085151E-001	-1.070068066289263E-001	3.7543497E-005	-3.5100520E-001	0
3.3141365E+003	2.316719962116622E+001	-3.5291660E-001	-1.064882498411906E-001	3.7581471E-005	-3.5300511E-001	0
3.3474038E+003	2.336719961611379E+001	-3.5490054E-001	-1.060226273104177E-001	3.7627487E-005	-3.5500497E-001	0
3.3829570E+003	2.356719961106137E+001	-3.5689244E-001	-1.054971844787853E-001	3.7651149E-005	-3.5700488E-001	0
3.4173044E+003	2.376719960600894E+001	-3.5888690E-001	-1.050204666027308E-001	3.7690468E-005	-3.5900477E-001	0
3.4502642E+003	2.396719960095652E+001	-3.6088774E-001	-1.045971329528803E-001	3.7747821E-005	-3.6100468E-001	0
3.4862375E+003	2.416719959590409E+001	-3.6292273E-001	-1.041015457201434E-001	3.7780817E-005	-3.6300457E-001	0
3.5229998E+003	2.436709959085420E+001	-3.6487818E-001	-1.035703084733626E-001	3.7790545E-005	-3.6500534E-001	0
3.5594529E+003	2.456699958580430E+001	-3.6688027E-001	-1.030720958365823E-001	3.7815120E-005	-3.6700433E-001	0
3.5990354E+003	2.476699958075187E+001	-3.6888680E-001	-1.024960165203481E-001	3.7809426E-005	-3.6900422E-001	0
3.6385547E+003	2.496699957569945E+001	-3.7087706E-001	-1.019297748827321E-001	3.7803416E-005	-3.7100413E-001	0
3.6790391E+003	2.516699957064702E+001	-3.7287703E-001	-1.013517452830496E-001	3.7791739E-005	-3.7300405E-001	0
3.7190195E+003	2.536699956559460E+001	-3.7486237E-001	-1.007960184409695E-001	3.7784634E-005	-3.7500393E-001	0
3.7609583E+003	2.556699956054217E+001	-3.7691820E-001	-1.002186584337079E-001	3.7774236E-005	-3.7700385E-001	0
3.8036868E+003	2.576699955548975E+001	-3.7891391E-001	-9.961753680165919E-002	3.7746471E-005	-3.7900370E-001	0
3.8469468E+003	2.596699955043732E+001	-3.8087252E-001	-9.900644123807689E-002	3.7708833E-005	-3.8100359E-001	0
3.8904648E+003	2.616699954538490E+001	-3.8287085E-001	-9.841262268286899E-002	3.7679325E-005	-3.8300350E-001	0
3.9360601E+003	2.636699954033247E+001	-3.8489541E-001	-9.778697546539816E-002	3.7637757E-005	-3.8500342E-001	0
3.9805952E+003	2.656699953528005E+001	-3.8690242E-001	-9.719712576985184E-002	3.7605805E-005	-3.8700327E-001	0
4.0265540E+003	2.676699953022762E+001	-3.8892809E-001	-9.659080433473433E-002	3.7566875E-005	-3.8900316E-001	0
4.0720227E+003	2.696699952517520E+001	-3.9092806E-001	-9.600340766946314E-002	3.7530426E-005	-3.9100307E-001	0
4.1178594E+003	2.716699952012277E+001	-3.9290002E-001	-9.541365907890764E-002	3.7488029E-005	-3.9300302E-001	0
4.1638896E+003	2.736699951507035E+001	-3.9487121E-001	-9.483229763945222E-002	3.7446545E-005	-3.9500287E-001	0
4.2089707E+003	2.756699951001792E+001	-3.9684358E-001	-9.428518317489898E-002	3.7416470E-005	-3.9700279E-001	0
4.2571060E+003	2.776699950496550E+001	-3.9888602E-001	-9.369887018950029E-002	3.7375168E-005	-3.9900264E-001	0
4.3070737E+003	2.796699949991307E+001	-4.0086710E-001	-9.307179919733333E-002	3.7309423E-005	-4.0100259E-001	0
4.3563389E+003	2.816689949486317E+001	-4.0289184E-001	-9.248404728696324E-002	3.7261067E-005	-4.0300336E-001	0
4.4043809E+003	2.836679948981327E+001	-4.0487498E-001	-9.192551362968104E-002	3.7218342E-005	-4.0500233E-001	0
4.4531328E+003	2.856679948476085E+001	-4.0693519E-001	-9.138177618301979E-002	3.7186459E-005	-4.0700224E-001	0
4.5028545E+003	2.876679947970842E+001	-4.0890121E-001	-9.080933153633541E-002	3.7132046E-005	-4.0900213E-001	0
4.5525679E+003	2.896679947465600E+001	-4.1086811E-001	-9.024974864024826E-002	3.7080743E-005	-4.1100204E-001	0
4.6017373E+003	2.916679946960357E+001	-4.1294304E-001	-8.973633487341409E-002	3.7055994E-005	-4.1300189E-001	0
4.6513335E+003	2.936679946455115E+001	-4.1491580E-001	-8.920362748494959E-002	3.7011996E-005	-4.1500184E-001	0
4.7048184E+003	2.956679945949872E+001	-4.1692728E-001	-8.861708725631517E-002	3.6946880E-005	-4.1700169E-001	0
4.7585439E+003	2.976679945444630E+001	-4.1892448E-001	-8.803627632300695E-002	3.6880552E-005	-4.1900161E-001	0
4.8093896E+003	2.996679944939388E+001	-4.2089841E-001	-8.751596989798616E-002	3.6835332E-005	-4.2100149E-001	0
4.8621025E+003	3.016679944434145E+001	-4.2291021E-001	-8.698093550186803E-002	3.6785124E-005	-4.2300138E-001	0
4.9143247E+003	3.036679943928903E+001	-4.2491749E-001	-8.646508470619041E-002	3.6740526E-005	-4.2500126E-001	0
4.9680098E+003	3.056679943423660E+001	-4.2695394E-001	-8.594064422103828E-002	3.6692698E-005	-4.2700118E-001	0
5.0230391E+003	3.076679942918418E+001	-4.2893252E-001	-8.539303152424904E-002	3.6627847E-005	-4.2900106E-001	0
5.0783345E+003	3.096679942413175E+001	-4.3094715E-001	-8.485993979786022E-002	3.6570149E-005	-4.3100098E-001	0
5.1306353E+003	3.116679941907933E+001	-4.3292421E-001	-8.438023285097684E-002	3.6530244E-005	-4.3300083E-001	0
5.1832529E+003	3.136679941402690E+001	-4.3495306E-001	-8.391507923848041E-002	3.6499121E-005	-4.3500078E-001	0
5.2367646E+003	3.156679940897448E+001	-4.3694708E-001	-8.343836139938210E-002	3.6458146E-005	-4.3700063E-001	0
5.2930718E+003	3.176679940392205E+001	-4.3893966E-001	-8.292721096550837E-002	3.6400041E-005	-4.3900058E-001	0
5.3514800E+003	3.196659939887468E+001	-4.4095829E-001	-8.239931550395008E-002	3.6334663E-005	-4.4100022E-001	0
5.4066802E+003	3.216659939382225E+001	-4.4291458E-001	-8.191987820119578E-002	3.6283509E-005	-4.4300029E-001	0
5.4649385E+003	3.236659938876983E+001	-4.4491929E-001	-8.141340990762003E-002	3.6222398E-005	-4.4500023E-001	0
5.5209863E+003	3.256659938371740E+001	-4.4698033E-001	-8.096022971603778E-002	3.6187630E-005	-4.4700012E-001	0
5.5812017E+003	3.276659937866498E+001	-4.4892627E-001	-8.043541266137333E-002	3.6109570E-005	-4.4900003E-001	0
5.6401426E+003	3.296659937361255E+001	-4.5089993E-001	-7.994477443614538E-002	3.6047095E-005	-4.5099986E-001	0
5.6949185E+003	3.316659936856013E+001	-4.5294657E-001	-7.953521409737196E-002	3.6025202E-005	-4.5299986E-001	0
5.7534893E+003	3.336659936350770E+001	-4.5491704E-001	-7.906802718331221E-002	3.5969395E-005	-4.5499966E-001	0
5.8102324E+003	3.356659935845528E+001	-4.5689496E-001	-7.863626041863558E-002	3.5928511E-005	-4.5699960E-001	0
5.8674692E+003	3.376659935340285E+001	-4.5893168E-001	-7.821629147041098E-002	3.5895933E-005	-4.5899948E-001	0
5.9255835E+003	3.396659934835043E+001	-4.6092445E-001	-7.778549384507349E-002	3.5853234E-005	-4.6099937E-001	0
5.9835581E+003	3.416659934329800E+001	-4.6290237E-001	-7.736239037286441E-002	3.5811234E-005	-4.6299931E-001	0
6.0418555E+003	3.436659933824558E+001	-4.6489641E-001	-7.694596649293295E-002	3.5771904E-005	-4.6499917E-001	0
6.0992471E+003	3.456659933319315E+001	-4.6688285E-001	-7.654762255395338E-002	3.5738773E-005	-4.6699911E-001	0
6.1587144E+003	3.476659932814073E+001	-4.6892926E-001	-7.614076918924462E-002	3.5704634E-005	-4.6899894E-001	0
6.2136367E+003	3.496659932308830E+001	-4.7089937E-001	-7.578482248507790E-002	3.5687026E-005	-4.7099888E-001	0
6.2747227E+003	3.516659931803588E+001	-4.7294134E-001	-7.537246732592462E-002	3.5646757E-005	-4.7299874E-001	0
6.3325972E+003	3.536659931298345E+001	-4.7491249E-001	-7.499489810659854E-002	3.5616013E-005	-4.7499859E-001	0
6.3947510E+003	3.556659930793103E+001	-4.7689953E-001	-7.457671558342938E-002	3.5565601E-005	-4.7699854E-001	0
6.4487617E+003	3.576639930288366E+001	-4.7894025E-001	-7.426856246474856E-002	3.5570203E-005	-4.7899839E-001	0
6.5087363E+003	3.596639929783123E+001	-4.8089266E-001	-7.388418355572313E-002	3.5530360E-005	-4.8099834E-001	0
6.5658799E+003	3.616639929277881E+001	-4.8291543E-001	-7.354923443026151E-002	3.5518060E-005	-4.8299819E-001	0
6.6250479E+003	3.636639928772638E+001	-4.8491937E-001	-7.319484782022945E-002	3.5493598E-005	-4.8499811E-001	0
6.6871919E+003	3.656639928267396E+001	-4.8686057E-001	-7.280493420738821E-002	3.5445853E-005	-4.8699802E-001	0
6.7431113E+003	3.676639927762153E+001	-4.8892236E-001	-7.250694063378071E-002	3.5450263E-005	-4.8899788E-001	0
6.7991064E+003	3.696639927256911E+001	-4.9092662E-001	-7.220458205897021E-002	3.5447152E-005	-4.9099782E-001	0
6.8550273E+003	3.716639926751668E+001	-4.9290583E-001	-7.190428100750212E-002	3.5442037E-005	-4.9299768E-001	0
6.9137695E+003	3.736639926246426E+001	-4.9493146E-001	-7.158633995518215E-002	3.5430330E-005	-4.9499762E-001	0
6.9780972E+003	3.756639925741183E+001	-4.9689326E-001	-7.120755563760461E-002	3.5382553E-005	-4.9699748E-001	0
7.0359150E+003	3.776639925235941E+001	-4.9887961E-001	-7.090472262996816E-002	3.5372919E-005	-4.9899739E-001	0
7.0976030E+003	3.796639924730698E+001	-5.0090259E-001	-7.057348874665781E-002	3.5350444E-005	-5.0099730E-001	0
7.1543457E+003	3.816639924225456E+001	-5.0292569E-001	-7.029653404883685E-002	3.5353933E-005	-5.0299716E-001	0
7.2123071E+003	3.836639923720213E+001	-5.0491405E-001	-7.000728739402298E-002	3.5347664E-005	-5.0499707E-001	0
7.2712520E+003	3.856639923214971E+001	-5.0692987E-001	-6.971699974442602E-002	3.5341629E-005	-5.0699693E-001	0
7.3280649E+003	3.876639922709728E+001	-5.0888467E-001	-6.944325405580543E-002	3.5338606E-005	-5.0899690E-001	0
7.3888408E+003	3.896639922204486E+001	-5.1091951E-001	-6.914745048828874E-002	3.5328783E-005	-5.1099676E-001	0
7.4555737E+003	3.916639921699243E+001	-5.1292288E-001	-6.879723958656292E-002	3.5287678E-005	-5.1299667E-001	0
7.5137471E+003	3.936629921194253E+001	-5.1489633E-001	-6.852723661221810E-002	3.5284422E-005	-5.1499683E-001	0
7.5706406E+003	3.956619920689263E+001	-5.1691943E-001	-6.827948306731535E-002	3.5294990E-005	-5.1699644E-001	0
7.6307979E+003	3.976619920184021E+001	-5.1888257E-001	-6.799846790813313E-002	3.5283221E-005	-5.1899636E-001	0
7.6877539E+003	3.996619919678778E+001	-5.2087659E-001	-6.775406719229732E-002	3.5291509E-005	-5.2099621E-001	0
7.7505830E+003	4.016619919173536E+001	-5.2294213E-001	-6.747132565566435E-002	3.5283600E-005	-5.2299619E-001	0
7.8132983E+003	4.036619918668293E+001	-5.2490163E-001	-6.718054477889884E-002	3.5263176E-005	-5.2499604E-001	0
7.8711680E+003	4.056619918163051E+001	-5.2690715E-001	-6.694141886135807E-002	3.5271911E-005	-5.2699596E-001	0
7.9262754E+003	4.076619917657808E+001	-5.2888149E-001	-6.672509611729938E-002	3.5289668E-005	-5.2899581E-001	0
7.9935039E+003	4.096619917152566E+001	-5.3091794E-001	-6.641867501152210E-002	3.5262867E-005	-5.3099573E-001	0
8.0534727E+003	4.116619916647323E+001	-5.3289330E-001	-6.616938117545203E-002	3.5261219E-005	-5.3299564E-001	0
8.1171162E+003	4.136619916142081E+001	-5.3493065E-001	-6.590156357676236E-002	3.5252768E-005	-5.3499550E-001	0
8.1759688E+003	4.156619915636838E+001	-5.3694808E-001	-6.567393879663774E-002	3.5263496E-005	-5.3699541E-001	0
8.2347393E+003	4.176619915131596E+001	-5.3887540E-001	-6.543927687397666E-002	3.5263616E-005	-5.3899533E-001	0
8.2967129E+003	4.196619914626353E+001	-5.4096669E-001	-6.520253554770072E-002	3.5272398E-005	-5.4099518E-001	0
8.3564766E+003	4.216619914121111E+001	-5.4292613E-001	-6.497070285419837E-002	3.5274294E-005	-5.4299510E-001	0
8.4230518E+003	4.236619913615868E+001	-5.4491216E-001	-6.469295955687554E-002	3.5251982E-005	-5.4499495E-001	0
8.4841621E+003	4.256619913110626E+001	-5.4692358E-001	-6.446406774723368E-002	3.5256919E-005	-5.4699492E-001	0
8.5387129E+003	4.276619912605383E+001	-5.4893565E-001	-6.428786602648429E-002	3.5289901E-005	-5.4899478E-001	0
8.6079795E+003	4.296619912100141E+001	-5.5092609E-001	-6.400179149173282E-002	3.5260258E-005	-5.5099463E-001	0
8.6627178E+003	4.316609911595151E+001	-5.5292881E-001	-6.382856319996200E-002	3.5292651E-005	-5.5299526E-001	0
8.7329063E+003	4.336599911090161E+001	-5.5491459E-001	-6.354294790803983E-002	3.5260909E-005	-5.5499440E-001	0
8.7924521E+003	4.356599910584919E+001	-5.5690098E-001	-6.333852622788955E-002	3.5273286E-005	-5.5699438E-001	0
8.8489893E+003	4.376599910079676E+001	-5.5893236E-001	-6.316341620726307E-002	3.5304078E-005	-5.5899417E-001	0
8.9068662E+003	4.396599909574434E+001	-5.6094104E-001	-6.297849752895879E-002	3.5327223E-005	-5.6099415E-001	0
8.9689434E+003	4.416599909069191E+001	-5.6291729E-001	-6.276294411859051E-002	3.5330348E-005	-5.6299400E-001	0
9.0290576E+003	4.436599908563949E+001	-5.6496805E-001	-6.257220352218483E-002	3.5351295E-005	-5.6499392E-001	0
9.0825352E+003	4.456599908058706E+001	-5.6688225E-001	-6.241453820818403E-002	3.5381694E-005	-5.6699377E-001	0
9.1446377E+003	4.476599907553464E+001	-5.6889415E-001	-6.221068244535136E-002	3.5391295E-005	-5.6899369E-001	0
9.2104570E+003	4.496599907048221E+001	-5.7090127E-001	-6.198403446369150E-002	3.5386765E-005	-5.7099360E-001	0
9.2704385E+003	4.516599906542979E+001	-5.7291955E-001	-6.180069261481827E-002	3.5406825E-005	-5.7299346E-001	0
9.3267666E+003	4.536599906037736E+001	-5.7489425E-001	-6.163918024906767E-002	3.5436009E-005	-5.7499343E-001	0
9.3847422E+003	4.556599905532494E+001	-5.7692546E-001	-6.147483016560673E-002	3.5466393E-005	-5.7699329E-001	0
9.4442100E+003	4.576599905027251E+001	-5.7891852E-001	-6.129877467094902E-002	3.5486995E-005	-5.7899320E-001	0
9.4990605E+003	4.596599904522009E+001	-5.8091146E-001	-6.115462011055783E-002	3.5525420E-005	-5.8099312E-001	0
9.5605781E+003	4.616599904016766E+001	-5.8289188E-001	-6.096826540675793E-002	3.5537905E-005	-5.8299297E-001	0
9.6084141E+003	4.636599903511524E+001	-5.8490080E-001	-6.087381270811276E-002	3.5605142E-005	-5.8499289E-001	0
9.6700732E+003	4.656599903006281E+001	-5.8689570E-001	-6.069195839204755E-002	3.5619851E-005	-5.8699274E-001	0
9.7234561E+003	4.676599902501039E+001	-5.8895487E-001	-6.057052853857248E-002	3.5673307E-005	-5.8899266E-001	0
9.7717891E+003	4.696579901996301E+001	-5.9094250E-001	-6.047434221437875E-002	3.5736859E-005	-5.9099233E-001	0
9.8344873E+003	4.716579901491059E+001	-5.9290051E-001	-6.028789014591418E-002	3.5744721E-005	-5.9299242E-001	0
9.8866650E+003	4.736579900985816E+001	-5.9490418E-001	-6.017238461009145E-002	3.5796802E-005	-5.9499234E-001	0
9.9326807E+003	4.756579900480574E+001	-5.9688526E-001	-6.009307131593582E-002	3.5868670E-005	-5.9699219E-001	0
9.9960596E+003	4.776579899975332E+001	-5.9888822E-001	-5.991243000264768E-002	3.5880850E-005	-5.9899211E-001	0
1.0048467E+004	4.796579899470089E+001	-6.0092622E-001	-5.980277430190106E-002	3.5937053E-005	-6.0099202E-001	0
1.0102684E+004	4.816579898964847E+001	-6.0292763E-001	-5.967994587487468E-002	3.5982688E-005	-6.0299194E-001	0
1.0146745E+004	4.836579898459604E+001	-6.0492444E-001	-5.961758769888093E-002	3.6064135E-005	-6.0499179E-001	0
1.0204172E+004	4.856579897954362E+001	-6.0690743E-001	-5.947639920501691E-002	3.6096670E-005	-6.0699171E-001	0
1.0256650E+004	4.876579897449119E+001	-6.0893774E-001	-5.937003734565911E-002	3.6152658E-005	-6.0899162E-001	0
1.0305398E+004	4.896579896943877E+001	-6.1094689E-001	-5.928415959899458E-002	3.6219473E-005	-6.1099148E-001	0
1.0356643E+004	4.916579896438634E+001	-6.1293477E-001	-5.918276615286666E-002	3.6275174E-005	-6.1299139E-001	0
1.0402070E+004	4.936579895933392E+001	-6.1488789E-001	-5.911206986434148E-002	3.6347297E-005	-6.1499125E-001	0
1.0447649E+004	4.956579895428149E+001	-6.1693823E-001	-5.905043578953784E-002	3.6430472E-005	-6.1699116E-001	0
1.0490141E+004	4.976579894922907E+001	-6.1894876E-001	-5.900290165711064E-002	3.6519774E-005	-6.1899108E-001	0
1.0544912E+004	4.996579894417664E+001	-6.2090081E-001	-5.888155614429214E-002	3.6559606E-005	-6.2099093E-001	0
1.0592839E+004	5.016579893912422E+001	-6.2292880E-001	-5.880659786074122E-002	3.6632322E-005	-6.2299085E-001	0
1.0643731E+004	5.036579893407179E+001	-6.2493342E-001	-5.871375580423854E-002	3.6692189E-005	-6.2499070E-001	0
1.0693803E+004	5.056569892902189E+001	-6.2689233E-001	-5.862201952961033E-002	3.6749694E-005	-6.2698978E-001	0
1.0726304E+004	5.076569892396947E+001	-6.2892920E-001	-5.863429006382304E-002	3.6876816E-005	-6.2899143E-001	0
1.0776926E+004	5.096559891891957E+001	-6.3093656E-001	-5.854513258947802E-002	3.6938265E-005	-6.3099051E-001	0
1.0819150E+004	5.116559891386714E+001	-6.3293821E-001	-5.850165558381293E-002	3.7027934E-005	-6.3299036E-001	0
1.0862622E+004	5.136559890881472E+001	-6.3487291E-001	-5.844564135809383E-002	3.7105554E-005	-6.3499022E-001	0
1.0917278E+004	5.156559890376229E+001	-6.3695866E-001	-5.834409077345604E-002	3.7162772E-005	-6.3699013E-001	0
1.0944674E+004	5.176559889870987E+001	-6.3892633E-001	-5.837783432574084E-002	3.7299134E-005	-6.3898998E-001	0
1.0988003E+004	5.196559889365744E+001	-6.4089811E-001	-5.832708056207303E-002	3.7381717E-005	-6.4098996E-001	0
1.1025691E+004	5.216559888860502E+001	-6.4289516E-001	-5.830882792044317E-002	3.7486465E-005	-6.4298975E-001	0
1.1075089E+004	5.236559888355259E+001	-6.4494455E-001	-5.823380188423044E-002	3.7557573E-005	-6.4498967E-001	0
1.1097090E+004	5.256559887850017E+001	-6.4690757E-001	-5.829524449199464E-002	3.7711634E-005	-6.4698958E-001	0
1.1141599E+004	5.276559887344774E+001	-6.4893353E-001	-5.824420383451345E-002	3.7796617E-005	-6.4898944E-001	0
1.1190862E+004	5.296559886839532E+001	-6.5093404E-001	-5.816656507946583E-002	3.7862595E-005	-6.5098935E-001	0
1.1219055E+004	5.316559886334289E+001	-6.5292430E-001	-5.819779891645360E-002	3.7998758E-005	-6.5298921E-001	0
1.1255704E+004	5.336559885829047E+001	-6.5495652E-001	-5.818885238366006E-002	3.8111168E-005	-6.5498918E-001	0
1.1298140E+004	5.356559885323804E+001	-6.5694827E-001	-5.814658659309691E-002	3.8199298E-005	-6.5698904E-001	0
1.1329370E+004	5.376559884818562E+001	-6.5891916E-001	-5.816026224729431E-002	3.8322913E-005	-6.5898895E-001	0
1.1360129E+004	5.396559884313319E+001	-6.6094786E-001	-5.818137066922430E-002	3.8454851E-005	-6.6098881E-001	0
1.1396168E+004	5.416559883808077E+001	-6.6291380E-001	-5.816988745079188E-002	3.8561622E-005	-6.6298872E-001	0
1.1434120E+004	5.436549883303087E+001	-6.6489685E-001	-5.815024030105376E-002	3.8663911E-005	-6.6498798E-001	0
1.1452777E+004	5.456539882798097E+001	-6.6691023E-001	-5.823131056572162E-002	3.8835056E-005	-6.6698855E-001	0
1.1491589E+004	5.476539882292855E+001	-6.6892016E-001	-5.820954305145165E-002	3.8937538E-005	-6.6898847E-001	0
1.1522925E+004	5.496539881787612E+001	-6.7090255E-001	-5.822328401121257E-002	3.9062150E-005	-6.7098832E-001	0
1.1551644E+004	5.516539881282370E+001	-6.7294919E-001	-5.825570864706409E-002	3.9203132E-005	-6.7298824E-001	0
1.1568639E+004	5.536539880777127E+001	-6.7491740E-001	-5.834026028647110E-002	3.9374856E-005	-6.7498809E-001	0
1.1589517E+004	5.556539880271885E+001	-6.7692995E-001	-5.840881819237054E-002	3.9538678E-005	-6.7698801E-001	0
1.1623630E+004	5.576539879766642E+001	-6.7893946E-001	-5.841027739005833E-002	3.9657043E-005	-6.7898792E-001	0
1.1642698E+004	5.596539879261400E+001	-6.8093306E-001	-5.848584679755779E-002	3.9824947E-005	-6.8098778E-001	0
1.1657378E+004	5.616539878756157E+001	-6.8296087E-001	-5.858614795171824E-002	4.0012048E-005	-6.8298769E-001	0
1.1674409E+004	5.636539878250915E+001	-6.8493044E-001	-5.866938648965048E-002	4.0184448E-005	-6.8498755E-001	0
1.1698430E+004	5.656539877745672E+001	-6.8691415E-001	-5.871849226746317E-002	4.0334562E-005	-6.8698746E-001	0
1.1701860E+004	5.676539877240430E+001	-6.8890250E-001	-5.887119688649078E-002	4.0556515E-005	-6.8898737E-001	0
1.1718840E+004	5.696539876735187E+001	-6.9094193E-001	-5.895992695795310E-002	4.0737887E-005	-6.9098723E-001	0
1.1710868E+004	5.716539876229945E+001	-6.9292367E-001	-5.916928267739963E-002	4.0999796E-005	-6.9298714E-001	0
1.1709603E+004	5.736539875724702E+001	-6.9490212E-001	-5.934463573784443E-002	4.1238713E-005	-6.9498700E-001	0
1.1712248E+004	5.756539875219460E+001	-6.9693822E-001	-5.950507731335342E-002	4.1471361E-005	-6.9698697E-001	0
1.1702850E+004	5.776539874714217E+001	-6.9888639E-001	-5.971933398427476E-002	4.1737028E-005	-6.9898689E-001	0
1.1702171E+004	5.796539874208975E+001	-7.0092958E-001	-5.989739828259433E-002	4.1983858E-005	-7.0098668E-001	0
1.1684653E+004	5.816529873703985E+001	-7.0292360E-001	-6.015784749243985E-002	4.2286370E-005	-7.0298624E-001	0
1.1681745E+004	5.836519873198995E+001	-7.0492423E-001	-6.034408696734961E-002	4.2538009E-005	-7.0498651E-001	0
1.1651031E+004	5.856519872693752E+001	-7.0688027E-001	-6.067104885025165E-002	4.2887168E-005	-7.0698649E-001	0
1.1637182E+004	5.876519872188510E+001	-7.0889258E-001	-6.091617229933144E-002	4.3183023E-005	-7.0898628E-001	0
1.1612063E+004	5.896519871683267E+001	-7.1091676E-001	-6.122225740356391E-002	4.3523927E-005	-7.1098620E-001	0
1.1576885E+004	5.916519871178025E+001	-7.1290016E-001	-6.157961913939913E-002	4.3900120E-005	-7.1298611E-001	0
1.1546060E+004	5.936519870672782E+001	-7.1484435E-001	-6.191240777441054E-002	4.4257733E-005	-7.1498603E-001	0
1.1515962E+004	5.956519870167540E+001	-7.1689254E-001	-6.225207679358036E-002	4.4628050E-005	-7.1698588E-001	0
1.1470190E+004	5.976519869662297E+001	-7.1888721E-001	-6.267439401148911E-002	4.5055822E-005	-7.1898580E-001	0
1.1425170E+004	5.996519869157055E+001	-7.2090018E-001	-6.309754455086203E-002	4.5487031E-005	-7.2098571E-001	0
1.1376815E+004	6.016519868651812E+001	-7.2292686E-001	-6.354386948498869E-002	4.5937570E-005	-7.2298551E-001	0
1.1330008E+004	6.036519868146570E+001	-7.2490519E-001	-6.398099671907828E-002	4.6380155E-005	-7.2498554E-001	0
1.1275555E+004	6.056519867641327E+001	-7.2691602E-001	-6.446831661610199E-002	4.6863053E-005	-7.2698534E-001	0
1.1216895E+004	6.076519867136085E+001	-7.2887927E-001	-6.498048664176292E-002	4.7362930E-005	-7.2898525E-001	0
1.1160083E+004	6.096519866630842E+001	-7.3090416E-001	-6.549271742460605E-002	4.7868900E-005	-7.3098516E-001	0
1.1086733E+004	6.116519866125600E+001	-7.3289919E-001	-6.610596410417036E-002	4.8449008E-005	-7.3298502E-001	0
1.1020205E+004	6.136519865620357E+001	-7.3490429E-001	-6.668698923797478E-002	4.9008555E-005	-7.3498493E-001	0
1.0949001E+004	6.156519865115115E+001	-7.3688436E-001	-6.730151410180829E-002	4.9593433E-005	-7.3698485E-001	0
1.0880704E+004	6.176519864609872E+001	-7.3888725E-001	-6.790803555059199E-002	5.0176383E-005	-7.3898476E-001	0
1.0791960E+004	6.196509864104883E+001	-7.4088913E-001	-6.865195056961171E-002	5.0863484E-005	-7.4098468E-001	0
1.0721229E+004	6.216499863599893E+001	-7.4289960E-001	-6.929238672186600E-002	5.1477287E-005	-7.4298447E-001	0
1.0629271E+004	6.236499863094650E+001	-7.4491018E-001	-7.008102451252574E-002	5.2204068E-005	-7.4498445E-001	0
1.0549701E+004	6.256499862589408E+001	-7.4694777E-001	-7.080274163227956E-002	5.2885949E-005	-7.4698424E-001	0
1.0460895E+004	6.276499862084165E+001	-7.4888790E-001	-7.158927793314718E-002	5.3612344E-005	-7.4898416E-001	0
1.0362466E+004	6.296499861578923E+001	-7.5091922E-001	-7.246530158688103E-002	5.4415588E-005	-7.5098407E-001	0
1.0263946E+004	6.316499861073680E+001	-7.5293869E-001	-7.335761922692487E-002	5.5233788E-005	-7.5298399E-001	0
1.0173510E+004	6.336499860568438E+001	-7.5487471E-001	-7.420002855888486E-002	5.6011726E-005	-7.5498384E-001	0
1.0078636E+004	6.356499860063195E+001	-7.5687748E-001	-7.509721705189509E-002	5.6839392E-005	-7.5698376E-001	0
9.9770732E+003	6.376499859557953E+001	-7.5891834E-001	-7.606622698355647E-002	5.7728055E-005	-7.5898367E-001	0
9.8815303E+003	6.396499859052710E+001	-7.6091599E-001	-7.700386075852039E-002	5.8593469E-005	-7.6098359E-001	0
9.7845205E+003	6.416499858547468E+001	-7.6291126E-001	-7.797124442198844E-002	5.9485141E-005	-7.6298350E-001	0
9.6871172E+003	6.436499858042225E+001	-7.6489753E-001	-7.896028206284544E-002	6.0396524E-005	-7.6498336E-001	0
9.5749092E+003	6.456499857536983E+001	-7.6687741E-001	-8.009239395630574E-002	6.1421051E-005	-7.6698327E-001	0
9.4834629E+003	6.476499857031740E+001	-7.6889181E-001	-8.107711208716040E-002	6.2339524E-005	-7.6898319E-001	0
9.3949463E+003	6.496499856526498E+001	-7.7093482E-001	-8.205846155351648E-002	6.3261723E-005	-7.7098298E-001	0
9.2885469E+003	6.516499856021255E+001	-7.7290237E-001	-8.321025333306065E-002	6.4313404E-005	-7.7298290E-001	0
9.2011260E+003	6.536499855516013E+001	-7.7491808E-001	-8.421992000811196E-002	6.5263535E-005	-7.7498281E-001	0
9.0947783E+003	6.556499855010770E+001	-7.7686977E-001	-8.541932091425242E-002	6.6359687E-005	-7.7698272E-001	0
8.9976338E+003	6.576489854505780E+001	-7.7886969E-001	-8.656383913725607E-002	6.7421948E-005	-7.7898264E-001	0
8.9155576E+003	6.596479854000791E+001	-7.8089792E-001	-8.758823180100261E-002	6.8397465E-005	-7.8098249E-001	0
8.8093848E+003	6.616479853495548E+001	-7.8285664E-001	-8.886621481118118E-002	6.9569505E-005	-7.8298241E-001	0
8.7198906E+003	6.636479852990306E+001	-7.8491205E-001	-9.001397797067034E-002	7.0653055E-005	-7.8498232E-001	0
8.6241309E+003	6.656479852485063E+001	-7.8689528E-001	-9.124343065849061E-002	7.1799026E-005	-7.8698224E-001	0
8.5447900E+003	6.676479851979821E+001	-7.8889281E-001	-9.232441729405583E-002	7.2834067E-005	-7.8898209E-001	0
8.4531299E+003	6.696479851474578E+001	-7.9086512E-001	-9.355885040885026E-002	7.3992429E-005	-7.9098201E-001	0
8.3664199E+003	6.716479850969336E+001	-7.9290676E-001	-9.477252833272720E-002	7.5145777E-005	-7.9298192E-001	0
8.2750771E+003	6.736479850464093E+001	-7.9491639E-001	-9.606151308023847E-002	7.6360870E-005	-7.9498172E-001	0
8.1977578E+003	6.756479849958851E+001	-7.9690498E-001	-9.721011751227898E-002	7.7467230E-005	-7.9698169E-001	0
8.1113486E+003	6.776479849453608E+001	-7.9890704E-001	-9.849250593904846E-002	7.8686353E-005	-7.9898155E-001	0
8.0275405E+003	6.796479848948366E+001	-8.0089128E-001	-9.976794996220661E-002	7.9903279E-005	-8.0098152E-001	0
7.9491177E+003	6.816479848443123E+001	-8.0290276E-001	-1.010052680825639E-001	8.1097409E-005	-8.0298132E-001	0
7.8691777E+003	6.836479847937881E+001	-8.0490279E-001	-1.022855020666713E-001	8.2329883E-005	-8.0498135E-001	0
7.7917012E+003	6.856479847432638E+001	-8.0693680E-001	-1.035636251521996E-001	8.3569299E-005	-8.0698115E-001	0
7.7105596E+003	6.876479846927396E+001	-8.0890971E-001	-1.049093428699304E-001	8.4862186E-005	-8.0898112E-001	0
7.6419204E+003	6.896479846422153E+001	-8.1088710E-001	-1.061103812718762E-001	8.6043539E-005	-8.1098098E-001	0
7.5633975E+003	6.916479845916911E+001	-8.1291580E-001	-1.074802409287317E-001	8.7372384E-005	-8.1298083E-001	0
7.4852578E+003	6.936479845411668E+001	-8.1491494E-001	-1.088693209600690E-001	8.8719236E-005	-8.1498075E-001	0
7.4153462E+003	6.956469844906678E+001	-8.1689548E-001	-1.101628243723820E-001	8.9991510E-005	-8.1698138E-001	0
7.3338423E+003	6.976459844401688E+001	-8.1892079E-001	-1.116632700205065E-001	9.1443377E-005	-8.1898057E-001	0
7.2587222E+003	6.996459843896446E+001	-8.2090580E-001	-1.130923296212982E-001	9.2838149E-005	-8.2098037E-001	0
7.1843540E+003	7.016459843391203E+001	-8.2292181E-001	-1.145436070276569E-001	9.4260431E-005	-8.2298034E-001	0
7.1193638E+003	7.036459842885961E+001	-8.2486004E-001	-1.158614804558544E-001	9.5569507E-005	-8.2498044E-001	0
7.0531382E+003	7.056459842380718E+001	-8.2694334E-001	-1.172447417199594E-001	9.6954755E-005	-8.2698035E-001	0
6.9760718E+003	7.076459841875476E+001	-8.2889330E-001	-1.188194943811582E-001	9.8488686E-005	-8.2898045E-001	0
6.9024561E+003	7.096459841370233E+001	-8.3086580E-001	-1.203724863282210E-001	1.0001339E-004	-8.3098036E-001	0
6.8442661E+003	7.116459840864991E+001	-8.3287483E-001	-1.216894283768237E-001	1.0135206E-004	-8.3298028E-001	0
6.7732144E+003	7.136459840359748E+001	-8.3488894E-001	-1.232633298334755E-001	1.0291119E-004	-8.3498043E-001	0
6.7083066E+003	7.156459839854506E+001	-8.3692241E-001	-1.247591195235245E-001	1.0441370E-004	-8.3698040E-001	0
6.6418887E+003	7.176459839349263E+001	-8.3888382E-001	-1.263020004941968E-001	1.0595271E-004	-8.3898038E-001	0
6.5756284E+003	7.196459838844021E+001	-8.4089339E-001	-1.278803054984581E-001	1.0753371E-004	-8.4098041E-001	0
6.5119565E+003	7.216459838338778E+001	-8.4291458E-001	-1.294410638405585E-001	1.0910776E-004	-8.4298038E-001	0
6.4426338E+003	7.236459837833536E+001	-8.4491956E-001	-1.311450584911976E-001	1.1080703E-004	-8.4498036E-001	0
6.3799380E+003	7.256459837328293E+001	-8.4687412E-001	-1.327401825317651E-001	1.1241422E-004	-8.4698033E-001	0
6.3250908E+003	7.276459836823051E+001	-8.4891891E-001	-1.342145027898995E-001	1.1393723E-004	-8.4898043E-001	0
6.2561895E+003	7.296459836317808E+001	-8.5088271E-001	-1.360065438774098E-001	1.1572562E-004	-8.5098040E-001	0
6.1811221E+003	7.316459835812566E+001	-8.5294604E-001	-1.379921019632719E-001	1.1769982E-004	-8.5298038E-001	0
6.1107544E+003	7.336459835307323E+001	-8.5490113E-001	-1.399010743981737E-001	1.1960159E-004	-8.5498035E-001	0
6.0333833E+003	7.356459834802081E+001	-8.5692322E-001	-1.420303022334781E-001	1.2170906E-004	-8.5698032E-001	0
5.9551025E+003	7.376459834296838E+001	-8.5893446E-001	-1.442350428931563E-001	1.2388844E-004	-8.5898042E-001	0
5.8627271E+003	7.396459833791596E+001	-8.6093485E-001	-1.468488709164818E-001	1.2642732E-004	-8.6098033E-001	0
5.7697700E+003	7.416459833286353E+001	-8.6292416E-001	-1.495595414966533E-001	1.2905854E-004	-8.6298048E-001	0
5.6710845E+003	7.436459832781111E+001	-8.6486280E-001	-1.525039540924760E-001	1.3189499E-004	-8.6498046E-001	0
5.5632148E+003	7.456459832275868E+001	-8.6692888E-001	-1.558323508622694E-001	1.3509557E-004	-8.6698031E-001	0
5.4446729E+003	7.476459831770626E+001	-8.6889714E-001	-1.595866506615160E-001	1.3866439E-004	-8.6898041E-001	0
5.3165781E+003	7.496459831265383E+001	-8.7088794E-001	-1.638060979082625E-001	1.4265676E-004	-8.7098038E-001	0
5.1803965E+003	7.516459830760141E+001	-8.7282848E-001	-1.684868153144523E-001	1.4706010E-004	-8.7298036E-001	0
5.0367393E+003	7.536459830254898E+001	-8.7488639E-001	-1.737009447623380E-001	1.5196859E-004	-8.7498039E-001	0
4.8866597E+003	7.556459829749656E+001	-8.7682670E-001	-1.794327271008296E-001	1.5733141E-004	-8.7698042E-001	0
4.7218950E+003	7.576459829244413E+001	-8.7893760E-001	-1.861408660336143E-001	1.6360621E-004	-8.7898040E-001	0
4.5541421E+003	7.596459828739171E+001	-8.8088936E-001	-1.934259607511541E-001	1.7038688E-004	-8.8098037E-001	0
4.3796470E+003	7.616459828233928E+001	-8.8287634E-001	-2.015861938908161E-001	1.7797569E-004	-8.8298041E-001	0
4.2050786E+003	7.636459827728686E+001	-8.8489699E-001	-2.104353149677048E-001	1.8621358E-004	-8.8498038E-001	0
4.0261675E+003	7.656459827223443E+001	-8.8692611E-001	-2.202904157957186E-001	1.9538132E-004	-8.8698035E-001	0
3.8344368E+003	7.676459826718201E+001	-8.8889194E-001	-2.318181181073089E-001	2.0606126E-004	-8.8898033E-001	0
3.6452998E+003	7.696459826212958E+001	-8.9089072E-001	-2.443943662682972E-001	2.1772867E-004	-8.9098042E-001	0
3.4859019E+003	7.716459825707716E+001	-8.9287609E-001	-2.561391859955227E-001	2.2870055E-004	-8.9298040E-001	0
3.3292583E+003	7.736459825202473E+001	-8.9489925E-001	-2.687983818483158E-001	2.4054747E-004	-8.9498037E-001	0
3.1872002E+003	7.756459824697231E+001	-8.9689434E-001	-2.814050830516308E-001	2.5239063E-004	-8.9698046E-001	0
3.0588325E+003	7.776459824191988E+001	-8.9894861E-001	-2.938861826417825E-001	2.6418857E-004	-8.9898050E-001	0
2.9474985E+003	7.796459823686746E+001	-9.0091568E-001	-3.056543160255258E-001	2.7536877E-004	-9.0098041E-001	0
2.8461638E+003	7.816459823181503E+001	-9.0293163E-001	-3.172451307418469E-001	2.8645067E-004	-9.0298039E-001	0
2.7518330E+003	7.836459822676261E+001	-9.0488517E-001	-3.288299693512680E-001	2.9755337E-004	-9.0498048E-001	0
2.6647214E+003	7.856459822171018E+001	-9.0692937E-001	-3.403467836551148E-001	3.0867048E-004	-9.0698034E-001	0
2.5515859E+003	7.876459821665776E+001	-9.0885115E-001	-3.561906720281449E-001	3.2372429E-004	-9.0898037E-001	0
2.4643574E+003	7.896459821160533E+001	-9.1094404E-001	-3.696476879831647E-001	3.3672835E-004	-9.1098040E-001	0
2.3749041E+003	7.916459820655291E+001	-9.1291302E-001	-3.843999614499829E-001	3.5092374E-004	-9.1298038E-001	0
2.2742900E+003	7.936459820150048E+001	-9.1489428E-001	-4.022768605247062E-001	3.6804081E-004	-9.1498035E-001	0
2.1607898E+003	7.956459819644806E+001	-9.1693258E-001	-4.243506772017061E-001	3.8910095E-004	-9.1698039E-001	0
2.0390974E+003	7.976459819139563E+001	-9.1893637E-001	-4.506583951177108E-001	4.1412638E-004	-9.1898036E-001	0
1.8755347E+003	7.996459818634321E+001	-9.2087555E-001	-4.909936124395538E-001	4.5214401E-004	-9.2098033E-001	0
1.7509819E+003	8.016459818129078E+001	-9.2290902E-001	-5.270808293460894E-001	4.8644765E-004	-9.2298043E-001	0
1.6238871E+003	8.036459817623836E+001	-9.2492783E-001	-5.695764566148691E-001	5.2681711E-004	-9.2498046E-001	0
1.4667347E+003	8.056459817118593E+001	-9.2686397E-001	-6.319233790006222E-001	5.8570702E-004	-9.2698038E-001	0
1.3556113E+003	8.076459816613351E+001	-9.2889649E-001	-6.852233368278284E-001	6.3650153E-004	-9.2898041E-001	0
1.2173633E+003	8.096459816108109E+001	-9.3096566E-001	-7.647393694751443E-001	7.1194611E-004	-9.3098044E-001	0
1.1056798E+003	8.116459815602866E+001	-9.3290126E-001	-8.437354473941960E-001	7.8712188E-004	-9.3298048E-001	0
1.0019932E+003	8.136459815097624E+001	-9.3491656E-001	-9.330567965313570E-001	8.7233027E-004	-9.3498039E-001	0
8.9649603E+002	8.157459814567119E+001	-9.3702149E-001	-1.045204310553009E+000	9.7937894E-004	-9.3708032E-001	0
8.0870044E+002	8.178459814036614E+001	-9.3907851E-001	-1.161219242901087E+000	1.0904761E-003	-9.3918037E-001	0
7.2409778E+002	8.198459813531372E+001	-9.4106942E-001	-1.299644100211578E+000	1.2230553E-003	-9.4118035E-001	0
6.5163220E+002	8.218459813026129E+001	-9.4308734E-001	-1.447269401227942E+000	1.3649014E-003	-9.4318044E-001	0
5.8737225E+002	8.238459812520887E+001	-9.4507807E-001	-1.608993393071245E+000	1.5206244E-003	-9.4518042E-001	0
5.2767914E+002	8.258459812015644E+001	-9.4708610E-001	-1.794814429923797E+000	1.6998438E-003	-9.4718039E-001	0
4.7513510E+002	8.278459811510402E+001	-9.4909906E-001	-1.997535190547133E+000	1.8958588E-003	-9.4918036E-001	0
4.2943427E+002	8.298459811005159E+001	-9.5110619E-001	-2.214788707627871E+000	2.1064992E-003	-9.5118046E-001	0
3.8804752E+002	8.318459810499917E+001	-9.5310581E-001	-2.456157428607376E+000	2.3409780E-003	-9.5318049E-001	0
3.5107697E+002	8.338459809994674E+001	-9.5510137E-001	-2.720490036671670E+000	2.5983436E-003	-9.5518041E-001	0
3.1759006E+002	8.358459809489432E+001	-9.5711750E-001	-3.013688414494872E+000	2.8844539E-003	-9.5718038E-001	0
2.8905350E+002	8.378459808984189E+001	-9.5909768E-001	-3.318062929474578E+000	3.1823465E-003	-9.5918047E-001	0
2.6287921E+002	8.398459808478947E+001	-9.6109807E-001	-3.656044360900694E+000	3.5138172E-003	-9.6118033E-001	0
2.3952087E+002	8.418459807973704E+001	-9.6313274E-001	-4.021080629693145E+000	3.8728344E-003	-9.6318036E-001	0
2.1949683E+002	8.438459807468462E+001	-9.6511799E-001	-4.396956572592146E+000	4.2435820E-003	-9.6518040E-001	0
2.0070728E+002	8.458459806963219E+001	-9.6709800E-001	-4.818449956523326E+000	4.6599135E-003	-9.6718037E-001	0
1.8469406E+002	8.478459806457977E+001	-9.6910912E-001	-5.247104973580804E+000	5.0850171E-003	-9.6918035E-001	0
1.7014372E+002	8.498459805952734E+001	-9.7110045E-001	-5.707530129793838E+000	5.5425852E-003	-9.7118038E-001	0
1.5699907E+002	8.518459805447492E+001	-9.7310454E-001	-6.198154701836529E+000	6.0314527E-003	-9.7318035E-001	0
1.4529124E+002	8.538459804942249E+001	-9.7510344E-001	-6.711370911457625E+000	6.5442808E-003	-9.7518039E-001	0
1.3470393E+002	8.558459804437007E+001	-9.7708178E-001	-7.253550388780582E+000	7.0873117E-003	-9.7718042E-001	0
1.2521347E+002	8.578459803931764E+001	-9.7912568E-001	-7.819651430899313E+000	7.6564215E-003	-9.7918046E-001	0
1.1664037E+002	8.598459803426522E+001	-9.8112309E-001	-8.411522918412476E+000	8.2527390E-003	-9.8118037E-001	0
1.0885118E+002	8.618459802921279E+001	-9.8305279E-001	-9.031163234018672E+000	8.8781100E-003	-9.8318034E-001	0
1.0195704E+002	8.638459802416037E+001	-9.8510575E-001	-9.661969136691670E+000	9.5180618E-003	-9.8518044E-001	0
9.5588043E+001	8.658459801910794E+001	-9.8713058E-001	-1.032692552498139E+001	1.0194024E-002	-9.8718041E-001	0
8.9401855E+001	8.679459801380290E+001	-9.8921365E-001	-1.106479980349542E+001	1.0945451E-002	-9.8928040E-001	0
8.3898163E+001	8.700459800849785E+001	-9.9129480E-001	-1.181545353956231E+001	1.1712598E-002	-9.9138039E-001	0
7.9138153E+001	8.720459800344543E+001	-9.9326056E-001	-1.255096991890683E+001	1.2466383E-002	-9.9338037E-001	0
7.4960167E+001	8.740459799839300E+001	-9.9528003E-001	-1.327745276257025E+001	1.3214784E-002	-9.9538028E-001	0
7.0942543E+001	8.760459799334058E+001	-9.9730659E-001	-1.405794746386491E+001	1.4020083E-002	-9.9738032E-001	0
6.7304642E+001	8.780459798828815E+001	-9.9930483E-001	-1.484748719311622E+001	1.4837165E-002	-9.9938041E-001	0
6.3943344E+001	8.800469798323320E+001	-1.0013472E+000	-1.565991276881829E+001	1.5681010E-002	-1.0013812E+000	0
6.0827965E+001	8.820479797817825E+001	-1.0033493E+000	-1.649486882440630E+001	1.6550114E-002	-1.0033823E+000	0
5.7985767E+001	8.840489797312330E+001	-1.0052904E+000	-1.733684742351100E+001	1.7428566E-002	-1.0053831E+000	0
5.5370838E+001	8.860499796806835E+001	-1.0073284E+000	-1.819239870234145E+001	1.8325720E-002	-1.0073843E+000	0
5.2902370E+001	8.880499796301592E+001	-1.0093101E+000	-1.907873198842796E+001	1.9256357E-002	-1.0093844E+000	0
5.0657799E+001	8.900499795796350E+001	-1.0113389E+000	-1.996413100428055E+001	2.0190503E-002	-1.0113845E+000	0
4.8528721E+001	8.920509795290855E+001	-1.0133110E+000	-2.088064607185976E+001	2.1158589E-002	-1.0133852E+000	0
4.6503143E+001	8.940519794785359E+001	-1.0153354E+000	-2.183369457167562E+001	2.2168525E-002	-1.0153863E+000	0
4.4640385E+001	8.960529794279864E+001	-1.0173049E+000	-2.278889160233280E+001	2.3183251E-002	-1.0173872E+000	0
4.2864719E+001	8.980549793774117E+001	-1.0193465E+000	-2.378054701619317E+001	2.4240617E-002	-1.0193893E+000	0
4.1231113E+001	9.000559793268621E+001	-1.0213012E+000	-2.477015764061827E+001	2.5297791E-002	-1.0213904E+000	0
3.9659885E+001	9.020559792763379E+001	-1.0233718E+000	-2.580370123829704E+001	2.6406780E-002	-1.0233903E+000	0
3.8191418E+001	9.040559792258136E+001	-1.0253483E+000	-2.684761038469875E+001	2.7528152E-002	-1.0253903E+000	0
3.6769337E+001	9.060559791752894E+001	-1.0273163E+000	-2.793948421618848E+001	2.8702689E-002	-1.0273904E+000	0
3.5449764E+001	9.080559791247651E+001	-1.0293534E+000	-2.903696075994141E+001	2.9889293E-002	-1.0293903E+000	0
3.4195152E+001	9.100559790742409E+001	-1.0313326E+000	-3.016019795838398E+001	3.1105196E-002	-1.0313904E+000	0
3.3012573E+001	9.120559790237166E+001	-1.0333173E+000	-3.130072166103355E+001	3.2343578E-002	-1.0333904E+000	0
3.1921072E+001	9.140559789731924E+001	-1.0353501E+000	-3.243468944258706E+001	3.3581257E-002	-1.0353904E+000	0
3.0852757E+001	9.160559789226681E+001	-1.0373340E+000	-3.362208281244557E+001	3.4877330E-002	-1.0373904E+000	0
2.9844870E+001	9.180559788721439E+001	-1.0393254E+000	-3.482425411650388E+001	3.6193732E-002	-1.0393904E+000	0
2.8901831E+001	9.200559788216196E+001	-1.0413454E+000	-3.603042860636640E+001	3.7520118E-002	-1.0413903E+000	0
2.7933050E+001	9.220569787710701E+001	-1.0433246E+000	-3.735090140071236E+001	3.8969114E-002	-1.0433911E+000	0
2.7056339E+001	9.240589787204954E+001	-1.0453634E+000	-3.863654309065197E+001	4.0389229E-002	-1.0453931E+000	0
2.6227539E+001	9.260599786699458E+001	-1.0473527E+000	-3.993331942428512E+001	4.1824270E-002	-1.0473944E+000	0
2.5472208E+001	9.280599786194216E+001	-1.0493274E+000	-4.119499126042899E+001	4.3227032E-002	-1.0493944E+000	0
2.4734022E+001	9.300599785688974E+001	-1.0513208E+000	-4.250504662958122E+001	4.4686440E-002	-1.0513945E+000	0
2.4054840E+001	9.320599785183731E+001	-1.0533282E+000	-4.378861635098932E+001	4.6123784E-002	-1.0533944E+000	0
2.3337585E+001	9.340599784678489E+001	-1.0553356E+000	-4.522043042685709E+001	4.7722731E-002	-1.0553944E+000	0
2.2675190E+001	9.360609784172993E+001	-1.0573401E+000	-4.662982366507185E+001	4.9303584E-002	-1.0573952E+000	0
2.2067255E+001	9.380619783667498E+001	-1.0593553E+000	-4.800575561831579E+001	5.0855149E-002	-1.0593964E+000	0
2.1472940E+001	9.400639783161751E+001	-1.0613452E+000	-4.942710017671402E+001	5.2459218E-002	-1.0613983E+000	0
2.0892385E+001	9.420649782656255E+001	-1.0633266E+000	-5.089541332005723E+001	5.4118447E-002	-1.0633992E+000	0
2.0378237E+001	9.440669782150508E+001	-1.0653952E+000	-5.228103279521595E+001	5.5699963E-002	-1.0654012E+000	0
1.9871206E+001	9.460679781645013E+001	-1.0673459E+000	-5.371319010198272E+001	5.7330552E-002	-1.0674024E+000	0
1.9308075E+001	9.480679781139770E+001	-1.0693688E+000	-5.538453852292355E+001	5.9226498E-002	-1.0694023E+000	0
1.8822058E+001	9.500679780634528E+001	-1.0713907E+000	-5.692208397307343E+001	6.0985792E-002	-1.0714024E+000	0
1.8359997E+001	9.520679780129285E+001	-1.0733513E+000	-5.846140830911497E+001	6.2749624E-002	-1.0734024E+000	0
1.7943935E+001	9.540689779623790E+001	-1.0753956E+000	-5.993086566333102E+001	6.4449385E-002	-1.0754032E+000	0
1.7537443E+001	9.560699779118295E+001	-1.0773981E+000	-6.143416138679277E+001	6.6189043E-002	-1.0774044E+000	0
1.7111109E+001	9.580709778612800E+001	-1.0793568E+000	-6.307930031854599E+001	6.8085074E-002	-1.0794052E+000	0
1.6718456E+001	9.600729778107052E+001	-1.0813696E+000	-6.468118814918853E+001	6.9944270E-002	-1.0814073E+000	0
1.6289577E+001	9.620739777601557E+001	-1.0833874E+000	-6.650800852278212E+001	7.2053939E-002	-1.0834085E+000	0
1.5974573E+001	9.640749777096062E+001	-1.0853522E+000	-6.794248245620489E+001	7.3741518E-002	-1.0854092E+000	0
1.5641344E+001	9.660759776590567E+001	-1.0873501E+000	-6.951769272648563E+001	7.5590074E-002	-1.0874103E+000	0
1.5340656E+001	9.680769776085072E+001	-1.0893984E+000	-7.101380387444397E+001	7.7362321E-002	-1.0894113E+000	0
1.5038334E+001	9.700779775579576E+001	-1.0914450E+000	-7.257752000177265E+001	7.9214372E-002	-1.0914124E+000	0
1.4712050E+001	9.720779775074334E+001	-1.0934005E+000	-7.432006073971215E+001	8.1261590E-002	-1.0934124E+000	0
1.4436543E+001	9.740799774568586E+001	-1.0953696E+000	-7.587478002208729E+001	8.3110929E-002	-1.0954143E+000	0
1.4134757E+001	9.760799774063344E+001	-1.0973787E+000	-7.763689964374430E+001	8.5197084E-002	-1.0974144E+000	0
1.3863297E+001	9.780819773557596E+001	-1.0994587E+000	-7.930715847657643E+001	8.7194942E-002	-1.0994163E+000	0
1.3559793E+001	9.800819773052353E+001	-1.1014413E+000	-8.122846747147514E+001	8.9468382E-002	-1.1014163E+000	0
1.3323354E+001	9.820819772547111E+001	-1.1034615E+000	-8.282160287973841E+001	9.1390453E-002	-1.1034163E+000	0
1.3029956E+001	9.840819772041868E+001	-1.1054316E+000	-8.483770601819708E+001	9.3782276E-002	-1.1054164E+000	0
1.2762954E+001	9.860829771536373E+001	-1.1074482E+000	-8.677052918940797E+001	9.6093871E-002	-1.1074172E+000	0
1.2523463E+001	9.880839771030878E+001	-1.1094642E+000	-8.859084361588882E+001	9.8288365E-002	-1.1094184E+000	0
1.2280986E+001	9.900839770525636E+001	-1.1114354E+000	-9.050050449155060E+001	1.0058547E-001	-1.1114182E+000	0
1.1931741E+001	9.920839770020393E+001	-1.1135206E+000	-9.332423877824249E+001	1.0391846E-001	-1.1134185E+000	0
1.1721701E+001	9.940839769515151E+001	-1.1154646E+000	-9.516234972525626E+001	1.0615023E-001	-1.1154184E+000	0
1.1499162E+001	9.960839769009908E+001	-1.1174502E+000	-9.717666550720662E+001	1.0859009E-001	-1.1174185E+000	0
1.1312230E+001	9.980839768504666E+001	-1.1194406E+000	-9.895842926896898E+001	1.1077808E-001	-1.1194184E+000	0
1.1073734E+001	1.000083976799942E+002	-1.1214902E+000	-1.012748003557422E+002	1.1357870E-001	-1.1214184E+000	0
1.0902080E+001	1.002083976749418E+002	-1.1234384E+000	-1.030480752672465E+002	1.1576816E-001	-1.1234185E+000	0
1.0760643E+001	1.004083976698894E+002	-1.1254662E+000	-1.045909863231941E+002	1.1771362E-001	-1.1254184E+000	0
1.0565532E+001	1.006083976648370E+002	-1.1274641E+000	-1.067115278287270E+002	1.2031341E-001	-1.1274183E+000	0
1.0336947E+001	1.008083976597845E+002	-1.1294793E+000	-1.092662318969255E+002	1.2341394E-001	-1.1294184E+000	0
1.0028810E+001	1.010283976542269E+002	-1.1316137E+000	-1.128362935448990E+002	1.2768710E-001	-1.1316183E+000	0
9.8370943E+000	1.012283976491744E+002	-1.1336370E+000	-1.152410329237009E+002	1.3064149E-001	-1.1336185E+000	0
9.6660395E+000	1.014283976441220E+002	-1.1356454E+000	-1.174881839730579E+002	1.3342491E-001	-1.1356184E+000	0
9.5316982E+000	1.016283976390696E+002	-1.1376324E+000	-1.193525403783977E+002	1.3577931E-001	-1.1376184E+000	0
9.4363327E+000	1.018283976340172E+002	-1.1396089E+000	-1.207681915938454E+002	1.3762850E-001	-1.1396184E+000	0
9.3223877E+000	1.020283976289647E+002	-1.1416199E+000	-1.224600320630061E+002	1.3980281E-001	-1.1416184E+000	0
9.1744719E+000	1.022283976239123E+002	-1.1436388E+000	-1.246544644524446E+002	1.4255969E-001	-1.1436185E+000	0
9.0565052E+000	1.024283976188599E+002	-1.1455964E+000	-1.264943060474866E+002	1.4491142E-001	-1.1456184E+000	0
8.9886980E+000	1.026283976138075E+002	-1.1476644E+000	-1.276786044298116E+002	1.4653219E-001	-1.1476183E+000	0
8.8939953E+000	1.028284976087525E+002	-1.1496176E+000	-1.292577178844583E+002	1.4859694E-001	-1.1496191E+000	0
8.7157621E+000	1.030285976036976E+002	-1.1516513E+000	-1.321343195368099E+002	1.5217265E-001	-1.1516204E+000	0
8.5782785E+000	1.032287975986401E+002	-1.1536688E+000	-1.344872172741884E+002	1.5515371E-001	-1.1536224E+000	0
8.4121113E+000	1.034289975935826E+002	-1.1556293E+000	-1.373768461611913E+002	1.5875670E-001	-1.1556243E+000	0
8.2992830E+000	1.036289975885302E+002	-1.1576425E+000	-1.394870491600909E+002	1.6147614E-001	-1.1576245E+000	0
8.2190390E+000	1.038289975834778E+002	-1.1596529E+000	-1.410935008455567E+002	1.6361949E-001	-1.1596243E+000	0
8.1758709E+000	1.040289975784253E+002	-1.1616402E+000	-1.420815140352228E+002	1.6504760E-001	-1.1616243E+000	0
8.0850220E+000	1.042289975733729E+002	-1.1636411E+000	-1.439255391086306E+002	1.6747767E-001	-1.1636244E+000	0
7.9731274E+000	1.044289975683205E+002	-1.1656225E+000	-1.461938895281746E+002	1.7040688E-001	-1.1656245E+000	0
7.8711762E+000	1.046289975632681E+002	-1.1676273E+000	-1.483421682630269E+002	1.7320837E-001	-1.1676245E+000	0
7.7735777E+000	1.048289975582156E+002	-1.1696328E+000	-1.504626141502738E+002	1.7598601E-001	-1.1696243E+000	0
7.7421627E+000	1.050289975531632E+002	-1.1716641E+000	-1.513355063418953E+002	1.7731439E-001	-1.1716243E+000	0
7.6921248E+000	1.052289975481108E+002	-1.1736249E+000	-1.525748646999973E+002	1.7906566E-001	-1.1736244E+000	0
7.5701323E+000	1.054289975430584E+002	-1.1756483E+000	-1.553009015210902E+002	1.8257925E-001	-1.1756244E+000	0
7.4284596E+000	1.056289975380059E+002	-1.1776307E+000	-1.585295893772930E+002	1.8668930E-001	-1.1776245E+000	0
7.3405848E+000	1.058289975329535E+002	-1.1796412E+000	-1.607012650539548E+002	1.8956985E-001	-1.1796244E+000	0
7.2194076E+000	1.060290975278986E+002	-1.1816359E+000	-1.636749090658327E+002	1.9340414E-001	-1.1816254E+000	0
7.0703421E+000	1.062291975228436E+002	-1.1836776E+000	-1.674144704347291E+002	1.9816475E-001	-1.1836263E+000	0
7.0423484E+000	1.064291975177912E+002	-1.1856658E+000	-1.683622793643117E+002	1.9962141E-001	-1.1856264E+000	0
7.0191011E+000	1.066291975127388E+002	-1.1876419E+000	-1.692014124625930E+002	2.0095068E-001	-1.1876265E+000	0
7.0013943E+000	1.068291975076863E+002	-1.1896886E+000	-1.699216640606489E+002	2.0215386E-001	-1.1896263E+000	0
6.8477187E+000	1.070291975026339E+002	-1.1916826E+000	-1.740262159414572E+002	2.0738401E-001	-1.1916264E+000	0
6.7279224E+000	1.072291974975815E+002	-1.1936207E+000	-1.774129611488909E+002	2.1176378E-001	-1.1936264E+000	0
6.6433330E+000	1.074291974925291E+002	-1.1956445E+000	-1.799766088375432E+002	2.1518804E-001	-1.1956265E+000	0
6.5997252E+000	1.076291974874766E+002	-1.1976004E+000	-1.814621551485561E+002	2.1731915E-001	-1.1976265E+000	0
6.4869246E+000	1.078291974824242E+002	-1.1996213E+000	-1.849291339061156E+002	2.2184493E-001	-1.1996263E+000	0
6.4818850E+000	1.080291974773718E+002	-1.2016908E+000	-1.853921820365921E+002	2.2278407E-001	-1.2016264E+000	0
6.4601169E+000	1.082291974723194E+002	-1.2036381E+000	-1.863183111149710E+002	2.2425981E-001	-1.2036264E+000	0
6.4250970E+000	1.084291974672669E+002	-1.2056645E+000	-1.876492354767129E+002	2.2624202E-001	-1.2056264E+000	0
6.2988596E+000	1.086291974622145E+002	-1.2076627E+000	-1.917271917012274E+002	2.3154178E-001	-1.2076265E+000	0
6.2292137E+000	1.088291974571621E+002	-1.2096322E+000	-1.941869689969519E+002	2.3489480E-001	-1.2096264E+000	0
6.1031942E+000	1.090291974521097E+002	-1.2116638E+000	-1.985294599727722E+002	2.4055097E-001	-1.2116264E+000	0
6.0415168E+000	1.092291974470572E+002	-1.2136399E+000	-2.008833072623420E+002	2.4379998E-001	-1.2136264E+000	0
6.0233111E+000	1.094291974420048E+002	-1.2156457E+000	-2.018234916609163E+002	2.4534586E-001	-1.2156265E+000	0
5.9338112E+000	1.096291974369524E+002	-1.2176472E+000	-2.052049052180091E+002	2.4986717E-001	-1.2176265E+000	0
5.8856230E+000	1.098291974319000E+002	-1.2196947E+000	-2.072328977541588E+002	2.5276089E-001	-1.2196264E+000	0
5.8316660E+000	1.100291974268475E+002	-1.2216552E+000	-2.094864960408809E+002	2.5592029E-001	-1.2216264E+000	0
5.7973490E+000	1.102291974217951E+002	-1.2236630E+000	-2.110728589163884E+002	2.5828204E-001	-1.2236264E+000	0
5.7394366E+000	1.104291974167427E+002	-1.2256466E+000	-2.135482478758104E+002	2.6173469E-001	-1.2256265E+000	0
5.6565137E+000	1.106291974116903E+002	-1.2276604E+000	-2.170348154984904E+002	2.6644504E-001	-1.2276264E+000	0
5.6259656E+000	1.108291974066378E+002	-1.2296587E+000	-2.185684787616162E+002	2.6876464E-001	-1.2296264E+000	0
5.6011868E+000	1.110291974015854E+002	-1.2316419E+000	-2.198894514940221E+002	2.7082506E-001	-1.2316264E+000	0
5.5733471E+000	1.112291973965330E+002	-1.2336644E+000	-2.213507199427975E+002	2.7307251E-001	-1.2336264E+000	0
5.5521250E+000	1.114291973914806E+002	-1.2356514E+000	-2.225546761013211E+002	2.7500001E-001	-1.2356265E+000	0
5.5374413E+000	1.116291973864281E+002	-1.2376585E+000	-2.235073002687668E+002	2.7662572E-001	-1.2376264E+000	0
5.4037299E+000	1.118291973813757E+002	-1.2396609E+000	-2.294083642700084E+002	2.8438857E-001	-1.2396264E+000	0
5.2246304E+000	1.120291973763233E+002	-1.2417185E+000	-2.376662869918362E+002	2.9511464E-001	-1.2416264E+000	0
5.1694183E+000	1.122193973715184E+002	-1.2435986E+000	-2.405683782780652E+002	2.9917049E-001	-1.2435281E+000	0
5.1575570E+000	1.124093973667186E+002	-1.2454947E+000	-2.414892891777885E+002	3.0077362E-001	-1.2454284E+000	0
5.1666708E+000	1.125997973619087E+002	-1.2474383E+000	-2.414394840250481E+002	3.0118087E-001	-1.2473316E+000	0
5.1081662E+000	1.127801973573514E+002	-1.2491987E+000	-2.445493402917605E+002	3.0549070E-001	-1.2491359E+000	0
5.0996428E+000	1.129703973525466E+002	-1.2511042E+000	-2.453317473545490E+002	3.0693558E-001	-1.2510382E+000	0
5.0331836E+000	1.131505973479943E+002	-1.2528962E+000	-2.489271796362927E+002	3.1187990E-001	-1.2528398E+000	0
4.9907546E+000	1.133212973436821E+002	-1.2546512E+000	-2.513950947692538E+002	3.1541315E-001	-1.2545465E+000	0
4.9831848E+000	1.134915973393800E+002	-1.2562970E+000	-2.521072414323762E+002	3.1672156E-001	-1.2562501E+000	0
5.0083137E+000	1.136715973348328E+002	-1.2581723E+000	-2.512167461509353E+002	3.1607395E-001	-1.2580501E+000	0
4.9918294E+000	1.138617973300279E+002	-1.2600260E+000	-2.524176846812188E+002	3.1805283E-001	-1.2599518E+000	0
4.9687819E+000	1.140520973252205E+002	-1.2618923E+000	-2.539641054197500E+002	3.2047534E-001	-1.2618554E+000	0
4.9407849E+000	1.142422973204157E+002	-1.2637870E+000	-2.557866808886362E+002	3.2325989E-001	-1.2637570E+000	0
4.8871083E+000	1.144324973156108E+002	-1.2657475E+000	-2.589972435019654E+002	3.2782513E-001	-1.2656591E+000	0
4.8400517E+000	1.146227973108034E+002	-1.2676352E+000	-2.619052968568808E+002	3.3200037E-001	-1.2675617E+000	0
4.8287883E+000	1.148130973059961E+002	-1.2695388E+000	-2.629104228341566E+002	3.3377498E-001	-1.2694652E+000	0
4.7908125E+000	1.149936973014337E+002	-1.2713217E+000	-2.653665974607347E+002	3.3736631E-001	-1.2712704E+000	0
4.7687550E+000	1.151742972968714E+002	-1.2731644E+000	-2.669804704805895E+002	3.3991003E-001	-1.2730769E+000	0
4.7257118E+000	1.153743972918164E+002	-1.2751269E+000	-2.698274862068852E+002	3.4406430E-001	-1.2750785E+000	0
4.7103648E+000	1.155445972875168E+002	-1.2768441E+000	-2.710711906708698E+002	3.4611565E-001	-1.2767799E+000	0
4.7089214E+000	1.157047972834698E+002	-1.2784404E+000	-2.714932477677712E+002	3.4708792E-001	-1.2783818E+000	0
4.6601844E+000	1.158850972789151E+002	-1.2802314E+000	-2.747168885072775E+002	3.5170117E-001	-1.2801851E+000	0
4.6223249E+000	1.160556972746053E+002	-1.2819514E+000	-2.773390999665398E+002	3.5553527E-001	-1.2818905E+000	0
4.6093869E+000	1.162062972708009E+002	-1.2834768E+000	-2.784484776265626E+002	3.5738218E-001	-1.2833967E+000	0
4.5566525E+000	1.163664972667539E+002	-1.2850869E+000	-2.820243165009106E+002	3.6242574E-001	-1.2849989E+000	0
4.4911737E+000	1.165466972622016E+002	-1.2868924E+000	-2.865380903012210E+002	3.6874369E-001	-1.2868009E+000	0
4.4481220E+000	1.167170972578970E+002	-1.2885687E+000	-2.896882576879325E+002	3.7328324E-001	-1.2885050E+000	0
4.3771458E+000	1.168975972533372E+002	-1.2903821E+000	-2.947998883016744E+002	3.8040450E-001	-1.2903097E+000	0
4.3044486E+000	1.170982972482670E+002	-1.2923721E+000	-3.002410199199494E+002	3.8802311E-001	-1.2923166E+000	0
4.3239527E+000	1.172789972437022E+002	-1.2941791E+000	-2.993046235362472E+002	3.8735378E-001	-1.2941235E+000	0
4.3363166E+000	1.174492972394000E+002	-1.2959440E+000	-2.988582341899491E+002	3.8730353E-001	-1.2958268E+000	0
4.2836852E+000	1.176295972348453E+002	-1.2976725E+000	-3.029336747940506E+002	3.9310870E-001	-1.2976297E+000	0
4.2582994E+000	1.178001972305356E+002	-1.2994294E+000	-3.051522084678345E+002	3.9652374E-001	-1.2993356E+000	0
4.2157397E+000	1.179807972259732E+002	-1.3012466E+000	-3.086639023929679E+002	4.0164787E-001	-1.3011417E+000	0
4.2107458E+000	1.181712972211608E+002	-1.3031230E+000	-3.094755851443375E+002	4.0328476E-001	-1.3030463E+000	0
4.1449757E+000	1.183517972166010E+002	-1.3049523E+000	-3.148274886468039E+002	4.1083485E-001	-1.3048521E+000	0
4.1757340E+000	1.185419972117961E+002	-1.3068713E+000	-3.129680454620172E+002	4.0900895E-001	-1.3067539E+000	0
4.1808524E+000	1.187324972069837E+002	-1.3087332E+000	-3.130302511690707E+002	4.0967309E-001	-1.3086588E+000	0
4.1442208E+000	1.189227972021763E+002	-1.3107121E+000	-3.162746857968800E+002	4.1454506E-001	-1.3105623E+000	0
4.0973511E+000	1.191232971971112E+002	-1.3126903E+000	-3.203753351822924E+002	4.2055359E-001	-1.3125666E+000	0
4.0584102E+000	1.193238971920437E+002	-1.3146762E+000	-3.239387262033724E+002	4.2587453E-001	-1.3145727E+000	0
4.0259356E+000	1.195243971869786E+002	-1.3166763E+000	-3.270485247953046E+002	4.3061703E-001	-1.3165780E+000	0
4.0341487E+000	1.197247971819161E+002	-1.3186653E+000	-3.268757243142272E+002	4.3103966E-001	-1.3185821E+000	0
4.0440922E+000	1.199151971771062E+002	-1.3206623E+000	-3.265658179461243E+002	4.3128315E-001	-1.3204855E+000	0
4.0189924E+000	1.201054971722988E+002	-1.3225622E+000	-3.290780374645665E+002	4.3522617E-001	-1.3223892E+000	0
3.9515426E+000	1.203056971672413E+002	-1.3245475E+000	-3.351975750548422E+002	4.4398513E-001	-1.3243912E+000	0
3.9601605E+000	1.205059971621813E+002	-1.3265380E+000	-3.349707621405714E+002	4.4435143E-001	-1.3263935E+000	0
3.9353452E+000	1.207063971571188E+002	-1.3285381E+000	-3.375912446761984E+002	4.4850281E-001	-1.3283980E+000	0
3.8994896E+000	1.209069971520512E+002	-1.3305058E+000	-3.411999913439658E+002	4.5396858E-001	-1.3304039E+000	0
3.8481343E+000	1.210876971474863E+002	-1.3323047E+000	-3.462209520231668E+002	4.6127179E-001	-1.3322105E+000	0
3.7840610E+000	1.212681971429265E+002	-1.3341252E+000	-3.525643955101079E+002	4.7036502E-001	-1.3340160E+000	0
3.8227887E+000	1.214685971378640E+002	-1.3360900E+000	-3.495066284380587E+002	4.6697229E-001	-1.3360200E+000	0
3.8014517E+000	1.216692971327939E+002	-1.3381370E+000	-3.520068588224103E+002	4.7103342E-001	-1.3380268E+000	0
3.7902739E+000	1.218594971279890E+002	-1.3400592E+000	-3.535520571395177E+002	4.7378066E-001	-1.3399291E+000	0
3.7840619E+000	1.220499971231766E+002	-1.3419574E+000	-3.546341248014173E+002	4.7590390E-001	-1.3418339E+000	0
3.8052800E+000	1.222403971183667E+002	-1.3438828E+000	-3.531626693353601E+002	4.7460923E-001	-1.3437378E+000	0
3.7188411E+000	1.224207971138094E+002	-1.3456545E+000	-3.618478153311048E+002	4.8692214E-001	-1.3455418E+000	0
3.6422358E+000	1.225912971095022E+002	-1.3473825E+000	-3.699328196156284E+002	4.9844101E-001	-1.3472470E+000	0
3.5620072E+000	1.227914971044447E+002	-1.3493524E+000	-3.788179666900132E+002	5.1115894E-001	-1.3492492E+000	0
3.5073898E+000	1.229815970996424E+002	-1.3512719E+000	-3.852642409562532E+002	5.2059674E-001	-1.3511500E+000	0
3.5075040E+000	1.231715970948426E+002	-1.3531560E+000	-3.857888725890598E+002	5.2203250E-001	-1.3530502E+000	0
3.5143957E+000	1.233715970897902E+002	-1.3551815E+000	-3.856086638833394E+002	5.2256972E-001	-1.3550501E+000	0
3.5502200E+000	1.235715970847377E+002	-1.3572040E+000	-3.822872798383360E+002	5.1884180E-001	-1.3570502E+000	0
3.5200057E+000	1.237715970796853E+002	-1.3591638E+000	-3.861254361081283E+002	5.2480769E-001	-1.3590502E+000	0
3.5047002E+000	1.239715970746329E+002	-1.3611690E+000	-3.883838469987559E+002	5.2865607E-001	-1.3610501E+000	0
3.5497713E+000	1.241715970695805E+002	-1.3631957E+000	-3.840235113805666E+002	5.2349919E-001	-1.3630502E+000	0
3.5873625E+000	1.243715970645280E+002	-1.3651667E+000	-3.805488542050721E+002	5.1951259E-001	-1.3650502E+000	0
3.6203737E+000	1.245715970594756E+002	-1.3671619E+000	-3.776300478435696E+002	5.1628143E-001	-1.3670502E+000	0
3.6108348E+000	1.247715970544232E+002	-1.3691641E+000	-3.791821378915492E+002	5.1916260E-001	-1.3690501E+000	0
3.6228201E+000	1.249715970493708E+002	-1.3711413E+000	-3.784734775409138E+002	5.1894063E-001	-1.3710501E+000	0
3.5697920E+000	1.251715970443183E+002	-1.3731807E+000	-3.846668704285922E+002	5.2821714E-001	-1.3730502E+000	0
3.5795448E+000	1.253715970392659E+002	-1.3751656E+000	-3.841733139712796E+002	5.2830189E-001	-1.3750502E+000	0
3.5209968E+000	1.255715970342135E+002	-1.3771875E+000	-3.911356816216108E+002	5.3866714E-001	-1.3770502E+000	0
3.5055542E+000	1.257715970291611E+002	-1.3791907E+000	-3.934301346132261E+002	5.4261518E-001	-1.3790501E+000	0
3.4877782E+000	1.259715970241086E+002	-1.3812014E+000	-3.960118305374981E+002	5.4697210E-001	-1.3810502E+000	0
3.4471834E+000	1.261715970190562E+002	-1.3831998E+000	-4.012550647069531E+002	5.5501592E-001	-1.3830502E+000	0
3.4534802E+000	1.263715970140038E+002	-1.3852334E+000	-4.011122885918157E+002	5.5563414E-001	-1.3850502E+000	0
3.4470325E+000	1.265715970089514E+002	-1.3872008E+000	-4.024333593710207E+002	5.5825591E-001	-1.3870502E+000	0
3.4400501E+000	1.267715970038989E+002	-1.3892072E+000	-4.038334167765915E+002	5.6100833E-001	-1.3890501E+000	0
3.3591497E+000	1.269715969988465E+002	-1.3912141E+000	-4.141566297483569E+002	5.7618058E-001	-1.3910502E+000	0
3.3748364E+000	1.271715969937941E+002	-1.3931983E+000	-4.128194769904730E+002	5.7513940E-001	-1.3930502E+000	0
3.3790255E+000	1.273715969887417E+002	-1.3951968E+000	-4.128991725861085E+002	5.7607561E-001	-1.3950503E+000	0
3.3911550E+000	1.275715969836892E+002	-1.3971946E+000	-4.120114281885744E+002	5.7566017E-001	-1.3970503E+000	0
3.3880250E+000	1.277715969786368E+002	-1.3992294E+000	-4.129926360902336E+002	5.7787144E-001	-1.3990502E+000	0
3.3210204E+000	1.279715969735844E+002	-1.4012294E+000	-4.219273821166853E+002	5.9121704E-001	-1.4010502E+000	0
3.2712190E+000	1.281715969685320E+002	-1.4032272E+000	-4.289615500357136E+002	6.0193050E-001	-1.4030503E+000	0
3.2588639E+000	1.283715969634795E+002	-1.4052297E+000	-4.312023178152504E+002	6.0593832E-001	-1.4050502E+000	0
3.2256985E+000	1.285715969584271E+002	-1.4072269E+000	-4.362549621080325E+002	6.1390972E-001	-1.4070503E+000	0
3.1595435E+000	1.287715969533747E+002	-1.4092143E+000	-4.460182984280727E+002	6.2853533E-001	-1.4090501E+000	0
3.1171932E+000	1.289715969483223E+002	-1.4112568E+000	-4.527331878246914E+002	6.3892281E-001	-1.4110502E+000	0
3.1524711E+000	1.291715969432698E+002	-1.4131973E+000	-4.482824056197169E+002	6.3351148E-001	-1.4130503E+000	0
3.1701655E+000	1.293715969382174E+002	-1.4151847E+000	-4.464072060876970E+002	6.3174868E-001	-1.4150501E+000	0
3.1275313E+000	1.295715969331650E+002	-1.4171981E+000	-4.531363361471094E+002	6.4218396E-001	-1.4170502E+000	0
3.0582359E+000	1.297715969281126E+002	-1.4196069E+000	-4.641914295966380E+002	6.5896934E-001	-1.4190501E+000	0
3.0185452E+000	1.299715969230601E+002	-1.4217858E+000	-4.710169125165521E+002	6.6968518E-001	-1.4210502E+000	0
3.0117216E+000	1.301715969180077E+002	-1.4237084E+000	-4.727224494475627E+002	6.7301893E-001	-1.4230503E+000	0
3.0471530E+000	1.303715969129553E+002	-1.4257339E+000	-4.678904852575179E+002	6.6708732E-001	-1.4250501E+000	0
3.0412943E+000	1.305715969079029E+002	-1.4277676E+000	-4.694605176973232E+002	6.7028052E-001	-1.4270502E+000	0
3.0542598E+000	1.307715969028504E+002	-1.4297495E+000	-4.681165284180588E+002	6.6928935E-001	-1.4290501E+000	0
3.0846958E+000	1.309715968977980E+002	-1.4317088E+000	-4.641329128844955E+002	6.6450316E-001	-1.4310502E+000	0
3.1202765E+000	1.311715968927456E+002	-1.4337589E+000	-4.594973654801051E+002	6.5880841E-001	-1.4330503E+000	0
3.1426661E+000	1.313715968876932E+002	-1.4357535E+000	-4.568584079958691E+002	6.5593606E-001	-1.4350501E+000	0
3.1783097E+000	1.315715968826407E+002	-1.4377604E+000	-4.523663591268114E+002	6.5039444E-001	-1.4370502E+000	0
3.1894948E+000	1.317715968775883E+002	-1.4396865E+000	-4.513838676314217E+002	6.4985126E-001	-1.4390501E+000	0
3.1864865E+000	1.319715968725359E+002	-1.4417610E+000	-4.524610398999685E+002	6.5234071E-001	-1.4410502E+000	0
3.1969035E+000	1.321715968674835E+002	-1.4437387E+000	-4.516053580718799E+002	6.5200013E-001	-1.4430503E+000	0
3.1619418E+000	1.323715968624310E+002	-1.4457636E+000	-4.572391567965497E+002	6.6105974E-001	-1.4450501E+000	0
3.1341031E+000	1.325715968573786E+002	-1.4477028E+000	-4.619193386112479E+002	6.6872191E-001	-1.4470502E+000	0
3.1248519E+000	1.327715968523262E+002	-1.4497299E+000	-4.639355396348601E+002	6.7258126E-001	-1.4490502E+000	0
3.1470380E+000	1.329715968472738E+002	-1.4517295E+000	-4.613002735319615E+002	6.6968322E-001	-1.4510502E+000	0
3.0677054E+000	1.331715968422213E+002	-1.4536966E+000	-4.738710133818558E+002	6.8886471E-001	-1.4530503E+000	0
2.9752471E+000	1.333715968371689E+002	-1.4557644E+000	-4.892919164255381E+002	7.1229374E-001	-1.4550502E+000	0
2.9212523E+000	1.335715968321165E+002	-1.4577594E+000	-4.990186584282346E+002	7.2744912E-001	-1.4570501E+000	0
2.8561137E+000	1.337715968270641E+002	-1.4597429E+000	-5.110941257347085E+002	7.4606603E-001	-1.4590502E+000	0
2.8676760E+000	1.339715968220116E+002	-1.4617445E+000	-5.097314332283013E+002	7.4509716E-001	-1.4610502E+000	0
2.8907721E+000	1.341715968169592E+002	-1.4637492E+000	-5.063523252664502E+002	7.4117279E-001	-1.4630502E+000	0
2.8542295E+000	1.343715968119068E+002	-1.4657694E+000	-5.135429481194933E+002	7.5273556E-001	-1.4650502E+000	0
2.8917751E+000	1.345715968068544E+002	-1.4677644E+000	-5.075651956242509E+002	7.4498612E-001	-1.4670502E+000	0
2.9061697E+000	1.347715968018019E+002	-1.4697570E+000	-5.057368060736990E+002	7.4331021E-001	-1.4690502E+000	0
2.9115572E+000	1.349715967967495E+002	-1.4717504E+000	-5.054856447535558E+002	7.4394870E-001	-1.4710503E+000	0
2.8396499E+000	1.351715967916971E+002	-1.4737697E+000	-5.189969466894954E+002	7.6488197E-001	-1.4730502E+000	0
2.7965150E+000	1.353715967866447E+002	-1.4757898E+000	-5.277245984023393E+002	7.7881056E-001	-1.4750502E+000	0
2.8016810E+000	1.355715967815922E+002	-1.4778423E+000	-5.274841376497097E+002	7.7953839E-001	-1.4770503E+000	0
2.8319190E+000	1.357715967765398E+002	-1.4798148E+000	-5.225484121672944E+002	7.7327484E-001	-1.4790502E+000	0
2.8737900E+000	1.359715967714874E+002	-1.4817090E+000	-5.155940589212792E+002	7.6396036E-001	-1.4810503E+000	0
2.8797936E+000	1.361715967664350E+002	-1.4837959E+000	-5.152438294936201E+002	7.6451665E-001	-1.4830502E+000	0
2.8301258E+000	1.363715967613825E+002	-1.4858067E+000	-5.249967058315846E+002	7.8004360E-001	-1.4850502E+000	0
2.8182707E+000	1.365715967563301E+002	-1.4878180E+000	-5.279187526875876E+002	7.8544700E-001	-1.4870503E+000	0
2.8465447E+000	1.367715967512777E+002	-1.4897593E+000	-5.233570715975602E+002	7.7967608E-001	-1.4890501E+000	0
2.8314481E+000	1.369715967462253E+002	-1.4918197E+000	-5.268751854669492E+002	7.8600281E-001	-1.4910502E+000	0
2.8067682E+000	1.371715967411728E+002	-1.4938126E+000	-5.322180052127942E+002	7.9503393E-001	-1.4930503E+000	0
2.7565894E+000	1.373715967361204E+002	-1.4957800E+000	-5.426198101735698E+002	8.1163985E-001	-1.4950502E+000	0
2.7337136E+000	1.375715967310680E+002	-1.4977804E+000	-5.478922157201100E+002	8.2062227E-001	-1.4970503E+000	0
2.7027295E+000	1.377715967260156E+002	-1.4998417E+000	-5.549359206461318E+002	8.3231604E-001	-1.4990501E+000	0
2.7339044E+000	1.379715967209631E+002	-1.5018035E+000	-5.493255590019330E+002	8.2497907E-001	-1.5010502E+000	0
2.7549431E+000	1.381715967159107E+002	-1.5037745E+000	-5.458459467336427E+002	8.2082921E-001	-1.5030503E+000	0
2.7799349E+000	1.383715967108583E+002	-1.5057919E+000	-5.416644307566894E+002	8.1563389E-001	-1.5050502E+000	0
2.7890532E+000	1.385715967058059E+002	-1.5077758E+000	-5.406048751320723E+002	8.1511092E-001	-1.5070503E+000	0
2.8157568E+000	1.387715967007534E+002	-1.5097946E+000	-5.361949621533604E+002	8.0954427E-001	-1.5090501E+000	0
2.8487234E+000	1.389715966957010E+002	-1.5118150E+000	-5.306991125656077E+002	8.0231887E-001	-1.5110502E+000	0
2.8363206E+000	1.391715966906486E+002	-1.5137534E+000	-5.337031836044748E+002	8.0789500E-001	-1.5130501E+000	0
2.8859274E+000	1.393715966855962E+002	-1.5157701E+000	-5.252280763206545E+002	7.9612499E-001	-1.5150502E+000	0
2.8131316E+000	1.395715966805437E+002	-1.5177429E+000	-5.395207651185901E+002	8.1885380E-001	-1.5170501E+000	0
2.7053857E+000	1.397715966754913E+002	-1.5198524E+000	-5.617877106223232E+002	8.5383439E-001	-1.5190501E+000	0
2.7015226E+000	1.399715966704389E+002	-1.5218664E+000	-5.633365634996044E+002	8.5732299E-001	-1.5210502E+000	0
2.7350354E+000	1.401715966653865E+002	-1.5238153E+000	-5.571464314449959E+002	8.4898823E-001	-1.5230503E+000	0
2.7292924E+000	1.403715966603340E+002	-1.5258210E+000	-5.590537095145551E+002	8.5301590E-001	-1.5250502E+000	0
2.7381306E+000	1.405515966557869E+002	-1.5275825E+000	-5.578925250195234E+002	8.5222685E-001	-1.5268500E+000	0
2.7456458E+000	1.406221966540033E+002	-1.5284833E+000	-5.566935424804688E+002	8.5089678E-001	-1.5277499E+000	1