EC-Lab ASCII FILE
Nb header lines : 63                          

Linear Sweep Voltammetry

Run on channel : 1 (SN 1340)
User : 
Electrode connection : standard
Potential control : Ewe
Ewe ctrl range : min = -5.00 V, max = 5.00 V
Ewe,I filtering : <None>
Safety Limits :
	Do not start on E overload
Channel : Floating
Acquisition started on : 02/11/2026 19:02:32.862
Technique started on : 02/11/2026 19:02:35.700
Loaded Setting File :  NONE
Saved on :
	File : PtPdCoNiCr_2_11_unpolished_02_LSV_C01.mpr
	Directory : C:\Users\volt\Documents\Platalytix\
	Host : 127.0.0.1
Device : SP-200 (SN 0262)
Address : USB
EC-LAB for windows v11.60 (software)
Internet server v11.60 (firmware)
Command interpretor v11.60 (firmware)
Electrode material : PtPdCoNiCr
Initial state : 
Electrolyte : KOH (1M)
Comments : 
Cable : standard
Reference electrode : Hg/HgO (0.140 V)
Electrode surface area : 1.000 cm˛
Characteristic mass : 0.001 g
Equivalent Weight : 0.000 g/eq.
Density : 0.000 g/cm3
Volume (V) : 0.001 cmł
Cycle Definition : Charge/Discharge alternance
tR (h:m:s)          0:00:5.0000         
dER/dt (mV/h)       0.0                 
dER (mV)            0                   
dtR (s)             0.0000              
dE/dt               10.000              
dE/dt unit          mV/s                
Ei (V)              -0.200              
vs.                 Ref                 
EL (V)              -2.500              
vs.                 Ref                 
record              <I>                 
dI                  0.000               
unit dI             µA                  
tI (s)              0.0000              
step percent        50                  
N                   10                  
E range min (V)     -5.000              
E range max (V)     5.000               
I Range             Auto                
I Range min         Unset               
I Range max         Unset               
I Range init        Unset               
Bandwidth           8                   

Rwe/Ohm	time/s	Ewe/V	<I>/mA	Pwe/W	control/V	error	
0.0000000E+000	2.838400134787662E+000	-1.4555508E-001	0.000000000000000E+000	0.0000000E+000	0.0000000E+000	0
0.0000000E+000	7.838200008482090E+000	1.4559191E-002	0.000000000000000E+000	0.0000000E+000	-1.9997221E-001	0
6.1873926E+002	8.038200003429665E+000	-2.0177935E-001	-3.261136898398398E-001	6.5803011E-005	-2.0187199E-001	0
6.1251001E+002	8.158200000398210E+000	-2.0291086E-001	-3.312776062390475E-001	6.7219822E-005	-2.0307204E-001	0
7.3668909E+002	8.368199995093164E+000	-2.0503068E-001	-2.783137193718357E-001	5.7062851E-005	-2.0517193E-001	0
8.2222388E+002	8.568199990040739E+000	-2.0704468E-001	-2.518105822511845E-001	5.2136042E-005	-2.0717183E-001	0
8.9028461E+002	8.768199984988314E+000	-2.0904633E-001	-2.348084346435604E-001	4.9085844E-005	-2.0917174E-001	0
9.4759393E+002	8.968199979935889E+000	-2.1103045E-001	-2.227013593649416E-001	4.6996767E-005	-2.1117166E-001	0
9.9743103E+002	9.168199974883464E+000	-2.1301895E-001	-2.135676088005880E-001	4.5493947E-005	-2.1317156E-001	0
1.0422997E+003	9.368199969831039E+000	-2.1501936E-001	-2.062932331676768E-001	4.4357039E-005	-2.1517149E-001	0
1.0829177E+003	9.568199964778614E+000	-2.1700875E-001	-2.003926492196902E-001	4.3486958E-005	-2.1717139E-001	0
1.1209152E+003	9.768199959726189E+000	-2.1903206E-001	-1.954046805207608E-001	4.2799889E-005	-2.1917129E-001	0
1.1564736E+003	9.968199954673764E+000	-2.2102211E-001	-1.911172927779621E-001	4.2241147E-005	-2.2117119E-001	0
1.1898427E+003	1.016819994962134E+001	-2.2300233E-001	-1.874216917095501E-001	4.1795472E-005	-2.2317111E-001	0
1.2219022E+003	1.036819994456891E+001	-2.2500910E-001	-1.841465628995254E-001	4.1434650E-005	-2.2517098E-001	0
1.2529060E+003	1.056819993951649E+001	-2.2702777E-001	-1.812009689368548E-001	4.1137653E-005	-2.2717091E-001	0
1.2824684E+003	1.076819993446406E+001	-2.2901271E-001	-1.785718178843279E-001	4.0895218E-005	-2.2917081E-001	0
1.3114506E+003	1.096819992941164E+001	-2.3098871E-001	-1.761322215626069E-001	4.0684554E-005	-2.3117070E-001	0
1.3398285E+003	1.116819992435921E+001	-2.3302096E-001	-1.739184920382506E-001	4.0526655E-005	-2.3317061E-001	0
1.3680089E+003	1.136819991930679E+001	-2.3502584E-001	-1.718013908338152E-001	4.0377767E-005	-2.3517051E-001	0
1.3950138E+003	1.156819991425436E+001	-2.3700714E-001	-1.698959185889672E-001	4.0266546E-005	-2.3717044E-001	0
1.4229355E+003	1.176819990920194E+001	-2.3905700E-001	-1.680026997900788E-001	4.0162224E-005	-2.3917034E-001	0
1.4515959E+003	1.196809990415204E+001	-2.4103691E-001	-1.660495809892835E-001	4.0024079E-005	-2.4117018E-001	0
1.4782179E+003	1.216799989910214E+001	-2.4301618E-001	-1.643980760613033E-001	3.9951392E-005	-2.4317002E-001	0
1.5041698E+003	1.236799989404972E+001	-2.4499030E-001	-1.628741012820697E-001	3.9902574E-005	-2.4516992E-001	0
1.5304452E+003	1.256799988899729E+001	-2.4699581E-001	-1.613882043992344E-001	3.9862211E-005	-2.4716984E-001	0
1.5576484E+003	1.276799988394487E+001	-2.4903801E-001	-1.598807599262468E-001	3.9816387E-005	-2.4916975E-001	0
1.5833911E+003	1.296799987889244E+001	-2.5098625E-001	-1.585118460918769E-001	3.9784292E-005	-2.5116965E-001	0
1.6102897E+003	1.316799987384002E+001	-2.5302464E-001	-1.571298858537311E-001	3.9757731E-005	-2.5316957E-001	0
1.6371436E+003	1.336799986878759E+001	-2.5502461E-001	-1.557741298365599E-001	3.9726237E-005	-2.5516945E-001	0
1.6645490E+003	1.356799986373517E+001	-2.5701398E-001	-1.544045766957032E-001	3.9684135E-005	-2.5716937E-001	0
1.6920778E+003	1.376799985868274E+001	-2.5903094E-001	-1.530845309512654E-001	3.9653631E-005	-2.5916925E-001	0
1.7189517E+003	1.396799985363032E+001	-2.6096496E-001	-1.518163498883851E-001	3.9618746E-005	-2.6116920E-001	0
1.7466409E+003	1.416799984857789E+001	-2.6297662E-001	-1.505613525148877E-001	3.9594113E-005	-2.6316908E-001	0
1.7748602E+003	1.436799984352547E+001	-2.6496491E-001	-1.492877633346759E-001	3.9556020E-005	-2.6516899E-001	0
1.8024381E+003	1.456799983847304E+001	-2.6697722E-001	-1.481200453050243E-001	3.9544677E-005	-2.6716891E-001	0
1.8312938E+003	1.476799983342062E+001	-2.6896513E-001	-1.468716394420200E-001	3.9503349E-005	-2.6916879E-001	0
1.8601497E+003	1.496799982836819E+001	-2.7099821E-001	-1.456862401455857E-001	3.9480710E-005	-2.7116871E-001	0
1.8904807E+003	1.516799982331577E+001	-2.7301136E-001	-1.444137245247696E-001	3.9426588E-005	-2.7316862E-001	0
1.9200857E+003	1.536799981826334E+001	-2.7499205E-001	-1.432186314232151E-001	3.9383984E-005	-2.7516854E-001	0
1.9505249E+003	1.556799981321092E+001	-2.7700222E-001	-1.420141895821146E-001	3.9338243E-005	-2.7716842E-001	0
1.9821025E+003	1.576799980815849E+001	-2.7901769E-001	-1.407685400189536E-001	3.9276911E-005	-2.7916834E-001	0
2.0131139E+003	1.596789980310859E+001	-2.8100350E-001	-1.395864903481003E-001	3.9224295E-005	-2.8116825E-001	0
2.0445099E+003	1.616779979805870E+001	-2.8300259E-001	-1.384207488073548E-001	3.9173428E-005	-2.8316814E-001	0
2.0778643E+003	1.636779979300627E+001	-2.8502825E-001	-1.371736656652662E-001	3.9098370E-005	-2.8516805E-001	0
2.1102607E+003	1.656779978795385E+001	-2.8706580E-001	-1.360333372032070E-001	3.9050519E-005	-2.8716797E-001	0
2.1428757E+003	1.676779978290142E+001	-2.8899196E-001	-1.348617484237646E-001	3.8973962E-005	-2.8916785E-001	0
2.1788428E+003	1.696779977784900E+001	-2.9101017E-001	-1.335618012635427E-001	3.8867842E-005	-2.9116777E-001	0
2.2119001E+003	1.716779977279657E+001	-2.9300126E-001	-1.324658642772194E-001	3.8812665E-005	-2.9316768E-001	0
2.2479302E+003	1.736779976774415E+001	-2.9499021E-001	-1.312274777693688E-001	3.8710823E-005	-2.9516757E-001	0
2.2843167E+003	1.756779976269172E+001	-2.9698807E-001	-1.300117790502604E-001	3.8611946E-005	-2.9716748E-001	0
2.3195049E+003	1.776779975763930E+001	-2.9902565E-001	-1.289178754948506E-001	3.8549751E-005	-2.9916736E-001	0
2.3570156E+003	1.796779975258687E+001	-3.0105826E-001	-1.277285817083473E-001	3.8453745E-005	-3.0116731E-001	0
2.3950859E+003	1.816779974753445E+001	-3.0301073E-001	-1.265135140785452E-001	3.8334954E-005	-3.0316719E-001	0
2.4342305E+003	1.836779974248202E+001	-3.0498993E-001	-1.252921418151707E-001	3.8212842E-005	-3.0516711E-001	0
2.4719119E+003	1.856779973742960E+001	-3.0702004E-001	-1.242034682727375E-001	3.8132952E-005	-3.0716699E-001	0
2.5123997E+003	1.876779973237717E+001	-3.0903596E-001	-1.230042992622218E-001	3.8012753E-005	-3.0916691E-001	0
2.5515085E+003	1.896779972732475E+001	-3.1096846E-001	-1.218763148726773E-001	3.7899688E-005	-3.1116682E-001	0
2.5929126E+003	1.916779972227232E+001	-3.1301874E-001	-1.207209036151227E-001	3.7787904E-005	-3.1316674E-001	0
2.6346370E+003	1.936779971721990E+001	-3.1498414E-001	-1.195550468769304E-001	3.7657945E-005	-3.1516662E-001	0
2.6760349E+003	1.956779971216747E+001	-3.1701061E-001	-1.184628051652865E-001	3.7553968E-005	-3.1716654E-001	0
2.7191653E+003	1.976779970711505E+001	-3.1903291E-001	-1.173275158848290E-001	3.7431339E-005	-3.1916645E-001	0
2.7624661E+003	1.996779970206262E+001	-3.2096496E-001	-1.161878368946097E-001	3.7292226E-005	-3.2116637E-001	0
2.8067300E+003	2.016769969701272E+001	-3.2303861E-001	-1.150942973100799E-001	3.7179903E-005	-3.2316604E-001	0
2.8509648E+003	2.036759969196282E+001	-3.2499531E-001	-1.139948507950405E-001	3.7047790E-005	-3.2516617E-001	0
2.8958076E+003	2.056759968691040E+001	-3.2700360E-001	-1.129231075080459E-001	3.6926263E-005	-3.2716605E-001	0
2.9415334E+003	2.076759968185797E+001	-3.2904175E-001	-1.118606217490621E-001	3.6806814E-005	-3.2916597E-001	0
2.9855442E+003	2.096759967680555E+001	-3.3098486E-001	-1.108624905531554E-001	3.6693807E-005	-3.3116588E-001	0
3.0336692E+003	2.116759967175312E+001	-3.3300439E-001	-1.097695108739631E-001	3.6553727E-005	-3.3316579E-001	0
3.0799199E+003	2.136759966670070E+001	-3.3498508E-001	-1.087642134465023E-001	3.6434387E-005	-3.3516568E-001	0
3.1272195E+003	2.156759966164827E+001	-3.3700860E-001	-1.077662094859431E-001	3.6318139E-005	-3.3716559E-001	0
3.1737244E+003	2.176759965659585E+001	-3.3900607E-001	-1.068164820639241E-001	3.6211437E-005	-3.3916551E-001	0
3.2213513E+003	2.196759965154342E+001	-3.4097463E-001	-1.058483176807663E-001	3.6091591E-005	-3.4116539E-001	0
3.2692034E+003	2.216759964649100E+001	-3.4299499E-001	-1.049169961388423E-001	3.5986002E-005	-3.4316531E-001	0
3.3172695E+003	2.236759964143857E+001	-3.4501493E-001	-1.040056992845950E-001	3.5883520E-005	-3.4516522E-001	0
3.3659324E+003	2.256759963638615E+001	-3.4696016E-001	-1.030799519458616E-001	3.5764635E-005	-3.4716511E-001	0
3.4151499E+003	2.276759963133372E+001	-3.4897608E-001	-1.021846998630771E-001	3.5660014E-005	-3.4916502E-001	0
3.4622009E+003	2.296759962628130E+001	-3.5099030E-001	-1.013777931970535E-001	3.5582623E-005	-3.5116494E-001	0
3.5103950E+003	2.316759962122887E+001	-3.5297415E-001	-1.005511173182281E-001	3.5491947E-005	-3.5316485E-001	0
3.5594614E+003	2.336759961617645E+001	-3.5501254E-001	-9.973771196141712E-002	3.5408139E-005	-3.5516474E-001	0
3.6086372E+003	2.356759961112402E+001	-3.5701719E-001	-9.893407715725253E-002	3.5321165E-005	-3.5716465E-001	0
3.6550789E+003	2.376759960607160E+001	-3.5902074E-001	-9.822517143701814E-002	3.5264875E-005	-3.5916460E-001	0
3.7025837E+003	2.396759960101917E+001	-3.6096370E-001	-9.748968088686860E-002	3.5190234E-005	-3.6116448E-001	0
3.7506343E+003	2.416759959596675E+001	-3.6298934E-001	-9.678078886087715E-002	3.5130393E-005	-3.6316440E-001	0
3.7984956E+003	2.436749959091685E+001	-3.6497930E-001	-9.608522214548298E-002	3.5069115E-005	-3.6516380E-001	0
3.8481560E+003	2.456739958586695E+001	-3.6700863E-001	-9.537259760141659E-002	3.5002566E-005	-3.6716419E-001	0
3.8917783E+003	2.476739958081453E+001	-3.6896959E-001	-9.480745021503001E-002	3.4981065E-005	-3.6916408E-001	0
3.9382073E+003	2.496739957576210E+001	-3.7095153E-001	-9.419299339370912E-002	3.4941037E-005	-3.7116399E-001	0
3.9866907E+003	2.516739957070968E+001	-3.7302849E-001	-9.356845449445039E-002	3.4903700E-005	-3.7316388E-001	0
4.0305847E+003	2.536739956565725E+001	-3.7499395E-001	-9.303711057332320E-002	3.4888355E-005	-3.7516379E-001	0
4.0740686E+003	2.556739956060483E+001	-3.7698758E-001	-9.253343678229520E-002	3.4883957E-005	-3.7716374E-001	0
4.1191821E+003	2.576739955555240E+001	-3.7901428E-001	-9.201201829845956E-002	3.4873869E-005	-3.7916365E-001	0
4.1625337E+003	2.596739955049998E+001	-3.8099346E-001	-9.152921760832800E-002	3.4872031E-005	-3.8116351E-001	0
4.2060703E+003	2.616739954544755E+001	-3.8300470E-001	-9.105998525013770E-002	3.4876401E-005	-3.8316345E-001	0
4.2483003E+003	2.636739954039513E+001	-3.8503015E-001	-9.063157716516823E-002	3.4895889E-005	-3.8516334E-001	0
4.2896890E+003	2.656739953534270E+001	-3.8697666E-001	-9.021089381544678E-002	3.4909510E-005	-3.8716325E-001	0
4.3319717E+003	2.676739953029028E+001	-3.8900867E-001	-8.979945234656572E-002	3.4932764E-005	-3.8916314E-001	0
4.3720630E+003	2.696739952523785E+001	-3.9103055E-001	-8.943845514237647E-002	3.4973167E-005	-3.9116308E-001	0
4.4082808E+003	2.716739952018543E+001	-3.9302185E-001	-8.915535754908577E-002	3.5040004E-005	-3.9316294E-001	0
4.4521294E+003	2.736739951513300E+001	-3.9499766E-001	-8.872106624503207E-002	3.5044613E-005	-3.9516285E-001	0
4.4882759E+003	2.756739951008058E+001	-3.9701548E-001	-8.845612471141878E-002	3.5118450E-005	-3.9716277E-001	0
4.5236504E+003	2.776739950502815E+001	-3.9903861E-001	-8.821163491806372E-002	3.5199850E-005	-3.9916271E-001	0
4.5624209E+003	2.796739949997573E+001	-4.0103412E-001	-8.789940865535106E-002	3.5250661E-005	-4.0116256E-001	0
4.6010972E+003	2.816739949492330E+001	-4.0302244E-001	-8.759268295060019E-002	3.5301815E-005	-4.0316251E-001	0
4.6322817E+003	2.836739948987088E+001	-4.0502685E-001	-8.743571095504366E-002	3.5413810E-005	-4.0516239E-001	0
4.6698330E+003	2.856729948482098E+001	-4.0699112E-001	-8.715325359024861E-002	3.5470599E-005	-4.0716168E-001	0
4.7036660E+003	2.876719947977108E+001	-4.0900946E-001	-8.695546462825693E-002	3.5565608E-005	-4.0916219E-001	0
4.7389272E+003	2.896719947471865E+001	-4.1106057E-001	-8.674127396667064E-002	3.5655918E-005	-4.1116211E-001	0
4.7684712E+003	2.916719946966623E+001	-4.1302955E-001	-8.661676307795929E-002	3.5775283E-005	-4.1316205E-001	0
4.8006753E+003	2.936719946461380E+001	-4.1503230E-001	-8.645289586994265E-002	3.5880745E-005	-4.1516191E-001	0
4.8355566E+003	2.956719945956138E+001	-4.1703314E-001	-8.624304855894924E-002	3.5966208E-005	-4.1716185E-001	0
4.8679180E+003	2.976719945450895E+001	-4.1902319E-001	-8.607852322951193E-002	3.6068897E-005	-4.1916171E-001	0
4.8975093E+003	2.996719944945653E+001	-4.2103103E-001	-8.596839907562215E-002	3.6195364E-005	-4.2116165E-001	0
4.9256558E+003	3.016719944440410E+001	-4.2300045E-001	-8.587698455025672E-002	3.6326004E-005	-4.2316151E-001	0
4.9567344E+003	3.036719943935168E+001	-4.2503923E-001	-8.574984754254111E-002	3.6447051E-005	-4.2516145E-001	0
4.9881348E+003	3.056719943429925E+001	-4.2706475E-001	-8.561612142972219E-002	3.6563626E-005	-4.2716137E-001	0
5.0191797E+003	3.076719942924683E+001	-4.2902714E-001	-8.547754454703127E-002	3.6672187E-005	-4.2916125E-001	0
5.0502725E+003	3.096719942419440E+001	-4.3107018E-001	-8.535582580299554E-002	3.6794350E-005	-4.3116117E-001	0
5.0743721E+003	3.116719941914198E+001	-4.3303752E-001	-8.533815163833924E-002	3.6954621E-005	-4.3316105E-001	0
5.1034609E+003	3.136719941408955E+001	-4.3505889E-001	-8.524781276098103E-002	3.7087819E-005	-4.3516099E-001	0
5.1342314E+003	3.156719940903713E+001	-4.3709517E-001	-8.513351273406200E-002	3.7211448E-005	-4.3716088E-001	0
5.1622139E+003	3.176719940398471E+001	-4.3907437E-001	-8.505543807992377E-002	3.7345664E-005	-4.3916079E-001	0
5.1892407E+003	3.196719939893228E+001	-4.4104275E-001	-8.499176715777307E-002	3.7485002E-005	-4.4116068E-001	0
5.2153101E+003	3.216719939387986E+001	-4.4308010E-001	-8.495757601998954E-002	3.7643011E-005	-4.4316062E-001	0
5.2445459E+003	3.236719938882743E+001	-4.4504568E-001	-8.485876648769197E-002	3.7766029E-005	-4.4516051E-001	0
5.2720781E+003	3.256719938377501E+001	-4.4701472E-001	-8.478909612067320E-002	3.7901973E-005	-4.4716045E-001	0
5.3017871E+003	3.276719937872258E+001	-4.4907266E-001	-8.470212589619935E-002	3.8037408E-005	-4.4916031E-001	0
5.3308521E+003	3.296709937367268E+001	-4.5104024E-001	-8.460940484184226E-002	3.8162245E-005	-4.5116049E-001	0
5.3549839E+003	3.316699936862278E+001	-4.5308065E-001	-8.460915081526080E-002	3.8334769E-005	-4.5316011E-001	0
5.3856895E+003	3.336699936357036E+001	-4.5506242E-001	-8.449473850642364E-002	3.8450380E-005	-4.5516005E-001	0
5.4125996E+003	3.356699935851793E+001	-4.5704013E-001	-8.444003971259795E-002	3.8592487E-005	-4.5715997E-001	0
5.4435493E+003	3.376699935346551E+001	-4.5901123E-001	-8.432204832899415E-002	3.8704766E-005	-4.5915985E-001	0
5.4743535E+003	3.396699934841308E+001	-4.6107090E-001	-8.422380692564156E-002	3.8833146E-005	-4.6115977E-001	0
5.5034297E+003	3.416699934336066E+001	-4.6305856E-001	-8.413999720028875E-002	3.8961745E-005	-4.6315962E-001	0
5.5305098E+003	3.436699933830823E+001	-4.6502203E-001	-8.408303507772680E-002	3.9100465E-005	-4.6515962E-001	0
5.5612588E+003	3.456699933325581E+001	-4.6704724E-001	-8.398229013832770E-002	3.9223698E-005	-4.6715942E-001	0
5.5912915E+003	3.476699932820338E+001	-4.6902224E-001	-8.388441841248978E-002	3.9343657E-005	-4.6915942E-001	0
5.6186948E+003	3.496699932315096E+001	-4.7094539E-001	-8.381757787597710E-002	3.9473503E-005	-4.7115928E-001	0
5.6527007E+003	3.516699931809853E+001	-4.7304469E-001	-8.368472694978957E-002	3.9586615E-005	-4.7315922E-001	0
5.6802163E+003	3.536699931304611E+001	-4.7499859E-001	-8.362332493903102E-002	3.9720962E-005	-4.7515908E-001	0
5.7153442E+003	3.556699930799368E+001	-4.7700346E-001	-8.346014556764264E-002	3.9810777E-005	-4.7715902E-001	0
5.7450596E+003	3.576699930294126E+001	-4.7903636E-001	-8.338231748062930E-002	3.9943163E-005	-4.7915891E-001	0
5.7753174E+003	3.596699929788883E+001	-4.8104385E-001	-8.329305781659725E-002	4.0067614E-005	-4.8115882E-001	0
5.8080146E+003	3.616699929283641E+001	-4.8302680E-001	-8.316556273805409E-002	4.0171195E-005	-4.8315874E-001	0
5.8413164E+003	3.636699928778398E+001	-4.8500428E-001	-8.302996251383660E-002	4.0269886E-005	-4.8515862E-001	0
5.8736240E+003	3.656699928273156E+001	-4.8704508E-001	-8.292071422711911E-002	4.0386127E-005	-4.8715857E-001	0
5.9038359E+003	3.676699927767913E+001	-4.8902059E-001	-8.283099396019122E-002	4.0506060E-005	-4.8915842E-001	0
5.9387085E+003	3.696699927262671E+001	-4.9100170E-001	-8.267819678227162E-002	4.0595136E-005	-4.9115837E-001	0
5.9749990E+003	3.716689926757681E+001	-4.9304569E-001	-8.251812121262869E-002	4.0685205E-005	-4.9315825E-001	0
6.0086016E+003	3.736679926252691E+001	-4.9498767E-001	-8.237984751893881E-002	4.0777009E-005	-4.9515817E-001	0
6.0422881E+003	3.756679925747449E+001	-4.9701378E-001	-8.225588645055371E-002	4.0882307E-005	-4.9715802E-001	0
6.0820239E+003	3.776679925242206E+001	-4.9902478E-001	-8.204913203543268E-002	4.0944549E-005	-4.9915797E-001	0
6.1141729E+003	3.796679924736964E+001	-5.0101203E-001	-8.194273074163883E-002	4.1054293E-005	-5.0115788E-001	0
6.1524370E+003	3.816679924231721E+001	-5.0304002E-001	-8.176272222613823E-002	4.1129922E-005	-5.0315779E-001	0
6.1912085E+003	3.836679923726479E+001	-5.0508523E-001	-8.158103899308000E-002	4.1205378E-005	-5.0515771E-001	0
6.2257778E+003	3.856679923221236E+001	-5.0699824E-001	-8.143532514580620E-002	4.1287567E-005	-5.0715756E-001	0
6.2597358E+003	3.876679922715994E+001	-5.0899500E-001	-8.131253747681316E-002	4.1387673E-005	-5.0915748E-001	0
6.3043042E+003	3.896679922210751E+001	-5.1106650E-001	-8.106628286941620E-002	4.1430259E-005	-5.1115733E-001	0
6.3361602E+003	3.916679921705509E+001	-5.1304871E-001	-8.097154794571293E-002	4.1542349E-005	-5.1315737E-001	0
6.3755239E+003	3.936679921200266E+001	-5.1499820E-001	-8.077739168891895E-002	4.1600211E-005	-5.1515722E-001	0
6.4154370E+003	3.956679920695024E+001	-5.1703978E-001	-8.059307181512891E-002	4.1669824E-005	-5.1715708E-001	0
6.4549150E+003	3.976679920189781E+001	-5.1905227E-001	-8.041194619562320E-002	4.1738003E-005	-5.1915699E-001	0
6.4947373E+003	3.996679919684539E+001	-5.2101046E-001	-8.022040619658477E-002	4.1795669E-005	-5.2115697E-001	0
6.5335791E+003	4.016679919179296E+001	-5.2300042E-001	-8.004807463906194E-002	4.1865176E-005	-5.2315688E-001	0
6.5769053E+003	4.036679918674054E+001	-5.2500939E-001	-7.982620476827462E-002	4.1909509E-005	-5.2515674E-001	0
6.6150132E+003	4.056679918168811E+001	-5.2698267E-001	-7.966464228955550E-002	4.1981886E-005	-5.2715671E-001	0
6.6556548E+003	4.076679917663569E+001	-5.2905601E-001	-7.948970162075297E-002	4.2054504E-005	-5.2915657E-001	0
6.6941523E+003	4.096679917158326E+001	-5.3101420E-001	-7.932508231062552E-002	4.2122745E-005	-5.3115648E-001	0
6.7415615E+003	4.116679916653084E+001	-5.3300112E-001	-7.906196815861377E-002	4.2140116E-005	-5.3315639E-001	0
6.7968589E+003	4.136669916148094E+001	-5.3505301E-001	-7.872062819918269E-002	4.2119711E-005	-5.3515583E-001	0
6.8207495E+003	4.156659915643104E+001	-5.3700966E-001	-7.873176868377768E-002	4.2279720E-005	-5.3715616E-001	0
6.8589619E+003	4.176659915137861E+001	-5.3902477E-001	-7.858693023220720E-002	4.2360301E-005	-5.3915614E-001	0
6.8983442E+003	4.196659914632619E+001	-5.4104322E-001	-7.843088292539957E-002	4.2434498E-005	-5.4115599E-001	0
6.9414395E+003	4.216659914127376E+001	-5.4307204E-001	-7.823622832285948E-002	4.2487907E-005	-5.4315591E-001	0
6.9803530E+003	4.236659913622134E+001	-5.4507631E-001	-7.808721097621199E-002	4.2563490E-005	-5.4515582E-001	0
7.0247202E+003	4.256659913116891E+001	-5.4704189E-001	-7.787383219613631E-002	4.2600248E-005	-5.4715574E-001	0
7.0675078E+003	4.276659912611649E+001	-5.4903382E-001	-7.768421600226426E-002	4.2651263E-005	-5.4915559E-001	0
7.1072930E+003	4.296659912106406E+001	-5.5103123E-001	-7.753039746389001E-002	4.2721669E-005	-5.5115551E-001	0
7.1523267E+003	4.316659911601164E+001	-5.5303043E-001	-7.732175244018386E-002	4.2761283E-005	-5.5315548E-001	0
7.1921172E+003	4.336659911095921E+001	-5.5501384E-001	-7.716974407664634E-002	4.2830277E-005	-5.5515534E-001	0
7.2305405E+003	4.356659910590679E+001	-5.5700105E-001	-7.703449492513836E-002	4.2908294E-005	-5.5715525E-001	0
7.2744277E+003	4.376659910085436E+001	-5.5909085E-001	-7.685702306307123E-002	4.2970059E-005	-5.5915511E-001	0
7.3140952E+003	4.396659909580194E+001	-5.6101906E-001	-7.670382345982235E-002	4.3032309E-005	-5.6115508E-001	0
7.3538281E+003	4.416659909074951E+001	-5.6306601E-001	-7.656773891038107E-002	4.3112690E-005	-5.6315494E-001	0
7.3919805E+003	4.436659908569709E+001	-5.6500804E-001	-7.643527049062349E-002	4.3186541E-005	-5.6515491E-001	0
7.4319863E+003	4.456659908064466E+001	-5.6700569E-001	-7.629261760816153E-002	4.3258347E-005	-5.6715477E-001	0
7.4704556E+003	4.476659907559224E+001	-5.6903726E-001	-7.617169547279096E-002	4.3344531E-005	-5.6915474E-001	0
7.5122515E+003	4.496659907053981E+001	-5.7098407E-001	-7.600704797854019E-002	4.3398813E-005	-5.7115459E-001	0
7.5558472E+003	4.516659906548739E+001	-5.7300395E-001	-7.583583304299490E-002	4.3454231E-005	-5.7315445E-001	0
7.5917036E+003	4.536659906043496E+001	-5.7504195E-001	-7.574610330656489E-002	4.3557186E-005	-5.7515442E-001	0
7.6331201E+003	4.556649905538507E+001	-5.7700074E-001	-7.559172796618011E-002	4.3616481E-005	-5.7715338E-001	0
7.6691035E+003	4.576639905033517E+001	-5.7903212E-001	-7.550193230080504E-002	4.3718042E-005	-5.7915401E-001	0
7.7141245E+003	4.596639904528274E+001	-5.8103365E-001	-7.532075123994464E-002	4.3763892E-005	-5.8115405E-001	0
7.7479448E+003	4.616639904023032E+001	-5.8305883E-001	-7.525335454757909E-002	4.3877135E-005	-5.8315408E-001	0
7.7884478E+003	4.636639903517789E+001	-5.8505225E-001	-7.511795227217327E-002	4.3947926E-005	-5.8515388E-001	0
7.8236714E+003	4.656639903012547E+001	-5.8703679E-001	-7.503341800531121E-002	4.4047378E-005	-5.8715385E-001	0
7.8601045E+003	4.676639902507304E+001	-5.8901042E-001	-7.493671632842791E-002	4.4138505E-005	-5.8915371E-001	0
7.8975029E+003	4.696639902002062E+001	-5.9103251E-001	-7.483789580082201E-002	4.4231630E-005	-5.9115362E-001	0
7.9346016E+003	4.716639901496819E+001	-5.9303528E-001	-7.474039721116865E-002	4.4323693E-005	-5.9315354E-001	0
7.9644839E+003	4.736639900991577E+001	-5.9504265E-001	-7.471201652101311E-002	4.4456836E-005	-5.9515345E-001	0
8.0069087E+003	4.756639900486334E+001	-5.9700531E-001	-7.456127352074859E-002	4.4513476E-005	-5.9715337E-001	0
8.0401509E+003	4.776639899981092E+001	-5.9901845E-001	-7.450338403584494E-002	4.4628901E-005	-5.9915322E-001	0
8.0744346E+003	4.796639899475849E+001	-6.0104203E-001	-7.443766257791115E-002	4.4740165E-005	-6.0115319E-001	0
8.1025747E+003	4.816639898970607E+001	-6.0305262E-001	-7.442728342074495E-002	4.4883567E-005	-6.0315305E-001	0
8.1433799E+003	4.836639898465364E+001	-6.0502410E-001	-7.429643510682404E-002	4.4951135E-005	-6.0515302E-001	0
8.1743721E+003	4.856639897960122E+001	-6.0701245E-001	-7.425799115102660E-002	4.5075525E-005	-6.0715288E-001	0
8.1974951E+003	4.876639897454879E+001	-6.0904640E-001	-7.429664385084744E-002	4.5250104E-005	-6.0915279E-001	0
8.2367725E+003	4.896639896949637E+001	-6.1102200E-001	-7.418221462720731E-002	4.5326964E-005	-6.1115271E-001	0
8.2587617E+003	4.916639896444394E+001	-6.1303174E-001	-7.422804796873936E-002	4.5504148E-005	-6.1315262E-001	0
8.2967061E+003	4.936639895939152E+001	-6.1503065E-001	-7.412950032762344E-002	4.5591914E-005	-6.1515254E-001	0
8.3271357E+003	4.956639895433909E+001	-6.1702091E-001	-7.409761316890573E-002	4.5719775E-005	-6.1715239E-001	0
8.3521143E+003	4.976639894928667E+001	-6.1895293E-001	-7.410733401775360E-002	4.5868950E-005	-6.1915231E-001	0
8.3809404E+003	4.996619894423930E+001	-6.2102920E-001	-7.410018221106995E-002	4.6018376E-005	-6.2115198E-001	0
8.4121895E+003	5.016619893918687E+001	-6.2301213E-001	-7.406063491896686E-002	4.6140674E-005	-6.2315214E-001	0
8.4391055E+003	5.036619893413445E+001	-6.2501442E-001	-7.406168962171988E-002	4.6289624E-005	-6.2515199E-001	0
8.4676582E+003	5.056619892908202E+001	-6.2700725E-001	-7.404730430605663E-002	4.6428195E-005	-6.2715197E-001	0
8.4995938E+003	5.076619892402960E+001	-6.2904328E-001	-7.400862865367468E-002	4.6554629E-005	-6.2915182E-001	0
8.5134277E+003	5.096619891897717E+001	-6.3097578E-001	-7.411535870697777E-002	4.6764995E-005	-6.3115180E-001	0
8.5459688E+003	5.116619891392475E+001	-6.3304389E-001	-7.407514557037587E-002	4.6892819E-005	-6.3315165E-001	0
8.5756357E+003	5.136619890887232E+001	-6.3502336E-001	-7.404970922063869E-002	4.7023295E-005	-6.3515157E-001	0
8.5997148E+003	5.156619890381990E+001	-6.3705152E-001	-7.407821100859857E-002	4.7191636E-005	-6.3715142E-001	0
8.6230918E+003	5.176619889876747E+001	-6.3902199E-001	-7.410590336161786E-002	4.7355301E-005	-6.3915145E-001	0
8.6481123E+003	5.196619889371505E+001	-6.4103317E-001	-7.412406082936668E-002	4.7515983E-005	-6.4115131E-001	0
8.6681689E+003	5.216619888866262E+001	-6.4300716E-001	-7.418027540823022E-002	4.7698450E-005	-6.4315116E-001	0
8.7010098E+003	5.236619888361020E+001	-6.4505339E-001	-7.413546552051598E-002	4.7821333E-005	-6.4515108E-001	0
8.7165947E+003	5.256619887855777E+001	-6.4701259E-001	-7.422767556272436E-002	4.8026242E-005	-6.4715093E-001	0
8.7412734E+003	5.276619887350535E+001	-6.4897710E-001	-7.424285340538922E-002	4.8181912E-005	-6.4915091E-001	0
8.7619258E+003	5.296619886845292E+001	-6.5103143E-001	-7.430232448140150E-002	4.8373149E-005	-6.5115076E-001	0
8.7766641E+003	5.316619886340050E+001	-6.5304565E-001	-7.440704649869700E-002	4.8591199E-005	-6.5315074E-001	0
8.7979971E+003	5.336619885834807E+001	-6.5506858E-001	-7.445656007383850E-002	4.8774153E-005	-6.5515059E-001	0
8.8150752E+003	5.356619885329565E+001	-6.5700167E-001	-7.453160020871244E-002	4.8967388E-005	-6.5715051E-001	0
8.8277217E+003	5.376619884824322E+001	-6.5905392E-001	-7.465730462953979E-002	4.9203190E-005	-6.5915042E-001	0
8.8524541E+003	5.396619884319080E+001	-6.6103053E-001	-7.467200677174551E-002	4.9360475E-005	-6.6115034E-001	0
8.8650898E+003	5.416609883814090E+001	-6.6304386E-001	-7.479268401780614E-002	4.9590828E-005	-6.6315091E-001	0
8.8873662E+003	5.436599883309100E+001	-6.6501927E-001	-7.482748567454028E-002	4.9761718E-005	-6.6515017E-001	0
8.8858799E+003	5.456599882803857E+001	-6.6704577E-001	-7.506805906904357E-002	5.0073832E-005	-6.6715008E-001	0
8.8929014E+003	5.476599882298615E+001	-6.6902775E-001	-7.523166223443911E-002	5.0332070E-005	-6.6914994E-001	0
8.9076523E+003	5.496599881793372E+001	-6.7104876E-001	-7.533396591058539E-002	5.0552764E-005	-6.7114991E-001	0
8.9096455E+003	5.516599881288130E+001	-6.7302477E-001	-7.553889385114099E-002	5.0839546E-005	-6.7314976E-001	0
8.9200986E+003	5.536599880782887E+001	-6.7503428E-001	-7.567565370078655E-002	5.1083662E-005	-6.7514968E-001	0
8.9192725E+003	5.556599880277645E+001	-6.7704147E-001	-7.590770047441020E-002	5.1392661E-005	-6.7714953E-001	0
8.9093594E+003	5.576599879772402E+001	-6.7900282E-001	-7.621230708082471E-002	5.1748371E-005	-6.7914957E-001	0
8.9068926E+003	5.596599879267160E+001	-6.8103784E-001	-7.646189382312452E-002	5.2073443E-005	-6.8114942E-001	0
8.8890967E+003	5.616599878761917E+001	-6.8303102E-001	-7.683919542975937E-002	5.2483556E-005	-6.8314928E-001	0
8.8822627E+003	5.636599878256675E+001	-6.8500286E-001	-7.712031152815278E-002	5.2827636E-005	-6.8514919E-001	0
8.8586699E+003	5.656599877751432E+001	-6.8697524E-001	-7.754834685126155E-002	5.3273794E-005	-6.8714911E-001	0
8.8409482E+003	5.676599877246190E+001	-6.8905121E-001	-7.793860929350765E-002	5.3703694E-005	-6.8914902E-001	0
8.8211240E+003	5.696599876740947E+001	-6.9107115E-001	-7.834275211408215E-002	5.4140415E-005	-6.9114894E-001	0
8.7775352E+003	5.716599876235705E+001	-6.9299471E-001	-7.895094824927423E-002	5.4712589E-005	-6.9314885E-001	0
8.7479219E+003	5.736599875730462E+001	-6.9501191E-001	-7.944880203658555E-002	5.5217864E-005	-6.9514877E-001	0
8.7164521E+003	5.756599875225220E+001	-6.9701314E-001	-7.996523219568263E-002	5.5736818E-005	-6.9714874E-001	0
8.6657275E+003	5.776599874719977E+001	-6.9907272E-001	-8.067097483506896E-002	5.6394878E-005	-6.9914854E-001	0
8.6434541E+003	5.796599874214735E+001	-7.0102191E-001	-8.110437318503139E-002	5.6855941E-005	-7.0114845E-001	0
8.5846436E+003	5.816599873709492E+001	-7.0301294E-001	-8.189191708083579E-002	5.7571076E-005	-7.0314837E-001	0
8.5398584E+003	5.836589873204503E+001	-7.0499194E-001	-8.255311942927590E-002	5.8199283E-005	-7.0514828E-001	0
8.4838691E+003	5.856579872699513E+001	-7.0707124E-001	-8.334302074379385E-002	5.8929454E-005	-7.0714813E-001	0
8.4329287E+003	5.876579872194270E+001	-7.0903265E-001	-8.407905034915192E-002	5.9614791E-005	-7.0914805E-001	0
8.3781182E+003	5.896579871689028E+001	-7.1099401E-001	-8.486320807381030E-002	6.0337232E-005	-7.1114796E-001	0
8.3207891E+003	5.916579871183785E+001	-7.1309793E-001	-8.570075717642756E-002	6.1113031E-005	-7.1314788E-001	0
8.2588936E+003	5.936579870678543E+001	-7.1504933E-001	-8.657931597732310E-002	6.1908482E-005	-7.1514785E-001	0
8.2060820E+003	5.956579870173300E+001	-7.1704203E-001	-8.737934286423155E-002	6.2654661E-005	-7.1714765E-001	0
8.1355059E+003	5.976579869668058E+001	-7.1895701E-001	-8.837274548253427E-002	6.3536201E-005	-7.1914768E-001	0
8.0796753E+003	5.996579869162815E+001	-7.2105718E-001	-8.924333436801080E-002	6.4349544E-005	-7.2114748E-001	0
8.0112227E+003	6.016579868657573E+001	-7.2302055E-001	-9.025095961090446E-002	6.5253298E-005	-7.2314745E-001	0
7.9462515E+003	6.036579868152330E+001	-7.2502279E-001	-9.124085689734329E-002	6.6151704E-005	-7.2514737E-001	0
7.8941802E+003	6.056579867647088E+001	-7.2703046E-001	-9.209701709677320E-002	6.6957335E-005	-7.2714728E-001	0
7.8154399E+003	6.076579867141845E+001	-7.2907001E-001	-9.328585780329174E-002	6.8011919E-005	-7.2914714E-001	0
7.7500869E+003	6.096579866636603E+001	-7.3101312E-001	-9.432321528338194E-002	6.8951507E-005	-7.3114699E-001	0
7.6845137E+003	6.116579866131360E+001	-7.3302883E-001	-9.539040227055279E-002	6.9923917E-005	-7.3314697E-001	0
7.6126611E+003	6.136579865626118E+001	-7.3501623E-001	-9.655181014363379E-002	7.0967144E-005	-7.3514688E-001	0
7.5395298E+003	6.156579865120875E+001	-7.3699868E-001	-9.775127984726995E-002	7.2042567E-005	-7.3714679E-001	0
7.4816860E+003	6.176579864615633E+001	-7.3907125E-001	-9.878404961176690E-002	7.3008450E-005	-7.3914665E-001	0
7.4035342E+003	6.196579864110390E+001	-7.4102879E-001	-1.000912239956682E-001	7.4170479E-005	-7.4114656E-001	0
7.3298662E+003	6.216579863605148E+001	-7.4305755E-001	-1.013739603590609E-001	7.5326687E-005	-7.4314648E-001	0
7.2549004E+003	6.236579863099905E+001	-7.4503767E-001	-1.026944033579815E-001	7.6511198E-005	-7.4514645E-001	0
7.1819888E+003	6.256569862594915E+001	-7.4698842E-001	-1.040085735899892E-001	7.7693199E-005	-7.4714613E-001	0
7.1170313E+003	6.276559862089925E+001	-7.4904048E-001	-1.052461960659175E-001	7.8833662E-005	-7.4914616E-001	0
7.0305259E+003	6.296559861584683E+001	-7.5098795E-001	-1.068181735431761E-001	8.0219164E-005	-7.5114608E-001	0
6.9552290E+003	6.316559861079440E+001	-7.5309706E-001	-1.082778215976411E-001	8.1543709E-005	-7.5314605E-001	0
6.8770093E+003	6.336559860574198E+001	-7.5505632E-001	-1.097942895156727E-001	8.2900871E-005	-7.5514597E-001	0
6.8037344E+003	6.356559860068955E+001	-7.5701058E-001	-1.112639787891996E-001	8.4228006E-005	-7.5714576E-001	0
6.7262813E+003	6.376559859563713E+001	-7.5902694E-001	-1.128449576247960E-001	8.5652362E-005	-7.5914574E-001	0
6.6553984E+003	6.396559859058470E+001	-7.6106727E-001	-1.143533719899953E-001	8.7030610E-005	-7.6114559E-001	0
6.5746338E+003	6.416559858553228E+001	-7.6304728E-001	-1.160592786469361E-001	8.8558714E-005	-7.6314557E-001	0
6.5079375E+003	6.436559858047985E+001	-7.6504177E-001	-1.175551812297533E-001	8.9934627E-005	-7.6514536E-001	0
6.4272334E+003	6.456559857542743E+001	-7.6698744E-001	-1.193339947290091E-001	9.1527676E-005	-7.6714540E-001	0
6.3532451E+003	6.476559857037500E+001	-7.6907158E-001	-1.210517706634586E-001	9.3097478E-005	-7.6914525E-001	0
6.2783877E+003	6.496559856532258E+001	-7.7104259E-001	-1.228090143179655E-001	9.4690979E-005	-7.7114516E-001	0
6.1994595E+003	6.516559856027015E+001	-7.7299953E-001	-1.246882086522587E-001	9.6383927E-005	-7.7314508E-001	0
6.1199077E+003	6.536559855521773E+001	-7.7504492E-001	-1.266432383135720E-001	9.8154196E-005	-7.7514499E-001	0
6.0299355E+003	6.556559855016530E+001	-7.7706593E-001	-1.288680332056051E-001	1.0013896E-004	-7.7714491E-001	0
5.9565439E+003	6.576559854511288E+001	-7.7906305E-001	-1.307911153242849E-001	1.0189453E-004	-7.7914476E-001	0
5.8758369E+003	6.596559854006046E+001	-7.8099835E-001	-1.329169542900368E-001	1.0380792E-004	-7.8114468E-001	0
5.7898911E+003	6.616559853500803E+001	-7.8303176E-001	-1.352411843867989E-001	1.0589814E-004	-7.8314459E-001	0
5.7138086E+003	6.636559852995561E+001	-7.8500110E-001	-1.373866631769809E-001	1.0784868E-004	-7.8514457E-001	0
5.6303271E+003	6.656559852490318E+001	-7.8702170E-001	-1.397825822175025E-001	1.1001193E-004	-7.8714436E-001	0
5.5469922E+003	6.676549851985328E+001	-7.8903180E-001	-1.422449781565862E-001	1.1223581E-004	-7.8914392E-001	0
5.4678335E+003	6.696539851480338E+001	-7.9102397E-001	-1.446686341646894E-001	1.1443636E-004	-7.9114425E-001	0
5.3902529E+003	6.716539850975096E+001	-7.9305774E-001	-1.471281179507806E-001	1.1668109E-004	-7.9314417E-001	0
5.3088823E+003	6.736539850469853E+001	-7.9501319E-001	-1.497515149249816E-001	1.1905443E-004	-7.9514408E-001	0
5.2274424E+003	6.756539849964611E+001	-7.9700994E-001	-1.524665237778204E-001	1.2151733E-004	-7.9714388E-001	0
5.1495093E+003	6.776539849459368E+001	-7.9903650E-001	-1.551675004631181E-001	1.2398450E-004	-7.9914385E-001	0
5.0758438E+003	6.796539848954126E+001	-8.0100614E-001	-1.578074839312476E-001	1.2640476E-004	-8.0114377E-001	0
4.9981626E+003	6.816539848448883E+001	-8.0299765E-001	-1.606585690751673E-001	1.2900845E-004	-8.0314368E-001	0
4.9602432E+003	6.836539847943641E+001	-8.0502266E-001	-1.622950037119835E-001	1.3065115E-004	-8.0514359E-001	0
4.9670796E+003	6.856539847438398E+001	-8.0700099E-001	-1.624699096330559E-001	1.3111338E-004	-8.0714351E-001	0
4.9471577E+003	6.876539846933156E+001	-8.0902880E-001	-1.635340619283200E-001	1.3230377E-004	-8.0914354E-001	0
4.8507520E+003	6.896539846427913E+001	-8.1101888E-001	-1.671944698171005E-001	1.3559787E-004	-8.1114411E-001	0
4.7776953E+003	6.916539845922671E+001	-8.1301504E-001	-1.701688772054752E-001	1.3834986E-004	-8.1314409E-001	0
4.7191729E+003	6.936539845417428E+001	-8.1504804E-001	-1.727099387775555E-001	1.4076689E-004	-8.1514418E-001	0
4.6649063E+003	6.956539844912186E+001	-8.1704521E-001	-1.751471924661002E-001	1.4310317E-004	-8.1714410E-001	0
4.6207866E+003	6.976539844406943E+001	-8.1908435E-001	-1.772608102823012E-001	1.4519156E-004	-8.1914419E-001	0
4.5936768E+003	6.996539843901701E+001	-8.2105345E-001	-1.787355725100173E-001	1.4675145E-004	-8.2114422E-001	0
4.5239043E+003	7.016539843396458E+001	-8.2303369E-001	-1.819299483901977E-001	1.4973448E-004	-8.2314408E-001	0
4.4482744E+003	7.036539842891216E+001	-8.2506686E-001	-1.854801993086390E-001	1.5303357E-004	-8.2514417E-001	0
4.4228940E+003	7.056539842385973E+001	-8.2703346E-001	-1.869892149703269E-001	1.5464633E-004	-8.2714415E-001	0
4.3923755E+003	7.076539841880731E+001	-8.2904208E-001	-1.887457230457794E-001	1.5647814E-004	-8.2914412E-001	0
4.3661206E+003	7.096539841375488E+001	-8.3103502E-001	-1.903371564408261E-001	1.5817684E-004	-8.3114409E-001	0
4.3418413E+003	7.116539840870246E+001	-8.3300489E-001	-1.918552192329277E-001	1.5981634E-004	-8.3314419E-001	0
4.3110479E+003	7.136539840365003E+001	-8.3502722E-001	-1.936947172930026E-001	1.6174036E-004	-8.3514416E-001	0
4.2926465E+003	7.156539839859761E+001	-8.3701587E-001	-1.949882952669579E-001	1.6320830E-004	-8.3714414E-001	0
4.2334551E+003	7.176539839354518E+001	-8.3903694E-001	-1.981920094510166E-001	1.6629041E-004	-8.3914417E-001	0
4.1805664E+003	7.196539838849276E+001	-8.4106290E-001	-2.011839546951677E-001	1.6920836E-004	-8.4114414E-001	0
4.1278398E+003	7.216539838344033E+001	-8.4305990E-001	-2.042375563679775E-001	1.7218449E-004	-8.4314412E-001	0
4.0946770E+003	7.236539837838791E+001	-8.4504294E-001	-2.063759767520086E-001	1.7439657E-004	-8.4514409E-001	0
4.1296665E+003	7.256539837333548E+001	-8.4700650E-001	-2.051028853637131E-001	1.7372347E-004	-8.4714419E-001	0
4.1481567E+003	7.276539836828306E+001	-8.4906602E-001	-2.046851456870673E-001	1.7379120E-004	-8.4914416E-001	0
4.1199341E+003	7.296539836323063E+001	-8.5110623E-001	-2.065824799138269E-001	1.7582363E-004	-8.5114413E-001	0
4.1014380E+003	7.316539835817821E+001	-8.5308230E-001	-2.079958986731718E-001	1.7743761E-004	-8.5314423E-001	0
4.0787048E+003	7.336539835312578E+001	-8.5502422E-001	-2.096313057496904E-001	1.7923984E-004	-8.5514420E-001	0
4.0989863E+003	7.356539834807336E+001	-8.5700750E-001	-2.090779244899744E-001	1.7918136E-004	-8.5714406E-001	0
4.0358157E+003	7.376539834302093E+001	-8.5907447E-001	-2.128626608634017E-001	1.8286488E-004	-8.5914415E-001	0
3.9735979E+003	7.396539833796851E+001	-8.6103380E-001	-2.166887021617221E-001	1.8657629E-004	-8.6114424E-001	0
3.9089346E+003	7.416539833291608E+001	-8.6311239E-001	-2.208050278030225E-001	1.9057955E-004	-8.6314410E-001	0
3.8190920E+003	7.436539832786366E+001	-8.6502886E-001	-2.265011793374161E-001	1.9593006E-004	-8.6514413E-001	0
3.7295569E+003	7.456539832281123E+001	-8.6706245E-001	-2.324840459938835E-001	2.0157818E-004	-8.6714417E-001	0
3.6583699E+003	7.476539831775881E+001	-8.6908847E-001	-2.375616770187001E-001	2.0646211E-004	-8.6914414E-001	0
3.5975220E+003	7.496539831270638E+001	-8.7108296E-001	-2.421341550255572E-001	2.1091894E-004	-8.7114412E-001	0
3.5521833E+003	7.516539830765396E+001	-8.7310481E-001	-2.457938553499317E-001	2.1460380E-004	-8.7314415E-001	0
3.4991660E+003	7.536539830260153E+001	-8.7504429E-001	-2.500722432475282E-001	2.1882429E-004	-8.7514418E-001	0
3.4513574E+003	7.556539829754911E+001	-8.7702215E-001	-2.541093434061414E-001	2.2285953E-004	-8.7714410E-001	0
3.3899719E+003	7.576539829249668E+001	-8.7900203E-001	-2.592947818106570E-001	2.2792064E-004	-8.7914407E-001	0
3.3270930E+003	7.596539828744426E+001	-8.8103694E-001	-2.648068332575821E-001	2.3330460E-004	-8.8114423E-001	0
3.2710183E+003	7.616539828239183E+001	-8.8304961E-001	-2.699616912693257E-001	2.3838956E-004	-8.8314414E-001	0
3.2206265E+003	7.636539827733941E+001	-8.8504136E-001	-2.748040918792989E-001	2.4321298E-004	-8.8514411E-001	0
3.1582307E+003	7.656539827228698E+001	-8.8702834E-001	-2.808624159802346E-001	2.4913292E-004	-8.8714421E-001	0
3.0967698E+003	7.676539826723456E+001	-8.8902670E-001	-2.870819517041707E-001	2.5522351E-004	-8.8914418E-001	0
3.0282734E+003	7.696539826218213E+001	-8.9105034E-001	-2.942436836309339E-001	2.6218593E-004	-8.9114404E-001	0
2.9616001E+003	7.716539825712971E+001	-8.9303637E-001	-3.015384762980835E-001	2.6928482E-004	-8.9314413E-001	0
2.8053904E+003	7.736539825207728E+001	-8.9503139E-001	-3.190398791344524E-001	2.8555072E-004	-8.9514422E-001	0
2.7149580E+003	7.756539824702486E+001	-8.9704651E-001	-3.304089923471616E-001	2.9639225E-004	-8.9714408E-001	0
2.6406602E+003	7.776539824197243E+001	-8.9908004E-001	-3.404754768220735E-001	3.0611470E-004	-8.9914417E-001	0
2.5683694E+003	7.796539823692001E+001	-9.0104723E-001	-3.508246203614158E-001	3.1610957E-004	-9.0114415E-001	0
2.4739546E+003	7.816539823186758E+001	-9.0303588E-001	-3.650171455680106E-001	3.2962358E-004	-9.0314412E-001	0
2.3643115E+003	7.836539822681516E+001	-9.0503293E-001	-3.827892038928944E-001	3.4643683E-004	-9.0514410E-001	0
2.2341140E+003	7.856539822176273E+001	-9.0705758E-001	-4.060032652551638E-001	3.6826835E-004	-9.0714419E-001	0
2.1114785E+003	7.876539821671031E+001	-9.0902847E-001	-4.305174843220225E-001	3.9135266E-004	-9.0914416E-001	0
1.9878170E+003	7.896539821165788E+001	-9.1104108E-001	-4.583123544835024E-001	4.1754139E-004	-9.1114414E-001	0
1.8566426E+003	7.916539820660546E+001	-9.1303051E-001	-4.917642944693013E-001	4.4899579E-004	-9.1314417E-001	0
1.7084302E+003	7.936539820155303E+001	-9.1503668E-001	-5.356008802242798E-001	4.9009448E-004	-9.1514421E-001	0
1.5899471E+003	7.956539819650061E+001	-9.1706663E-001	-5.767906449878781E-001	5.2895548E-004	-9.1714412E-001	0
1.4742323E+003	7.976539819144818E+001	-9.1903418E-001	-6.233985021355615E-001	5.7292456E-004	-9.1914415E-001	0
1.3446758E+003	7.996539818639576E+001	-9.2106062E-001	-6.849685714299234E-001	6.3089759E-004	-9.2114419E-001	0
1.2389014E+003	8.016539818134333E+001	-9.2305517E-001	-7.450594442290441E-001	6.8773096E-004	-9.2314422E-001	0
1.1420024E+003	8.036539817629091E+001	-9.2507541E-001	-8.100467527416093E-001	7.4935431E-004	-9.2514414E-001	0
1.0229164E+003	8.056539817123848E+001	-9.2706102E-001	-9.062920883213454E-001	8.4018806E-004	-9.2714411E-001	0
9.3498834E+002	8.077539816593344E+001	-9.2913246E-001	-9.937369503203151E-001	9.2331326E-004	-9.2924410E-001	0
8.4409766E+002	8.098539816062839E+001	-9.3119466E-001	-1.103183601685121E+000	1.0272787E-003	-9.3134409E-001	0
7.5962689E+002	8.118539815557597E+001	-9.3320632E-001	-1.228506208217939E+000	1.1464497E-003	-9.3334419E-001	0
6.8791656E+002	8.138539815052354E+001	-9.3523771E-001	-1.359521964222802E+000	1.2714762E-003	-9.3534422E-001	0
6.1983167E+002	8.158539814547112E+001	-9.3721771E-001	-1.512051951182401E+000	1.4171218E-003	-9.3734413E-001	0
5.5738208E+002	8.178539814041869E+001	-9.3922275E-001	-1.685060963457000E+000	1.5826476E-003	-9.3934417E-001	0
4.9694174E+002	8.198539813536627E+001	-9.4122291E-001	-1.894030729456546E+000	1.7827051E-003	-9.4134420E-001	0
4.4816245E+002	8.218539813031384E+001	-9.4324636E-001	-2.104697401358692E+000	1.9852482E-003	-9.4334424E-001	0
4.0109393E+002	8.238539812526142E+001	-9.4519341E-001	-2.356538768764788E+000	2.2273848E-003	-9.4534415E-001	0
3.6231253E+002	8.258539812020899E+001	-9.4720280E-001	-2.614325349985734E+000	2.4762964E-003	-9.4734412E-001	0
3.2545386E+002	8.278539811515657E+001	-9.4922841E-001	-2.916629660173470E+000	2.7685477E-003	-9.4934422E-001	0
2.9318820E+002	8.298539811010414E+001	-9.5126718E-001	-3.244561549115616E+000	3.0864449E-003	-9.5134407E-001	0
2.6478812E+002	8.318539810505172E+001	-9.5321894E-001	-3.599930828188008E+000	3.4315223E-003	-9.5334411E-001	0
2.3897305E+002	8.338539809999929E+001	-9.5518124E-001	-3.997024826215501E+000	3.8178831E-003	-9.5534414E-001	0
2.1539128E+002	8.358539809494687E+001	-9.5722872E-001	-4.444138658898240E+000	4.2540571E-003	-9.5734411E-001	0
1.9521407E+002	8.378539808989444E+001	-9.5922357E-001	-4.913700978434271E+000	4.7133379E-003	-9.5934421E-001	0
1.7702245E+002	8.398539808484202E+001	-9.6124536E-001	-5.430076189085725E+000	5.2196356E-003	-9.6134418E-001	0
1.6048521E+002	8.418539807978959E+001	-9.6322060E-001	-6.001927126663617E+000	5.7811798E-003	-9.6334416E-001	0
1.4650493E+002	8.438539807473717E+001	-9.6524698E-001	-6.588495003325590E+000	6.3595250E-003	-9.6534413E-001	0
1.3368771E+002	8.458539806968474E+001	-9.6722758E-001	-7.234977494224182E+000	6.9978698E-003	-9.6734416E-001	0
1.2250587E+002	8.478539806463232E+001	-9.6925038E-001	-7.911868410856584E+000	7.6685813E-003	-9.6934420E-001	0
1.1215937E+002	8.498539805957989E+001	-9.7125936E-001	-8.659636513243443E+000	8.4107528E-003	-9.7134417E-001	0
1.0301315E+002	8.518539805452747E+001	-9.7324568E-001	-9.447780798014080E+000	9.1950120E-003	-9.7334409E-001	0
9.4744072E+001	8.538539804947504E+001	-9.7523731E-001	-1.029338638737898E+001	1.0038494E-002	-9.7534418E-001	0
8.6952599E+001	8.559539804417000E+001	-9.7730827E-001	-1.123955216219221E+001	1.0984507E-002	-9.7744423E-001	0
8.0146828E+001	8.580539803886495E+001	-9.7940069E-001	-1.222008037519837E+001	1.1968356E-002	-9.7954416E-001	0
7.4298615E+001	8.600539803381253E+001	-9.8142856E-001	-1.320924418772702E+001	1.2963929E-002	-9.8154414E-001	0
6.9115021E+001	8.620539802876010E+001	-9.8345643E-001	-1.422927204024495E+001	1.3993870E-002	-9.8354411E-001	0
6.4283852E+001	8.640539802370768E+001	-9.8544091E-001	-1.532952570847641E+001	1.5106342E-002	-9.8554403E-001	0
6.0024052E+001	8.660539801865525E+001	-9.8742288E-001	-1.645045338885313E+001	1.6243555E-002	-9.8754418E-001	0
5.6248928E+001	8.680539801360283E+001	-9.8941398E-001	-1.758991659403929E+001	1.7403709E-002	-9.8954403E-001	0
5.2671516E+001	8.700539800855040E+001	-9.9146438E-001	-1.882353975091657E+001	1.8662870E-002	-9.9154413E-001	0
4.9493675E+001	8.720539800349798E+001	-9.9341196E-001	-2.007149365848426E+001	1.9939262E-002	-9.9354410E-001	0
4.6575764E+001	8.740539799844555E+001	-9.9538034E-001	-2.137120761419908E+001	2.1272480E-002	-9.9554420E-001	0
4.4008110E+001	8.760539799339313E+001	-9.9746466E-001	-2.266547425398755E+001	2.2608010E-002	-9.9754417E-001	0
4.1547611E+001	8.780539798834070E+001	-9.9945247E-001	-2.405559416490348E+001	2.4042424E-002	-9.9954408E-001	0
3.9405514E+001	8.800539798328828E+001	-1.0014899E+000	-2.541496913300625E+001	2.5452834E-002	-1.0015441E+000	0
3.7442223E+001	8.820539797823585E+001	-1.0034655E+000	-2.680037303197954E+001	2.6893251E-002	-1.0035442E+000	0
3.5647877E+001	8.840539797318343E+001	-1.0054541E+000	-2.820515951926484E+001	2.8358992E-002	-1.0055441E+000	0
3.3959747E+001	8.860539796813100E+001	-1.0074571E+000	-2.966621519892124E+001	2.9887440E-002	-1.0075442E+000	0
3.2379631E+001	8.880539796307858E+001	-1.0094434E+000	-3.117525816450305E+001	3.1469658E-002	-1.0095441E+000	0
3.0905603E+001	8.900539795802615E+001	-1.0114523E+000	-3.272715049833414E+001	3.3101954E-002	-1.0115441E+000	0
2.9490969E+001	8.920539795297373E+001	-1.0134494E+000	-3.436473790588275E+001	3.4826923E-002	-1.0135442E+000	0
2.8162220E+001	8.940539794792130E+001	-1.0154504E+000	-3.605718482567875E+001	3.6614280E-002	-1.0155442E+000	0
2.6939268E+001	8.960539794286888E+001	-1.0174761E+000	-3.776925611360792E+001	3.8429316E-002	-1.0175442E+000	0
2.5744282E+001	8.980539793781645E+001	-1.0194147E+000	-3.959771090921640E+001	4.0366486E-002	-1.0195441E+000	0
2.4673265E+001	9.000539793276403E+001	-1.0214525E+000	-4.139916277931934E+001	4.2287279E-002	-1.0215442E+000	0
2.3685944E+001	9.020539792771160E+001	-1.0234290E+000	-4.320828728800177E+001	4.4220615E-002	-1.0235442E+000	0
2.2789165E+001	9.040539792265918E+001	-1.0254694E+000	-4.499811343352008E+001	4.6144191E-002	-1.0255442E+000	0
2.1915358E+001	9.060539791760675E+001	-1.0274601E+000	-4.688310932653565E+001	4.8170526E-002	-1.0275441E+000	0
2.1118132E+001	9.080539791255433E+001	-1.0294467E+000	-4.874705290145641E+001	5.0182495E-002	-1.0295442E+000	0
2.0357697E+001	9.100539790750190E+001	-1.0314437E+000	-5.066603402134507E+001	5.2259162E-002	-1.0315442E+000	0
1.9657154E+001	9.120539790244948E+001	-1.0334201E+000	-5.257221363623398E+001	5.4329183E-002	-1.0335442E+000	0
1.8988432E+001	9.140539789739705E+001	-1.0354315E+000	-5.452959670771793E+001	5.6461662E-002	-1.0355442E+000	0
1.8355034E+001	9.160539789234463E+001	-1.0374635E+000	-5.652202024211169E+001	5.8639534E-002	-1.0375443E+000	0
1.7761580E+001	9.180539788729220E+001	-1.0394810E+000	-5.852413338922861E+001	6.0834728E-002	-1.0395441E+000	0
1.7155481E+001	9.200539788223978E+001	-1.0414834E+000	-6.070849145621116E+001	6.3226886E-002	-1.0415441E+000	0
1.6607655E+001	9.220539787718735E+001	-1.0434291E+000	-6.282820325049147E+001	6.5556780E-002	-1.0435442E+000	0
1.6119658E+001	9.240539787213493E+001	-1.0454502E+000	-6.485560624291278E+001	6.7803308E-002	-1.0455443E+000	0
1.5639348E+001	9.260539786708250E+001	-1.0474393E+000	-6.697461590474973E+001	7.0151851E-002	-1.0475442E+000	0
1.5204304E+001	9.280539786203008E+001	-1.0494771E+000	-6.902500399332212E+001	7.2440162E-002	-1.0495441E+000	0
1.4811906E+001	9.300539785697765E+001	-1.0514977E+000	-7.099003565987204E+001	7.4645862E-002	-1.0515442E+000	0
1.4458179E+001	9.320539785192523E+001	-1.0534440E+000	-7.286146452745868E+001	7.6755472E-002	-1.0535443E+000	0
1.4081920E+001	9.340539784687280E+001	-1.0554705E+000	-7.495217097373219E+001	7.9109803E-002	-1.0555441E+000	0
1.3739284E+001	9.360539784182038E+001	-1.0574652E+000	-7.696654375069784E+001	8.1389442E-002	-1.0575441E+000	0
1.3391129E+001	9.380539783676795E+001	-1.0594810E+000	-7.911812560304224E+001	8.3824150E-002	-1.0595442E+000	0
1.3029827E+001	9.400539783171553E+001	-1.0614786E+000	-8.146528597699776E+001	8.6473659E-002	-1.0615441E+000	0
1.2679712E+001	9.420539782666310E+001	-1.0634878E+000	-8.387317831824419E+001	8.9198098E-002	-1.0635442E+000	0
1.2370616E+001	9.440539782161068E+001	-1.0655023E+000	-8.613170581880337E+001	9.1773532E-002	-1.0655442E+000	0
1.2090444E+001	9.460539781655825E+001	-1.0675038E+000	-8.829318876547654E+001	9.4253317E-002	-1.0675441E+000	0
1.1834570E+001	9.480539781150583E+001	-1.0694928E+000	-9.037022723956989E+001	9.6650310E-002	-1.0695441E+000	0
1.1562219E+001	9.500539780645340E+001	-1.0715038E+000	-9.267284831330335E+001	9.9299304E-002	-1.0715442E+000	0
1.1319448E+001	9.520539780140098E+001	-1.0735025E+000	-9.483701090369414E+001	1.0180777E-001	-1.0735443E+000	0
1.1083929E+001	9.540539779634855E+001	-1.0754882E+000	-9.703131878565222E+001	1.0435604E-001	-1.0755442E+000	0
1.0835063E+001	9.560539779129613E+001	-1.0774511E+000	-9.944114765504560E+001	1.0714298E-001	-1.0775441E+000	0
1.0621371E+001	9.580539778624370E+001	-1.0794697E+000	-1.016318559224919E+002	1.0970851E-001	-1.0795441E+000	0
1.0408184E+001	9.600539778119128E+001	-1.0814788E+000	-1.039065802794737E+002	1.1237277E-001	-1.0815442E+000	0
1.0201566E+001	9.620539777613885E+001	-1.0835097E+000	-1.062101397676533E+002	1.1507972E-001	-1.0835441E+000	0
1.0012771E+001	9.640539777108643E+001	-1.0855407E+000	-1.084156143216590E+002	1.1768956E-001	-1.0855442E+000	0
9.7136488E+000	9.662539776552876E+001	-1.0876659E+000	-1.119729558388933E+002	1.2178916E-001	-1.0877441E+000	0
9.5464516E+000	9.682539776047634E+001	-1.0897061E+000	-1.141477614270862E+002	1.2438751E-001	-1.0897441E+000	0
9.3731432E+000	9.702539775542391E+001	-1.0917161E+000	-1.164727863735616E+002	1.2715521E-001	-1.0917442E+000	0
9.1887245E+000	9.722539775037149E+001	-1.0937240E+000	-1.190289311755000E+002	1.3018480E-001	-1.0937443E+000	0
9.0298843E+000	9.742539774531906E+001	-1.0956979E+000	-1.213412953439486E+002	1.3295341E-001	-1.0957441E+000	0
8.8595657E+000	9.762539774026664E+001	-1.0976945E+000	-1.238993609238103E+002	1.3600364E-001	-1.0977441E+000	0
8.6789045E+000	9.782539773521421E+001	-1.0997125E+000	-1.267109812079104E+002	1.3934565E-001	-1.0997441E+000	0
8.5318279E+000	9.802539773016179E+001	-1.1016989E+000	-1.291281174932205E+002	1.4226030E-001	-1.1017442E+000	0
8.3847618E+000	9.822539772510936E+001	-1.1036999E+000	-1.316316334882290E+002	1.4528182E-001	-1.1037441E+000	0
8.2519875E+000	9.842539772005694E+001	-1.1056923E+000	-1.339910262901491E+002	1.4815284E-001	-1.1057441E+000	0
8.1055527E+000	9.862539771500451E+001	-1.1077168E+000	-1.366614847107545E+002	1.5138222E-001	-1.1077441E+000	0
7.9742098E+000	9.882539770995209E+001	-1.1097021E+000	-1.391613920313427E+002	1.5442769E-001	-1.1097441E+000	0
7.8604999E+000	9.902539770489966E+001	-1.1116971E+000	-1.414282960761968E+002	1.5722543E-001	-1.1117442E+000	0
7.7475710E+000	9.922539769984724E+001	-1.1136866E+000	-1.437465481401302E+002	1.6008860E-001	-1.1137443E+000	0
7.6450405E+000	9.942539769479481E+001	-1.1156913E+000	-1.459366155189724E+002	1.6282022E-001	-1.1157442E+000	0
7.5334659E+000	9.962539768974239E+001	-1.1177044E+000	-1.483652316642724E+002	1.6582847E-001	-1.1177442E+000	0
7.4338832E+000	9.982539768468996E+001	-1.1196897E+000	-1.506197619232726E+002	1.6864739E-001	-1.1197442E+000	0
7.3430758E+000	1.000253976796375E+002	-1.1217177E+000	-1.527585589577550E+002	1.7135198E-001	-1.1217442E+000	0
7.2458110E+000	1.002253976745851E+002	-1.1236957E+000	-1.550821211419143E+002	1.7426512E-001	-1.1237442E+000	0
7.1299767E+000	1.004253976695327E+002	-1.1256858E+000	-1.578807103898794E+002	1.7772408E-001	-1.1257442E+000	0
7.0293698E+000	1.006253976644803E+002	-1.1277099E+000	-1.604283013300560E+002	1.8091658E-001	-1.1277442E+000	0
6.9326038E+000	1.008253976594278E+002	-1.1297280E+000	-1.629586761003177E+002	1.8409897E-001	-1.1297442E+000	0
6.8331203E+000	1.010253976543754E+002	-1.1317428E+000	-1.656260648509003E+002	1.8744612E-001	-1.1317441E+000	0
6.7224174E+000	1.012253976493230E+002	-1.1337155E+000	-1.686470011475403E+002	1.9119772E-001	-1.1337442E+000	0
6.6310582E+000	1.014253976442706E+002	-1.1357224E+000	-1.712731759975291E+002	1.9451879E-001	-1.1357442E+000	0
6.5580173E+000	1.016253976392181E+002	-1.1376911E+000	-1.734809589537372E+002	1.9736774E-001	-1.1377442E+000	0
6.4722719E+000	1.018253976341657E+002	-1.1397179E+000	-1.760924024225092E+002	2.0069566E-001	-1.1397442E+000	0
6.3896990E+000	1.020253976291133E+002	-1.1417005E+000	-1.786782917835817E+002	2.0399709E-001	-1.1417443E+000	0
6.3100142E+000	1.022253976240609E+002	-1.1437213E+000	-1.812549597962915E+002	2.0730516E-001	-1.1437442E+000	0
6.2328458E+000	1.024253976190084E+002	-1.1457157E+000	-1.838190315672595E+002	2.1060435E-001	-1.1457442E+000	0
6.1461153E+000	1.026253976139560E+002	-1.1477165E+000	-1.867385339845068E+002	2.1432289E-001	-1.1477442E+000	0
6.0727901E+000	1.028253976089036E+002	-1.1497083E+000	-1.893212584238204E+002	2.1766421E-001	-1.1497440E+000	0
5.9977489E+000	1.030253976038512E+002	-1.1517464E+000	-1.920297863250961E+002	2.2116962E-001	-1.1517442E+000	0
5.9275951E+000	1.032253975987987E+002	-1.1537069E+000	-1.946332192885902E+002	2.2454970E-001	-1.1537442E+000	0
5.8511367E+000	1.034253975937463E+002	-1.1557180E+000	-1.975202445335131E+002	2.2827770E-001	-1.1557441E+000	0
5.7712603E+000	1.036253975886939E+002	-1.1577234E+000	-2.006014882745117E+002	2.3224105E-001	-1.1577442E+000	0
5.7190309E+000	1.038253975836415E+002	-1.1596997E+000	-2.027790603745812E+002	2.3516281E-001	-1.1597441E+000	0
5.6469202E+000	1.040253975785890E+002	-1.1617240E+000	-2.057270113129734E+002	2.3899800E-001	-1.1617442E+000	0
5.5882630E+000	1.042253975735366E+002	-1.1637362E+000	-2.082465084534376E+002	2.4234401E-001	-1.1637442E+000	0
5.4777861E+000	1.044253975684842E+002	-1.1657058E+000	-2.128060060769262E+002	2.4806920E-001	-1.1657441E+000	0
5.3844390E+000	1.046253975634318E+002	-1.1677263E+000	-2.168705598848477E+002	2.5324544E-001	-1.1677442E+000	0
5.3162065E+000	1.048253975583793E+002	-1.1697218E+000	-2.200294171612275E+002	2.5737321E-001	-1.1697441E+000	0
5.2520084E+000	1.050253975533269E+002	-1.1717335E+000	-2.231019913571766E+002	2.6141608E-001	-1.1717441E+000	0
5.1802897E+000	1.052253975482745E+002	-1.1737261E+000	-2.265753801133889E+002	2.6593745E-001	-1.1737442E+000	0
5.1316295E+000	1.054253975432221E+002	-1.1757525E+000	-2.291187476008929E+002	2.6938695E-001	-1.1757442E+000	0
5.0699978E+000	1.056253975381696E+002	-1.1777029E+000	-2.322886375591604E+002	2.7356699E-001	-1.1777442E+000	0
5.0048909E+000	1.058253975331172E+002	-1.1797237E+000	-2.357141836754590E+002	2.7807763E-001	-1.1797441E+000	0
4.9673710E+000	1.060253975280648E+002	-1.1817249E+000	-2.378974587749735E+002	2.8112936E-001	-1.1817442E+000	0
4.9193506E+000	1.062253975230124E+002	-1.1837046E+000	-2.406221217157622E+002	2.8482550E-001	-1.1837442E+000	0
4.8401155E+000	1.064253975179599E+002	-1.1857314E+000	-2.449799706789913E+002	2.9048043E-001	-1.1857442E+000	0
4.7721047E+000	1.066253975129075E+002	-1.1877704E+000	-2.488986496698286E+002	2.9563445E-001	-1.1877441E+000	0
4.7369981E+000	1.068253975078551E+002	-1.1897864E+000	-2.511688750974181E+002	2.9883733E-001	-1.1897441E+000	0
4.6969337E+000	1.070253975028027E+002	-1.1917326E+000	-2.537256673047327E+002	3.0237317E-001	-1.1917442E+000	0
4.6530576E+000	1.072253974977502E+002	-1.1937222E+000	-2.565457729741829E+002	3.0624440E-001	-1.1937442E+000	0
4.6086245E+000	1.074253974926978E+002	-1.1957437E+000	-2.594578266987180E+002	3.1024507E-001	-1.1957442E+000	0
4.5641789E+000	1.076253974876454E+002	-1.1977937E+000	-2.624335696032258E+002	3.1434128E-001	-1.1977441E+000	0
4.4962645E+000	1.078253974825930E+002	-1.1997738E+000	-2.668378989874927E+002	3.2014513E-001	-1.1997441E+000	0
4.4440026E+000	1.080253974775405E+002	-1.2017846E+000	-2.704284072884630E+002	3.2499671E-001	-1.2017442E+000	0
4.4053483E+000	1.082253974724881E+002	-1.2037781E+000	-2.732537867595827E+002	3.2893693E-001	-1.2037442E+000	0
4.3543892E+000	1.084253974674357E+002	-1.2057831E+000	-2.769121159534066E+002	3.3389595E-001	-1.2057441E+000	0
4.3226533E+000	1.086253974623833E+002	-1.2077504E+000	-2.794002425438157E+002	3.3744577E-001	-1.2077441E+000	0
4.2860265E+000	1.088253974573308E+002	-1.2097310E+000	-2.822500049521850E+002	3.4144658E-001	-1.2097442E+000	0
4.2442050E+000	1.090253974522784E+002	-1.2117454E+000	-2.855058620738330E+002	3.4596041E-001	-1.2117442E+000	0
4.2085986E+000	1.092253974472260E+002	-1.2137649E+000	-2.884011922715199E+002	3.5005125E-001	-1.2137442E+000	0
4.1707163E+000	1.094253974421736E+002	-1.2157773E+000	-2.915032388271929E+002	3.5440302E-001	-1.2157443E+000	0
4.1330395E+000	1.096253974371211E+002	-1.2177749E+000	-2.946438916762108E+002	3.5880992E-001	-1.2177441E+000	0
4.0825958E+000	1.098253974320687E+002	-1.2197994E+000	-2.987803374223433E+002	3.6445206E-001	-1.2197441E+000	0
4.0191450E+000	1.100253974270163E+002	-1.2217978E+000	-3.039944493840883E+002	3.7141976E-001	-1.2217442E+000	0
3.9803834E+000	1.102253974219639E+002	-1.2237762E+000	-3.074518422193806E+002	3.7625226E-001	-1.2237443E+000	0
3.9333894E+000	1.104253974169114E+002	-1.2257482E+000	-3.116264446457508E+002	3.8197556E-001	-1.2257441E+000	0
3.9125278E+000	1.106253974118590E+002	-1.2277944E+000	-3.138110346761694E+002	3.8529542E-001	-1.2277441E+000	0
3.8835781E+000	1.108253974068066E+002	-1.2297959E+000	-3.166656838414888E+002	3.8943416E-001	-1.2297442E+000	0
3.8502042E+000	1.110253974017542E+002	-1.2318069E+000	-3.199328645459645E+002	3.9409551E-001	-1.2317442E+000	0
3.8203833E+000	1.112253973967017E+002	-1.2337917E+000	-3.229497148790588E+002	3.9845267E-001	-1.2337441E+000	0
3.7857139E+000	1.114253973916493E+002	-1.2357862E+000	-3.264341128061678E+002	4.0340278E-001	-1.2357441E+000	0
3.7689681E+000	1.116253973865969E+002	-1.2377845E+000	-3.284146981206873E+002	4.0650663E-001	-1.2377442E+000	0
3.7280567E+000	1.118254973815419E+002	-1.2397772E+000	-3.325532019458306E+002	4.1229188E-001	-1.2397450E+000	0
3.6752911E+000	1.120258973764794E+002	-1.2417943E+000	-3.378764664409733E+002	4.1957310E-001	-1.2417485E+000	0
3.6465018E+000	1.122265973714093E+002	-1.2438551E+000	-3.411091389957264E+002	4.2429036E-001	-1.2437557E+000	0
3.6130207E+000	1.124268973663493E+002	-1.2458014E+000	-3.448088324959308E+002	4.2956334E-001	-1.2457590E+000	0
3.5909884E+000	1.126272973612868E+002	-1.2478216E+000	-3.474869417303150E+002	4.3360171E-001	-1.2477623E+000	0
3.5755329E+000	1.128279973562167E+002	-1.2498380E+000	-3.495529196381456E+002	4.3688452E-001	-1.2497697E+000	0
3.5689583E+000	1.130283973511541E+002	-1.2518673E+000	-3.507654488321609E+002	4.3911180E-001	-1.2517737E+000	0
3.5383606E+000	1.132287973460916E+002	-1.2538495E+000	-3.543588837490747E+002	4.4431272E-001	-1.2537777E+000	0
3.5062375E+000	1.134293973410240E+002	-1.2558752E+000	-3.581831600162686E+002	4.4983336E-001	-1.2557834E+000	0
3.4741695E+000	1.136299973359564E+002	-1.2578719E+000	-3.620640482454819E+002	4.5543018E-001	-1.2577896E+000	0
3.4560261E+000	1.138303973308939E+002	-1.2598629E+000	-3.645409040577424E+002	4.5927155E-001	-1.2597936E+000	0
3.4360425E+000	1.140306973258339E+002	-1.2618402E+000	-3.672365002922652E+002	4.6339378E-001	-1.2617971E+000	0
3.3903840E+000	1.142309973207739E+002	-1.2638673E+000	-3.727799764518404E+002	4.7114441E-001	-1.2637998E+000	0
3.3670292E+000	1.144314973157088E+002	-1.2659122E+000	-3.759730408151054E+002	4.7594884E-001	-1.2658044E+000	0
3.3466494E+000	1.146319973106438E+002	-1.2678368E+000	-3.788376499869044E+002	4.8030433E-001	-1.2678096E+000	0
3.3238306E+000	1.148322973055838E+002	-1.2699245E+000	-3.820665484014316E+002	4.8519567E-001	-1.2698129E+000	0
3.3012116E+000	1.150324973005263E+002	-1.2719140E+000	-3.852870368722333E+002	4.9005198E-001	-1.2718149E+000	0
3.2451727E+000	1.152329972954612E+002	-1.2738739E+000	-3.925442599936541E+002	5.0005192E-001	-1.2738196E+000	0
3.2165475E+000	1.154333972903987E+002	-1.2759122E+000	-3.966713385014536E+002	5.0611776E-001	-1.2758236E+000	0
3.1702771E+000	1.156336972853387E+002	-1.2779207E+000	-4.030943141615417E+002	5.1512259E-001	-1.2778273E+000	0
3.1098871E+000	1.158339972802787E+002	-1.2799207E+000	-4.115650160392725E+002	5.2677059E-001	-1.2798297E+000	0
3.0797188E+000	1.160341972752212E+002	-1.2819000E+000	-4.162393032187738E+002	5.3357720E-001	-1.2818320E+000	0
3.0624471E+000	1.162342972701663E+002	-1.2839518E+000	-4.192567893200394E+002	5.3830552E-001	-1.2838329E+000	0
3.0431144E+000	1.164344972651088E+002	-1.2859766E+000	-4.225857162120810E+002	5.4343534E-001	-1.2858349E+000	0
3.0370600E+000	1.166347972600488E+002	-1.2879356E+000	-4.240731656833041E+002	5.4617894E-001	-1.2878377E+000	0
3.0318334E+000	1.168352972549837E+002	-1.2899508E+000	-4.254689208971286E+002	5.4883397E-001	-1.2898425E+000	0
3.0167551E+000	1.170355972499237E+002	-1.2920084E+000	-4.282775104067987E+002	5.5333817E-001	-1.2918459E+000	0
3.0121093E+000	1.172355972448713E+002	-1.2939253E+000	-4.295744885598183E+002	5.5583727E-001	-1.2938461E+000	0
2.9946518E+000	1.174356972398164E+002	-1.2959924E+000	-4.327689821844354E+002	5.6086528E-001	-1.2958469E+000	0
2.9812329E+000	1.176359972347564E+002	-1.2979649E+000	-4.353785682508721E+002	5.6510609E-001	-1.2978497E+000	0
2.9689250E+000	1.178365972296888E+002	-1.2999649E+000	-4.378570985404085E+002	5.6919885E-001	-1.2998556E+000	0
2.9565971E+000	1.180369972246262E+002	-1.3019632E+000	-4.403586835368542E+002	5.7333082E-001	-1.3018596E+000	0
2.9482560E+000	1.182372972195662E+002	-1.3039595E+000	-4.422816348582583E+002	5.7671732E-001	-1.3038629E+000	0
2.9036112E+000	1.184374972145088E+002	-1.3059870E+000	-4.497802767825640E+002	5.8740717E-001	-1.3058649E+000	0
2.8961620E+000	1.186375972094538E+002	-1.3080281E+000	-4.516418790968642E+002	5.9076029E-001	-1.3078662E+000	0
2.8861628E+000	1.188378972043938E+002	-1.3100505E+000	-4.539073606072743E+002	5.9464157E-001	-1.3098685E+000	0
2.8584354E+000	1.190384971993262E+002	-1.3120319E+000	-4.590035100657671E+002	6.0222721E-001	-1.3118749E+000	0
2.8547139E+000	1.192385971942713E+002	-1.3139914E+000	-4.602883105505080E+002	6.0481489E-001	-1.3138762E+000	0
2.8414562E+000	1.194387971892138E+002	-1.3160537E+000	-4.631617129613452E+002	6.0954571E-001	-1.3158780E+000	0
2.8018241E+000	1.196391971841513E+002	-1.3180114E+000	-4.704118975610435E+002	6.2000823E-001	-1.3178816E+000	0
2.7760048E+000	1.198394971790913E+002	-1.3200172E+000	-4.755097167482600E+002	6.2768102E-001	-1.3198849E+000	0
2.7720635E+000	1.200397971740313E+002	-1.3220847E+000	-4.769315893588373E+002	6.3054395E-001	-1.3218877E+000	0
2.7584836E+000	1.202402971689662E+002	-1.3240290E+000	-4.799843474750385E+002	6.3551319E-001	-1.3238926E+000	0
2.7599723E+000	1.204405971639062E+002	-1.3260317E+000	-4.804510928570107E+002	6.3709337E-001	-1.3258959E+000	0
2.7598128E+000	1.206409971588437E+002	-1.3280163E+000	-4.811979394319824E+002	6.3903868E-001	-1.3278997E+000	0
2.7482965E+000	1.208414971537786E+002	-1.3300310E+000	-4.839474485063402E+002	6.4366513E-001	-1.3299044E+000	0
2.7125390E+000	1.210419971487136E+002	-1.3320777E+000	-4.910815337163558E+002	6.5415877E-001	-1.3319097E+000	0
2.6990676E+000	1.212422971436536E+002	-1.3340601E+000	-4.942670236574490E+002	6.5938193E-001	-1.3339130E+000	0
2.6893961E+000	1.214427971385885E+002	-1.3361033E+000	-4.968042077897990E+002	6.6378176E-001	-1.3359176E+000	0
2.6709089E+000	1.216430971335285E+002	-1.3380857E+000	-5.009851280370149E+002	6.7036098E-001	-1.3379210E+000	0
2.6386170E+000	1.218431971284735E+002	-1.3400718E+000	-5.078689797286806E+002	6.8058091E-001	-1.3399222E+000	0
2.6305509E+000	1.220433971234161E+002	-1.3420660E+000	-5.101843929658762E+002	6.8470114E-001	-1.3419238E+000	0
2.6406124E+000	1.222437971183535E+002	-1.3440846E+000	-5.090048957724493E+002	6.8414563E-001	-1.3439276E+000	0
2.6036260E+000	1.224439971132961E+002	-1.3460668E+000	-5.169970079582025E+002	6.9591254E-001	-1.3459301E+000	0
2.5823071E+000	1.226442971082361E+002	-1.3481120E+000	-5.220571911058302E+002	7.0379156E-001	-1.3479325E+000	0
2.5477390E+000	1.228448971031685E+002	-1.3501090E+000	-5.299243678872044E+002	7.1545565E-001	-1.3499385E+000	0
2.5423148E+000	1.230451970981085E+002	-1.3521492E+000	-5.318575300272896E+002	7.1915078E-001	-1.3519422E+000	0
2.5366330E+000	1.232452970930535E+002	-1.3540882E+000	-5.338132193505562E+002	7.2283018E-001	-1.3539430E+000	0
2.5270262E+000	1.234454970879960E+002	-1.3561491E+000	-5.366580858076240E+002	7.2778839E-001	-1.3559450E+000	0
2.5231156E+000	1.236455970829411E+002	-1.3581032E+000	-5.382643340493551E+002	7.3101848E-001	-1.3579459E+000	0
2.5059681E+000	1.238455970778887E+002	-1.3600512E+000	-5.427248427808390E+002	7.3813355E-001	-1.3599459E+000	0
2.4986963E+000	1.240455970728362E+002	-1.3620981E+000	-5.451234921998184E+002	7.4251169E-001	-1.3619459E+000	0
2.4801533E+000	1.242455970677838E+002	-1.3640687E+000	-5.499937229675497E+002	7.5022924E-001	-1.3639460E+000	0
2.4680116E+000	1.244455970627314E+002	-1.3661460E+000	-5.535411539056149E+002	7.5621802E-001	-1.3659461E+000	0
2.4591749E+000	1.246455970576790E+002	-1.3681742E+000	-5.563549861821461E+002	7.6119053E-001	-1.3679459E+000	0
2.4479744E+000	1.248455970526265E+002	-1.3701413E+000	-5.597040547308216E+002	7.6687360E-001	-1.3699460E+000	0
2.4286935E+000	1.250455970475741E+002	-1.3721192E+000	-5.649618447145913E+002	7.7519500E-001	-1.3719459E+000	0
2.4220300E+000	1.252155970432796E+002	-1.3738236E+000	-5.672199436434239E+002	7.7926016E-001	-1.3736459E+000	0
2.4191949E+000	1.252803970416426E+002	-1.3746309E+000	-5.682183405558280E+002	7.8109050E-001	-1.3744457E+000	1