EC-Lab ASCII FILE
Nb header lines : 61                          

Linear Sweep Voltammetry

Run on channel : 1 (SN 1340)
User : 
Electrode connection : standard
Potential control : Ewe
Ewe ctrl range : min = -5.00 V, max = 5.00 V
Ewe,I filtering : <None>
Channel : Grounded
Acquisition started on : 02/12/2026 17:45:15.769
Technique started on : 02/12/2026 17:45:18.452
Loaded Setting File :  NONE
Saved on :
	File : PtPd_40_CoNi_2_12_02_LSV_C01.mpr
	Directory : C:\Users\volt\Documents\Platalytix\
	Host : 127.0.0.1
Device : SP-200 (SN 0262)
Address : USB
EC-LAB for windows v11.60 (software)
Internet server v11.60 (firmware)
Command interpretor v11.60 (firmware)
Electrode material : PtPd40CoNi
Initial state : 
Electrolyte : KOH (1M)
Comments : 
Cable : standard
Reference electrode : Hg/HgO (0.140 V)
Electrode surface area : 1.000 cm˛
Characteristic mass : 0.001 g
Equivalent Weight : 0.000 g/eq.
Density : 0.000 g/cm3
Volume (V) : 0.001 cmł
Cycle Definition : Charge/Discharge alternance
tR (h:m:s)          0:00:5.0000         
dER/dt (mV/h)       0.0                 
dER (mV)            0                   
dtR (s)             0.0000              
dE/dt               10.000              
dE/dt unit          mV/s                
Ei (V)              -0.200              
vs.                 Ref                 
EL (V)              -2.500              
vs.                 Ref                 
record              <I>                 
dI                  0.000               
unit dI             µA                  
tI (s)              0.0000              
step percent        50                  
N                   10                  
E range min (V)     -5.000              
E range max (V)     5.000               
I Range             Auto                
I Range min         Unset               
I Range max         Unset               
I Range init        Unset               
Bandwidth           8                   

Rwe/Ohm	time/s	Ewe/V	<I>/mA	Pwe/W	control/V	error	
0.0000000E+000	2.683400127425557E+000	-1.5806711E-001	0.000000000000000E+000	0.0000000E+000	0.0000000E+000	0
0.0000000E+000	7.683200001119985E+000	-5.9741409E-003	0.000000000000000E+000	0.0000000E+000	-1.9998582E-001	0
1.5578844E+003	7.883199996067560E+000	-2.0171465E-001	-1.294798571616411E-001	2.6117985E-005	-2.0188560E-001	0
1.2556125E+003	8.003199993036105E+000	-2.0290497E-001	-1.615983907570500E-001	3.2789118E-005	-2.0308566E-001	0
1.5285515E+003	8.213199987731059E+000	-2.0499349E-001	-1.341096312641811E-001	2.7491600E-005	-2.0518559E-001	0
1.7439609E+003	8.413199982678634E+000	-2.0699389E-001	-1.186918189037429E-001	2.4568482E-005	-2.0718548E-001	0
1.9231812E+003	8.613199977626209E+000	-2.0901491E-001	-1.086818603450288E-001	2.2716129E-005	-2.0918538E-001	0
2.0784341E+003	8.813199972573784E+000	-2.1105669E-001	-1.015460173464267E-001	2.1431966E-005	-2.1118526E-001	0
2.2141960E+003	9.013199967521359E+000	-2.1302040E-001	-9.620665642644033E-002	2.0493981E-005	-2.1318518E-001	0
2.3386362E+003	9.213199962468934E+000	-2.1500680E-001	-9.193683051411261E-002	1.9767043E-005	-2.1518506E-001	0
2.4521306E+003	9.413199957416509E+000	-2.1702419E-001	-8.850433373012812E-002	1.9207582E-005	-2.1718498E-001	0
2.5582852E+003	9.613199952364084E+000	-2.1901737E-001	-8.561100842602262E-002	1.8750297E-005	-2.1918485E-001	0
2.6590969E+003	9.813199947311659E+000	-2.2102246E-001	-8.311936943137155E-002	1.8371247E-005	-2.2118475E-001	0
2.7545498E+003	1.001319994225923E+001	-2.2300208E-001	-8.095771815498969E-002	1.8053739E-005	-2.2318465E-001	0
2.8468352E+003	1.021319993720681E+001	-2.2503605E-001	-7.904779898000641E-002	1.7788605E-005	-2.2518453E-001	0
2.9328533E+003	1.041319993215438E+001	-2.2699292E-001	-7.739661424737543E-002	1.7568484E-005	-2.2718443E-001	0
3.0189780E+003	1.061319992710196E+001	-2.2901011E-001	-7.585683219819028E-002	1.7371982E-005	-2.2918433E-001	0
3.0999395E+003	1.081319992204953E+001	-2.3099609E-001	-7.451632020935905E-002	1.7212978E-005	-2.3118423E-001	0
3.1790261E+003	1.101319991699711E+001	-2.3309962E-001	-7.332422349352785E-002	1.7091848E-005	-2.3318413E-001	0
3.2577886E+003	1.121319991194468E+001	-2.3500900E-001	-7.213758474032139E-002	1.6952981E-005	-2.3518401E-001	0
3.3321692E+003	1.141319990689226E+001	-2.3699732E-001	-7.112403847794557E-002	1.6856207E-005	-2.3718391E-001	0
3.4116816E+003	1.161299990184489E+001	-2.3902214E-001	-7.005991739149076E-002	1.6745871E-005	-2.3918380E-001	0
3.4865862E+003	1.181299989679246E+001	-2.4103209E-001	-6.913126125623403E-002	1.6662852E-005	-2.4118370E-001	0
3.5556799E+003	1.201299989174004E+001	-2.4298413E-001	-6.833689834324885E-002	1.6604781E-005	-2.4318360E-001	0
3.6303975E+003	1.221299988668761E+001	-2.4501276E-001	-6.748923637361473E-002	1.6535723E-005	-2.4518350E-001	0
3.7042930E+003	1.241299988163519E+001	-2.4701528E-001	-6.668351602829274E-002	1.6471848E-005	-2.4718338E-001	0
3.7751650E+003	1.261299987658276E+001	-2.4906898E-001	-6.597565130178583E-002	1.6432488E-005	-2.4918325E-001	0
3.8416328E+003	1.281299987153034E+001	-2.5104412E-001	-6.534828754065902E-002	1.6405304E-005	-2.5118318E-001	0
3.9100496E+003	1.301299986647791E+001	-2.5301930E-001	-6.470999788955428E-002	1.6372878E-005	-2.5318307E-001	0
3.9765986E+003	1.321299986142549E+001	-2.5500318E-001	-6.412595588251419E-002	1.6352324E-005	-2.5518298E-001	0
4.0453594E+003	1.341299985637306E+001	-2.5700253E-001	-6.353021227984823E-002	1.6327425E-005	-2.5718287E-001	0
4.1126816E+003	1.361299985132064E+001	-2.5902456E-001	-6.298191161655181E-002	1.6313861E-005	-2.5918275E-001	0
4.1763848E+003	1.381299984626821E+001	-2.6101395E-001	-6.249758646487705E-002	1.6312742E-005	-2.6118267E-001	0
4.2434058E+003	1.401299984121579E+001	-2.6298761E-001	-6.197559644886275E-002	1.6298814E-005	-2.6318255E-001	0
4.3081172E+003	1.421299983616336E+001	-2.6501733E-001	-6.151581520125965E-002	1.6302758E-005	-2.6518244E-001	0
4.3716118E+003	1.441299983111094E+001	-2.6696363E-001	-6.106755208876591E-002	1.6302816E-005	-2.6718235E-001	0
4.4414956E+003	1.461299982605851E+001	-2.6899588E-001	-6.056425900118267E-002	1.6291537E-005	-2.6918224E-001	0
4.5022075E+003	1.481299982100609E+001	-2.7096683E-001	-6.018532394397744E-002	1.6308226E-005	-2.7118212E-001	0
4.5690981E+003	1.501299981595366E+001	-2.7302769E-001	-5.975526934933084E-002	1.6314843E-005	-2.7318203E-001	0
4.6308540E+003	1.521299981090124E+001	-2.7497548E-001	-5.937900157358134E-002	1.6327769E-005	-2.7518192E-001	0
4.6930825E+003	1.541289980585134E+001	-2.7701461E-001	-5.902615337169237E-002	1.6351107E-005	-2.7718270E-001	0
4.7507124E+003	1.561279980080144E+001	-2.7900729E-001	-5.872956740346802E-002	1.6385977E-005	-2.7918172E-001	0
4.8158613E+003	1.581279979574902E+001	-2.8096819E-001	-5.834224888191136E-002	1.6392316E-005	-2.8118160E-001	0
4.8753301E+003	1.601279979069659E+001	-2.8297350E-001	-5.804191438466405E-002	1.6424323E-005	-2.8318152E-001	0
4.9388774E+003	1.621279978564417E+001	-2.8498623E-001	-5.770263003920301E-002	1.6444455E-005	-2.8518140E-001	0
4.9995298E+003	1.641279978059174E+001	-2.8697306E-001	-5.740001187881549E-002	1.6472257E-005	-2.8718129E-001	0
5.0624961E+003	1.661279977553932E+001	-2.8899956E-001	-5.708637654194249E-002	1.6497937E-005	-2.8918117E-001	0
5.1274263E+003	1.681279977048689E+001	-2.9098108E-001	-5.674993045587962E-002	1.6513157E-005	-2.9118109E-001	0
5.1774897E+003	1.701279976543447E+001	-2.9298088E-001	-5.658744033341589E-002	1.6579039E-005	-2.9318097E-001	0
5.2428267E+003	1.721279976038204E+001	-2.9495943E-001	-5.625961690057757E-002	1.6594304E-005	-2.9518089E-001	0
5.2953823E+003	1.741279975532962E+001	-2.9697490E-001	-5.608186037427498E-002	1.6654905E-005	-2.9718077E-001	0
5.3538032E+003	1.761279975027719E+001	-2.9898742E-001	-5.584580148042290E-002	1.6697191E-005	-2.9918066E-001	0
5.4065054E+003	1.781279974522477E+001	-3.0097529E-001	-5.566909902490455E-002	1.6755024E-005	-3.0118057E-001	0
5.4694761E+003	1.801279974017234E+001	-3.0299693E-001	-5.539779960443925E-002	1.6785363E-005	-3.0318046E-001	0
5.5280293E+003	1.821279973511992E+001	-3.0500239E-001	-5.517380182681997E-002	1.6828142E-005	-3.0518034E-001	0
5.5814956E+003	1.841279973006749E+001	-3.0700541E-001	-5.500414826360245E-002	1.6886570E-005	-3.0718023E-001	0
5.6325327E+003	1.861279972501507E+001	-3.0902746E-001	-5.486474412835518E-002	1.6954713E-005	-3.0918011E-001	0
5.6897124E+003	1.881279971996264E+001	-3.1100282E-001	-5.466055225996946E-002	1.6999586E-005	-3.1118003E-001	0
5.7518013E+003	1.901269971491274E+001	-3.1298640E-001	-5.441537389530537E-002	1.7031272E-005	-3.1317905E-001	0
5.8018228E+003	1.921259970986284E+001	-3.1501853E-001	-5.429647831655965E-002	1.7104398E-005	-3.1517982E-001	0
5.8504038E+003	1.941259970481042E+001	-3.1702822E-001	-5.418911764753021E-002	1.7179480E-005	-3.1717971E-001	0
5.9100083E+003	1.961259969975799E+001	-3.1899491E-001	-5.397537509993144E-002	1.7217870E-005	-3.1917962E-001	0
5.9637827E+003	1.981259969470557E+001	-3.2101652E-001	-5.382766681110873E-002	1.7279570E-005	-3.2117948E-001	0
6.0160039E+003	2.001259968965314E+001	-3.2303500E-001	-5.369594118868282E-002	1.7345668E-005	-3.2317939E-001	0
6.0706392E+003	2.021259968460072E+001	-3.2501864E-001	-5.353944293273988E-002	1.7401317E-005	-3.2517928E-001	0
6.1231172E+003	2.041259967954829E+001	-3.2697067E-001	-5.339937891426738E-002	1.7460030E-005	-3.2717916E-001	0
6.1719902E+003	2.061259967449587E+001	-3.2897022E-001	-5.330050896848981E-002	1.7534281E-005	-3.2917905E-001	0
6.2254521E+003	2.081259966944344E+001	-3.3100736E-001	-5.317001091210766E-002	1.7599665E-005	-3.3117896E-001	0
6.2675474E+003	2.101259966439102E+001	-3.3299080E-001	-5.312936081151876E-002	1.7691587E-005	-3.3317885E-001	0
6.3267617E+003	2.121259965933859E+001	-3.3498061E-001	-5.294661340198115E-002	1.7736089E-005	-3.3517876E-001	0
6.3789502E+003	2.141259965428617E+001	-3.3702791E-001	-5.283438251142614E-002	1.7806662E-005	-3.3717865E-001	0
6.4211650E+003	2.161259964923374E+001	-3.3904359E-001	-5.280094632251672E-002	1.7901823E-005	-3.3917856E-001	0
6.4665479E+003	2.181259964418132E+001	-3.4099433E-001	-5.273205171763684E-002	1.7981331E-005	-3.4117845E-001	0
6.5184717E+003	2.201259963912889E+001	-3.4296566E-001	-5.261442926976323E-002	1.8044942E-005	-3.4317833E-001	0
6.5600156E+003	2.221259963407647E+001	-3.4505332E-001	-5.259946607161003E-002	1.8149620E-005	-3.4517822E-001	0
6.6110200E+003	2.241259962902404E+001	-3.4700599E-001	-5.248902467884087E-002	1.8214007E-005	-3.4717813E-001	0
6.6527197E+003	2.261259962397162E+001	-3.4899792E-001	-5.245943552742616E-002	1.8308234E-005	-3.4917805E-001	0
6.7057861E+003	2.281249961892172E+001	-3.5098511E-001	-5.234063657736754E-002	1.8370783E-005	-3.5117701E-001	0
6.7391924E+003	2.301239961387182E+001	-3.5300788E-001	-5.238133416059210E-002	1.8491024E-005	-3.5317785E-001	0
6.7883467E+003	2.321239960881940E+001	-3.5501528E-001	-5.229775288803273E-002	1.8566501E-005	-3.5517770E-001	0
6.8312734E+003	2.341239960376697E+001	-3.5701442E-001	-5.226176743376598E-002	1.8658204E-005	-3.5717759E-001	0
6.8736333E+003	2.361239959871455E+001	-3.5900912E-001	-5.222989069118389E-002	1.8751007E-005	-3.5917750E-001	0
6.9053984E+003	2.381239959366212E+001	-3.6099276E-001	-5.227689064042367E-002	1.8871579E-005	-3.6117738E-001	0
6.9499658E+003	2.401239958860970E+001	-3.6298126E-001	-5.222777464446060E-002	1.8957704E-005	-3.6317730E-001	0
6.9849658E+003	2.421239958355727E+001	-3.6499909E-001	-5.225495591521037E-002	1.9073012E-005	-3.6517721E-001	0
7.0257295E+003	2.441239957850485E+001	-3.6703619E-001	-5.224172148458639E-002	1.9174602E-005	-3.6717710E-001	0
7.0641177E+003	2.461239957345242E+001	-3.6906442E-001	-5.224494055935658E-002	1.9281748E-005	-3.6917701E-001	0
7.1093457E+003	2.481239956840000E+001	-3.7097889E-001	-5.218186122555346E-002	1.9358369E-005	-3.7117687E-001	0
7.1431851E+003	2.501239956334757E+001	-3.7302130E-001	-5.222058448942613E-002	1.9479390E-005	-3.7317675E-001	0
7.1769404E+003	2.521239955829515E+001	-3.7501347E-001	-5.225255465992373E-002	1.9595413E-005	-3.7517667E-001	0
7.2134272E+003	2.541239955324272E+001	-3.7703380E-001	-5.226832997822582E-002	1.9706928E-005	-3.7717658E-001	0
7.2488755E+003	2.561239954819030E+001	-3.7903717E-001	-5.228909947740457E-002	1.9819512E-005	-3.7917644E-001	0
7.2945420E+003	2.581239954313787E+001	-3.8098240E-001	-5.222841876225282E-002	1.9898109E-005	-3.8117638E-001	0
7.3169575E+003	2.601239953808545E+001	-3.8302615E-001	-5.234773591574715E-002	2.0050551E-005	-3.8317624E-001	0
7.3504058E+003	2.621239953303302E+001	-3.8503268E-001	-5.238250561867347E-002	2.0168976E-005	-3.8517612E-001	0
7.3859653E+003	2.641239952798060E+001	-3.8703522E-001	-5.240144079409603E-002	2.0281203E-005	-3.8717601E-001	0
7.4202842E+003	2.661239952292817E+001	-3.8902047E-001	-5.242662749570137E-002	2.0395031E-005	-3.8917613E-001	0
7.4395288E+003	2.681219951788080E+001	-3.9097583E-001	-5.255384338364621E-002	2.0547282E-005	-3.9117581E-001	0
7.4705313E+003	2.701219951282837E+001	-3.9298934E-001	-5.260527285835925E-002	2.0673311E-005	-3.9317575E-001	0
7.5038662E+003	2.721219950777595E+001	-3.9499336E-001	-5.263864698866272E-002	2.0791917E-005	-3.9517561E-001	0
7.5334438E+003	2.741219950272352E+001	-3.9696875E-001	-5.269419519460938E-002	2.0917949E-005	-3.9717549E-001	0
7.5651396E+003	2.761219949767110E+001	-3.9900842E-001	-5.274303504445321E-002	2.1044916E-005	-3.9917541E-001	0
7.5917954E+003	2.781219949261867E+001	-4.0096322E-001	-5.281533341899142E-002	2.1177006E-005	-4.0117529E-001	0
7.6238018E+003	2.801219948756625E+001	-4.0301025E-001	-5.286211030802723E-002	2.1303973E-005	-4.0317520E-001	0
7.6435298E+003	2.821219948251382E+001	-4.0502688E-001	-5.298950775925637E-002	2.1462176E-005	-4.0517506E-001	0
7.6792520E+003	2.841219947746140E+001	-4.0697891E-001	-5.299720653045559E-002	2.1568745E-005	-4.0717500E-001	0
7.7091509E+003	2.861219947240897E+001	-4.0900901E-001	-5.305499998723798E-002	2.1699972E-005	-4.0917486E-001	0
7.7306084E+003	2.881219946735655E+001	-4.1096380E-001	-5.316060186520044E-002	2.1847083E-005	-4.1117477E-001	0
7.7483691E+003	2.901219946230412E+001	-4.1300869E-001	-5.330265893034891E-002	2.2014461E-005	-4.1317466E-001	0
7.7769951E+003	2.921219945725170E+001	-4.1503188E-001	-5.336661094402573E-002	2.2148844E-005	-4.1517454E-001	0
7.8016006E+003	2.941219945219927E+001	-4.1706160E-001	-5.345846518405328E-002	2.2295473E-005	-4.1717449E-001	0
7.8212192E+003	2.961219944714685E+001	-4.1900575E-001	-5.357294696723169E-002	2.2447373E-005	-4.1917434E-001	0
7.8467446E+003	2.981219944209442E+001	-4.2102143E-001	-5.365555344018527E-002	2.2590139E-005	-4.2117429E-001	0
7.8903745E+003	3.001219943704200E+001	-4.2305601E-001	-5.361671943603996E-002	2.2682876E-005	-4.2317414E-001	0
7.9007661E+003	3.021219943198957E+001	-4.2500421E-001	-5.379278350689032E-002	2.2862159E-005	-4.2517403E-001	0
7.9351641E+003	3.041219942693715E+001	-4.2700866E-001	-5.381220174518309E-002	2.2978276E-005	-4.2717394E-001	0
7.9577178E+003	3.061199942188978E+001	-4.2906702E-001	-5.391835030842590E-002	2.3134586E-005	-4.2917359E-001	0
7.9771396E+003	3.081199941683735E+001	-4.3097982E-001	-5.402686300976822E-002	2.3284487E-005	-4.3117374E-001	0
7.9988535E+003	3.101199941178493E+001	-4.3300033E-001	-5.413279900551204E-002	2.3439519E-005	-4.3317360E-001	0
8.0346567E+003	3.121199940673250E+001	-4.3506187E-001	-5.414815802631867E-002	2.3557799E-005	-4.3517351E-001	0
8.0505635E+003	3.141199940168008E+001	-4.3702006E-001	-5.428440620765818E-002	2.3723374E-005	-4.3717340E-001	0
8.0737876E+003	3.161199939662765E+001	-4.3900558E-001	-5.437418157519885E-002	2.3870569E-005	-4.3917331E-001	0
8.0982798E+003	3.181199939157523E+001	-4.4100875E-001	-5.445708851689002E-002	2.4016052E-005	-4.4117320E-001	0
8.1303652E+003	3.201199938652280E+001	-4.4307584E-001	-5.449642412218780E-002	2.4146049E-005	-4.4317308E-001	0
8.1465161E+003	3.221199938147038E+001	-4.4502065E-001	-5.462711094350658E-002	2.4310191E-005	-4.4517297E-001	0
8.1806528E+003	3.241199937641795E+001	-4.4706389E-001	-5.464892577836089E-002	2.4431562E-005	-4.4717288E-001	0
8.2039297E+003	3.261199937136553E+001	-4.4904843E-001	-5.473577484009107E-002	2.4579014E-005	-4.4917282E-001	0
8.2320957E+003	3.281199936631310E+001	-4.5106009E-001	-5.479286410191175E-002	2.4714875E-005	-4.5117268E-001	0
8.2549414E+003	3.301199936126068E+001	-4.5302594E-001	-5.487936699674231E-002	2.4861776E-005	-4.5317256E-001	0
8.2906924E+003	3.321199935620825E+001	-4.5505393E-001	-5.488732438154363E-002	2.4976693E-005	-4.5517248E-001	0
8.3119072E+003	3.341199935115583E+001	-4.5700064E-001	-5.498144175548980E-002	2.5126554E-005	-4.5717233E-001	0
8.3485742E+003	3.361199934610340E+001	-4.5899621E-001	-5.497899517108618E-002	2.5235151E-005	-4.5917228E-001	0
8.3685693E+003	3.381199934105098E+001	-4.6105686E-001	-5.509387010754874E-002	2.5401407E-005	-4.6117213E-001	0
8.4123594E+003	3.401199933599855E+001	-4.6302378E-001	-5.504089427315739E-002	2.5485244E-005	-4.6317205E-001	0
8.4358076E+003	3.421199933094613E+001	-4.6507335E-001	-5.513086307755866E-002	2.5639894E-005	-4.6517193E-001	0
8.4595801E+003	3.441179932589876E+001	-4.6700752E-001	-5.520457191628925E-002	2.5780950E-005	-4.6717182E-001	0
8.5024355E+003	3.461179932084633E+001	-4.6902239E-001	-5.516329813218543E-002	2.5872821E-005	-4.6917176E-001	0
8.5372803E+003	3.481179931579391E+001	-4.7103646E-001	-5.517406756577852E-002	2.5988998E-005	-4.7117162E-001	0
8.5725352E+003	3.501179931074148E+001	-4.7304356E-001	-5.518129147808826E-002	2.6103155E-005	-4.7317156E-001	0
8.6004600E+003	3.521179930568906E+001	-4.7500873E-001	-5.523061964665121E-002	2.6235026E-005	-4.7517136E-001	0
8.6395908E+003	3.541179930063663E+001	-4.7705844E-001	-5.521771170424894E-002	2.6342075E-005	-4.7717130E-001	0
8.6789648E+003	3.561179929558421E+001	-4.7901213E-001	-5.519231133555791E-002	2.6437787E-005	-4.7917122E-001	0
8.6985352E+003	3.581179929053178E+001	-4.8103783E-001	-5.530101585712988E-002	2.6601880E-005	-4.8117107E-001	0
8.7482637E+003	3.601179928547936E+001	-4.8298389E-001	-5.520911145186620E-002	2.6665111E-005	-4.8317102E-001	0
8.7799863E+003	3.621179928042693E+001	-4.8503676E-001	-5.524345157961560E-002	2.6795105E-005	-4.8517087E-001	0
8.8335410E+003	3.641179927537451E+001	-4.8704061E-001	-5.513537554714476E-002	2.6853168E-005	-4.8717082E-001	0
8.8641934E+003	3.661179927032208E+001	-4.8900449E-001	-5.516627041069706E-002	2.6976553E-005	-4.8917067E-001	0
8.9175352E+003	3.681179926526966E+001	-4.9104136E-001	-5.506469312761732E-002	2.7039043E-005	-4.9117059E-001	0
8.9681299E+003	3.701179926021723E+001	-4.9302730E-001	-5.497548458126322E-002	2.7104415E-005	-4.9317047E-001	0
9.0232275E+003	3.721179925516481E+001	-4.9501806E-001	-5.486042275834746E-002	2.7156901E-005	-4.9517035E-001	0
9.0676865E+003	3.741179925011238E+001	-4.9701333E-001	-5.481147998627178E-002	2.7242037E-005	-4.9717030E-001	0
9.1171348E+003	3.761179924505996E+001	-4.9901080E-001	-5.473329485848118E-002	2.7312506E-005	-4.9917009E-001	0
9.1540938E+003	3.781179924000753E+001	-5.0102347E-001	-5.473217555921495E-002	2.7422104E-005	-5.0117010E-001	0
9.2329482E+003	3.801179923495511E+001	-5.0303096E-001	-5.448215845690906E-002	2.7406213E-005	-5.0317049E-001	0
9.2804834E+003	3.821159922990773E+001	-5.0501144E-001	-5.441650195240488E-002	2.7480955E-005	-5.0516987E-001	0
9.3258457E+003	3.841159922485531E+001	-5.0703514E-001	-5.436880885710008E-002	2.7566897E-005	-5.0716978E-001	0
9.3877432E+003	3.861159921980288E+001	-5.0904042E-001	-5.422393729500552E-002	2.7602175E-005	-5.0916964E-001	0
9.4400137E+003	3.881159921475046E+001	-5.1103216E-001	-5.413468301458857E-002	2.7664564E-005	-5.1116955E-001	0
9.4980186E+003	3.901159920969803E+001	-5.1304722E-001	-5.401623394084742E-002	2.7712878E-005	-5.1316941E-001	0
9.5591279E+003	3.921159920464561E+001	-5.1500481E-001	-5.387571020275694E-002	2.7746250E-005	-5.1516938E-001	0
9.6273652E+003	3.941159919959318E+001	-5.1701593E-001	-5.370274602220118E-002	2.7765176E-005	-5.1716924E-001	0
9.6913809E+003	3.961159919454076E+001	-5.1900774E-001	-5.355354056792860E-002	2.7794702E-005	-5.1916915E-001	0
9.7551084E+003	3.981159918948833E+001	-5.2101600E-001	-5.340955607210840E-002	2.7827233E-005	-5.2116907E-001	0
9.8264033E+003	4.001159918443591E+001	-5.2300918E-001	-5.322488632883071E-002	2.7837104E-005	-5.2316892E-001	0
9.9000820E+003	4.021159917938348E+001	-5.2501518E-001	-5.303139685993130E-002	2.7842289E-005	-5.2516884E-001	0
9.9688418E+003	4.041159917433106E+001	-5.2704608E-001	-5.286933730415500E-002	2.7864577E-005	-5.2716869E-001	0
1.0040581E+004	4.061159916927863E+001	-5.2899003E-001	-5.268520256346043E-002	2.7869946E-005	-5.2916867E-001	0
1.0124860E+004	4.081159916422621E+001	-5.3102779E-001	-5.244791306092789E-002	2.7851300E-005	-5.3116846E-001	0
1.0185643E+004	4.101159915917378E+001	-5.3302544E-001	-5.233105784546077E-002	2.7893786E-005	-5.3316838E-001	0
1.0269239E+004	4.121159915412136E+001	-5.3502560E-001	-5.209982977354355E-002	2.7874743E-005	-5.3516829E-001	0
1.0333226E+004	4.141159914906893E+001	-5.3705388E-001	-5.197349747657642E-002	2.7912569E-005	-5.3716815E-001	0
1.0399900E+004	4.161159914401651E+001	-5.3903878E-001	-5.183114963815949E-002	2.7938999E-005	-5.3916812E-001	0
1.0491209E+004	4.181149913896661E+001	-5.4103231E-001	-5.157006589962315E-002	2.7901073E-005	-5.4116726E-001	0
1.0560407E+004	4.201139913391671E+001	-5.4305941E-001	-5.142409879980336E-002	2.7926340E-005	-5.4316789E-001	0
1.0637635E+004	4.221139912886429E+001	-5.4506743E-001	-5.123953299191431E-002	2.7929000E-005	-5.4516774E-001	0
1.0712451E+004	4.241139912381186E+001	-5.4706335E-001	-5.106799111990867E-002	2.7937427E-005	-5.4716766E-001	0
1.0794527E+004	4.261139911875944E+001	-5.4903150E-001	-5.086202053416566E-002	2.7924851E-005	-5.4916751E-001	0
1.0879734E+004	4.281139911370701E+001	-5.5104744E-001	-5.064897859561956E-002	2.7909990E-005	-5.5116743E-001	0
1.0960909E+004	4.301139910865459E+001	-5.5301559E-001	-5.045344263669976E-002	2.7901540E-005	-5.5316734E-001	0
1.1038027E+004	4.321139910360216E+001	-5.5505669E-001	-5.028585772887451E-002	2.7911501E-005	-5.5516720E-001	0
1.1120674E+004	4.341139909854974E+001	-5.5704087E-001	-5.009056612122759E-002	2.7902492E-005	-5.5716717E-001	0
1.1194682E+004	4.361139909349731E+001	-5.5906332E-001	-4.994008121874738E-002	2.7919667E-005	-5.5916703E-001	0
1.1281257E+004	4.381139908844489E+001	-5.6100529E-001	-4.972897157919887E-002	2.7898217E-005	-5.6116694E-001	0
1.1387660E+004	4.401139908339246E+001	-5.6301147E-001	-4.944048630434783E-002	2.7835560E-005	-5.6316686E-001	0
1.1465440E+004	4.421139907834004E+001	-5.6509233E-001	-4.928657694618349E-002	2.7851467E-005	-5.6516671E-001	0
1.1540830E+004	4.441139907328761E+001	-5.6694657E-001	-4.912528672251348E-002	2.7851413E-005	-5.6716663E-001	0
1.1624492E+004	4.461139906823519E+001	-5.6904918E-001	-4.895260425594961E-002	2.7856438E-005	-5.6916648E-001	0
1.1700590E+004	4.481139906318276E+001	-5.7102120E-001	-4.880277039071379E-002	2.7867416E-005	-5.7116640E-001	0
1.1795832E+004	4.501139905813034E+001	-5.7301462E-001	-4.857772058736565E-002	2.7835744E-005	-5.7316625E-001	0
1.1870831E+004	4.521139905307791E+001	-5.7500571E-001	-4.843853914486207E-002	2.7852437E-005	-5.7516617E-001	0
1.1963394E+004	4.541139904802549E+001	-5.7701820E-001	-4.823198342482526E-002	2.7830733E-005	-5.7716608E-001	0
1.2047257E+004	4.561129904297559E+001	-5.7900560E-001	-4.806119732759995E-002	2.7827702E-005	-5.7916534E-001	0
1.2129551E+004	4.581119903792569E+001	-5.8099824E-001	-4.789940120605896E-002	2.7829468E-005	-5.8116591E-001	0
1.2207304E+004	4.601119903287326E+001	-5.8305925E-001	-4.776314935882409E-002	2.7848746E-005	-5.8316571E-001	0
1.2287516E+004	4.621119902782084E+001	-5.8502316E-001	-4.761118243412521E-002	2.7853644E-005	-5.8516568E-001	0
1.2373646E+004	4.641119902276841E+001	-5.8702463E-001	-4.744152356252766E-002	2.7849343E-005	-5.8716553E-001	0
1.2463709E+004	4.661119901771599E+001	-5.8902448E-001	-4.725916489225956E-002	2.7836806E-005	-5.8916551E-001	0
1.2540159E+004	4.681119901266356E+001	-5.9104967E-001	-4.713254932804078E-002	2.7857677E-005	-5.9116536E-001	0
1.2629551E+004	4.701119900761114E+001	-5.9304690E-001	-4.695708560625378E-002	2.7847755E-005	-5.9316522E-001	0
1.2722474E+004	4.721119900255871E+001	-5.9501445E-001	-4.676877166875226E-002	2.7828095E-005	-5.9516513E-001	0
1.2784729E+004	4.741119899750629E+001	-5.9700674E-001	-4.669686154142461E-002	2.7878341E-005	-5.9716499E-001	0
1.2874719E+004	4.761119899245386E+001	-5.9902138E-001	-4.652694858691941E-002	2.7870637E-005	-5.9916496E-001	0
1.2942204E+004	4.781119898740144E+001	-6.0104513E-001	-4.644070904809647E-002	2.7912962E-005	-6.0116482E-001	0
1.3031360E+004	4.801119898234901E+001	-6.0304409E-001	-4.627637169799030E-002	2.7906692E-005	-6.0316473E-001	0
1.3112411E+004	4.821119897729659E+001	-6.0498899E-001	-4.613865237490877E-002	2.7913376E-005	-6.0516459E-001	0
1.3188895E+004	4.841119897224416E+001	-6.0701138E-001	-4.602443035496616E-002	2.7937353E-005	-6.0716444E-001	0
1.3265499E+004	4.861119896719174E+001	-6.0904217E-001	-4.591174308652013E-002	2.7962187E-005	-6.0916442E-001	0
1.3349905E+004	4.881119896213932E+001	-6.1105931E-001	-4.577255674586117E-002	2.7969747E-005	-6.1116427E-001	0
1.3415896E+004	4.901119895708689E+001	-6.1301583E-001	-4.569324408341063E-002	2.8010681E-005	-6.1316419E-001	0
1.3496130E+004	4.921119895203447E+001	-6.1503196E-001	-4.557098645258639E-002	2.8027613E-005	-6.1516410E-001	0
1.3552445E+004	4.941119894698204E+001	-6.1705649E-001	-4.553100597548609E-002	2.8095203E-005	-6.1716449E-001	0
1.3623942E+004	4.961099894193467E+001	-6.1903721E-001	-4.543744987077458E-002	2.8127472E-005	-6.1916387E-001	0
1.3696741E+004	4.981099893688224E+001	-6.2102723E-001	-4.534124075767743E-002	2.8158145E-005	-6.2116373E-001	0
1.3765867E+004	5.001099893182982E+001	-6.2306309E-001	-4.526144742190663E-002	2.8200737E-005	-6.2316370E-001	0
1.3847840E+004	5.021099892677739E+001	-6.2502658E-001	-4.513531407106952E-002	2.8210770E-005	-6.2516356E-001	0
1.3896543E+004	5.041099892172497E+001	-6.2704271E-001	-4.512220875269257E-002	2.8293553E-005	-6.2716347E-001	0
1.3974084E+004	5.061099891667254E+001	-6.2904954E-001	-4.501543889643700E-002	2.8316941E-005	-6.2916332E-001	0
1.4037705E+004	5.081099891162012E+001	-6.3098848E-001	-4.494954507967996E-002	2.8362645E-005	-6.3116324E-001	0
1.4124257E+004	5.101099890656769E+001	-6.3300526E-001	-4.481689083546192E-002	2.8369328E-005	-6.3316315E-001	0
1.4179522E+004	5.121099890151527E+001	-6.3505584E-001	-4.478682837023462E-002	2.8442137E-005	-6.3516301E-001	0
1.4250092E+004	5.141099889646284E+001	-6.3698763E-001	-4.470059963005502E-002	2.8473729E-005	-6.3716292E-001	0
1.4303194E+004	5.163099889090518E+001	-6.3925755E-001	-4.469334122440438E-002	2.8570556E-005	-6.3936281E-001	0
1.4449762E+004	5.185099888534751E+001	-6.4146632E-001	-4.439286629024186E-002	2.8476528E-005	-6.4156270E-001	0
1.4507513E+004	5.205099888029508E+001	-6.4343256E-001	-4.435167954326547E-002	2.8537315E-005	-6.4356261E-001	0
1.4559869E+004	5.225099887524266E+001	-6.4546227E-001	-4.433159841210826E-002	2.8614375E-005	-6.4556247E-001	0
1.4628252E+004	5.245099887019023E+001	-6.4745045E-001	-4.426027592266302E-002	2.8656335E-005	-6.4756244E-001	0
1.4670144E+004	5.265099886513781E+001	-6.4948219E-001	-4.427238030051850E-002	2.8754122E-005	-6.4956224E-001	0
1.4735305E+004	5.285099886008538E+001	-6.5146649E-001	-4.421126583877266E-002	2.8802158E-005	-6.5156221E-001	0
1.4783284E+004	5.305099885503296E+001	-6.5348148E-001	-4.420408045465463E-002	2.8886549E-005	-6.5356207E-001	0
1.4847615E+004	5.325089884998306E+001	-6.5550476E-001	-4.414882332710257E-002	2.8939763E-005	-6.5556198E-001	0
1.4895036E+004	5.345079884493316E+001	-6.5747368E-001	-4.414045615644402E-002	2.9021188E-005	-6.5756184E-001	0
1.4950573E+004	5.365079883988074E+001	-6.5945584E-001	-4.410906565637490E-002	2.9087982E-005	-6.5956169E-001	0
1.5007968E+004	5.385079883482831E+001	-6.6146684E-001	-4.407437745314879E-002	2.9153740E-005	-6.6156167E-001	0
1.5044499E+004	5.405079882977589E+001	-6.6348314E-001	-4.410137747949772E-002	2.9260520E-005	-6.6356158E-001	0
1.5116000E+004	5.425079882472346E+001	-6.6545552E-001	-4.402325512306016E-002	2.9295517E-005	-6.6556144E-001	0
1.5164026E+004	5.445079881967104E+001	-6.6746962E-001	-4.401664837535943E-002	2.9379775E-005	-6.6756135E-001	0
1.5198973E+004	5.465079881461861E+001	-6.6944277E-001	-4.404526490790972E-002	2.9485784E-005	-6.6956121E-001	0
1.5263581E+004	5.485079880956619E+001	-6.7147040E-001	-4.399166850382663E-002	2.9539104E-005	-6.7156112E-001	0
1.5285711E+004	5.505079880451376E+001	-6.7342329E-001	-4.405574012804314E-002	2.9668161E-005	-6.7356098E-001	0
1.5352083E+004	5.525079879946134E+001	-6.7544740E-001	-4.399711709699750E-002	2.9717739E-005	-6.7556089E-001	0
1.5392339E+004	5.545079879440891E+001	-6.7744446E-001	-4.401179476611544E-002	2.9815546E-005	-6.7756081E-001	0
1.5443976E+004	5.565079878935649E+001	-6.7943674E-001	-4.399364226251690E-002	2.9890896E-005	-6.7956066E-001	0
1.5491471E+004	5.585079878430406E+001	-6.8142742E-001	-4.398726489629334E-002	2.9974128E-005	-6.8156058E-001	0
1.5519137E+004	5.605079877925164E+001	-6.8344849E-001	-4.403907967131582E-002	3.0098443E-005	-6.8356043E-001	0
1.5566268E+004	5.625079877419921E+001	-6.8544990E-001	-4.403431169596805E-002	3.0183315E-005	-6.8556041E-001	0
1.5610189E+004	5.645079876914679E+001	-6.8748915E-001	-4.404105144645798E-002	3.0277744E-005	-6.8756026E-001	0
1.5632485E+004	5.665079876409436E+001	-6.8944991E-001	-4.410366506538566E-002	3.0407267E-005	-6.8956017E-001	0
1.5698172E+004	5.685079875904194E+001	-6.9146645E-001	-4.404757935986735E-002	3.0457424E-005	-6.9156003E-001	0
1.5722056E+004	5.705069875399204E+001	-6.9345289E-001	-4.410701251102610E-002	3.0586136E-005	-6.9355994E-001	0
1.5760846E+004	5.725059874894214E+001	-6.9545579E-001	-4.412553868733779E-002	3.0687363E-005	-6.9555986E-001	0
1.5807924E+004	5.745059874388971E+001	-6.9744724E-001	-4.412010461334859E-002	3.0771444E-005	-6.9755977E-001	0
1.5822554E+004	5.765059873883729E+001	-6.9944602E-001	-4.420563374100106E-002	3.0919455E-005	-6.9955969E-001	0
1.5892972E+004	5.785059873378486E+001	-7.0146447E-001	-4.413677343957187E-002	3.0960378E-005	-7.0155954E-001	0
1.5922933E+004	5.805059872873244E+001	-7.0343667E-001	-4.417758376486469E-002	3.1076132E-005	-7.0355946E-001	0
1.5944966E+004	5.825059872368001E+001	-7.0542556E-001	-4.424127027822178E-002	3.1208921E-005	-7.0555937E-001	0
1.5980179E+004	5.845059871862759E+001	-7.0746028E-001	-4.427111279794871E-002	3.1320054E-005	-7.0755917E-001	0
1.6028849E+004	5.865059871357516E+001	-7.0946312E-001	-4.426163940847805E-002	3.1402000E-005	-7.0955914E-001	0
1.6042619E+004	5.885059870852274E+001	-7.1144825E-001	-4.434738887839318E-002	3.1550873E-005	-7.1155900E-001	0
1.6060585E+004	5.905059870347031E+001	-7.1341914E-001	-4.442049488963778E-002	3.1690430E-005	-7.1355897E-001	0
1.6087048E+004	5.925059869841789E+001	-7.1544272E-001	-4.447321450367348E-002	3.1818039E-005	-7.1555877E-001	0
1.6122781E+004	5.945059869336546E+001	-7.1747369E-001	-4.450061415003226E-002	3.1928019E-005	-7.1755868E-001	0
1.6147873E+004	5.965059868831304E+001	-7.1942914E-001	-4.455256269840302E-002	3.2052412E-005	-7.1955860E-001	0
1.6165500E+004	5.985059868326061E+001	-7.2145164E-001	-4.462909634418294E-002	3.2197735E-005	-7.2155851E-001	0
1.6198380E+004	6.005059867820819E+001	-7.2340602E-001	-4.465915938620724E-002	3.2306703E-005	-7.2355843E-001	0
1.6192956E+004	6.025059867315576E+001	-7.2545522E-001	-4.480066679100270E-002	3.2500877E-005	-7.2555822E-001	0
1.6225690E+004	6.045059866810334E+001	-7.2742766E-001	-4.483184543815211E-002	3.2611926E-005	-7.2755820E-001	0
1.6272652E+004	6.065059866305091E+001	-7.2945642E-001	-4.482713828255092E-002	3.2699445E-005	-7.2955799E-001	0
1.6252613E+004	6.085049865800102E+001	-7.3146385E-001	-4.500592317183760E-002	3.2920205E-005	-7.3155826E-001	0
1.6276698E+004	6.105039865295112E+001	-7.3344195E-001	-4.506085588979003E-002	3.3049520E-005	-7.3355782E-001	0
1.6298781E+004	6.125039864789869E+001	-7.3548341E-001	-4.512505448352566E-002	3.3188728E-005	-7.3555773E-001	0
1.6290368E+004	6.145039864284627E+001	-7.3741269E-001	-4.526679004360923E-002	3.3380304E-005	-7.3755771E-001	0
1.6315361E+004	6.165039863779384E+001	-7.3942715E-001	-4.532091707717663E-002	3.3511518E-005	-7.3955750E-001	0
1.6314060E+004	6.185039863274142E+001	-7.4139619E-001	-4.544522917999461E-002	3.3692919E-005	-7.4155742E-001	0
1.6289771E+004	6.205039862768899E+001	-7.4344176E-001	-4.563856360295593E-002	3.3929613E-005	-7.4355733E-001	0
1.6328955E+004	6.225039862263657E+001	-7.4543983E-001	-4.565141038375753E-002	3.4030378E-005	-7.4555725E-001	0
1.6319872E+004	6.245039861758414E+001	-7.4745786E-001	-4.580047348426562E-002	3.4233923E-005	-7.4755710E-001	0
1.6320679E+004	6.265039861253172E+001	-7.4943614E-001	-4.591942126514242E-002	3.4413675E-005	-7.4955702E-001	0
1.6299810E+004	6.285039860747929E+001	-7.5144172E-001	-4.610125760678752E-002	3.4642409E-005	-7.5155693E-001	0
1.6284796E+004	6.305039860242687E+001	-7.5345796E-001	-4.626757052068164E-002	3.4860670E-005	-7.5355673E-001	0
1.6286229E+004	6.325039859737444E+001	-7.5544041E-001	-4.638522750272500E-002	3.5041274E-005	-7.5555676E-001	0
1.6267529E+004	6.345039859232202E+001	-7.5742888E-001	-4.656078092370564E-002	3.5266479E-005	-7.5755662E-001	0
1.6230019E+004	6.365039858726959E+001	-7.5947112E-001	-4.679422323273108E-002	3.5538862E-005	-7.5955653E-001	0
1.6190122E+004	6.385039858221717E+001	-7.6142943E-001	-4.703049235575962E-002	3.5810401E-005	-7.6155645E-001	0
1.6207809E+004	6.405039857716474E+001	-7.6348126E-001	-4.710576856797122E-002	3.5964371E-005	-7.6355624E-001	0
1.6149508E+004	6.425039857211232E+001	-7.6545310E-001	-4.739792021350442E-002	3.6280886E-005	-7.6555616E-001	0
1.6131760E+004	6.445039856705989E+001	-7.6745492E-001	-4.757415982704527E-002	3.6511025E-005	-7.6755607E-001	0
1.6082829E+004	6.465029856200999E+001	-7.6941311E-001	-4.784065859267860E-002	3.6809230E-005	-7.6955622E-001	0
1.6057316E+004	6.485019855696009E+001	-7.7142948E-001	-4.804224196780266E-002	3.7061203E-005	-7.7155584E-001	0
1.5996246E+004	6.505019855190767E+001	-7.7345717E-001	-4.835241789931688E-002	3.7398524E-005	-7.7355576E-001	0
1.5943408E+004	6.525019854685524E+001	-7.7543175E-001	-4.863651231424404E-002	3.7714297E-005	-7.7555567E-001	0
1.5881042E+004	6.545019854180282E+001	-7.7738857E-001	-4.895072886820617E-002	3.8053739E-005	-7.7755547E-001	0
1.5810086E+004	6.565019853675039E+001	-7.7940035E-001	-4.929766674946312E-002	3.8422619E-005	-7.7955550E-001	0
1.5749523E+004	6.585019853169797E+001	-7.8144902E-001	-4.961731228628974E-002	3.8773400E-005	-7.8155535E-001	0
1.5659408E+004	6.605019852664554E+001	-7.8343505E-001	-5.002967099861877E-002	3.9194998E-005	-7.8355527E-001	0
1.5586135E+004	6.625019852159312E+001	-7.8543216E-001	-5.039300598666641E-002	3.9580289E-005	-7.8555518E-001	0
1.5492176E+004	6.645019851654070E+001	-7.8745294E-001	-5.082907333501230E-002	4.0025505E-005	-7.8755498E-001	0
1.5429460E+004	6.665019851148827E+001	-7.8940219E-001	-5.116201020500544E-002	4.0387404E-005	-7.8955495E-001	0
1.5314427E+004	6.685019850643585E+001	-7.9145503E-001	-5.168035527049242E-002	4.0902676E-005	-7.9155481E-001	0
1.5204833E+004	6.705019850138342E+001	-7.9343337E-001	-5.218297005113604E-002	4.1403709E-005	-7.9355478E-001	0
1.5098878E+004	6.725019849633100E+001	-7.9543293E-001	-5.268159231737013E-002	4.1904674E-005	-7.9555458E-001	0
1.4991911E+004	6.745019849127857E+001	-7.9742444E-001	-5.319031065355251E-002	4.2415253E-005	-7.9755461E-001	0
1.4895983E+004	6.765019848622615E+001	-7.9941583E-001	-5.366653578605093E-002	4.2901876E-005	-7.9955441E-001	0
1.4785911E+004	6.785019848117372E+001	-8.0141497E-001	-5.420125547327648E-002	4.3437696E-005	-8.0155438E-001	0
1.4666241E+004	6.805019847612130E+001	-8.0342335E-001	-5.478045210250726E-002	4.4011893E-005	-8.0355424E-001	0
1.4514545E+004	6.825019847106887E+001	-8.0536538E-001	-5.548678066997526E-002	4.4687131E-005	-8.0555409E-001	0
1.4392698E+004	6.845009846601897E+001	-8.0748332E-001	-5.610367708609859E-002	4.5302782E-005	-8.0755424E-001	0
1.4293152E+004	6.864999846096907E+001	-8.0941838E-001	-5.662979995736805E-002	4.5837201E-005	-8.0955392E-001	0
1.4101307E+004	6.884999845591665E+001	-8.1144255E-001	-5.754378569827678E-002	4.6693476E-005	-8.1155384E-001	0
1.3991795E+004	6.904999845086422E+001	-8.1342334E-001	-5.813573985497839E-002	4.7288966E-005	-8.1355363E-001	0
1.3833917E+004	6.924999844581180E+001	-8.1544602E-001	-5.894541823676880E-002	4.8066806E-005	-8.1555355E-001	0
1.3674922E+004	6.944999844075937E+001	-8.1740665E-001	-5.977413840982576E-002	4.8859780E-005	-8.1755346E-001	0
1.3550515E+004	6.964999843570695E+001	-8.1946498E-001	-6.047482460012879E-002	4.9557002E-005	-8.1955332E-001	0
1.3407537E+004	6.984999843065452E+001	-8.2146889E-001	-6.126918710500001E-002	5.0330731E-005	-8.2155335E-001	0
1.3232994E+004	7.004999842560210E+001	-8.2346416E-001	-6.222810467299622E-002	5.1242612E-005	-8.2355314E-001	0
1.3100708E+004	7.024999842054967E+001	-8.2538831E-001	-6.300333728897656E-002	5.2002219E-005	-8.2555306E-001	0
1.2948579E+004	7.044999841549725E+001	-8.2748532E-001	-6.390549334203266E-002	5.2880860E-005	-8.2755291E-001	0
1.2798678E+004	7.064999841044482E+001	-8.2942909E-001	-6.480584176449400E-002	5.3751850E-005	-8.2955283E-001	0
1.2629462E+004	7.084999840539240E+001	-8.3141994E-001	-6.583177875632384E-002	5.4733853E-005	-8.3155274E-001	0
1.2430512E+004	7.104999840033997E+001	-8.3342266E-001	-6.704653092119386E-002	5.5878099E-005	-8.3355254E-001	0
1.2284507E+004	7.124999839528755E+001	-8.3546603E-001	-6.800973426356335E-002	5.6819823E-005	-8.3555257E-001	0
1.2090674E+004	7.144999839023512E+001	-8.3745980E-001	-6.926494296756336E-002	5.8006604E-005	-8.3755243E-001	0
1.1897929E+004	7.164999838518270E+001	-8.3943772E-001	-7.055326654626426E-002	5.9225073E-005	-8.3955234E-001	0
1.1664233E+004	7.184999838013027E+001	-8.4144270E-001	-7.213870342081730E-002	6.0700586E-005	-8.4155220E-001	0
1.1415980E+004	7.204999837507785E+001	-8.4342688E-001	-7.388124574300989E-002	6.2313426E-005	-8.4355205E-001	0
1.1135915E+004	7.224989837002795E+001	-8.4541184E-001	-7.591758778648205E-002	6.4181630E-005	-8.4555137E-001	0
1.0860950E+004	7.244979836497805E+001	-8.4745318E-001	-7.802753684706487E-002	6.6124681E-005	-8.4755188E-001	0
1.0551993E+004	7.264979835992563E+001	-8.4946460E-001	-8.050276139484991E-002	6.8384245E-005	-8.4955186E-001	0
1.0245875E+004	7.284979835487320E+001	-8.5147727E-001	-8.310439990244167E-002	7.0761504E-005	-8.5155165E-001	0
9.8857822E+003	7.305979834956815E+001	-8.5356528E-001	-8.634271135792204E-002	7.3699142E-005	-8.5365164E-001	0
9.5534551E+003	7.326979834426311E+001	-8.5561806E-001	-8.956111104506359E-002	7.6630102E-005	-8.5575151E-001	0
9.3445020E+003	7.346979833921068E+001	-8.5761911E-001	-9.177793934782907E-002	7.8710516E-005	-8.5775131E-001	0
9.1955908E+003	7.366979833415826E+001	-8.5961694E-001	-9.348142443725349E-002	8.0358215E-005	-8.5975122E-001	0
9.0902939E+003	7.386979832910583E+001	-8.6166400E-001	-9.478945041111242E-002	8.1676655E-005	-8.6175114E-001	0
9.0199609E+003	7.406979832405341E+001	-8.6363280E-001	-9.574684132917000E-002	8.2690116E-005	-8.6375099E-001	0
8.9897676E+003	7.426979831900098E+001	-8.6562318E-001	-9.628982409304809E-002	8.3350700E-005	-8.6575091E-001	0
8.9708896E+003	7.446979831394856E+001	-8.6763787E-001	-9.671703728957022E-002	8.3915365E-005	-8.6775082E-001	0
8.9544990E+003	7.466979830889613E+001	-8.6963004E-001	-9.711654813561088E-002	8.4455467E-005	-8.6975074E-001	0
8.8893848E+003	7.486979830384371E+001	-8.7162918E-001	-9.805281314040082E-002	8.5465690E-005	-8.7175059E-001	0
8.8529639E+003	7.506979829879128E+001	-8.7361056E-001	-9.868000865683713E-002	8.6207896E-005	-8.7375051E-001	0
8.7540293E+003	7.526979829373886E+001	-8.7563550E-001	-1.000265721886371E-001	8.7586821E-005	-8.7575042E-001	0
8.6667021E+003	7.546979828868643E+001	-8.7759644E-001	-1.012607183436232E-001	8.8866043E-005	-8.7775022E-001	0
8.5400752E+003	7.566979828363401E+001	-8.7958091E-001	-1.029945199151872E-001	9.0592017E-005	-8.7975025E-001	0
8.4133477E+003	7.586979827858158E+001	-8.8159722E-001	-1.047855417398296E-001	9.2378643E-005	-8.8175005E-001	0
8.2633682E+003	7.606969827353169E+001	-8.8361508E-001	-1.069315822322541E-001	9.4486357E-005	-8.8374960E-001	0
8.0966426E+003	7.626959826848179E+001	-8.8563865E-001	-1.093834424803199E-001	9.6874202E-005	-8.8574982E-001	0
7.9175786E+003	7.646959826342936E+001	-8.8760966E-001	-1.121062031966082E-001	9.9506549E-005	-8.8774985E-001	0
7.7188286E+003	7.666959825837694E+001	-8.8961780E-001	-1.152529533838436E-001	1.0253108E-004	-8.8974965E-001	0
7.4803330E+003	7.686959825332451E+001	-8.9161777E-001	-1.191949306167832E-001	1.0627632E-004	-8.9174962E-001	0
7.2253545E+003	7.706959824827209E+001	-8.9357603E-001	-1.236722763974109E-001	1.1051058E-004	-8.9374948E-001	0
6.9427505E+003	7.726959824321966E+001	-8.9559668E-001	-1.289973861607568E-001	1.1552963E-004	-8.9574933E-001	0
6.6155859E+003	7.746959823816724E+001	-8.9763790E-001	-1.356853262569895E-001	1.2179629E-004	-8.9774925E-001	0
6.2844810E+003	7.766959823311481E+001	-8.9962608E-001	-1.431504156685472E-001	1.2878184E-004	-8.9974916E-001	0
5.9427183E+003	7.786959822806239E+001	-9.0160900E-001	-1.517166046672779E-001	1.3678905E-004	-9.0174907E-001	0
5.5706357E+003	7.806959822300996E+001	-9.0358049E-001	-1.622041919408043E-001	1.4656455E-004	-9.0374970E-001	0
5.2097188E+003	7.826959821795754E+001	-9.0563577E-001	-1.738358251454812E-001	1.5743195E-004	-9.0574980E-001	0
4.8486626E+003	7.846959821290511E+001	-9.0760911E-001	-1.871875084581831E-001	1.6989309E-004	-9.0774983E-001	0
4.4956484E+003	7.866959820785269E+001	-9.0961772E-001	-2.023329310913202E-001	1.8404562E-004	-9.0974975E-001	0
4.1590479E+003	7.886959820280026E+001	-9.1161978E-001	-2.191895343713863E-001	1.9981751E-004	-9.1174972E-001	0
3.8309021E+003	7.906959819774784E+001	-9.1362983E-001	-2.384894687847119E-001	2.1789109E-004	-9.1374981E-001	0
3.5252991E+003	7.926959819269541E+001	-9.1561764E-001	-2.597276534454358E-001	2.3781123E-004	-9.1574979E-001	0
3.2368850E+003	7.946959818764299E+001	-9.1762006E-001	-2.834886293710464E-001	2.6013487E-004	-9.1774970E-001	0
2.9225298E+003	7.966959818259056E+001	-9.1961670E-001	-3.146646012997688E-001	2.8937083E-004	-9.1974974E-001	0
2.6659011E+003	7.986959817753814E+001	-9.2164874E-001	-3.457175117606921E-001	3.1863010E-004	-9.2174971E-001	0
2.4539900E+003	8.006959817248571E+001	-9.2365557E-001	-3.763892883371533E-001	3.4765407E-004	-9.2374980E-001	0
2.2519846E+003	8.026959816743329E+001	-9.2563403E-001	-4.110303536065917E-001	3.8046369E-004	-9.2574978E-001	0
2.0623877E+003	8.046959816238086E+001	-9.2761582E-001	-4.497776193852623E-001	4.1722084E-004	-9.2774975E-001	0
1.8562682E+003	8.066959815732844E+001	-9.2962468E-001	-5.008030140607769E-001	4.6555884E-004	-9.2974973E-001	0
1.7177816E+003	8.086959815227601E+001	-9.3161714E-001	-5.423373485283927E-001	5.0525076E-004	-9.3174976E-001	0
1.5848207E+003	8.106959814722359E+001	-9.3358707E-001	-5.890805524754885E-001	5.4995797E-004	-9.3374979E-001	0
1.4335519E+003	8.126959814217116E+001	-9.3561590E-001	-6.526557826426482E-001	6.1063515E-004	-9.3574977E-001	0
1.3331880E+003	8.146959813711874E+001	-9.3759215E-001	-7.032707593912715E-001	6.5938116E-004	-9.3774974E-001	0
1.2339840E+003	8.166959813206631E+001	-9.3964338E-001	-7.614712592450852E-001	7.1551144E-004	-9.3974978E-001	0
1.1332067E+003	8.186959812701389E+001	-9.4159698E-001	-8.309137173791035E-001	7.8238588E-004	-9.4174981E-001	0
1.0595016E+003	8.206959812196146E+001	-9.4364583E-001	-8.906506978465298E-001	8.4045884E-004	-9.4374973E-001	0
9.7628333E+002	8.226959811690904E+001	-9.4563317E-001	-9.686052393413185E-001	9.1594527E-004	-9.4574970E-001	0
9.1710278E+002	8.246959811185661E+001	-9.4764036E-001	-1.033297856353101E+000	9.7919477E-004	-9.4774979E-001	0
8.4596899E+002	8.268959810629894E+001	-9.4982511E-001	-1.122765860200310E+000	1.0664312E-003	-9.4994974E-001	0
7.9876422E+002	8.288959810124652E+001	-9.5177656E-001	-1.191561368874819E+000	1.1341001E-003	-9.5194978E-001	0
7.4611548E+002	8.308959809619410E+001	-9.5377350E-001	-1.278318858572408E+000	1.2192266E-003	-9.5394981E-001	0
7.0747601E+002	8.328959809114167E+001	-9.5580834E-001	-1.351011671734099E+000	1.2913082E-003	-9.5594972E-001	0
6.6470978E+002	8.348959808608925E+001	-9.5782065E-001	-1.440960721254275E+000	1.3801820E-003	-9.5794976E-001	0
6.3212598E+002	8.368959808103682E+001	-9.5982295E-001	-1.518404480416217E+000	1.4573995E-003	-9.5994979E-001	0
5.9722748E+002	8.388959807598440E+001	-9.6182638E-001	-1.610485770247548E+000	1.5490077E-003	-9.6194983E-001	0
5.6869012E+002	8.408959807093197E+001	-9.6381706E-001	-1.694801814583831E+000	1.6334789E-003	-9.6394974E-001	0
5.4161646E+002	8.428959806587955E+001	-9.6582949E-001	-1.783235182415455E+000	1.7223011E-003	-9.6594971E-001	0
5.1603961E+002	8.448959806082712E+001	-9.6779549E-001	-1.875428618436633E+000	1.8150314E-003	-9.6794981E-001	0
4.9465839E+002	8.468959805577470E+001	-9.6978396E-001	-1.960512542281970E+000	1.9012736E-003	-9.6994978E-001	0
4.7191150E+002	8.488959805072227E+001	-9.7178090E-001	-2.059243996971865E+000	2.0011340E-003	-9.7194970E-001	0
4.5426843E+002	8.508959804566985E+001	-9.7381538E-001	-2.143700316767983E+000	2.0875684E-003	-9.7394985E-001	0
4.3554327E+002	8.528959804061742E+001	-9.7578889E-001	-2.240394871825533E+000	2.1861524E-003	-9.7594970E-001	0
4.1847717E+002	8.548959803556500E+001	-9.7779989E-001	-2.336566927093084E+000	2.2846949E-003	-9.7794980E-001	0
4.0393884E+002	8.568959803051257E+001	-9.7981781E-001	-2.425658764245824E+000	2.3767035E-003	-9.7994977E-001	0
3.8842828E+002	8.588959802546015E+001	-9.8178327E-001	-2.527579229519347E+000	2.4815351E-003	-9.8194975E-001	0
3.7538943E+002	8.608959802040772E+001	-9.8377556E-001	-2.620679850903365E+000	2.5781607E-003	-9.8394984E-001	0
3.6273889E+002	8.628959801535530E+001	-9.8579931E-001	-2.717655470075254E+000	2.6790630E-003	-9.8594975E-001	0
3.5040768E+002	8.648959801030287E+001	-9.8781031E-001	-2.819031515815499E+000	2.7846685E-003	-9.8794979E-001	0
3.3964664E+002	8.668959800525045E+001	-9.8984075E-001	-2.914325049590502E+000	2.8847177E-003	-9.8994976E-001	0
3.2895764E+002	8.688959800019802E+001	-9.9175572E-001	-3.014843106016400E+000	2.9899878E-003	-9.9194974E-001	0
3.1865930E+002	8.708959799514560E+001	-9.9380487E-001	-3.118706489940621E+000	3.0993856E-003	-9.9394977E-001	0
3.0962027E+002	8.728959799009317E+001	-9.9581462E-001	-3.216244827457587E+000	3.2027836E-003	-9.9594980E-001	0
3.0055771E+002	8.748959798504075E+001	-9.9779707E-001	-3.319818661022353E+000	3.3125053E-003	-9.9794972E-001	0
2.9203156E+002	8.768959797998832E+001	-9.9982297E-001	-3.423681218033476E+000	3.4230752E-003	-9.9994969E-001	0
2.8396796E+002	8.788959797493590E+001	-1.0018128E+000	-3.527908032950080E+000	3.5343035E-003	-1.0019498E+000	0
2.7636264E+002	8.808959796988347E+001	-1.0037680E+000	-3.632068322730717E+000	3.6457537E-003	-1.0039498E+000	0
2.6885687E+002	8.828959796483105E+001	-1.0058053E+000	-3.741043285954579E+000	3.7627609E-003	-1.0059497E+000	0
2.6203342E+002	8.848959795977862E+001	-1.0077721E+000	-3.845967745260582E+000	3.8758588E-003	-1.0079497E+000	0
2.5542046E+002	8.868959795472620E+001	-1.0097988E+000	-3.953476433006538E+000	3.9922157E-003	-1.0099497E+000	0
2.4868401E+002	8.888959794967377E+001	-1.0117972E+000	-4.068605762118636E+000	4.1166041E-003	-1.0119498E+000	0
2.4250584E+002	8.908959794462135E+001	-1.0138018E+000	-4.180525161342828E+000	4.2382241E-003	-1.0139498E+000	0
2.3684724E+002	8.928959793956892E+001	-1.0157900E+000	-4.288797881699216E+000	4.3565179E-003	-1.0159497E+000	0
2.3103352E+002	8.948959793451650E+001	-1.0178005E+000	-4.405423241204964E+000	4.4838418E-003	-1.0179497E+000	0
2.2531721E+002	8.968959792946407E+001	-1.0197970E+000	-4.526050035104731E+000	4.6156519E-003	-1.0199498E+000	0
2.1993936E+002	8.988959792441165E+001	-1.0218246E+000	-4.645937906100909E+000	4.7473335E-003	-1.0219498E+000	0
2.1490097E+002	9.008959791935922E+001	-1.0238148E+000	-4.764123560721387E+000	4.8775803E-003	-1.0239499E+000	0
2.1005571E+002	9.028959791430680E+001	-1.0257968E+000	-4.883451073685997E+000	5.0094281E-003	-1.0259497E+000	0
2.0512068E+002	9.048959790925437E+001	-1.0277947E+000	-5.010682996370889E+000	5.1499535E-003	-1.0279498E+000	0
2.0039745E+002	9.068959790420195E+001	-1.0298682E+000	-5.139128536729302E+000	5.2926252E-003	-1.0299498E+000	0
1.9589919E+002	9.088959789914952E+001	-1.0318581E+000	-5.267291496366322E+000	5.4350975E-003	-1.0319498E+000	0
1.9156398E+002	9.108959789409710E+001	-1.0338330E+000	-5.396802764225441E+000	5.5793929E-003	-1.0339497E+000	0
1.8736380E+002	9.128959788904467E+001	-1.0358354E+000	-5.528471358677955E+000	5.7265861E-003	-1.0359498E+000	0
1.8314082E+002	9.148959788399225E+001	-1.0378368E+000	-5.666878436326712E+000	5.8812951E-003	-1.0379497E+000	0
1.7918434E+002	9.168959787893982E+001	-1.0398277E+000	-5.803116984952595E+000	6.0342420E-003	-1.0399497E+000	0
1.7522926E+002	9.188959787388740E+001	-1.0418322E+000	-5.945537951933268E+000	6.1942530E-003	-1.0419497E+000	0
1.7132205E+002	9.208959786883497E+001	-1.0438452E+000	-6.092882744646928E+000	6.3600261E-003	-1.0439498E+000	0
1.6756126E+002	9.228959786378255E+001	-1.0458138E+000	-6.241381451690245E+000	6.5273228E-003	-1.0459498E+000	0
1.6395874E+002	9.248959785873012E+001	-1.0478166E+000	-6.390733836324330E+000	6.6963173E-003	-1.0479498E+000	0
1.6043147E+002	9.268959785367770E+001	-1.0498003E+000	-6.543605498783705E+000	6.8694791E-003	-1.0499498E+000	0
1.5693263E+002	9.288959784862527E+001	-1.0518056E+000	-6.702274914569067E+000	7.0494902E-003	-1.0519499E+000	0
1.5355803E+002	9.308959784357285E+001	-1.0538365E+000	-6.862790046027456E+000	7.2322586E-003	-1.0539498E+000	0
1.5031035E+002	9.328959783852042E+001	-1.0558209E+000	-7.024273479944462E+000	7.4163750E-003	-1.0559498E+000	0
1.4709470E+002	9.348959783346800E+001	-1.0578229E+000	-7.191441606231827E+000	7.6072719E-003	-1.0579498E+000	0
1.4396193E+002	9.368959782841557E+001	-1.0598245E+000	-7.361838561539741E+000	7.8022568E-003	-1.0599496E+000	0
1.4091409E+002	9.388959782336315E+001	-1.0618401E+000	-7.535371548599699E+000	8.0013592E-003	-1.0619498E+000	0
1.3789543E+002	9.408959781831072E+001	-1.0638372E+000	-7.714811059420327E+000	8.2073025E-003	-1.0639498E+000	0
1.3499120E+002	9.428959781325830E+001	-1.0658484E+000	-7.895688058567655E+000	8.4156059E-003	-1.0659497E+000	0
1.3211612E+002	9.448959780820587E+001	-1.0678455E+000	-8.082628304320441E+000	8.6309984E-003	-1.0679498E+000	0
1.2926390E+002	9.468959780315345E+001	-1.0698508E+000	-8.276485272140448E+000	8.8546043E-003	-1.0699497E+000	0
1.2653639E+002	9.488959779810102E+001	-1.0718169E+000	-8.470424349683725E+000	9.0787439E-003	-1.0719498E+000	0
1.2386583E+002	9.508959779304860E+001	-1.0738590E+000	-8.669533507623854E+000	9.3098562E-003	-1.0739498E+000	0
1.2119524E+002	9.528959778799617E+001	-1.0758281E+000	-8.876817853069639E+000	9.5499298E-003	-1.0759497E+000	0
1.1863895E+002	9.548959778294375E+001	-1.0778244E+000	-9.084911184719104E+000	9.7919386E-003	-1.0779498E+000	0
1.1608189E+002	9.568959777789132E+001	-1.0798343E+000	-9.302349421240081E+000	1.0044997E-002	-1.0799497E+000	0
1.1353645E+002	9.588959777283890E+001	-1.0818437E+000	-9.528602300182172E+000	1.0308458E-002	-1.0819497E+000	0
1.1111985E+002	9.608959776778647E+001	-1.0838493E+000	-9.753876974590810E+000	1.0571733E-002	-1.0839498E+000	0
1.0865234E+002	9.628959776273405E+001	-1.0858430E+000	-9.993738182480360E+000	1.0851630E-002	-1.0859498E+000	0
1.0630901E+002	9.648959775768162E+001	-1.0878335E+000	-1.023275019921149E+001	1.1131529E-002	-1.0879498E+000	0
1.0399493E+002	9.668959775262920E+001	-1.0898744E+000	-1.048007210305213E+001	1.1421962E-002	-1.0899497E+000	0
1.0170341E+002	9.688959774757677E+001	-1.0918338E+000	-1.073546868434299E+001	1.1721347E-002	-1.0919498E+000	0
9.9225319E+001	9.709959774227173E+001	-1.0939103E+000	-1.102450775443293E+001	1.2059823E-002	-1.0940498E+000	0
9.6847076E+001	9.730959773696668E+001	-1.0960169E+000	-1.131698456548509E+001	1.2403606E-002	-1.0961497E+000	0
9.4788589E+001	9.750959773191425E+001	-1.0979763E+000	-1.158342333540082E+001	1.2718325E-002	-1.0981498E+000	0
9.2702042E+001	9.770959772686183E+001	-1.1000295E+000	-1.186629133233950E+001	1.3053270E-002	-1.1001498E+000	0
9.0649521E+001	9.790959772180940E+001	-1.1019906E+000	-1.215660670088805E+001	1.3396466E-002	-1.1021497E+000	0
8.8673050E+001	9.810959771675698E+001	-1.1040094E+000	-1.245033687312582E+001	1.3745288E-002	-1.1041498E+000	0
8.6732162E+001	9.830959771170456E+001	-1.1060131E+000	-1.275205208087451E+001	1.4103936E-002	-1.1061498E+000	0
8.4847145E+001	9.850959770665213E+001	-1.1080102E+000	-1.305889738633249E+001	1.4469391E-002	-1.1081498E+000	0
8.3065773E+001	9.870959770159971E+001	-1.1100088E+000	-1.336301105133259E+001	1.4833060E-002	-1.1101497E+000	0
8.1254753E+001	9.890959769654728E+001	-1.1119912E+000	-1.368524464687798E+001	1.5217871E-002	-1.1121498E+000	0
7.9509918E+001	9.910959769149486E+001	-1.1140288E+000	-1.401119362821385E+001	1.5608873E-002	-1.1141498E+000	0
7.7815025E+001	9.930959768644243E+001	-1.1160265E+000	-1.434204356145972E+001	1.6006101E-002	-1.1161498E+000	0
7.6130554E+001	9.950959768139001E+001	-1.1180364E+000	-1.468577735102372E+001	1.6419234E-002	-1.1181498E+000	0
7.4487686E+001	9.970959767633758E+001	-1.1199684E+000	-1.503561868243202E+001	1.6839419E-002	-1.1201497E+000	0
7.2872597E+001	9.990959767128516E+001	-1.1220111E+000	-1.539688534139239E+001	1.7275475E-002	-1.1221498E+000	0
7.1247383E+001	1.001095976662327E+002	-1.1240060E+000	-1.577610272060991E+001	1.7732434E-002	-1.1241498E+000	0
6.9712929E+001	1.003095976611803E+002	-1.1260154E+000	-1.615217457701567E+001	1.8187597E-002	-1.1261498E+000	0
6.8175095E+001	1.005095976561279E+002	-1.1279718E+000	-1.654521775840360E+001	1.8662538E-002	-1.1281497E+000	0
6.6682404E+001	1.007095976510755E+002	-1.1299751E+000	-1.694562592852418E+001	1.9148136E-002	-1.1301498E+000	0
6.5217484E+001	1.009095976460230E+002	-1.1320250E+000	-1.735769277838082E+001	1.9649342E-002	-1.1321498E+000	0
6.3724598E+001	1.011095976409706E+002	-1.1340574E+000	-1.779622686476935E+001	2.0181943E-002	-1.1341498E+000	0
6.2314896E+001	1.013095976359182E+002	-1.1360422E+000	-1.823066872696205E+001	2.0710809E-002	-1.1361498E+000	0
6.0941360E+001	1.015095976308658E+002	-1.1379675E+000	-1.867315549293619E+001	2.1249443E-002	-1.1381497E+000	0
5.9631012E+001	1.017095976258133E+002	-1.1400206E+000	-1.911791472897232E+001	2.1794816E-002	-1.1401498E+000	0
5.8329327E+001	1.019095976207609E+002	-1.1420164E+000	-1.957876945650223E+001	2.2359276E-002	-1.1421498E+000	0
5.6989174E+001	1.021095976157085E+002	-1.1440103E+000	-2.007416862830547E+001	2.2965055E-002	-1.1441498E+000	0
5.5732330E+001	1.023095976106561E+002	-1.1460475E+000	-2.056342300752404E+001	2.3566660E-002	-1.1461498E+000	0
5.4528774E+001	1.025095976056036E+002	-1.1479989E+000	-2.105308563571401E+001	2.4168920E-002	-1.1481496E+000	0
5.3346012E+001	1.027095976005512E+002	-1.1499717E+000	-2.155684464521149E+001	2.4789762E-002	-1.1501498E+000	0
5.2223957E+001	1.029095975954988E+002	-1.1520450E+000	-2.205970432144716E+001	2.5413772E-002	-1.1521498E+000	0
5.1081791E+001	1.031095975904464E+002	-1.1539758E+000	-2.259074690160833E+001	2.6069175E-002	-1.1541499E+000	0
4.9960548E+001	1.033095975853939E+002	-1.1559649E+000	-2.313755261749372E+001	2.6746197E-002	-1.1561497E+000	0
4.8827522E+001	1.035095975803415E+002	-1.1579733E+000	-2.371558650645557E+001	2.7462015E-002	-1.1581497E+000	0
4.7745083E+001	1.037095975752891E+002	-1.1599842E+000	-2.429536466128155E+001	2.8182240E-002	-1.1601498E+000	0
4.6724056E+001	1.039095975702367E+002	-1.1620015E+000	-2.486944792681534E+001	2.8898336E-002	-1.1621498E+000	0
4.5666470E+001	1.041095975651842E+002	-1.1639997E+000	-2.548915338867636E+001	2.9669367E-002	-1.1641498E+000	0
4.4651939E+001	1.043095975601318E+002	-1.1660219E+000	-2.611357830927750E+001	3.0449005E-002	-1.1661497E+000	0
4.3648293E+001	1.045095975550794E+002	-1.1680009E+000	-2.675937382623448E+001	3.1254973E-002	-1.1681497E+000	0
4.2682846E+001	1.047095975500270E+002	-1.1700244E+000	-2.741205127358160E+001	3.2072768E-002	-1.1701497E+000	0
4.1777069E+001	1.049095975449745E+002	-1.1720026E+000	-2.805372757976545E+001	3.2879040E-002	-1.1721498E+000	0
4.0860664E+001	1.051095975399221E+002	-1.1740023E+000	-2.873184411947409E+001	3.3731252E-002	-1.1741498E+000	0
3.9921158E+001	1.053095975348697E+002	-1.1759611E+000	-2.945708923653416E+001	3.4640390E-002	-1.1761497E+000	0
3.9029102E+001	1.055095975298173E+002	-1.1780254E+000	-3.018325492881593E+001	3.5556640E-002	-1.1781497E+000	0
3.8140327E+001	1.057095975247648E+002	-1.1800023E+000	-3.093844313902662E+001	3.6507435E-002	-1.1801498E+000	0
3.7302353E+001	1.059095975197124E+002	-1.1820136E+000	-3.168737534060233E+001	3.7454911E-002	-1.1821499E+000	0
3.6441113E+001	1.061095975146600E+002	-1.1840413E+000	-3.249190923956789E+001	3.8471762E-002	-1.1841497E+000	0
3.5565212E+001	1.063095975096076E+002	-1.1859826E+000	-3.334670177446736E+001	3.9548609E-002	-1.1861497E+000	0
3.4719929E+001	1.065095975045551E+002	-1.1880751E+000	-3.421882119173370E+001	4.0654529E-002	-1.1881498E+000	0
3.3972652E+001	1.067095974995027E+002	-1.1900885E+000	-3.503077797094988E+001	4.1689727E-002	-1.1901498E+000	0
3.3265068E+001	1.069095974944503E+002	-1.1920925E+000	-3.583616725414532E+001	4.2720027E-002	-1.1921498E+000	0
3.2528854E+001	1.071095974893979E+002	-1.1940606E+000	-3.670773702332765E+001	4.3831263E-002	-1.1941497E+000	0
3.1791090E+001	1.073095974843454E+002	-1.1960970E+000	-3.762365596067332E+001	4.5001544E-002	-1.1961498E+000	0
3.1095728E+001	1.075095974792930E+002	-1.1981039E+000	-3.852953438396639E+001	4.6162385E-002	-1.1981497E+000	0
3.0372911E+001	1.077095974742406E+002	-1.2000883E+000	-3.951179550483380E+001	4.7417641E-002	-1.2001498E+000	0
2.9664316E+001	1.079095974691882E+002	-1.2020559E+000	-4.052195016786351E+001	4.8709650E-002	-1.2021497E+000	0
2.8943777E+001	1.081095974641357E+002	-1.2041016E+000	-4.160139743135630E+001	5.0092306E-002	-1.2041498E+000	0
2.8285751E+001	1.083095974590833E+002	-1.2060502E+000	-4.263808116404670E+001	5.1423665E-002	-1.2061498E+000	0
2.7584909E+001	1.085095974540309E+002	-1.2081008E+000	-4.379571251885420E+001	5.2909635E-002	-1.2081498E+000	0
2.6906998E+001	1.087095974489785E+002	-1.2101316E+000	-4.497460581791370E+001	5.4425195E-002	-1.2101498E+000	0
2.6244028E+001	1.089095974439260E+002	-1.2120442E+000	-4.618361913455044E+001	5.5976588E-002	-1.2121499E+000	0
2.5624172E+001	1.091095974388736E+002	-1.2140889E+000	-4.738061181569040E+001	5.7524275E-002	-1.2141498E+000	0
2.5068630E+001	1.093095974338212E+002	-1.2160729E+000	-4.850974772468453E+001	5.8991391E-002	-1.2161497E+000	0
2.4496880E+001	1.095095974287688E+002	-1.2181258E+000	-4.972575517900941E+001	6.0572226E-002	-1.2181498E+000	0
2.3828423E+001	1.097095974237163E+002	-1.2200609E+000	-5.120191980651717E+001	6.2469464E-002	-1.2201498E+000	0
2.3215540E+001	1.099095974186639E+002	-1.2220645E+000	-5.263993569999070E+001	6.4329393E-002	-1.2221498E+000	0
2.2721682E+001	1.101095974136115E+002	-1.2240626E+000	-5.387200676124394E+001	6.5942705E-002	-1.2241498E+000	0
2.2253735E+001	1.103095974085591E+002	-1.2261415E+000	-5.509823422691454E+001	6.7558229E-002	-1.2261497E+000	0
2.1811331E+001	1.105095974035066E+002	-1.2280605E+000	-5.630378649942980E+001	6.9144458E-002	-1.2281498E+000	0
2.1378672E+001	1.107095973984542E+002	-1.2300906E+000	-5.753821418290761E+001	7.0777215E-002	-1.2301497E+000	0
2.0958067E+001	1.109095973934018E+002	-1.2320727E+000	-5.878751484985514E+001	7.2430491E-002	-1.2321498E+000	0
2.0528839E+001	1.111095973883494E+002	-1.2340665E+000	-6.011379561078246E+001	7.4184418E-002	-1.2341498E+000	0
2.0098442E+001	1.113095973832969E+002	-1.2360792E+000	-6.150124450011020E+001	7.6020412E-002	-1.2361498E+000	0
1.9668457E+001	1.115095973782445E+002	-1.2381250E+000	-6.294977716848121E+001	7.7939689E-002	-1.2381496E+000	0
1.9302822E+001	1.117095973731921E+002	-1.2400490E+000	-6.424185291115134E+001	7.9663046E-002	-1.2401499E+000	0
1.8959066E+001	1.119095973681397E+002	-1.2421199E+000	-6.551587940668082E+001	8.1378579E-002	-1.2421498E+000	0
1.8570642E+001	1.121095973630872E+002	-1.2441112E+000	-6.699344025771916E+001	8.3347291E-002	-1.2441497E+000	0
1.8231861E+001	1.123095973580348E+002	-1.2460787E+000	-6.834621584388424E+001	8.5164763E-002	-1.2461498E+000	0
1.7865376E+001	1.125095973529824E+002	-1.2480675E+000	-6.985957186292364E+001	8.7189458E-002	-1.2481498E+000	0
1.7531052E+001	1.127095973479300E+002	-1.2500620E+000	-7.130558887684992E+001	8.9136407E-002	-1.2501498E+000	0
1.7179903E+001	1.129095973428775E+002	-1.2520818E+000	-7.288061024921012E+001	9.1252483E-002	-1.2521498E+000	0
1.6799322E+001	1.131095973378251E+002	-1.2540700E+000	-7.465004095523000E+001	9.3616381E-002	-1.2541498E+000	0
1.6435911E+001	1.133095973327727E+002	-1.2560925E+000	-7.642366211322428E+001	9.5995195E-002	-1.2561498E+000	0
1.6091297E+001	1.135095973277203E+002	-1.2581303E+000	-7.818700531875197E+001	9.8369442E-002	-1.2581497E+000	0
1.5802747E+001	1.137095973226678E+002	-1.2600877E+000	-7.973852397471035E+001	1.0047754E-001	-1.2601497E+000	0
1.5436174E+001	1.139095973176154E+002	-1.2621201E+000	-8.176378835463993E+001	1.0319572E-001	-1.2621498E+000	0
1.5174335E+001	1.141095973125630E+002	-1.2641186E+000	-8.330635596132606E+001	1.0530911E-001	-1.2641498E+000	0
1.4919908E+001	1.143095973075106E+002	-1.2661189E+000	-8.486103934333426E+001	1.0744417E-001	-1.2661498E+000	0
1.4679254E+001	1.145095973024581E+002	-1.2680876E+000	-8.638638548948370E+001	1.0954551E-001	-1.2681497E+000	0
1.4414967E+001	1.147095972974057E+002	-1.2700924E+000	-8.810928474099751E+001	1.1190693E-001	-1.2701498E+000	0
1.4119406E+001	1.149095972923533E+002	-1.2720984E+000	-9.009574587923589E+001	1.1461066E-001	-1.2721498E+000	0
1.3898036E+001	1.151095972873009E+002	-1.2741046E+000	-9.167515513902356E+001	1.1680374E-001	-1.2741498E+000	0
1.3506140E+001	1.153095972822484E+002	-1.2761031E+000	-9.448318821610792E+001	1.2057029E-001	-1.2761497E+000	0
1.3292422E+001	1.155095972771960E+002	-1.2781249E+000	-9.615440345188935E+001	1.2289734E-001	-1.2781497E+000	0
1.3077395E+001	1.157095972721436E+002	-1.2801025E+000	-9.788665384878686E+001	1.2530495E-001	-1.2801498E+000	0
1.2816413E+001	1.159095972670912E+002	-1.2821498E+000	-1.000396769522540E+002	1.2826586E-001	-1.2821498E+000	0
1.2622484E+001	1.161095972620387E+002	-1.2841300E+000	-1.017335390666181E+002	1.3063909E-001	-1.2841498E+000	0
1.2446716E+001	1.163095972569863E+002	-1.2860838E+000	-1.033271600491876E+002	1.3288739E-001	-1.2861497E+000	0
1.2207471E+001	1.165095972519339E+002	-1.2881125E+000	-1.055183739802737E+002	1.3591954E-001	-1.2881498E+000	0
1.1987724E+001	1.167095972468815E+002	-1.2901175E+000	-1.076198818797160E+002	1.3884230E-001	-1.2901498E+000	0
1.1773565E+001	1.169195972415764E+002	-1.2921976E+000	-1.097541465019690E+002	1.4182404E-001	-1.2922499E+000	0
1.1499600E+001	1.171295972362714E+002	-1.2942927E+000	-1.125510984786251E+002	1.4567406E-001	-1.2943498E+000	0
1.1261949E+001	1.173295972312189E+002	-1.2962935E+000	-1.151038411101520E+002	1.4920837E-001	-1.2963498E+000	0
1.0969743E+001	1.175295972261665E+002	-1.2982517E+000	-1.183484261603580E+002	1.5364605E-001	-1.2983497E+000	0
1.0771187E+001	1.177295972211141E+002	-1.3003147E+000	-1.207215745454475E+002	1.5697603E-001	-1.3003498E+000	0
1.0527501E+001	1.179295972160617E+002	-1.3022501E+000	-1.236998394784478E+002	1.6108814E-001	-1.3023498E+000	0
1.0343866E+001	1.181295972110092E+002	-1.3042489E+000	-1.260891082000303E+002	1.6445158E-001	-1.3043498E+000	0
1.0193761E+001	1.183295972059568E+002	-1.3062629E+000	-1.281433720761685E+002	1.6738893E-001	-1.3063498E+000	0
1.0030419E+001	1.185295972009044E+002	-1.3083010E+000	-1.304333291713333E+002	1.7064606E-001	-1.3083498E+000	0
9.9026079E+000	1.187295971958520E+002	-1.3102655E+000	-1.323151969033847E+002	1.7336804E-001	-1.3103498E+000	0
9.7555094E+000	1.189295971907995E+002	-1.3122908E+000	-1.345179132820525E+002	1.7652662E-001	-1.3123499E+000	0
9.6357250E+000	1.191295971857471E+002	-1.3142750E+000	-1.363960710782853E+002	1.7926195E-001	-1.3143498E+000	0
9.5320969E+000	1.193295971806947E+002	-1.3162459E+000	-1.380856667311018E+002	1.8175469E-001	-1.3163497E+000	0
9.3924541E+000	1.195295971756423E+002	-1.3182453E+000	-1.403515350121220E+002	1.8501775E-001	-1.3183497E+000	0
9.2243338E+000	1.197295971705898E+002	-1.3203096E+000	-1.431333289092358E+002	1.8898031E-001	-1.3203498E+000	0
9.1214609E+000	1.199295971655374E+002	-1.3222890E+000	-1.449646134419777E+002	1.9168511E-001	-1.3223498E+000	0
8.9600420E+000	1.201295971604850E+002	-1.3243185E+000	-1.478027201120547E+002	1.9573788E-001	-1.3243498E+000	0
8.8501253E+000	1.203295971554326E+002	-1.3262658E+000	-1.498584185965751E+002	1.9875209E-001	-1.3263497E+000	0
8.7351980E+000	1.205295971503801E+002	-1.3282725E+000	-1.520597961051660E+002	2.0197684E-001	-1.3283497E+000	0
8.6133032E+000	1.207295971453277E+002	-1.3302667E+000	-1.544432677357642E+002	2.0545074E-001	-1.3303498E+000	0
8.5151825E+000	1.209295971402753E+002	-1.3322605E+000	-1.564570735717305E+002	2.0844157E-001	-1.3323499E+000	0
8.4360952E+000	1.211295971352229E+002	-1.3343323E+000	-1.581694313252592E+002	2.1105058E-001	-1.3343500E+000	0
8.3396330E+000	1.213295971301704E+002	-1.3362476E+000	-1.602285893044507E+002	2.1410505E-001	-1.3363498E+000	0
8.2482643E+000	1.215295971251180E+002	-1.3382590E+000	-1.622473449955718E+002	2.1712896E-001	-1.3383497E+000	0
8.1887579E+000	1.217295971200656E+002	-1.3403064E+000	-1.636763937467890E+002	2.1937652E-001	-1.3403498E+000	0
8.0356636E+000	1.219295971150132E+002	-1.3423142E+000	-1.670446129061461E+002	2.2422637E-001	-1.3423498E+000	0
7.9250960E+000	1.221295971099607E+002	-1.3442928E+000	-1.696247875728311E+002	2.2802538E-001	-1.3443497E+000	0
7.8525515E+000	1.223295971049083E+002	-1.3462920E+000	-1.714464452953293E+002	2.3081698E-001	-1.3463497E+000	0
7.7518730E+000	1.225295970998559E+002	-1.3483387E+000	-1.739371535675327E+002	2.3452620E-001	-1.3483497E+000	0
7.6645713E+000	1.227295970948035E+002	-1.3502839E+000	-1.761721369274080E+002	2.3788239E-001	-1.3503498E+000	0
7.6098332E+000	1.229295970897510E+002	-1.3522962E+000	-1.777037947215722E+002	2.4030817E-001	-1.3523498E+000	0
7.5350156E+000	1.231295970846986E+002	-1.3542825E+000	-1.797318788147841E+002	2.4340774E-001	-1.3543497E+000	0
7.4766884E+000	1.233295970796462E+002	-1.3563135E+000	-1.814056461641303E+002	2.4604292E-001	-1.3563497E+000	0
7.3477397E+000	1.235295970745938E+002	-1.3582826E+000	-1.848572031613649E+002	2.5108832E-001	-1.3583498E+000	0
7.2822618E+000	1.237295970695413E+002	-1.3603163E+000	-1.867986000043734E+002	2.5410518E-001	-1.3603498E+000	0
7.1753116E+000	1.239295970644889E+002	-1.3623170E+000	-1.898617125357630E+002	2.5865182E-001	-1.3623497E+000	0
7.0641084E+000	1.241295970594365E+002	-1.3643006E+000	-1.931313295677953E+002	2.6348919E-001	-1.3643498E+000	0
6.9501567E+000	1.243295970543841E+002	-1.3663408E+000	-1.965913602359706E+002	2.6861078E-001	-1.3663498E+000	0
6.8554249E+000	1.245295970493316E+002	-1.3683056E+000	-1.995945635815065E+002	2.7310637E-001	-1.3683498E+000	0
6.7989645E+000	1.247295970442792E+002	-1.3703244E+000	-2.015489759683069E+002	2.7618748E-001	-1.3703498E+000	0
6.7361574E+000	1.249295970392268E+002	-1.3723373E+000	-2.037270243832859E+002	2.7958220E-001	-1.3723499E+000	0
6.6716352E+000	1.251295970341744E+002	-1.3743215E+000	-2.059946959662061E+002	2.8310293E-001	-1.3743498E+000	0
6.3847361E+000	1.253295970291219E+002	-1.3762943E+000	-2.155600826886234E+002	2.9667410E-001	-1.3763498E+000	0
6.3454404E+000	1.255295970240695E+002	-1.3782951E+000	-2.172103024134558E+002	2.9937989E-001	-1.3783498E+000	0
6.2291985E+000	1.257295970190171E+002	-1.3803409E+000	-2.215920562398135E+002	3.0587259E-001	-1.3803499E+000	0
6.1746869E+000	1.259296970139621E+002	-1.3823184E+000	-2.238685803372764E+002	3.0945766E-001	-1.3823506E+000	0
6.1230412E+000	1.261298970089047E+002	-1.3843509E+000	-2.260887853577515E+002	3.1298622E-001	-1.3843526E+000	0
6.0689301E+000	1.263299970038497E+002	-1.3863420E+000	-2.284326854303581E+002	3.1668583E-001	-1.3863537E+000	0
6.0280719E+000	1.265299969987973E+002	-1.3883603E+000	-2.303158019383745E+002	3.1976131E-001	-1.3883537E+000	0
6.0149860E+000	1.267302969937373E+002	-1.3903775E+000	-2.311522410924699E+002	3.2138887E-001	-1.3903561E+000	0
5.9790554E+000	1.269306969886748E+002	-1.3923397E+000	-2.328695110797189E+002	3.2423347E-001	-1.3923607E+000	0
5.9602232E+000	1.271307969836198E+002	-1.3943572E+000	-2.339437866037931E+002	3.2620120E-001	-1.3943619E+000	0
5.9034042E+000	1.273307969785674E+002	-1.3963321E+000	-2.365299894415066E+002	3.3027443E-001	-1.3963618E+000	0
5.8187628E+000	1.275307969735150E+002	-1.3983524E+000	-2.403178174349728E+002	3.3604899E-001	-1.3983618E+000	0
5.7612224E+000	1.277308969684600E+002	-1.4003798E+000	-2.430699033232720E+002	3.4039018E-001	-1.4003626E+000	0
5.7434268E+000	1.279309969634051E+002	-1.4023455E+000	-2.441652932502248E+002	3.4240410E-001	-1.4023638E+000	0
5.7232757E+000	1.281309969583526E+002	-1.4043267E+000	-2.453711418099952E+002	3.4458125E-001	-1.4043639E+000	0
5.6503510E+000	1.283309969533002E+002	-1.4063733E+000	-2.489001592670697E+002	3.5004652E-001	-1.4063637E+000	0
5.6284375E+000	1.285311969482427E+002	-1.4083425E+000	-2.502190924154329E+002	3.5239416E-001	-1.4083652E+000	0
5.6133442E+000	1.287317969431751E+002	-1.4103811E+000	-2.512550452125051E+002	3.5436535E-001	-1.4103712E+000	0
5.5774255E+000	1.289319969381177E+002	-1.4123636E+000	-2.532286007204293E+002	3.5765088E-001	-1.4123738E+000	0
5.5335007E+000	1.291319969330652E+002	-1.4143548E+000	-2.555985536618568E+002	3.6150703E-001	-1.4143738E+000	0
5.4233599E+000	1.293319969280128E+002	-1.4163976E+000	-2.611660783015136E+002	3.6991501E-001	-1.4163738E+000	0
5.3732710E+000	1.295321969229553E+002	-1.4183464E+000	-2.639633217215769E+002	3.7439144E-001	-1.4183751E+000	0
5.3527174E+000	1.297323969178979E+002	-1.4203591E+000	-2.653529121286469E+002	3.7689644E-001	-1.4203779E+000	0
5.2993913E+000	1.299323969128454E+002	-1.4223373E+000	-2.683963420028877E+002	3.8175014E-001	-1.4223777E+000	0
5.2151780E+000	1.301324969077905E+002	-1.4243392E+000	-2.731141969259400E+002	3.8900724E-001	-1.4243785E+000	0
5.1732912E+000	1.303326969027330E+002	-1.4263673E+000	-2.757175804561075E+002	3.9327455E-001	-1.4263806E+000	0
5.1632047E+000	1.305327968976781E+002	-1.4283986E+000	-2.766496314959195E+002	3.9516595E-001	-1.4283817E+000	0
5.1135769E+000	1.307327968926256E+002	-1.4303771E+000	-2.797214576327606E+002	4.0010718E-001	-1.4303818E+000	0
5.0481777E+000	1.309327968875732E+002	-1.4323283E+000	-2.837317606002562E+002	4.0639704E-001	-1.4323817E+000	0
5.0315962E+000	1.311327968825208E+002	-1.4343910E+000	-2.850767490209630E+002	4.0891153E-001	-1.4343817E+000	0
5.0252295E+000	1.313328968774658E+002	-1.4363889E+000	-2.858354872960008E+002	4.1057092E-001	-1.4363827E+000	0
5.0083423E+000	1.315330968724084E+002	-1.4383754E+000	-2.871958891326690E+002	4.1309547E-001	-1.4383845E+000	0
4.9572592E+000	1.317332968673509E+002	-1.4403899E+000	-2.905617442222415E+002	4.1852218E-001	-1.4403865E+000	0
4.9341474E+000	1.319334968622934E+002	-1.4423980E+000	-2.923297201509686E+002	4.2165580E-001	-1.4423885E+000	0
4.9364152E+000	1.321335968572384E+002	-1.4443578E+000	-2.925924444112111E+002	4.2260817E-001	-1.4443897E+000	0
4.9302788E+000	1.323337968521810E+002	-1.4463738E+000	-2.933655369557923E+002	4.2431623E-001	-1.4463913E+000	0
4.8966541E+000	1.325339968471235E+002	-1.4483994E+000	-2.957936979799849E+002	4.2842743E-001	-1.4483938E+000	0
4.7988796E+000	1.327341968420660E+002	-1.4504472E+000	-3.022470436594062E+002	4.3839338E-001	-1.4503953E+000	0
4.7220092E+000	1.329343968370085E+002	-1.4524232E+000	-3.075858508151136E+002	4.4674483E-001	-1.4523979E+000	0
4.7324395E+000	1.331344968319536E+002	-1.4543868E+000	-3.073228493892320E+002	4.4696629E-001	-1.4543986E+000	0
4.7136183E+000	1.333346968268961E+002	-1.4564514E+000	-3.089879718123857E+002	4.5002598E-001	-1.4564008E+000	0
4.5744166E+000	1.335347968218412E+002	-1.4584633E+000	-3.188304425561779E+002	4.6500251E-001	-1.4584018E+000	0
4.3892636E+000	1.337348968167862E+002	-1.4604536E+000	-3.327331615691728E+002	4.8594135E-001	-1.4604027E+000	0
4.3546400E+000	1.339350968117287E+002	-1.4624389E+000	-3.358346320558394E+002	4.9113765E-001	-1.4624047E+000	0
4.3323898E+000	1.341352968066712E+002	-1.4644499E+000	-3.380235607944470E+002	4.9501857E-001	-1.4644065E+000	0
4.2374606E+000	1.343353968016163E+002	-1.4664779E+000	-3.460747029289369E+002	5.0751090E-001	-1.4664079E+000	0
4.2492046E+000	1.345354967965613E+002	-1.4684728E+000	-3.455876989185899E+002	5.0748616E-001	-1.4684085E+000	0
4.1482072E+000	1.347356967915039E+002	-1.4704621E+000	-3.544813519906394E+002	5.2125138E-001	-1.4704107E+000	0
3.9673288E+000	1.349358967864464E+002	-1.4724786E+000	-3.711511402638389E+002	5.4651213E-001	-1.4724127E+000	0
3.9935508E+000	1.351359967813914E+002	-1.4744567E+000	-3.692094561453587E+002	5.4438335E-001	-1.4744139E+000	0
4.0162201E+000	1.353361967763340E+002	-1.4764379E+000	-3.676187663034625E+002	5.4276627E-001	-1.4764156E+000	0
4.0247121E+000	1.355362967712790E+002	-1.4784249E+000	-3.673368101348988E+002	5.4307991E-001	-1.4784166E+000	0
4.0350242E+000	1.357365967662190E+002	-1.4804859E+000	-3.669087987411031E+002	5.4320329E-001	-1.4804198E+000	0
4.0016041E+000	1.359365967611666E+002	-1.4824897E+000	-3.704738497961137E+002	5.4922366E-001	-1.4824198E+000	0
3.9806137E+000	1.361365967561142E+002	-1.4844899E+000	-3.729299140311687E+002	5.5361068E-001	-1.4844198E+000	0
3.8751721E+000	1.363366967510592E+002	-1.4864781E+000	-3.835902036100779E+002	5.7019842E-001	-1.4864208E+000	0
3.8491404E+000	1.365367967460043E+002	-1.4884570E+000	-3.866985295029735E+002	5.7558411E-001	-1.4884218E+000	0
3.8474143E+000	1.367367967409518E+002	-1.4905052E+000	-3.874044078104625E+002	5.7742828E-001	-1.4904218E+000	0
3.8499644E+000	1.369369967358944E+002	-1.4925132E+000	-3.876693552013785E+002	5.7860160E-001	-1.4924234E+000	0
3.8445282E+000	1.371371967308369E+002	-1.4944708E+000	-3.887267172179793E+002	5.8094072E-001	-1.4944257E+000	0
3.8308661E+000	1.373371967257845E+002	-1.4964746E+000	-3.906361110129324E+002	5.8457702E-001	-1.4964255E+000	0
3.8200061E+000	1.375371967207320E+002	-1.4984938E+000	-3.922752393670631E+002	5.8782202E-001	-1.4984256E+000	0
3.8391454E+000	1.377371967156796E+002	-1.5004777E+000	-3.908363827166922E+002	5.8644128E-001	-1.5004256E+000	0
3.8506343E+000	1.379371967106272E+002	-1.5024866E+000	-3.901919748993960E+002	5.8625823E-001	-1.5024256E+000	0
3.8609092E+000	1.381371967055748E+002	-1.5044924E+000	-3.896730879439774E+002	5.8626020E-001	-1.5044255E+000	0
3.8240581E+000	1.383371967005223E+002	-1.5064573E+000	-3.939420626612200E+002	5.9345692E-001	-1.5064256E+000	0
3.7884796E+000	1.385371966954699E+002	-1.5084941E+000	-3.981792959507352E+002	6.0065114E-001	-1.5084256E+000	0
3.7841246E+000	1.387371966904175E+002	-1.5104951E+000	-3.991663122004120E+002	6.0293877E-001	-1.5104256E+000	0
3.5597017E+000	1.389371966853651E+002	-1.5124983E+000	-4.248946641242974E+002	6.4265245E-001	-1.5124257E+000	0
3.5532854E+000	1.391371966803126E+002	-1.5145429E+000	-4.262373623966887E+002	6.4555478E-001	-1.5144255E+000	0
3.5668192E+000	1.393371966752602E+002	-1.5165555E+000	-4.251843203200774E+002	6.4481562E-001	-1.5164254E+000	0
3.5689206E+000	1.395371966702078E+002	-1.5185348E+000	-4.254885173200755E+002	6.4611912E-001	-1.5184255E+000	0
3.5641701E+000	1.397371966651554E+002	-1.5205353E+000	-4.266169257347792E+002	6.4868611E-001	-1.5204256E+000	0
3.5445633E+000	1.399371966601029E+002	-1.5225114E+000	-4.295342450520352E+002	6.5397078E-001	-1.5224257E+000	0
3.4811754E+000	1.401371966550505E+002	-1.5245477E+000	-4.379405082218245E+002	6.6766119E-001	-1.5244255E+000	0
3.4871387E+000	1.403371966499981E+002	-1.5265571E+000	-4.377678090396103E+002	6.6827756E-001	-1.5264256E+000	0
3.4996848E+000	1.405371966449457E+002	-1.5285374E+000	-4.367643006902154E+002	6.6761059E-001	-1.5284257E+000	0
3.4870780E+000	1.407371966398932E+002	-1.5305032E+000	-4.389070777849795E+002	6.7174864E-001	-1.5304255E+000	0
3.4075274E+000	1.409371966348408E+002	-1.5325215E+000	-4.497458868783642E+002	6.8924522E-001	-1.5324256E+000	0
3.4366601E+000	1.411371966297884E+002	-1.5345038E+000	-4.465102016336514E+002	6.8517160E-001	-1.5344255E+000	0
3.4469633E+000	1.413371966247360E+002	-1.5364873E+000	-4.457509873318832E+002	6.8489075E-001	-1.5364256E+000	0
3.4556746E+000	1.415371966196835E+002	-1.5385065E+000	-4.452116095398004E+002	6.8496096E-001	-1.5384254E+000	0
3.4806237E+000	1.417371966146311E+002	-1.5405575E+000	-4.426096150188482E+002	6.8186557E-001	-1.5404258E+000	0
3.4903820E+000	1.419371966095787E+002	-1.5424874E+000	-4.419250866507205E+002	6.8166387E-001	-1.5424255E+000	0
3.4619243E+000	1.421371966045263E+002	-1.5445087E+000	-4.461416754214406E+002	6.8906969E-001	-1.5444255E+000	0
3.4343791E+000	1.423371965994738E+002	-1.5465389E+000	-4.503110836530741E+002	6.9642365E-001	-1.5464255E+000	0
3.3988454E+000	1.425371965944214E+002	-1.5485082E+000	-4.555982776174760E+002	7.0549768E-001	-1.5484254E+000	0
3.4129152E+000	1.427371965893690E+002	-1.5505216E+000	-4.543100389926076E+002	7.0441753E-001	-1.5504255E+000	0
3.4095263E+000	1.429371965843166E+002	-1.5525321E+000	-4.553512516454243E+002	7.0694745E-001	-1.5524256E+000	0
3.3824115E+000	1.431371965792641E+002	-1.5545439E+000	-4.595963300717940E+002	7.1446264E-001	-1.5544255E+000	0
3.3762033E+000	1.433371965742117E+002	-1.5565103E+000	-4.610238775612288E+002	7.1758842E-001	-1.5564256E+000	0
3.3644688E+000	1.435371965691593E+002	-1.5585582E+000	-4.632405194911807E+002	7.2198731E-001	-1.5584257E+000	0
3.2930372E+000	1.437371965641069E+002	-1.5605183E+000	-4.738842048385541E+002	7.3950493E-001	-1.5604255E+000	0
3.3333023E+000	1.439371965590544E+002	-1.5625119E+000	-4.687579495306754E+002	7.3243988E-001	-1.5624256E+000	0
3.3426390E+000	1.441371965540020E+002	-1.5645425E+000	-4.680561038425985E+002	7.3229367E-001	-1.5644256E+000	0
3.3445342E+000	1.443371965489496E+002	-1.5665190E+000	-4.683818211068938E+002	7.3372900E-001	-1.5664256E+000	0
3.3416693E+000	1.445371965438972E+002	-1.5685346E+000	-4.693865401425869E+002	7.3624903E-001	-1.5684257E+000	0
3.3544841E+000	1.447371965388447E+002	-1.5705143E+000	-4.681835626096130E+002	7.3528898E-001	-1.5704255E+000	0
3.3523285E+000	1.449371965337923E+002	-1.5725192E+000	-4.690826536554869E+002	7.3764145E-001	-1.5724256E+000	0
3.3262012E+000	1.451371965287399E+002	-1.5745976E+000	-4.733921742990724E+002	7.4540216E-001	-1.5744256E+000	0
3.1830204E+000	1.453371965236875E+002	-1.5770024E+000	-4.954421531089047E+002	7.8131348E-001	-1.5764256E+000	0
3.1052489E+000	1.455371965186350E+002	-1.5790604E+000	-5.085133043146452E+002	8.0297321E-001	-1.5784256E+000	0
3.1037447E+000	1.457371965135826E+002	-1.5810716E+000	-5.094077557241544E+002	8.0541015E-001	-1.5804257E+000	0
3.0937142E+000	1.459371965085302E+002	-1.5831187E+000	-5.117210461623008E+002	8.1011516E-001	-1.5824256E+000	0
3.0502203E+000	1.461371965034778E+002	-1.5850610E+000	-5.196546013977003E+002	8.2368422E-001	-1.5844256E+000	0
3.0458336E+000	1.463371964984253E+002	-1.5870558E+000	-5.210579407793557E+002	8.2694805E-001	-1.5864257E+000	0
3.0691509E+000	1.465371964933729E+002	-1.5891224E+000	-5.177726324388495E+002	8.2280409E-001	-1.5884256E+000	0
3.1002409E+000	1.467371964883205E+002	-1.5910852E+000	-5.132133920327869E+002	8.1656623E-001	-1.5904257E+000	0
3.1066628E+000	1.469371964832681E+002	-1.5930781E+000	-5.127940475394662E+002	8.1692100E-001	-1.5924256E+000	0
3.0969543E+000	1.471371964782156E+002	-1.5951247E+000	-5.150623984607191E+002	8.2158875E-001	-1.5944256E+000	0
3.0579937E+000	1.473371964731632E+002	-1.5970802E+000	-5.222640947225145E+002	8.3409768E-001	-1.5964257E+000	0
3.0716116E+000	1.475371964681108E+002	-1.5990663E+000	-5.205951739633438E+002	8.3246619E-001	-1.5984256E+000	0
3.0091646E+000	1.477371964630584E+002	-1.6010981E+000	-5.320739283615767E+002	8.5190254E-001	-1.6004256E+000	0
3.0213096E+000	1.479371964580059E+002	-1.6031326E+000	-5.306085159102804E+002	8.5063583E-001	-1.6024257E+000	0
3.0257699E+000	1.481371964529535E+002	-1.6051242E+000	-5.304845562673206E+002	8.5149360E-001	-1.6044255E+000	0
2.9938078E+000	1.483371964479011E+002	-1.6071175E+000	-5.368138522020554E+002	8.6272293E-001	-1.6064256E+000	0
2.8784423E+000	1.485371964428487E+002	-1.6091152E+000	-5.590229420910641E+002	8.9953232E-001	-1.6084257E+000	0
2.9065709E+000	1.487371964377962E+002	-1.6110882E+000	-5.542917290296136E+002	8.9301282E-001	-1.6104256E+000	0
2.8567202E+000	1.489371964327438E+002	-1.6131202E+000	-5.646755977293260E+002	9.1088963E-001	-1.6124257E+000	0
2.8386347E+000	1.491371964276914E+002	-1.6151215E+000	-5.689782623714855E+002	9.1896904E-001	-1.6144255E+000	0
2.8494902E+000	1.493371964226390E+002	-1.6170946E+000	-5.675031596332983E+002	9.1770631E-001	-1.6164256E+000	0
2.8656309E+000	1.494471964198601E+002	-1.6181557E+000	-5.646769446548151E+002	9.1373521E-001	-1.6175253E+000	0
2.8674242E+000	1.494481964198349E+002	-1.6185201E+000	-5.644508666992188E+002	9.1357511E-001	-1.6177253E+000	1