EC-Lab ASCII FILE
Nb header lines : 63                          

Linear Sweep Voltammetry

Run on channel : 1 (SN 1340)
User : 
Electrode connection : standard
Potential control : Ewe
Ewe ctrl range : min = -5.00 V, max = 5.00 V
Ewe,I filtering : <None>
Safety Limits :
	Do not start on E overload
Channel : Floating
Acquisition started on : 02/10/2026 15:17:15.529
Technique started on : 02/10/2026 15:17:18.211
Loaded Setting File :  NONE
Saved on :
	File : Pd40_polished_2-10_02_LSV_C01.mpr
	Directory : C:\Users\volt\Documents\Platalytix\
	Host : 127.0.0.1
Device : SP-200 (SN 0262)
Address : USB
EC-LAB for windows v11.60 (software)
Internet server v11.60 (firmware)
Command interpretor v11.60 (firmware)
Electrode material : Pt18.75Pd18.75Ni18.75o18.75Cr25
Initial state : 
Electrolyte : KOH (1 M)
Comments : After polishing
Cable : standard
Reference electrode : Hg/HgO (0.140 V)
Electrode surface area : 1.000 cm˛
Characteristic mass : 0.001 g
Equivalent Weight : 0.000 g/eq.
Density : 0.000 g/cm3
Volume (V) : 0.001 cmł
Cycle Definition : Charge/Discharge alternance
tR (h:m:s)          0:00:5.0000         
dER/dt (mV/h)       0.0                 
dER (mV)            0                   
dtR (s)             0.0000              
dE/dt               10.000              
dE/dt unit          mV/s                
Ei (V)              -0.200              
vs.                 Ref                 
EL (V)              -2.500              
vs.                 Ref                 
record              <I>                 
dI                  0.000               
unit dI             µA                  
tI (s)              0.0000              
step percent        50                  
N                   10                  
E range min (V)     -5.000              
E range max (V)     5.000               
I Range             Auto                
I Range min         Unset               
I Range max         Unset               
I Range init        Unset               
Bandwidth           8                   

Rwe/Ohm	time/s	Ewe/V	<I>/mA	Pwe/W	control/V	error	
0.0000000E+000	2.682400127378060E+000	-1.6972105E-001	0.000000000000000E+000	0.0000000E+000	0.0000000E+000	0
0.0000000E+000	7.682200001072488E+000	-1.7706394E-002	0.000000000000000E+000	0.0000000E+000	-1.9991022E-001	0
3.0947168E+003	7.882199996020063E+000	-2.0152703E-001	-6.511969951912761E-002	1.3123379E-005	-2.0181000E-001	0
1.6560970E+003	8.002199992988608E+000	-2.0294537E-001	-1.225443680038933E-001	2.4869812E-005	-2.0301005E-001	0
1.8852881E+003	8.212199987683562E+000	-2.0500016E-001	-1.087367798923990E-001	2.2291057E-005	-2.0511006E-001	0
2.1097346E+003	8.412199982631137E+000	-2.0702913E-001	-9.813041696082081E-002	2.0315856E-005	-2.0711006E-001	0
2.2956453E+003	8.612199977578712E+000	-2.0905872E-001	-9.106751711027550E-002	1.9038458E-005	-2.0911004E-001	0
2.4550552E+003	8.812199972526287E+000	-2.1104500E-001	-8.596344267772071E-002	1.8142155E-005	-2.1111007E-001	0
2.5945562E+003	9.012199967473862E+000	-2.1306762E-001	-8.212102880245231E-002	1.7497332E-005	-2.1311004E-001	0
2.7240718E+003	9.212199962421437E+000	-2.1502973E-001	-7.893688002096533E-002	1.6973776E-005	-2.1511003E-001	0
2.8367295E+003	9.412199957369012E+000	-2.1699589E-001	-7.649509764388374E-002	1.6599122E-005	-2.1711007E-001	0
2.9478848E+003	9.612199952316587E+000	-2.1904266E-001	-7.430502750368058E-002	1.6275972E-005	-2.1911004E-001	0
3.0491089E+003	9.812199947264162E+000	-2.2104786E-001	-7.249589140216517E-002	1.6025062E-005	-2.2111005E-001	0
3.1449331E+003	1.001219994221174E+001	-2.2301506E-001	-7.091249347201922E-002	1.5814554E-005	-2.2311005E-001	0
3.2371060E+003	1.021219993715931E+001	-2.2507650E-001	-6.953015896468476E-002	1.5649604E-005	-2.2511005E-001	0
3.3278855E+003	1.041219993210689E+001	-2.2703564E-001	-6.822218967848759E-002	1.5488869E-005	-2.2711004E-001	0
3.4108044E+003	1.061219992705446E+001	-2.2901623E-001	-6.714434415110437E-002	1.5377145E-005	-2.2911005E-001	0
3.4986941E+003	1.081219992200204E+001	-2.3102483E-001	-6.603173367191273E-002	1.5254970E-005	-2.3111008E-001	0
3.5769148E+003	1.101219991694961E+001	-2.3306865E-001	-6.515912739391019E-002	1.5186550E-005	-2.3311004E-001	0
3.6576240E+003	1.121219991189719E+001	-2.3505431E-001	-6.426420882386513E-002	1.5105579E-005	-2.3511006E-001	0
3.7341853E+003	1.141219990684476E+001	-2.3706692E-001	-6.348558028583406E-002	1.5050331E-005	-2.3711005E-001	0
3.8113301E+003	1.161219990179234E+001	-2.3905407E-001	-6.272195216295762E-002	1.4993938E-005	-2.3911004E-001	0
3.8850771E+003	1.181219989673991E+001	-2.4106540E-001	-6.204906321614323E-002	1.4957882E-005	-2.4111006E-001	0
3.9590005E+003	1.201219989168749E+001	-2.4300419E-001	-6.138018793173028E-002	1.4915643E-005	-2.4311006E-001	0
4.0301255E+003	1.221219988663506E+001	-2.4505435E-001	-6.080563877320633E-002	1.4900686E-005	-2.4511005E-001	0
4.0997725E+003	1.241219988158264E+001	-2.4706487E-001	-6.026306635089840E-002	1.4888887E-005	-2.4711005E-001	0
4.1703564E+003	1.261219987653021E+001	-2.4904929E-001	-5.971894501560610E-002	1.4872960E-005	-2.4911007E-001	0
4.2431030E+003	1.281219987147779E+001	-2.5099906E-001	-5.915460087329405E-002	1.4847749E-005	-2.5111005E-001	0
4.3113062E+003	1.301219986642536E+001	-2.5306007E-001	-5.869684854993285E-002	1.4853828E-005	-2.5311005E-001	0
4.3845869E+003	1.321219986137294E+001	-2.5504276E-001	-5.816802741851979E-002	1.4835335E-005	-2.5511006E-001	0
4.4481792E+003	1.341219985632051E+001	-2.5705180E-001	-5.778809366198667E-002	1.4854533E-005	-2.5711003E-001	0
4.5109517E+003	1.361219985126809E+001	-2.5903535E-001	-5.742365873710189E-002	1.4874758E-005	-2.5911003E-001	0
4.5769595E+003	1.381219984621566E+001	-2.6100320E-001	-5.702545645999424E-002	1.4883826E-005	-2.6111007E-001	0
4.6476631E+003	1.401219984116324E+001	-2.6299438E-001	-5.658636658659416E-002	1.4881896E-005	-2.6311007E-001	0
4.7147109E+003	1.421219983611081E+001	-2.6503521E-001	-5.621451732666705E-002	1.4898827E-005	-2.6511005E-001	0
4.7755210E+003	1.441219983105839E+001	-2.6704016E-001	-5.591853846301686E-002	1.4932496E-005	-2.6711005E-001	0
4.8398853E+003	1.461219982600596E+001	-2.6901206E-001	-5.558232174892713E-002	1.4952315E-005	-2.6911005E-001	0
4.9041401E+003	1.481219982095354E+001	-2.7102640E-001	-5.526481436506347E-002	1.4978224E-005	-2.7111006E-001	0
4.9679263E+003	1.501219981590111E+001	-2.7303267E-001	-5.495908219988155E-002	1.5005625E-005	-2.7311003E-001	0
5.0327539E+003	1.521219981084869E+001	-2.7505165E-001	-5.465231315378538E-002	1.5032209E-005	-2.7511004E-001	0
5.0957012E+003	1.541219980579626E+001	-2.7702904E-001	-5.436524537829124E-002	1.5060752E-005	-2.7711004E-001	0
5.1529341E+003	1.561219980074384E+001	-2.7900219E-001	-5.414433741800528E-002	1.5106389E-005	-2.7911004E-001	0
5.2158979E+003	1.581219979569141E+001	-2.8103137E-001	-5.387976528419935E-002	1.5141904E-005	-2.8111005E-001	0
5.2772891E+003	1.601219979063899E+001	-2.8301954E-001	-5.362971970186381E-002	1.5178259E-005	-2.8311005E-001	0
5.3334526E+003	1.621219978558656E+001	-2.8503963E-001	-5.344373606411446E-002	1.5233583E-005	-2.8511003E-001	0
5.3917603E+003	1.641219978053414E+001	-2.8704822E-001	-5.323831484148323E-002	1.5281963E-005	-2.8711006E-001	0
5.4557549E+003	1.661219977548171E+001	-2.8904387E-001	-5.297962911036308E-002	1.5313437E-005	-2.8911006E-001	0
5.5160166E+003	1.681219977042929E+001	-2.9105094E-001	-5.276469490068456E-002	1.5357215E-005	-2.9111007E-001	0
5.5720996E+003	1.701219976537686E+001	-2.9301074E-001	-5.258533693036982E-002	1.5408068E-005	-2.9311004E-001	0
5.6280762E+003	1.721219976032444E+001	-2.9505050E-001	-5.242475208851699E-002	1.5467949E-005	-2.9511005E-001	0
5.6891006E+003	1.741219975527201E+001	-2.9702985E-001	-5.221033713974643E-002	1.5508029E-005	-2.9711005E-001	0
5.7455889E+003	1.761219975021959E+001	-2.9904199E-001	-5.204723232062491E-002	1.5564308E-005	-2.9911005E-001	0
5.8098633E+003	1.781219974516716E+001	-3.0106440E-001	-5.181953337575718E-002	1.5601017E-005	-3.0111006E-001	0
5.8609912E+003	1.801219974011474E+001	-3.0308890E-001	-5.171290663326478E-002	1.5673608E-005	-3.0311006E-001	0
5.9092275E+003	1.821219973506231E+001	-3.0506229E-001	-5.162473232590958E-002	1.5748759E-005	-3.0511004E-001	0
5.9660195E+003	1.841219973000989E+001	-3.0705175E-001	-5.146676806844930E-002	1.5802962E-005	-3.0711007E-001	0
6.0311187E+003	1.861219972495746E+001	-3.0906501E-001	-5.124505783976097E-002	1.5838055E-005	-3.0911005E-001	0
6.0760718E+003	1.881219971990504E+001	-3.1103498E-001	-5.119014359311580E-002	1.5921925E-005	-3.1111005E-001	0
6.1261011E+003	1.901219971485261E+001	-3.1303066E-001	-5.109785988614335E-002	1.5995196E-005	-3.1311008E-001	0
6.1837715E+003	1.921219970980019E+001	-3.1507829E-001	-5.095244618449496E-002	1.6054009E-005	-3.1511006E-001	0
6.2320024E+003	1.941219970474776E+001	-3.1698757E-001	-5.086448013174272E-002	1.6123407E-005	-3.1711006E-001	0
6.2893179E+003	1.961219969969534E+001	-3.1903201E-001	-5.072601376388575E-002	1.6183223E-005	-3.1911007E-001	0
6.3364141E+003	1.981219969464291E+001	-3.2102060E-001	-5.066281880986967E-002	1.6263808E-005	-3.2111007E-001	0
6.3911182E+003	2.001219968959049E+001	-3.2303450E-001	-5.054428584318271E-002	1.6327547E-005	-3.2311007E-001	0
6.4380947E+003	2.021219968453806E+001	-3.2504839E-001	-5.048828723084364E-002	1.6411137E-005	-3.2511008E-001	0
6.4854043E+003	2.041219967948564E+001	-3.2703704E-001	-5.042662261298902E-002	1.6491373E-005	-3.2711005E-001	0
6.5376660E+003	2.061219967443321E+001	-3.2905540E-001	-5.033224246035961E-002	1.6562097E-005	-3.2911006E-001	0
6.5941299E+003	2.081219966938079E+001	-3.3104107E-001	-5.020238946998656E-002	1.6619053E-005	-3.3111006E-001	0
6.6295254E+003	2.101219966432836E+001	-3.3303523E-001	-5.023515338601892E-002	1.6730075E-005	-3.3311006E-001	0
6.6874390E+003	2.121219965927594E+001	-3.3507204E-001	-5.010468760598230E-002	1.6788679E-005	-3.3511004E-001	0
6.7283032E+003	2.141219965422351E+001	-3.3707300E-001	-5.009777092558586E-002	1.6886606E-005	-3.3711004E-001	0
6.7660171E+003	2.161219964917109E+001	-3.3902386E-001	-5.010685796929693E-002	1.6987420E-005	-3.3911005E-001	0
6.8197041E+003	2.181219964411866E+001	-3.4104878E-001	-5.000932214838677E-002	1.7055618E-005	-3.4111005E-001	0
6.8661631E+003	2.201219963906624E+001	-3.4306672E-001	-4.996483857519601E-002	1.7141274E-005	-3.4311008E-001	0
6.9059941E+003	2.221219963401381E+001	-3.4510010E-001	-4.997109616272406E-002	1.7245031E-005	-3.4511006E-001	0
6.9491812E+003	2.241219962896139E+001	-3.4707922E-001	-4.994533896813691E-002	1.7334989E-005	-3.4711006E-001	0
6.9918506E+003	2.261219962390896E+001	-3.4910965E-001	-4.993093628045631E-002	1.7431372E-005	-3.4911007E-001	0
7.0355298E+003	2.281219961885654E+001	-3.5108072E-001	-4.990110435689943E-002	1.7519316E-005	-3.5111004E-001	0
7.0802871E+003	2.301219961380411E+001	-3.5304666E-001	-4.986332316382397E-002	1.7604079E-005	-3.5311007E-001	0
7.1133350E+003	2.321219960875169E+001	-3.5502657E-001	-4.991000336320339E-002	1.7719378E-005	-3.5511005E-001	0
7.1492480E+003	2.341219960369926E+001	-3.5707146E-001	-4.994531640573863E-002	1.7834047E-005	-3.5711005E-001	0
7.1965562E+003	2.361219959864684E+001	-3.5907009E-001	-4.989471034064508E-002	1.7915698E-005	-3.5911006E-001	0
7.2279434E+003	2.381219959359441E+001	-3.6107334E-001	-4.995519808670945E-002	1.8037490E-005	-3.6111006E-001	0
7.2693467E+003	2.401219958854199E+001	-3.6306497E-001	-4.994465060565857E-002	1.8133152E-005	-3.6311007E-001	0
7.3075762E+003	2.421219958348956E+001	-3.6501071E-001	-4.994962820645998E-002	1.8232149E-005	-3.6511007E-001	0
7.3394512E+003	2.441219957843714E+001	-3.6702275E-001	-5.000683833114261E-002	1.8353647E-005	-3.6711010E-001	0
7.3828335E+003	2.461219957338471E+001	-3.6902899E-001	-4.998473650955360E-002	1.8445817E-005	-3.6911008E-001	0
7.4159302E+003	2.481219956833229E+001	-3.7106669E-001	-5.003643208531816E-002	1.8566852E-005	-3.7111005E-001	0
7.4524375E+003	2.501219956327986E+001	-3.7305912E-001	-5.005867059538974E-002	1.8674844E-005	-3.7311009E-001	0
7.4764541E+003	2.521219955822744E+001	-3.7504330E-001	-5.016325908140740E-002	1.8813394E-005	-3.7511006E-001	0
7.5147847E+003	2.541219955317501E+001	-3.7705487E-001	-5.017507286339007E-002	1.8918756E-005	-3.7711006E-001	0
7.5457524E+003	2.561219954812259E+001	-3.7902948E-001	-5.023084094593733E-002	1.9038969E-005	-3.7911007E-001	0
7.5743223E+003	2.581219954307016E+001	-3.8102257E-001	-5.030451164065575E-002	1.9167155E-005	-3.8111007E-001	0
7.6148174E+003	2.601219953801774E+001	-3.8304430E-001	-5.030249352640792E-002	1.9268084E-005	-3.8311005E-001	0
7.6390620E+003	2.621219953296531E+001	-3.8502559E-001	-5.040220676154705E-002	1.9406139E-005	-3.8511008E-001	0
7.6637437E+003	2.641219952791289E+001	-3.8703987E-001	-5.050271451357091E-002	1.9546564E-005	-3.8711005E-001	0
7.6894912E+003	2.661219952286046E+001	-3.8908538E-001	-5.059962617835267E-002	1.9687575E-005	-3.8911003E-001	0
7.7244424E+003	2.681219951780804E+001	-3.9104202E-001	-5.062398219759845E-002	1.9796105E-005	-3.9111012E-001	0
7.7532441E+003	2.701219951275561E+001	-3.9305627E-001	-5.069571591030941E-002	1.9926269E-005	-3.9311010E-001	0
7.7806299E+003	2.721219950770319E+001	-3.9503264E-001	-5.077129229428046E-002	2.0056317E-005	-3.9511007E-001	0
7.8008994E+003	2.741219950265076E+001	-3.9705506E-001	-5.089862607503978E-002	2.0209556E-005	-3.9711010E-001	0
7.8358633E+003	2.761219949759834E+001	-3.9907843E-001	-5.092973300559961E-002	2.0324958E-005	-3.9911008E-001	0
7.8601987E+003	2.781219949254591E+001	-4.0106094E-001	-5.102427450564084E-002	2.0463844E-005	-4.0111008E-001	0
7.8845654E+003	2.801219948749349E+001	-4.0307656E-001	-5.112222952466210E-002	2.0606172E-005	-4.0311009E-001	0
7.8942896E+003	2.821219948244106E+001	-4.0502828E-001	-5.130649103134721E-002	2.0780581E-005	-4.0511009E-001	0
7.9001147E+003	2.841219947738864E+001	-4.0700206E-001	-5.151850156076354E-002	2.0968137E-005	-4.0711007E-001	0
7.9424077E+003	2.861219947233622E+001	-4.0908554E-001	-5.150648839497207E-002	2.1070560E-005	-4.0911010E-001	0
7.9663735E+003	2.881219946728379E+001	-4.1104025E-001	-5.159690930896660E-002	2.1208407E-005	-4.1111007E-001	0
7.9814971E+003	2.901219946223137E+001	-4.1305918E-001	-5.175209220851462E-002	2.1376676E-005	-4.1311011E-001	0
8.0138315E+003	2.921219945717894E+001	-4.1507268E-001	-5.179453390394917E-002	2.1498496E-005	-4.1511008E-001	0
8.0324517E+003	2.941219945212652E+001	-4.1711226E-001	-5.192838802082611E-002	2.1659967E-005	-4.1711006E-001	0
8.0636943E+003	2.961219944707409E+001	-4.1907057E-001	-5.197004750244250E-002	2.1779117E-005	-4.1911009E-001	0
8.0811689E+003	2.981219944202167E+001	-4.2106512E-001	-5.210448043735570E-002	2.1939379E-005	-4.2111003E-001	0
8.1076812E+003	3.001219943696924E+001	-4.2306504E-001	-5.218076919439940E-002	2.2075859E-005	-4.2311010E-001	0
8.1329810E+003	3.021219943191682E+001	-4.2508462E-001	-5.226676649775142E-002	2.2217799E-005	-4.2511010E-001	0
8.1509771E+003	3.041219942686439E+001	-4.2710871E-001	-5.239969393018784E-002	2.2380365E-005	-4.2711011E-001	0
8.1657251E+003	3.061219942181197E+001	-4.2911333E-001	-5.255054859201658E-002	2.2550141E-005	-4.2911005E-001	0
8.1637520E+003	3.081219941675954E+001	-4.3105951E-001	-5.280164124701781E-002	2.2760649E-005	-4.3111008E-001	0
8.2133438E+003	3.101219941170712E+001	-4.3310267E-001	-5.273158796703914E-002	2.2838192E-005	-4.3311012E-001	0
8.2444854E+003	3.121219940665469E+001	-4.3512446E-001	-5.277763730783003E-002	2.2964841E-005	-4.3511009E-001	0
8.2804619E+003	3.141219940160227E+001	-4.3707022E-001	-5.278331699702959E-002	2.3070015E-005	-4.3711007E-001	0
8.2916133E+003	3.161219939654984E+001	-4.3910235E-001	-5.295741012691613E-002	2.3253724E-005	-4.3911010E-001	0
8.3103184E+003	3.181219939149742E+001	-4.4107461E-001	-5.307553950887245E-002	2.3410274E-005	-4.4111004E-001	0
8.3430918E+003	3.201219938644499E+001	-4.4309679E-001	-5.310942351505532E-002	2.3532615E-005	-4.4311008E-001	0
8.3697432E+003	3.221219938139257E+001	-4.4513530E-001	-5.318386270981401E-002	2.3674014E-005	-4.4511008E-001	0
8.3920889E+003	3.241219937634014E+001	-4.4708893E-001	-5.327504770534575E-002	2.3818684E-005	-4.4711012E-001	0
8.4265947E+003	3.261219937128772E+001	-4.4907230E-001	-5.329226258436792E-002	2.3932080E-005	-4.4911006E-001	0
8.4447402E+003	3.281219936623529E+001	-4.5106262E-001	-5.341343664091153E-002	2.4092804E-005	-4.5111009E-001	0
8.4719531E+003	3.301219936118287E+001	-4.5308986E-001	-5.348115627941108E-002	2.4231769E-005	-4.5311013E-001	0
8.5046904E+003	3.321219935613044E+001	-4.5507470E-001	-5.350867500782119E-002	2.4350444E-005	-4.5511007E-001	0
8.5255381E+003	3.341219935107802E+001	-4.5709348E-001	-5.361461941344992E-002	2.4506893E-005	-4.5711008E-001	0
8.5566348E+003	3.361219934602559E+001	-4.5905367E-001	-5.364885344328418E-002	2.4627703E-005	-4.5911011E-001	0
8.5941934E+003	3.381219934097317E+001	-4.6105123E-001	-5.364682730403469E-002	2.4733936E-005	-4.6111009E-001	0
8.6232285E+003	3.401219933592074E+001	-4.6308488E-001	-5.370202781410771E-002	2.4868597E-005	-4.6311009E-001	0
8.6597383E+003	3.421219933086832E+001	-4.6509898E-001	-5.370819971995955E-002	2.4979629E-005	-4.6511009E-001	0
8.6810820E+003	3.441219932581589E+001	-4.6706575E-001	-5.380270967540876E-002	2.5129402E-005	-4.6711010E-001	0
8.7245938E+003	3.461219932076347E+001	-4.6904632E-001	-5.376139701377863E-002	2.5216586E-005	-4.6911007E-001	0
8.7514863E+003	3.481219931571104E+001	-4.7112516E-001	-5.383373302979888E-002	2.5362426E-005	-4.7111005E-001	0
8.7914775E+003	3.501219931065862E+001	-4.7308046E-001	-5.381125739887516E-002	2.5457055E-005	-4.7311008E-001	0
8.8294668E+003	3.521219930560619E+001	-4.7508460E-001	-5.380671244228685E-002	2.5562740E-005	-4.7511011E-001	0
8.8628145E+003	3.541219930055377E+001	-4.7708133E-001	-5.382955062536789E-002	2.5681073E-005	-4.7711006E-001	0
8.8990654E+003	3.561219929550134E+001	-4.7909969E-001	-5.383707718214115E-002	2.5793326E-005	-4.7911009E-001	0
8.9415996E+003	3.581219929044892E+001	-4.8107940E-001	-5.380238713580454E-002	2.5883221E-005	-4.8111010E-001	0
8.9836338E+003	3.601219928539649E+001	-4.8308104E-001	-5.377345801597189E-002	2.5976939E-005	-4.8311004E-001	0
9.0304502E+003	3.621219928034407E+001	-4.8506290E-001	-5.371414367141214E-002	2.6054739E-005	-4.8511007E-001	0
9.0739561E+003	3.641219927529164E+001	-4.8711118E-001	-5.368233824311353E-002	2.6149268E-005	-4.8711011E-001	0
9.1134932E+003	3.661219927023922E+001	-4.8911166E-001	-5.366895628603069E-002	2.6250113E-005	-4.8911011E-001	0
9.1687686E+003	3.681219926518679E+001	-4.9108502E-001	-5.356063209674722E-002	2.6302825E-005	-4.9111006E-001	0
9.2018926E+003	3.701219926013437E+001	-4.9312204E-001	-5.358919761800396E-002	2.6426014E-005	-4.9311009E-001	0
9.2656416E+003	3.721219925508194E+001	-4.9508989E-001	-5.343287838612362E-002	2.6454078E-005	-4.9511012E-001	0
9.3155820E+003	3.741219925002952E+001	-4.9707919E-001	-5.335997200207776E-002	2.6524132E-005	-4.9711007E-001	0
9.3694297E+003	3.761219924497709E+001	-4.9910301E-001	-5.326930578225753E-002	2.6586871E-005	-4.9911007E-001	0
9.4170273E+003	3.781219923992467E+001	-5.0110298E-001	-5.321243763457791E-002	2.6664911E-005	-5.0111014E-001	0
9.4682217E+003	3.801219923487224E+001	-5.0308478E-001	-5.313403183507759E-002	2.6730922E-005	-5.0311005E-001	0
9.5286289E+003	3.821219922981982E+001	-5.0510925E-001	-5.300964637397643E-002	2.6775662E-005	-5.0511009E-001	0
9.5892559E+003	3.841219922476739E+001	-5.0707495E-001	-5.287949187319962E-002	2.6813866E-005	-5.0711006E-001	0
9.6494570E+003	3.861219921971497E+001	-5.0903159E-001	-5.275235841813131E-002	2.6852616E-005	-5.0911009E-001	0
9.7108428E+003	3.881219921466254E+001	-5.1110572E-001	-5.263247589956643E-002	2.6900760E-005	-5.1111007E-001	0
9.7708926E+003	3.901219920961012E+001	-5.1304346E-001	-5.250732888269094E-002	2.6938542E-005	-5.1311010E-001	0
9.8153223E+003	3.921219920455769E+001	-5.1503664E-001	-5.247271930811537E-002	2.7025373E-005	-5.1511014E-001	0
9.8875996E+003	3.941219919950527E+001	-5.1710886E-001	-5.229872309596451E-002	2.7044132E-005	-5.1711005E-001	0
9.9625107E+003	3.961219919445284E+001	-5.1910168E-001	-5.210550688365578E-002	2.7048056E-005	-5.1911008E-001	0
1.0009732E+004	3.981219918940042E+001	-5.2110535E-001	-5.205986768961846E-002	2.7128675E-005	-5.2111012E-001	0
1.0084219E+004	4.001219918434799E+001	-5.2311039E-001	-5.187416345603313E-002	2.7135913E-005	-5.2311009E-001	0
1.0168550E+004	4.021219917929557E+001	-5.2509606E-001	-5.163922761788675E-002	2.7115555E-005	-5.2511013E-001	0
1.0229060E+004	4.041219917424314E+001	-5.2712417E-001	-5.153202524201750E-002	2.7163776E-005	-5.2711010E-001	0
1.0284404E+004	4.061219916919072E+001	-5.2905172E-001	-5.144213752339566E-002	2.7215552E-005	-5.2911013E-001	0
1.0379712E+004	4.081219916413829E+001	-5.3106666E-001	-5.116391080471761E-002	2.7171447E-005	-5.3111011E-001	0
1.0444677E+004	4.101219915908587E+001	-5.3311139E-001	-5.104144503966501E-002	2.7210775E-005	-5.3311008E-001	0
1.0517542E+004	4.121219915403344E+001	-5.3507197E-001	-5.087423982107137E-002	2.7221380E-005	-5.3511012E-001	0
1.0590020E+004	4.141219914898102E+001	-5.3711766E-001	-5.071923324929095E-002	2.7242197E-005	-5.3711009E-001	0
1.0663130E+004	4.161219914392859E+001	-5.3909588E-001	-5.055700394836005E-002	2.7255073E-005	-5.3911006E-001	0
1.0742456E+004	4.181219913887617E+001	-5.4109585E-001	-5.036984687690066E-002	2.7254915E-005	-5.4111010E-001	0
1.0826764E+004	4.201219913382374E+001	-5.4306048E-001	-5.015907846359516E-002	2.7239414E-005	-5.4311013E-001	0
1.0889370E+004	4.221219912877132E+001	-5.4512042E-001	-5.005986479854352E-002	2.7288654E-005	-5.4511011E-001	0
1.0979585E+004	4.241219912371889E+001	-5.4704684E-001	-4.982400147715271E-002	2.7256063E-005	-5.4711008E-001	0
1.1058805E+004	4.261219911866647E+001	-5.4915965E-001	-4.965813928537166E-002	2.7270245E-005	-5.4911011E-001	0
1.1123318E+004	4.281219911361404E+001	-5.5109990E-001	-4.954455627652210E-002	2.7304000E-005	-5.5111009E-001	0
1.1212386E+004	4.301219910856162E+001	-5.5310369E-001	-4.932970746447751E-002	2.7284443E-005	-5.5311006E-001	0
1.1290271E+004	4.321219910350919E+001	-5.5509883E-001	-4.916611848696806E-002	2.7292055E-005	-5.5511010E-001	0
1.1378447E+004	4.341219909845677E+001	-5.5703825E-001	-4.895555791170536E-002	2.7270118E-005	-5.5711013E-001	0
1.1454969E+004	4.361219909340434E+001	-5.5909592E-001	-4.880815912529091E-002	2.7288443E-005	-5.5911011E-001	0
1.1516160E+004	4.381219908835192E+001	-5.6106877E-001	-4.872012485078456E-002	2.7335340E-005	-5.6111008E-001	0
1.1601435E+004	4.401219908329949E+001	-5.6310731E-001	-4.853772910975973E-002	2.7331951E-005	-5.6311011E-001	0
1.1686054E+004	4.421219907824707E+001	-5.6507790E-001	-4.835489510226998E-002	2.7324282E-005	-5.6511015E-001	0
1.1779872E+004	4.441219907319464E+001	-5.6708586E-001	-4.814023747612539E-002	2.7299648E-005	-5.6711006E-001	0
1.1840184E+004	4.461219906814222E+001	-5.6910503E-001	-4.806555967747350E-002	2.7354352E-005	-5.6911010E-001	0
1.1933914E+004	4.481219906308979E+001	-5.7108456E-001	-4.785391864976107E-002	2.7328633E-005	-5.7111013E-001	0
1.2000783E+004	4.501219905803737E+001	-5.7306796E-001	-4.775254561300801E-002	2.7365453E-005	-5.7311004E-001	0
1.2088859E+004	4.521219905298494E+001	-5.7508308E-001	-4.757132559783472E-002	2.7357464E-005	-5.7511008E-001	0
1.2155971E+004	4.541219904793252E+001	-5.7706022E-001	-4.747134070952212E-002	2.7393822E-005	-5.7711011E-001	0
1.2248888E+004	4.561219904288009E+001	-5.7906038E-001	-4.727452561019568E-002	2.7374805E-005	-5.7911015E-001	0
1.2337791E+004	4.581219903782767E+001	-5.8108318E-001	-4.709782982466870E-002	2.7367756E-005	-5.8111006E-001	0
1.2415525E+004	4.601219903277524E+001	-5.8307588E-001	-4.696344670310609E-002	2.7383254E-005	-5.8311009E-001	0
1.2495296E+004	4.621219902772282E+001	-5.8508170E-001	-4.682415563511810E-002	2.7395956E-005	-5.8511013E-001	0
1.2577263E+004	4.641219902267039E+001	-5.8710492E-001	-4.667986353649167E-002	2.7405977E-005	-5.8711004E-001	0
1.2658938E+004	4.661219901761797E+001	-5.8910590E-001	-4.653675333320106E-002	2.7415075E-005	-5.8911008E-001	0
1.2720437E+004	4.681219901256554E+001	-5.9105736E-001	-4.646517960523622E-002	2.7463586E-005	-5.9111011E-001	0
1.2801634E+004	4.701219900751312E+001	-5.9307081E-001	-4.632774480753676E-002	2.7475633E-005	-5.9311008E-001	0
1.2883717E+004	4.721219900246069E+001	-5.9512299E-001	-4.619187328203167E-002	2.7489847E-005	-5.9511012E-001	0
1.2950474E+004	4.741219899740827E+001	-5.9705067E-001	-4.610261378562724E-002	2.7525597E-005	-5.9711009E-001	0
1.3020504E+004	4.761219899235584E+001	-5.9908408E-001	-4.601082180007909E-002	2.7564351E-005	-5.9911013E-001	0
1.3103310E+004	4.781219898730342E+001	-6.0109138E-001	-4.587324928226200E-002	2.7574015E-005	-6.0111010E-001	0
1.3183875E+004	4.801219898225099E+001	-6.0308391E-001	-4.574405531480275E-002	2.7587505E-005	-6.0311007E-001	0
1.3250909E+004	4.821219897719857E+001	-6.0509962E-001	-4.566476190866076E-002	2.7631730E-005	-6.0511011E-001	0
1.3328604E+004	4.841219897214614E+001	-6.0709894E-001	-4.554857549235414E-002	2.7652492E-005	-6.0711002E-001	0
1.3392802E+004	4.861219896709372E+001	-6.0906571E-001	-4.547709341730100E-002	2.7698537E-005	-6.0911012E-001	0
1.3486800E+004	4.881219896204129E+001	-6.1111355E-001	-4.531197486204563E-002	2.7690761E-005	-6.1111015E-001	0
1.3542479E+004	4.901219895698887E+001	-6.1309141E-001	-4.527172636237564E-002	2.7755706E-005	-6.1311007E-001	0
1.3603106E+004	4.921219895193644E+001	-6.1506575E-001	-4.521509393143675E-002	2.7810256E-005	-6.1511010E-001	0
1.3684395E+004	4.941219894688402E+001	-6.1707419E-001	-4.509327720239342E-002	2.7825898E-005	-6.1711007E-001	0
1.3747521E+004	4.961219894183159E+001	-6.1908406E-001	-4.503241257452739E-002	2.7878848E-005	-6.1911017E-001	0
1.3800839E+004	4.981219893677917E+001	-6.2110341E-001	-4.500475740999987E-002	2.7952608E-005	-6.2111008E-001	0
1.3850145E+004	5.001219893172674E+001	-6.2310886E-001	-4.498934089295925E-002	2.8033257E-005	-6.2311006E-001	0
1.3941417E+004	5.021219892667432E+001	-6.2509561E-001	-4.483730673062444E-002	2.8027604E-005	-6.2511015E-001	0
1.4003510E+004	5.041219892162189E+001	-6.2712175E-001	-4.478318323861691E-002	2.8084509E-005	-6.2711006E-001	0
1.4041715E+004	5.061219891656947E+001	-6.2911272E-001	-4.480312611879200E-002	2.8186216E-005	-6.2911010E-001	0
1.4113475E+004	5.081219891151704E+001	-6.3107467E-001	-4.471433831245764E-002	2.8218086E-005	-6.3111007E-001	0
1.4179099E+004	5.101219890646462E+001	-6.3309896E-001	-4.465015467188760E-002	2.8267967E-005	-6.3311017E-001	0
1.4243000E+004	5.121219890141219E+001	-6.3507783E-001	-4.458877004766443E-002	2.8317339E-005	-6.3511008E-001	0
1.4288450E+004	5.141219889635977E+001	-6.3707852E-001	-4.458695845129379E-002	2.8405393E-005	-6.3711011E-001	0
1.4353584E+004	5.163219889080210E+001	-6.3928533E-001	-4.453837701545282E-002	2.8472730E-005	-6.3931012E-001	0
1.4470793E+004	5.185219888524443E+001	-6.4145392E-001	-4.432748813449283E-002	2.8434040E-005	-6.4151007E-001	0
1.4541867E+004	5.205219888019201E+001	-6.4354742E-001	-4.425480017489214E-002	2.8480063E-005	-6.4351010E-001	0
1.4578996E+004	5.225219887513958E+001	-6.4556217E-001	-4.428028960632002E-002	2.8585680E-005	-6.4551014E-001	0
1.4637423E+004	5.245219887008716E+001	-6.4754504E-001	-4.423900609498088E-002	2.8646749E-005	-6.4751005E-001	0
1.4706358E+004	5.265219886503473E+001	-6.4956003E-001	-4.416865108047906E-002	2.8690190E-005	-6.4951009E-001	0
1.4750505E+004	5.285219885998231E+001	-6.5155476E-001	-4.417169122014822E-002	2.8780276E-005	-6.5151018E-001	0
1.4781594E+004	5.305219885492988E+001	-6.5348274E-001	-4.420922143366857E-002	2.8889963E-005	-6.5351009E-001	0
1.4831862E+004	5.325219884987746E+001	-6.5555590E-001	-4.419916364456189E-002	2.8975022E-005	-6.5551007E-001	0
1.4881019E+004	5.345219884482503E+001	-6.5756088E-001	-4.418789498775133E-002	2.9056231E-005	-6.5751010E-001	0
1.4937033E+004	5.365219883977261E+001	-6.5952528E-001	-4.415370036912347E-002	2.9120481E-005	-6.5951014E-001	0
1.4989011E+004	5.385219883472018E+001	-6.6153812E-001	-4.413487503168856E-002	2.9196903E-005	-6.6151005E-001	0
1.5020424E+004	5.405219882966776E+001	-6.6348112E-001	-4.417193165870481E-002	2.9307243E-005	-6.6351008E-001	0
1.5084995E+004	5.425219882461533E+001	-6.6550863E-001	-4.411725935187261E-002	2.9360417E-005	-6.6551012E-001	0
1.5138422E+004	5.445219881956291E+001	-6.6747350E-001	-4.409135287218935E-002	2.9429810E-005	-6.6751003E-001	0
1.5182493E+004	5.465219881451048E+001	-6.6949463E-001	-4.409648753785012E-002	2.9522362E-005	-6.6951013E-001	0
1.5222082E+004	5.485219880945806E+001	-6.7151701E-001	-4.411466182853663E-002	2.9623747E-005	-6.7151010E-001	0
1.5250370E+004	5.505219880440563E+001	-6.7352474E-001	-4.416448429708364E-002	2.9745872E-005	-6.7351013E-001	0
1.5295577E+004	5.525219879935321E+001	-6.7553234E-001	-4.416520751024411E-002	2.9835026E-005	-6.7551005E-001	0
1.5335750E+004	5.545219879430078E+001	-6.7752540E-001	-4.417947503973596E-002	2.9932717E-005	-6.7751008E-001	0
1.5383423E+004	5.565219878924836E+001	-6.7953223E-001	-4.417302031751058E-002	3.0016990E-005	-6.7951018E-001	0
1.5433096E+004	5.585219878419593E+001	-6.8147761E-001	-4.415689649608379E-002	3.0091936E-005	-6.8151003E-001	0
1.5476906E+004	5.605219877914351E+001	-6.8346643E-001	-4.416040473727434E-002	3.0182155E-005	-6.8351007E-001	0
1.5489786E+004	5.625219877409108E+001	-6.8551874E-001	-4.425617808749605E-002	3.0338440E-005	-6.8551016E-001	0
1.5552552E+004	5.645219876903866E+001	-6.8744504E-001	-4.420143112227692E-002	3.0386054E-005	-6.8751007E-001	0
1.5561091E+004	5.665219876398623E+001	-6.8942916E-001	-4.430468154695211E-002	3.0544939E-005	-6.8951005E-001	0
1.5630694E+004	5.685219875893381E+001	-6.9153428E-001	-4.424206943957601E-002	3.0594907E-005	-6.9151008E-001	0
1.5659022E+004	5.705219875388138E+001	-6.9345719E-001	-4.428483350566736E-002	3.0709634E-005	-6.9351017E-001	0
1.5680644E+004	5.725219874882896E+001	-6.9548786E-001	-4.435327155077351E-002	3.0847161E-005	-6.9551009E-001	0
1.5737225E+004	5.745219874377653E+001	-6.9748896E-001	-4.432096492785298E-002	3.0913383E-005	-6.9751006E-001	0
1.5777623E+004	5.765219873872411E+001	-6.9954109E-001	-4.433754510182880E-002	3.1015934E-005	-6.9951016E-001	0
1.5802302E+004	5.785219873367168E+001	-7.0151323E-001	-4.439310480570202E-002	3.1142350E-005	-7.0151007E-001	0
1.5838838E+004	5.805219872861926E+001	-7.0348680E-001	-4.441530497685542E-002	3.1245581E-005	-7.0351011E-001	0
1.5872794E+004	5.825219872356683E+001	-7.0552850E-001	-4.444891546774760E-002	3.1359978E-005	-7.0551014E-001	0
1.5923811E+004	5.845219871851441E+001	-7.0748657E-001	-4.442947582329060E-002	3.1433257E-005	-7.0751017E-001	0
1.5930034E+004	5.865219871346198E+001	-7.0953435E-001	-4.454066614275089E-002	3.1603133E-005	-7.0951009E-001	0
1.5937646E+004	5.885219870840956E+001	-7.1150029E-001	-4.464274840725080E-002	3.1763328E-005	-7.1151006E-001	0
1.5995786E+004	5.905219870335713E+001	-7.1350473E-001	-4.460579383529106E-002	3.1826447E-005	-7.1351022E-001	0
1.5999864E+004	5.925219869830471E+001	-7.1551841E-001	-4.472028133786726E-002	3.1998185E-005	-7.1551013E-001	0
1.6031737E+004	5.945219869325229E+001	-7.1758658E-001	-4.476037556030987E-002	3.2119446E-005	-7.1751010E-001	0
1.6083140E+004	5.965219868819986E+001	-7.1949691E-001	-4.473609746462304E-002	3.2187483E-005	-7.1951014E-001	0
1.6094657E+004	5.985219868314744E+001	-7.2148007E-001	-4.482730223518516E-002	3.2342006E-005	-7.2151005E-001	0
1.6129150E+004	6.005219867809501E+001	-7.2356105E-001	-4.486045760789992E-002	3.2459280E-005	-7.2351015E-001	0
1.6125037E+004	6.025219867304259E+001	-7.2550315E-001	-4.499234022443810E-002	3.2642085E-005	-7.2551012E-001	0
1.6155972E+004	6.045219866799016E+001	-7.2753406E-001	-4.503189619866066E-002	3.2762237E-005	-7.2751021E-001	0
1.6180071E+004	6.065219866293774E+001	-7.2956538E-001	-4.509036961357937E-002	3.2896372E-005	-7.2951019E-001	0
1.6192234E+004	6.085219865788531E+001	-7.3153657E-001	-4.517823590024839E-002	3.3049531E-005	-7.3151004E-001	0
1.6211171E+004	6.105219865283289E+001	-7.3344606E-001	-4.524325024676568E-002	3.3183485E-005	-7.3351014E-001	0
1.6219778E+004	6.125219864778046E+001	-7.3545510E-001	-4.534310447907414E-002	3.3347816E-005	-7.3551011E-001	0
1.6202634E+004	6.145219864272804E+001	-7.3753858E-001	-4.551967066135099E-002	3.3572513E-005	-7.3751009E-001	0
1.6216979E+004	6.165219863767561E+001	-7.3951805E-001	-4.560146530453407E-002	3.3723107E-005	-7.3951018E-001	0
1.6204727E+004	6.185219863262319E+001	-7.4149460E-001	-4.575792015868085E-002	3.3929249E-005	-7.4151015E-001	0
1.6208582E+004	6.205219862757076E+001	-7.4348623E-001	-4.586991120437067E-002	3.4103647E-005	-7.4351013E-001	0
1.6227315E+004	6.225219862251834E+001	-7.4550414E-001	-4.594131045691818E-002	3.4249439E-005	-7.4551010E-001	0
1.6215235E+004	6.245219861746591E+001	-7.4756366E-001	-4.610254824512083E-002	3.4464589E-005	-7.4751019E-001	0
1.6200998E+004	6.265219861241349E+001	-7.4957037E-001	-4.626692557214340E-002	3.4680317E-005	-7.4951011E-001	0
1.6187579E+004	6.285219860736106E+001	-7.5149238E-001	-4.642401163570797E-002	3.4887293E-005	-7.5151008E-001	0
1.6157537E+004	6.305219860230864E+001	-7.5354409E-001	-4.663731034896879E-002	3.5143268E-005	-7.5351012E-001	0
1.6146811E+004	6.325219859725621E+001	-7.5546664E-001	-4.678736057669952E-002	3.5346289E-005	-7.5551015E-001	0
1.6146044E+004	6.345219859220379E+001	-7.5751668E-001	-4.691655072541967E-002	3.5540070E-005	-7.5751013E-001	0
1.6113077E+004	6.365219858715136E+001	-7.5948983E-001	-4.713499611570926E-002	3.5798552E-005	-7.5951010E-001	0
1.6068990E+004	6.385219858209894E+001	-7.6150942E-001	-4.738999687714951E-002	3.6087928E-005	-7.6151019E-001	0
1.6047555E+004	6.405219857704651E+001	-7.6354527E-001	-4.758016217464078E-002	3.6329609E-005	-7.6351017E-001	0
1.5970633E+004	6.425219857199409E+001	-7.6554298E-001	-4.793441754131200E-002	3.6695856E-005	-7.6551008E-001	0
1.5986752E+004	6.445219856694166E+001	-7.6752567E-001	-4.801010578931997E-002	3.6848989E-005	-7.6751012E-001	0
1.5892303E+004	6.465219856188924E+001	-7.6950943E-001	-4.842025999828758E-002	3.7259848E-005	-7.6951009E-001	0
1.5841836E+004	6.485219855683681E+001	-7.7146792E-001	-4.869813996059891E-002	3.7569054E-005	-7.7151006E-001	0
1.5778066E+004	6.505219855178439E+001	-7.7346206E-001	-4.902134769777777E-002	3.7916154E-005	-7.7351016E-001	0
1.5723909E+004	6.525219854673196E+001	-7.7550906E-001	-4.932037241178255E-002	3.8248396E-005	-7.7551013E-001	0
1.5639112E+004	6.545219854167954E+001	-7.7750301E-001	-4.971528963276661E-002	3.8653787E-005	-7.7751005E-001	0
1.5556919E+004	6.565219853662711E+001	-7.7950251E-001	-5.010648456121211E-002	3.9058130E-005	-7.7951008E-001	0
1.5471341E+004	6.585219853157469E+001	-7.8149384E-001	-5.051235493078228E-002	3.9475093E-005	-7.8151017E-001	0
1.5387599E+004	6.605219852652226E+001	-7.8348047E-001	-5.091635553882190E-002	3.9891969E-005	-7.8351015E-001	0
1.5270997E+004	6.625219852146984E+001	-7.8551793E-001	-5.143854760801397E-002	4.0405903E-005	-7.8551012E-001	0
1.5191052E+004	6.645219851641741E+001	-7.8749955E-001	-5.183970040267927E-002	4.0823739E-005	-7.8751016E-001	0
1.5078863E+004	6.665219851136499E+001	-7.8952974E-001	-5.236002933994244E-002	4.1339801E-005	-7.8951019E-001	0
1.4952709E+004	6.685219850631256E+001	-7.9149389E-001	-5.293314333618637E-002	4.1896259E-005	-7.9151011E-001	0
1.4831896E+004	6.705219850126014E+001	-7.9343045E-001	-5.349487493758653E-002	4.2444462E-005	-7.9351008E-001	0
1.4706079E+004	6.725219849620771E+001	-7.9552329E-001	-5.409486102185224E-002	4.3033720E-005	-7.9551023E-001	0
1.4572323E+004	6.745219849115529E+001	-7.9750848E-001	-5.472761514446689E-002	4.3645738E-005	-7.9751021E-001	0
1.4444986E+004	6.765219848610286E+001	-7.9951799E-001	-5.534916889881225E-002	4.4252658E-005	-7.9951012E-001	0
1.4319750E+004	6.785219848105044E+001	-8.0149961E-001	-5.597162168935482E-002	4.4861234E-005	-8.0151016E-001	0
1.4179186E+004	6.805219847599801E+001	-8.0350429E-001	-5.666787344371027E-002	4.5532881E-005	-8.0351019E-001	0
1.4039313E+004	6.825219847094559E+001	-8.0554825E-001	-5.737804147930159E-002	4.6220783E-005	-8.0551004E-001	0
1.3878407E+004	6.845219846589316E+001	-8.0754215E-001	-5.818694564693361E-002	4.6988411E-005	-8.0751014E-001	0
1.3699209E+004	6.865219846084074E+001	-8.0950004E-001	-5.909100693414016E-002	4.7834172E-005	-8.0951023E-001	0
1.3561825E+004	6.885219845578831E+001	-8.1150264E-001	-5.983727362720692E-002	4.8558104E-005	-8.1151009E-001	0
1.3397570E+004	6.905219845073589E+001	-8.1347448E-001	-6.071805834290855E-002	4.9392591E-005	-8.1351018E-001	0
1.3261020E+004	6.925219844568346E+001	-8.1551307E-001	-6.149701153872189E-002	5.0151615E-005	-8.1551015E-001	0
1.3063541E+004	6.945219844063104E+001	-8.1750739E-001	-6.257931180266654E-002	5.1159048E-005	-8.1751013E-001	0
1.2898574E+004	6.965219843557861E+001	-8.1953067E-001	-6.353653360595357E-002	5.2070136E-005	-8.1951022E-001	0
1.2742959E+004	6.985219843052619E+001	-8.2152653E-001	-6.446905656455870E-002	5.2963042E-005	-8.2151014E-001	0
1.2557172E+004	7.005219842547376E+001	-8.2348973E-001	-6.557923709327473E-002	5.4003827E-005	-8.2351023E-001	0
1.2410234E+004	7.025219842042134E+001	-8.2550186E-001	-6.651783131153799E-002	5.4910593E-005	-8.2551014E-001	0
1.2240548E+004	7.045219841536891E+001	-8.2756925E-001	-6.760884000224976E-002	5.5950997E-005	-8.2751006E-001	0
1.2080772E+004	7.065219841031649E+001	-8.2951421E-001	-6.866400157758257E-002	5.6957764E-005	-8.2951021E-001	0
1.1902783E+004	7.085219840526406E+001	-8.3147979E-001	-6.985591201992303E-002	5.8083780E-005	-8.3151019E-001	0
1.1716726E+004	7.105219840021164E+001	-8.3347708E-001	-7.113566772184399E-002	5.9289949E-005	-8.3351016E-001	0
1.1521093E+004	7.125219839515921E+001	-8.3551949E-001	-7.252085251129675E-002	6.0592585E-005	-8.3551019E-001	0
1.1317837E+004	7.145219839010679E+001	-8.3751893E-001	-7.399991072256062E-002	6.1976323E-005	-8.3751017E-001	0
1.1074825E+004	7.165219838505436E+001	-8.3954012E-001	-7.580617234921772E-002	6.3642321E-005	-8.3951014E-001	0
1.0846457E+004	7.185219838000194E+001	-8.4145814E-001	-7.757908072799866E-002	6.5279550E-005	-8.4151012E-001	0
1.0550899E+004	7.205219837494951E+001	-8.4347457E-001	-7.994337905992399E-002	6.7430206E-005	-8.4351021E-001	0
1.0266547E+004	7.225219836989709E+001	-8.4551466E-001	-8.235628709731313E-002	6.9633446E-005	-8.4551018E-001	0
9.8032861E+003	7.247219836433942E+001	-8.4773898E-001	-8.647497938689730E-002	7.3308212E-005	-8.4771007E-001	0
9.4797832E+003	7.267219835928699E+001	-8.4970278E-001	-8.963314662349609E-002	7.6161530E-005	-8.4971023E-001	0
9.1509639E+003	7.287219835423457E+001	-8.5167629E-001	-9.306956785403669E-002	7.9265141E-005	-8.5171020E-001	0
8.8618955E+003	7.307219834918214E+001	-8.5370481E-001	-9.633433452834828E-002	8.2241088E-005	-8.5371011E-001	0
8.6294922E+003	7.327219834412972E+001	-8.5571051E-001	-9.916117086334997E-002	8.4853258E-005	-8.5571021E-001	0
8.4899482E+003	7.347219833907729E+001	-8.5769892E-001	-1.010252213297740E-001	8.6649226E-005	-8.5771018E-001	0
8.4261016E+003	7.367219833402487E+001	-8.5969990E-001	-1.020281970524175E-001	8.7713634E-005	-8.5971016E-001	0
8.4292148E+003	7.387219832897244E+001	-8.6170548E-001	-1.022284366243229E-001	8.8090805E-005	-8.6171013E-001	0
8.5075850E+003	7.407219832392002E+001	-8.6368906E-001	-1.015198887853781E-001	8.7681619E-005	-8.6371022E-001	0
8.5888389E+003	7.427219831886759E+001	-8.6570847E-001	-1.007945889136133E-001	8.7258726E-005	-8.6571008E-001	0
8.6905596E+003	7.447219831381517E+001	-8.6767066E-001	-9.984059324868189E-002	8.6628752E-005	-8.6771017E-001	0
8.7736436E+003	7.467219830876275E+001	-8.6966920E-001	-9.912292216851637E-002	8.6204149E-005	-8.6971015E-001	0
8.8317588E+003	7.487219830371032E+001	-8.7167579E-001	-9.869786965092653E-002	8.6032545E-005	-8.7171012E-001	0
8.8856309E+003	7.507219829865790E+001	-8.7367237E-001	-9.832417534330573E-002	8.5903113E-005	-8.7371022E-001	0
8.8678262E+003	7.527219829360547E+001	-8.7563145E-001	-9.874251948209212E-002	8.6462052E-005	-8.7571013E-001	0
8.8349111E+003	7.547219828855305E+001	-8.7767696E-001	-9.934191735748543E-002	8.7190114E-005	-8.7771028E-001	0
8.7575254E+003	7.567219828350062E+001	-8.7969261E-001	-1.004499058384878E-001	8.8365043E-005	-8.7971014E-001	0
8.6339551E+003	7.587219827844820E+001	-8.8167489E-001	-1.021171548348891E-001	9.0034133E-005	-8.8171005E-001	0
8.4831328E+003	7.607219827339577E+001	-8.8370574E-001	-1.041720911317723E-001	9.2057475E-005	-8.8371021E-001	0
8.2907490E+003	7.627219826834335E+001	-8.8567680E-001	-1.068271144331256E-001	9.4614297E-005	-8.8571018E-001	0
8.0689067E+003	7.647219826329092E+001	-8.8768226E-001	-1.100127061949348E-001	9.7656324E-005	-8.8771015E-001	0
7.6224624E+003	7.667219825823850E+001	-8.8965935E-001	-1.167154784384024E-001	1.0383702E-004	-8.8971019E-001	0
7.4515508E+003	7.687219825318607E+001	-8.9169163E-001	-1.196652446924171E-001	1.0670449E-004	-8.9171016E-001	0
7.1692861E+003	7.707219824813365E+001	-8.9366859E-001	-1.246523824150834E-001	1.1139792E-004	-8.9371020E-001	0
6.8540562E+003	7.727219824308122E+001	-8.9568990E-001	-1.306802670739575E-001	1.1704900E-004	-8.9571011E-001	0
6.5162192E+003	7.747219823802880E+001	-8.9770544E-001	-1.377647676232719E-001	1.2367219E-004	-8.9771020E-001	0
6.1731621E+003	7.767219823297637E+001	-8.9967781E-001	-1.457401925155177E-001	1.3111922E-004	-8.9971018E-001	0
5.8153823E+003	7.787219822792395E+001	-9.0173948E-001	-1.550610858108641E-001	1.3982470E-004	-9.0171015E-001	0
5.4580181E+003	7.807219822287152E+001	-9.0373242E-001	-1.655788672982359E-001	1.4963899E-004	-9.0371025E-001	0
5.1045923E+003	7.827219821781910E+001	-9.0571362E-001	-1.774311324818036E-001	1.6070179E-004	-9.0571010E-001	0
4.7472217E+003	7.847219821276667E+001	-9.0768558E-001	-1.912035283626254E-001	1.7355269E-004	-9.0771019E-001	0
4.4045967E+003	7.867219820771425E+001	-9.0971035E-001	-2.065365811780326E-001	1.8788847E-004	-9.0971017E-001	0
4.0720730E+003	7.887219820266182E+001	-9.1170901E-001	-2.238930971731268E-001	2.0412536E-004	-9.1171026E-001	0
3.7233752E+003	7.907219819760940E+001	-9.1369289E-001	-2.453937163796107E-001	2.2421450E-004	-9.1371024E-001	0
3.3791479E+003	7.927219819255697E+001	-9.1567659E-001	-2.709785369150923E-001	2.4812869E-004	-9.1571015E-001	0
3.1212126E+003	7.947219818750455E+001	-9.1767800E-001	-2.940132957049002E-001	2.6980953E-004	-9.1771019E-001	0
2.8653782E+003	7.967219818245212E+001	-9.1970336E-001	-3.209710185882755E-001	2.9519812E-004	-9.1971016E-001	0
2.6267583E+003	7.987219817739970E+001	-9.2172939E-001	-3.508999465886609E-001	3.2343480E-004	-9.2171013E-001	0
2.3618140E+003	8.007219817234727E+001	-9.2366058E-001	-3.910809918465166E-001	3.6122609E-004	-9.2371017E-001	0
2.1582913E+003	8.027219816729485E+001	-9.2570931E-001	-4.289084476653224E-001	3.9704455E-004	-9.2571020E-001	0
1.9835017E+003	8.047219816224242E+001	-9.2771506E-001	-4.677157788716961E-001	4.3390697E-004	-9.2771018E-001	0
1.8094769E+003	8.067219815719000E+001	-9.2978346E-001	-5.138410218566838E-001	4.7776088E-004	-9.2971009E-001	0
1.6364103E+003	8.087219815213757E+001	-9.3162620E-001	-5.693109033549050E-001	5.3038495E-004	-9.3171018E-001	0
1.5128744E+003	8.107219814708515E+001	-9.3368244E-001	-6.171579154381490E-001	5.7622953E-004	-9.3371016E-001	0
1.3715123E+003	8.127219814203272E+001	-9.3574059E-001	-6.822691691443872E-001	6.3842698E-004	-9.3571013E-001	0
1.2677937E+003	8.147219813698030E+001	-9.3772453E-001	-7.396507012296674E-001	6.9358863E-004	-9.3771023E-001	0
1.1638616E+003	8.167219813192787E+001	-9.3973219E-001	-8.074260583683817E-001	7.5876428E-004	-9.3971020E-001	0
1.0754911E+003	8.187219812687545E+001	-9.4172192E-001	-8.756203447086293E-001	8.2459085E-004	-9.4171017E-001	0
9.9240857E+002	8.207219812182302E+001	-9.4371736E-001	-9.509363535141180E-001	8.9741516E-004	-9.4371015E-001	0
9.2462720E+002	8.227219811677060E+001	-9.4571841E-001	-1.022810472737233E+000	9.6729072E-004	-9.4571024E-001	0
8.5283923E+002	8.248219811146555E+001	-9.4779789E-001	-1.111344134161367E+000	1.0533297E-003	-9.4781023E-001	0
7.9435034E+002	8.269219810616050E+001	-9.4990695E-001	-1.195828684409261E+000	1.1359260E-003	-9.4991010E-001	0
7.4403882E+002	8.289219810110808E+001	-9.5188046E-001	-1.279342420922920E+000	1.2177811E-003	-9.5191020E-001	0
6.9583685E+002	8.309219809605565E+001	-9.5391250E-001	-1.370885224881960E+000	1.3077046E-003	-9.5391017E-001	0
6.5642480E+002	8.329219809100323E+001	-9.5592827E-001	-1.456264752666566E+000	1.3920846E-003	-9.5591015E-001	0
6.1894464E+002	8.349219808595080E+001	-9.5786899E-001	-1.547584296159807E+000	1.4823830E-003	-9.5791024E-001	0
5.8391095E+002	8.369219808089838E+001	-9.5989257E-001	-1.643902346610069E+000	1.5779696E-003	-9.5991009E-001	0
5.5491949E+002	8.389219807584595E+001	-9.6189147E-001	-1.733389184909484E+000	1.6673323E-003	-9.6191019E-001	0
5.2707263E+002	8.409219807079353E+001	-9.6391362E-001	-1.828805994081932E+000	1.7628110E-003	-9.6391016E-001	0
5.0020364E+002	8.429219806574110E+001	-9.6589506E-001	-1.931003651431766E+000	1.8651469E-003	-9.6591026E-001	0
4.7769672E+002	8.449219806068868E+001	-9.6789598E-001	-2.026172578993705E+000	1.9611244E-003	-9.6791023E-001	0
4.5768158E+002	8.469219805563625E+001	-9.6991795E-001	-2.119198071172718E+000	2.0554482E-003	-9.6991014E-001	0
4.3723630E+002	8.489219805058383E+001	-9.7194761E-001	-2.222934456064854E+000	2.1605759E-003	-9.7191018E-001	0
4.1904138E+002	8.509219804553140E+001	-9.7388500E-001	-2.324078281686688E+000	2.2633849E-003	-9.7391027E-001	0
4.0310275E+002	8.529219804047898E+001	-9.7588390E-001	-2.420930924126345E+000	2.3625474E-003	-9.7591013E-001	0
3.8790768E+002	8.549219803542655E+001	-9.7785705E-001	-2.520849948026697E+000	2.4650309E-003	-9.7791016E-001	0
3.7315665E+002	8.569219803037413E+001	-9.7988635E-001	-2.625938427421243E+000	2.5731213E-003	-9.7991019E-001	0
3.5947977E+002	8.589219802532170E+001	-9.8190498E-001	-2.731461035657897E+000	2.6820351E-003	-9.8191017E-001	0
3.4749222E+002	8.609219802026928E+001	-9.8391587E-001	-2.831475880461618E+000	2.7859341E-003	-9.8391020E-001	0
3.3639078E+002	8.629219801521685E+001	-9.8590827E-001	-2.930842188632546E+000	2.8895414E-003	-9.8591018E-001	0
3.2524066E+002	8.649219801016443E+001	-9.8792082E-001	-3.037506970131361E+000	3.0008163E-003	-9.8791015E-001	0
3.1467596E+002	8.669219800511200E+001	-9.8989356E-001	-3.145755322764114E+000	3.1139629E-003	-9.8991013E-001	0
3.0535190E+002	8.689219800005958E+001	-9.9191439E-001	-3.248430297792357E+000	3.2221647E-003	-9.9191022E-001	0
2.9651343E+002	8.709219799500715E+001	-9.9390507E-001	-3.351973193167581E+000	3.3315432E-003	-9.9391019E-001	0
2.8800537E+002	8.729219798995473E+001	-9.9590927E-001	-3.457953882798584E+000	3.4438083E-003	-9.9591011E-001	0
2.7962564E+002	8.749219798490230E+001	-9.9789798E-001	-3.568692779392357E+000	3.5611913E-003	-9.9791014E-001	0
2.7195193E+002	8.769229797984735E+001	-9.9990612E-001	-3.676775036427724E+000	3.6764299E-003	-9.9991089E-001	0
2.6486853E+002	8.789269797478482E+001	-1.0018922E+000	-3.782601953151307E+000	3.7897595E-003	-1.0019149E+000	0
2.5800934E+002	8.809309796972229E+001	-1.0039092E+000	-3.890980395318564E+000	3.9061911E-003	-1.0039188E+000	0
2.5154684E+002	8.829319796466734E+001	-1.0059148E+000	-3.998916410534823E+000	4.0225694E-003	-1.0059202E+000	0
2.4502878E+002	8.849369795960229E+001	-1.0079442E+000	-4.113574954498841E+000	4.1462542E-003	-1.0079243E+000	0
2.3889680E+002	8.869409795453976E+001	-1.0099441E+000	-4.227532794469205E+000	4.2695715E-003	-1.0099289E+000	0
2.3322200E+002	8.889439794947975E+001	-1.0119045E+000	-4.338803794330765E+000	4.3904549E-003	-1.0119317E+000	0
2.2772987E+002	8.909499794441217E+001	-1.0139115E+000	-4.452255084136652E+000	4.5141927E-003	-1.0139377E+000	0
2.2251627E+002	8.929549793934711E+001	-1.0159063E+000	-4.565537413560516E+000	4.6381583E-003	-1.0159425E+000	0
2.1741296E+002	8.949579793428711E+001	-1.0179522E+000	-4.682113570387131E+000	4.7661676E-003	-1.0179462E+000	0
2.1252313E+002	8.969579792923469E+001	-1.0199399E+000	-4.799194671534607E+000	4.8948904E-003	-1.0199461E+000	0
2.0770680E+002	8.989579792418226E+001	-1.0219774E+000	-4.920288537905602E+000	5.0284239E-003	-1.0219461E+000	0
2.0305354E+002	9.009599791912478E+001	-1.0239085E+000	-5.042554296626037E+000	5.1631141E-003	-1.0239478E+000	0
1.9863385E+002	9.029629791406478E+001	-1.0259839E+000	-5.165202043909702E+000	5.2994145E-003	-1.0259511E+000	0
1.9438939E+002	9.049649790900730E+001	-1.0280186E+000	-5.288450251204787E+000	5.4366253E-003	-1.0279530E+000	0
1.9022435E+002	9.069679790394730E+001	-1.0299726E+000	-5.414514982409010E+000	5.5768020E-003	-1.0299556E+000	0
1.8627734E+002	9.089709789888730E+001	-1.0319837E+000	-5.540039005550941E+000	5.7172300E-003	-1.0319589E+000	0
1.8245566E+002	9.109729789382982E+001	-1.0340143E+000	-5.667208996165016E+000	5.8599752E-003	-1.0339609E+000	0
1.7868774E+002	9.129739788877487E+001	-1.0359555E+000	-5.797574943121589E+000	6.0060299E-003	-1.0359621E+000	0
1.7503203E+002	9.149739788372244E+001	-1.0379615E+000	-5.930122918045988E+000	6.1552390E-003	-1.0379622E+000	0
1.7145868E+002	9.169759787866496E+001	-1.0400113E+000	-6.065666983432209E+000	6.3083624E-003	-1.0399638E+000	0
1.6800346E+002	9.189809787359991E+001	-1.0419867E+000	-6.202174200511393E+000	6.4625829E-003	-1.0419685E+000	0
1.6455267E+002	9.209869786853233E+001	-1.0439782E+000	-6.344340612042828E+000	6.6233533E-003	-1.0439746E+000	0
1.6132217E+002	9.229909786346980E+001	-1.0459981E+000	-6.483907871052580E+000	6.7821555E-003	-1.0459790E+000	0
1.5807639E+002	9.249919785841485E+001	-1.0479850E+000	-6.629611228666590E+000	6.9477330E-003	-1.0479802E+000	0
1.5495360E+002	9.269949785335484E+001	-1.0500154E+000	-6.776321782223832E+000	7.1152425E-003	-1.0499824E+000	0
1.5190106E+002	9.289989784829231E+001	-1.0519632E+000	-6.925318537475079E+000	7.2851805E-003	-1.0519871E+000	0
1.4892879E+002	9.310019784323231E+001	-1.0540222E+000	-7.077356633864923E+000	7.4596908E-003	-1.0539896E+000	0
1.4593759E+002	9.330049783817230E+001	-1.0560063E+000	-7.236012911933507E+000	7.6412754E-003	-1.0559930E+000	0
1.4313495E+002	9.350069783311483E+001	-1.0580378E+000	-7.391889463835135E+000	7.8208977E-003	-1.0579950E+000	0
1.4033340E+002	9.370079782805988E+001	-1.0600134E+000	-7.553536327450153E+000	8.0068503E-003	-1.0599961E+000	0
1.3762350E+002	9.390089782300493E+001	-1.0620055E+000	-7.716745058888776E+000	8.1952261E-003	-1.0619969E+000	0
1.3486859E+002	9.410099781794997E+001	-1.0640185E+000	-7.889297666733455E+000	8.3943587E-003	-1.0639982E+000	0
1.3224994E+002	9.430109781289502E+001	-1.0660127E+000	-8.060591865191029E+000	8.5926941E-003	-1.0659990E+000	0
1.2971288E+002	9.450139780783502E+001	-1.0680215E+000	-8.233735810689026E+000	8.7938076E-003	-1.0680017E+000	0
1.2713889E+002	9.470169780277502E+001	-1.0700238E+000	-8.416179527642910E+000	9.0055121E-003	-1.0700049E+000	0
1.2465231E+002	9.490179779772006E+001	-1.0719730E+000	-8.599703714014943E+000	9.2186499E-003	-1.0720061E+000	0
1.2229001E+002	9.510209779266006E+001	-1.0740399E+000	-8.782728372456660E+000	9.4330013E-003	-1.0740085E+000	0
1.1989281E+002	9.530249778759753E+001	-1.0760019E+000	-8.974699224670871E+000	9.6567934E-003	-1.0760131E+000	0
1.1759621E+002	9.550259778254258E+001	-1.0780476E+000	-9.167367106595037E+000	9.8828580E-003	-1.0780143E+000	0
1.1525170E+002	9.570259777749015E+001	-1.0800536E+000	-9.371258927783714E+000	1.0121462E-002	-1.0800142E+000	0
1.1303915E+002	9.590269777243520E+001	-1.0820533E+000	-9.572376128495577E+000	1.0357821E-002	-1.0820150E+000	0
1.1076562E+002	9.610299776737520E+001	-1.0840255E+000	-9.786660919608892E+000	1.0608990E-002	-1.0840178E+000	0
1.0859040E+002	9.630339776231267E+001	-1.0860217E+000	-1.000108351352272E+001	1.0861393E-002	-1.0860217E+000	0
1.0641739E+002	9.650359775725519E+001	-1.0880394E+000	-1.022426319230440E+001	1.1124401E-002	-1.0880241E+000	0
1.0428972E+002	9.670389775219519E+001	-1.0900866E+000	-1.045248389357978E+001	1.1394112E-002	-1.0900265E+000	0
1.0220895E+002	9.690419774713519E+001	-1.0920461E+000	-1.068444728141737E+001	1.1667909E-002	-1.0920302E+000	0
1.0000480E+002	9.711429774182761E+001	-1.0941302E+000	-1.094077639313900E+001	1.1970634E-002	-1.0941310E+000	0
9.7783905E+001	9.732449773651751E+001	-1.0961883E+000	-1.121031460138670E+001	1.2288616E-002	-1.0962329E+000	0
9.5807907E+001	9.752469773146004E+001	-1.0982156E+000	-1.146268195362264E+001	1.2588496E-002	-1.0982350E+000	0
9.3858170E+001	9.772499772640003E+001	-1.1002691E+000	-1.172267768604411E+001	1.2898100E-002	-1.1002377E+000	0
9.1963493E+001	9.792539772133750E+001	-1.1022186E+000	-1.198539369150389E+001	1.3210524E-002	-1.1022418E+000	0
9.0153885E+001	9.812559771628003E+001	-1.1042517E+000	-1.224852067752489E+001	1.3525451E-002	-1.1042442E+000	0
8.8325386E+001	9.832579771122255E+001	-1.1062346E+000	-1.252453663649942E+001	1.3855075E-002	-1.1062458E+000	0
8.6542213E+001	9.852619770616002E+001	-1.1082536E+000	-1.280593054795634E+001	1.4192219E-002	-1.1082497E+000	0
8.4790421E+001	9.872639770110254E+001	-1.1102215E+000	-1.309371342572507E+001	1.4536922E-002	-1.1102521E+000	0
8.3064140E+001	9.892659769604506E+001	-1.1122679E+000	-1.339047008110546E+001	1.4893790E-002	-1.1122540E+000	0
8.1368767E+001	9.912659769099264E+001	-1.1142678E+000	-1.369404811613144E+001	1.5258837E-002	-1.1142542E+000	0
7.9695679E+001	9.932659768594021E+001	-1.1162410E+000	-1.400629223163435E+001	1.5634397E-002	-1.1162542E+000	0
7.8065308E+001	9.952669768088526E+001	-1.1182519E+000	-1.432456885204591E+001	1.6018476E-002	-1.1182550E+000	0
7.6472435E+001	9.972679767583031E+001	-1.1202604E+000	-1.464920491128819E+001	1.6410923E-002	-1.1202562E+000	0
7.4860207E+001	9.992689767077536E+001	-1.1222438E+000	-1.499119232272631E+001	1.6823772E-002	-1.1222569E+000	0
7.3349419E+001	1.001271976657154E+002	-1.1241970E+000	-1.532659758880101E+001	1.7230116E-002	-1.1242598E+000	0
7.1833412E+001	1.003274976606554E+002	-1.1262746E+000	-1.567898015133051E+001	1.7658837E-002	-1.1262630E+000	0
7.0325516E+001	1.005277976555954E+002	-1.1282226E+000	-1.604286320366157E+001	1.8099921E-002	-1.1282656E+000	0
6.8881065E+001	1.007280976505353E+002	-1.1303079E+000	-1.640955945769618E+001	1.8547855E-002	-1.1302689E+000	0
6.7469872E+001	1.009283976454753E+002	-1.1322784E+000	-1.678198578300973E+001	1.9001881E-002	-1.1322716E+000	0
6.6111183E+001	1.011286976404153E+002	-1.1342864E+000	-1.715725392646175E+001	1.9461241E-002	-1.1342750E+000	0
6.4742378E+001	1.013289976353553E+002	-1.1362894E+000	-1.755093720407444E+001	1.9942943E-002	-1.1362780E+000	0
6.3406048E+001	1.015291976302979E+002	-1.1382591E+000	-1.795190005900915E+001	2.0433912E-002	-1.1382802E+000	0
6.2092834E+001	1.017293976252404E+002	-1.1402831E+000	-1.836416613798696E+001	2.0940349E-002	-1.1402818E+000	0
6.0808792E+001	1.019297976201779E+002	-1.1422628E+000	-1.878450154523813E+001	2.1456838E-002	-1.1422859E+000	0
5.9543049E+001	1.021299976151204E+002	-1.1442431E+000	-1.921707336364690E+001	2.1989005E-002	-1.1442883E+000	0
5.8306808E+001	1.023301976100629E+002	-1.1463048E+000	-1.965987997756014E+001	2.2536216E-002	-1.1462898E+000	0
5.7123501E+001	1.025304976050029E+002	-1.1482860E+000	-2.010181401382158E+001	2.3082631E-002	-1.1482931E+000	0
5.5895660E+001	1.027306975999454E+002	-1.1502998E+000	-2.057941113812274E+001	2.3672493E-002	-1.1502950E+000	0
5.4736504E+001	1.029308975948879E+002	-1.1522760E+000	-2.105132646862833E+001	2.4256939E-002	-1.1522970E+000	0
5.3567501E+001	1.031311975898279E+002	-1.1542515E+000	-2.154760695374907E+001	2.4871357E-002	-1.1542997E+000	0
5.2317188E+001	1.033314975847679E+002	-1.1562520E+000	-2.210080539428801E+001	2.5554102E-002	-1.1563030E+000	0
5.1171124E+001	1.035316975797105E+002	-1.1582688E+000	-2.263520353798901E+001	2.6217651E-002	-1.1583050E+000	0
5.0118958E+001	1.037319975746505E+002	-1.1602763E+000	-2.315044726460866E+001	2.6860915E-002	-1.1603078E+000	0
4.9020576E+001	1.039322975695904E+002	-1.1622995E+000	-2.371044136919403E+001	2.7558634E-002	-1.1623110E+000	0
4.7952793E+001	1.041325975645304E+002	-1.1643091E+000	-2.428032020814851E+001	2.8269799E-002	-1.1643140E+000	0
4.6876190E+001	1.043326975594755E+002	-1.1662961E+000	-2.488035265330393E+001	2.9017858E-002	-1.1663150E+000	0
4.5841988E+001	1.045328975544180E+002	-1.1683106E+000	-2.548560286042431E+001	2.9775102E-002	-1.1683171E+000	0
4.4795631E+001	1.047333975493530E+002	-1.1703001E+000	-2.612531740419740E+001	3.0574461E-002	-1.1703216E+000	0
4.3789036E+001	1.049336975442930E+002	-1.1722937E+000	-2.677139590212335E+001	3.1383939E-002	-1.1723249E+000	0
4.2849113E+001	1.051339975392330E+002	-1.1742865E+000	-2.740515336383174E+001	3.2181501E-002	-1.1743277E+000	0
4.1895348E+001	1.053342975341729E+002	-1.1762936E+000	-2.807695080500594E+001	3.3026736E-002	-1.1763310E+000	0
4.0956535E+001	1.055344975291155E+002	-1.1782806E+000	-2.876904870038858E+001	3.3898011E-002	-1.1783329E+000	0
4.0056744E+001	1.057345975240605E+002	-1.1803607E+000	-2.946721389180124E+001	3.4781940E-002	-1.1803342E+000	0
3.9080986E+001	1.059346975190056E+002	-1.1823279E+000	-3.025327502311956E+001	3.5769291E-002	-1.1823350E+000	0
3.8138386E+001	1.061349975139456E+002	-1.1843396E+000	-3.105374309170568E+001	3.6778178E-002	-1.1843376E+000	0
3.7259010E+001	1.063353975088830E+002	-1.1863874E+000	-3.184162363520633E+001	3.7776500E-002	-1.1863418E+000	0
3.6410076E+001	1.065356975038230E+002	-1.1883314E+000	-3.263743201671561E+001	3.8784083E-002	-1.1883450E+000	0
3.5618679E+001	1.067362974987554E+002	-1.1904145E+000	-3.342107510898722E+001	3.9784934E-002	-1.1903504E+000	0
3.4690872E+001	1.069368974936879E+002	-1.1924417E+000	-3.437335678412154E+001	4.0988225E-002	-1.1923563E+000	0
3.3854187E+001	1.071373974886228E+002	-1.1943823E+000	-3.528019447433701E+001	4.2138040E-002	-1.1943622E+000	0
3.3077347E+001	1.073375974835653E+002	-1.1964102E+000	-3.617007707698542E+001	4.3274250E-002	-1.1963640E+000	0
3.2338535E+001	1.075378974785053E+002	-1.1983933E+000	-3.705775031148210E+001	4.4409763E-002	-1.1983665E+000	0
3.1552240E+001	1.077383974734403E+002	-1.2004168E+000	-3.804537459119899E+001	4.5670308E-002	-1.2003716E+000	0
3.0893196E+001	1.079387974683777E+002	-1.2024326E+000	-3.892224758934958E+001	4.6801381E-002	-1.2023757E+000	0
3.0243673E+001	1.081391974633152E+002	-1.2044438E+000	-3.982465244921434E+001	4.7966555E-002	-1.2043802E+000	0
2.9616583E+001	1.083394974582552E+002	-1.2064233E+000	-4.073472306683038E+001	4.9143318E-002	-1.2063825E+000	0
2.8973701E+001	1.085400974531876E+002	-1.2084464E+000	-4.170838879858849E+001	5.0402351E-002	-1.2083884E+000	0
2.8361155E+001	1.087408974481150E+002	-1.2104628E+000	-4.268030864981330E+001	5.1662926E-002	-1.2103964E+000	0
2.7756618E+001	1.089411974430550E+002	-1.2124187E+000	-4.368034633054742E+001	5.2958868E-002	-1.2124002E+000	0
2.7137648E+001	1.091413974379975E+002	-1.2144421E+000	-4.475119376318393E+001	5.4347735E-002	-1.2144018E+000	0
2.6576767E+001	1.093417974329350E+002	-1.2164702E+000	-4.577194228075247E+001	5.5680204E-002	-1.2164057E+000	0
2.6008423E+001	1.095421974278725E+002	-1.2184476E+000	-4.684819086648008E+001	5.7082064E-002	-1.2184097E+000	0
2.5373650E+001	1.097425974228099E+002	-1.2204514E+000	-4.809916343811133E+001	5.8702689E-002	-1.2204140E+000	0
2.4654970E+001	1.099426974177550E+002	-1.2224939E+000	-4.958407388284024E+001	6.0616229E-002	-1.2224149E+000	0
2.4036922E+001	1.101431974126899E+002	-1.2245295E+000	-5.094368929857148E+001	6.2382050E-002	-1.2244196E+000	0
2.3573053E+001	1.103435974076274E+002	-1.2264746E+000	-5.202866939026660E+001	6.3811846E-002	-1.2264237E+000	0
2.3113657E+001	1.105440974025623E+002	-1.2284777E+000	-5.314943214049504E+001	6.5292895E-002	-1.2284286E+000	0
2.2662327E+001	1.107443973975023E+002	-1.2304782E+000	-5.429619865082270E+001	6.6810288E-002	-1.2304323E+000	0
2.2184052E+001	1.109447973924398E+002	-1.2324898E+000	-5.555747158664690E+001	6.8474017E-002	-1.2324357E+000	0
2.1697449E+001	1.111450973873798E+002	-1.2345083E+000	-5.689647214153047E+001	7.0239164E-002	-1.2344389E+000	0
2.1285166E+001	1.113452973823223E+002	-1.2365123E+000	-5.809267690113938E+001	7.1832307E-002	-1.2364409E+000	0
2.0817654E+001	1.115454973772648E+002	-1.2385281E+000	-5.949412662267332E+001	7.3685147E-002	-1.2384430E+000	0
2.0393452E+001	1.117456973722074E+002	-1.2404567E+000	-6.082622332044343E+001	7.5452298E-002	-1.2404450E+000	0
2.0036453E+001	1.119458973671499E+002	-1.2424860E+000	-6.201127479147192E+001	7.7048138E-002	-1.2424470E+000	0
1.9711464E+001	1.121460973620924E+002	-1.2444962E+000	-6.313565894353684E+001	7.8572087E-002	-1.2444490E+000	0
1.9374289E+001	1.123462973570349E+002	-1.2465249E+000	-6.433913402908709E+001	8.0200337E-002	-1.2464510E+000	0
1.8952393E+001	1.125465973519749E+002	-1.2485073E+000	-6.587597037771627E+001	8.2246624E-002	-1.2484537E+000	0
1.8603531E+001	1.127468973469149E+002	-1.2504878E+000	-6.721776410971142E+001	8.4054992E-002	-1.2504569E+000	0
1.8269968E+001	1.129470973418574E+002	-1.2525318E+000	-6.855686827567092E+001	8.5869655E-002	-1.2524590E+000	0
1.7898659E+001	1.131472973368000E+002	-1.2545501E+000	-7.009184987349801E+001	8.7933734E-002	-1.2544611E+000	0
1.7586246E+001	1.133473973317450E+002	-1.2565027E+000	-7.144803442706302E+001	8.9774653E-002	-1.2564623E+000	0
1.7299242E+001	1.135475973266875E+002	-1.2585237E+000	-7.275022270765885E+001	9.1557883E-002	-1.2584636E+000	0
1.7019670E+001	1.137478973216275E+002	-1.2604984E+000	-7.406127372802234E+001	9.3354121E-002	-1.2604671E+000	0
1.6719147E+001	1.139480973165701E+002	-1.2625104E+000	-7.551284628584290E+001	9.5335752E-002	-1.2624691E+000	0
1.6430552E+001	1.141482973115126E+002	-1.2645561E+000	-7.696369768287059E+001	9.7324908E-002	-1.2644709E+000	0
1.6153536E+001	1.143485973064526E+002	-1.2665373E+000	-7.840619859140065E+001	9.9304378E-002	-1.2664737E+000	0
1.5788910E+001	1.145491973013850E+002	-1.2685122E+000	-8.034197767344335E+001	1.0191479E-001	-1.2684797E+000	0
1.5480696E+001	1.147494972963250E+002	-1.2705421E+000	-8.207267877544507E+001	1.0427680E-001	-1.2704831E+000	0
1.5202031E+001	1.149496972912675E+002	-1.2725432E+000	-8.370876219634113E+001	1.0652301E-001	-1.2724850E+000	0
1.4948800E+001	1.151498972862100E+002	-1.2745167E+000	-8.525879534318142E+001	1.0866376E-001	-1.2744871E+000	0
1.4581780E+001	1.153501972811500E+002	-1.2765433E+000	-8.754371856483954E+001	1.1175334E-001	-1.2764897E+000	0
1.4387166E+001	1.155504972760900E+002	-1.2785344E+000	-8.886631313038561E+001	1.1361864E-001	-1.2784929E+000	0
1.4196395E+001	1.157506972710326E+002	-1.2805319E+000	-9.020119949470404E+001	1.1550551E-001	-1.2804949E+000	0
1.4016329E+001	1.159508972659751E+002	-1.2825662E+000	-9.150514194349404E+001	1.1736140E-001	-1.2824970E+000	0
1.3820703E+001	1.161510972609176E+002	-1.2845603E+000	-9.294464474005486E+001	1.1939301E-001	-1.2844989E+000	0
1.3647981E+001	1.163511972558626E+002	-1.2865353E+000	-9.426561507616452E+001	1.2127604E-001	-1.2865002E+000	0
1.3442438E+001	1.165512972508077E+002	-1.2885847E+000	-9.585944862516362E+001	1.2352302E-001	-1.2885010E+000	0
1.3238975E+001	1.167514972457502E+002	-1.2905604E+000	-9.748189924016538E+001	1.2580627E-001	-1.2905029E+000	0
1.3060325E+001	1.169517972406902E+002	-1.2925628E+000	-9.896866285741430E+001	1.2792322E-001	-1.2925056E+000	0
1.2877504E+001	1.171520972356302E+002	-1.2945954E+000	-1.005315423200764E+002	1.3014767E-001	-1.2945091E+000	0
1.2705894E+001	1.173521972305753E+002	-1.2966028E+000	-1.020473595995481E+002	1.3231489E-001	-1.2965102E+000	0
1.2531561E+001	1.175521972255228E+002	-1.2985964E+000	-1.036260648054867E+002	1.3456844E-001	-1.2985102E+000	0
1.2316130E+001	1.177521972204704E+002	-1.3005916E+000	-1.056006695494358E+002	1.3734335E-001	-1.3005102E+000	0
1.2179769E+001	1.179524972154104E+002	-1.3026093E+000	-1.069486118388149E+002	1.3931225E-001	-1.3025126E+000	0
1.2015552E+001	1.181527972103504E+002	-1.3046130E+000	-1.085770380934885E+002	1.4165102E-001	-1.3045162E+000	0
1.1677867E+001	1.183728972047902E+002	-1.3067516E+000	-1.118998499290461E+002	1.4622530E-001	-1.3067169E+000	0
1.1540933E+001	1.185732971997277E+002	-1.3087811E+000	-1.134034153124840E+002	1.4842026E-001	-1.3087205E+000	0
1.1412669E+001	1.187736971946651E+002	-1.3107736E+000	-1.148525061512019E+002	1.5054563E-001	-1.3107251E+000	0
1.1138593E+001	1.189738971896077E+002	-1.3127470E+000	-1.178557353581887E+002	1.5471476E-001	-1.3127271E+000	0
1.0921247E+001	1.191741971845477E+002	-1.3147290E+000	-1.203826719982985E+002	1.5827058E-001	-1.3147300E+000	0
1.0668006E+001	1.193741971794952E+002	-1.3167703E+000	-1.234317239763514E+002	1.6253123E-001	-1.3167303E+000	0
1.0488838E+001	1.195742971744403E+002	-1.3187897E+000	-1.257326740576763E+002	1.6581495E-001	-1.3187310E+000	0
1.0363833E+001	1.197744971693828E+002	-1.3207796E+000	-1.274412187095475E+002	1.6832176E-001	-1.3207331E+000	0
1.0267953E+001	1.199745971643279E+002	-1.3227422E+000	-1.288223927513009E+002	1.7039882E-001	-1.3227342E+000	0
1.0169565E+001	1.201746971592729E+002	-1.3247800E+000	-1.302690928390512E+002	1.7257789E-001	-1.3247350E+000	0
1.0047113E+001	1.203748971542154E+002	-1.3267486E+000	-1.320527172530927E+002	1.7520076E-001	-1.3267370E+000	0
9.8863440E+000	1.205750971491580E+002	-1.3287443E+000	-1.344019906058920E+002	1.7858587E-001	-1.3287389E+000	0
9.5600729E+000	1.207753971440980E+002	-1.3307968E+000	-1.392036313013778E+002	1.8525176E-001	-1.3307416E+000	0
9.4370756E+000	1.209758971390329E+002	-1.3328013E+000	-1.412303349747979E+002	1.8823197E-001	-1.3327469E+000	0
9.3567724E+000	1.211760971339754E+002	-1.3347828E+000	-1.426541884618201E+002	1.9041236E-001	-1.3347490E+000	0
9.2018223E+000	1.213761971289205E+002	-1.3367804E+000	-1.452734481526068E+002	1.9419870E-001	-1.3367501E+000	0
9.0582647E+000	1.215761971238680E+002	-1.3387760E+000	-1.477960813104968E+002	1.9786584E-001	-1.3387501E+000	0
8.9946394E+000	1.217763971188106E+002	-1.3407888E+000	-1.490653198216362E+002	1.9986512E-001	-1.3407516E+000	0
8.9436731E+000	1.219767971137480E+002	-1.3428484E+000	-1.501450701249987E+002	2.0162207E-001	-1.3427556E+000	0
8.7744637E+000	1.221769971086906E+002	-1.3448181E+000	-1.532649856630094E+002	2.0611353E-001	-1.3447582E+000	0
8.6451569E+000	1.223770971036356E+002	-1.3468274E+000	-1.557898105970173E+002	2.0982198E-001	-1.3467590E+000	0
8.5526619E+000	1.225772970985781E+002	-1.3488401E+000	-1.577099735922145E+002	2.1272554E-001	-1.3487611E+000	0
8.4149904E+000	1.227775970935181E+002	-1.3508416E+000	-1.605280109061709E+002	2.1684793E-001	-1.3507637E+000	0
8.3443975E+000	1.229777970884606E+002	-1.3528112E+000	-1.621221036694753E+002	2.1932060E-001	-1.3527662E+000	0
8.1858654E+000	1.231778970834057E+002	-1.3548057E+000	-1.655055047287447E+002	2.2422780E-001	-1.3547668E+000	0
8.1305218E+000	1.233780970783482E+002	-1.3568319E+000	-1.668812875456383E+002	2.2642985E-001	-1.3567691E+000	0
7.9579682E+000	1.235781970732933E+002	-1.3588146E+000	-1.707489353491339E+002	2.3201615E-001	-1.3587703E+000	0
7.8546214E+000	1.237782970682383E+002	-1.3608238E+000	-1.732513448066095E+002	2.3576455E-001	-1.3607709E+000	0
7.7323332E+000	1.239786970631758E+002	-1.3628334E+000	-1.762512505718358E+002	2.4020109E-001	-1.3627744E+000	0
7.6395884E+000	1.241791970581107E+002	-1.3648326E+000	-1.786526395583651E+002	2.4383095E-001	-1.3647796E+000	0
7.6048169E+000	1.243794970530507E+002	-1.3668741E+000	-1.797379350149999E+002	2.4567913E-001	-1.3667829E+000	0
7.5738540E+000	1.245795970479958E+002	-1.3688637E+000	-1.807354231291620E+002	2.4740216E-001	-1.3687842E+000	0
7.5528374E+000	1.247796970429408E+002	-1.3708733E+000	-1.815044165876516E+002	2.4881956E-001	-1.3707850E+000	0
7.5114532E+000	1.249599970383861E+002	-1.3726553E+000	-1.827416361028575E+002	2.5084126E-001	-1.3725874E+000	0
7.4807496E+000	1.250907970350818E+002	-1.3739681E+000	-1.836671726224074E+002	2.5235283E-001	-1.3738947E+000	0
7.4609509E+000	1.251718970330330E+002	-1.3748038E+000	-1.842665603835903E+002	2.5333035E-001	-1.3747058E+000	0
7.4554048E+000	1.252730970304765E+002	-1.3758113E+000	-1.845387893532305E+002	2.5389054E-001	-1.3757174E+000	0
7.3246341E+000	1.253937970274274E+002	-1.3770310E+000	-1.879999677249283E+002	2.5888178E-001	-1.3769249E+000	0
7.2917013E+000	1.255245970241231E+002	-1.3782889E+000	-1.890215754961625E+002	2.6052633E-001	-1.3782331E+000	0
7.2935944E+000	1.256848970200735E+002	-1.3799176E+000	-1.891958336858509E+002	2.6107466E-001	-1.3798364E+000	0
7.2760882E+000	1.258453970160190E+002	-1.3814857E+000	-1.898665436578538E+002	2.6229793E-001	-1.3814415E+000	0
7.2499976E+000	1.259760970127172E+002	-1.3828171E+000	-1.907334615590212E+002	2.6374951E-001	-1.3827477E+000	0
7.2209511E+000	1.260769970101683E+002	-1.3838835E+000	-1.916483686234642E+002	2.6521900E-001	-1.3837571E+000	0
7.1913228E+000	1.262176970066139E+002	-1.3852719E+000	-1.926310262623858E+002	2.6684636E-001	-1.3851640E+000	0
7.1239510E+000	1.263683970028069E+002	-1.3867676E+000	-1.946627170582231E+002	2.6995194E-001	-1.3866712E+000	0
7.1059875E+000	1.265088969992576E+002	-1.3881881E+000	-1.953547090124762E+002	2.7118909E-001	-1.3880752E+000	0
7.0680256E+000	1.266497969956981E+002	-1.3895955E+000	-1.966030686871372E+002	2.7319875E-001	-1.3894850E+000	0
7.0035911E+000	1.267907969921362E+002	-1.3909794E+000	-1.986094610263494E+002	2.7626166E-001	-1.3908952E+000	0
7.0041938E+000	1.269513969880791E+002	-1.3925908E+000	-1.988224180410103E+002	2.7687827E-001	-1.3925010E+000	0
6.9686737E+000	1.270823969847697E+002	-1.3938962E+000	-2.000231779139828E+002	2.7881154E-001	-1.3938109E+000	0
6.9354858E+000	1.272329969809653E+002	-1.3953984E+000	-2.011969144760685E+002	2.8074986E-001	-1.3953168E+000	0
6.8916812E+000	1.273540969779060E+002	-1.3966306E+000	-2.026545657662919E+002	2.8303358E-001	-1.3965274E+000	0
6.7194166E+000	1.274851969745941E+002	-1.3979263E+000	-2.080428194191684E+002	2.9082853E-001	-1.3978388E+000	0
6.4195027E+000	1.276457969705370E+002	-1.3995591E+000	-2.180167483723617E+002	3.0512732E-001	-1.3994457E+000	0
6.4198818E+000	1.278260969659823E+002	-1.4013653E+000	-2.182852082146801E+002	3.0589733E-001	-1.4012485E+000	0
6.4284663E+000	1.279960969616877E+002	-1.4030173E+000	-2.182506971435710E+002	3.0620950E-001	-1.4029486E+000	0
6.4005151E+000	1.281565969576332E+002	-1.4046566E+000	-2.194599464531420E+002	3.0826586E-001	-1.4045533E+000	0
6.3408594E+000	1.282972969540788E+002	-1.4060324E+000	-2.217416139836087E+002	3.1177589E-001	-1.4059603E+000	0
6.3443737E+000	1.284376969505320E+002	-1.4074622E+000	-2.218441631093644E+002	3.1223729E-001	-1.4073644E+000	0
6.3420663E+000	1.285881969467300E+002	-1.4089559E+000	-2.221603897019554E+002	3.1301421E-001	-1.4088691E+000	0
6.3389716E+000	1.287286969431807E+002	-1.4103971E+000	-2.224961939271634E+002	3.1380796E-001	-1.4102737E+000	0
6.2918286E+000	1.288390969403918E+002	-1.4114504E+000	-2.243307125989081E+002	3.1663167E-001	-1.4113784E+000	0
6.2607131E+000	1.289298969380980E+002	-1.4124078E+000	-2.255985398038513E+002	3.1863713E-001	-1.4122858E+000	0
6.2543426E+000	1.290108969360517E+002	-1.4131825E+000	-2.259522066860966E+002	3.1931171E-001	-1.4130963E+000	0
6.2102408E+000	1.291312969330102E+002	-1.4143869E+000	-2.277507291530367E+002	3.2212764E-001	-1.4143008E+000	0
6.1317148E+000	1.292518969299636E+002	-1.4155920E+000	-2.308639646387473E+002	3.2680917E-001	-1.4155059E+000	0
6.1360683E+000	1.293623969271721E+002	-1.4167167E+000	-2.308834539783238E+002	3.2709643E-001	-1.4166108E+000	0
6.0941725E+000	1.294631969246257E+002	-1.4177371E+000	-2.326381700587975E+002	3.2981977E-001	-1.4176185E+000	0
5.9071898E+000	1.296141969208111E+002	-1.4192544E+000	-2.402588156166767E+002	3.4098840E-001	-1.4191295E+000	0
5.5979419E+000	1.297547969172592E+002	-1.4206781E+000	-2.537858037045721E+002	3.6054793E-001	-1.4205346E+000	0
5.5120645E+000	1.298653969144652E+002	-1.4217476E+000	-2.579337781298174E+002	3.6671671E-001	-1.4216410E+000	0
5.5258470E+000	1.300162969106532E+002	-1.4232422E+000	-2.575609106599065E+002	3.6657155E-001	-1.4231502E+000	0
5.5198011E+000	1.301769969065936E+002	-1.4249181E+000	-2.581466363974237E+002	3.6783782E-001	-1.4247571E+000	0
5.4899220E+000	1.303176969030392E+002	-1.4262577E+000	-2.597956274126002E+002	3.7053552E-001	-1.4261634E+000	0
5.4904594E+000	1.304483968997374E+002	-1.4276066E+000	-2.600158770480548E+002	3.7120038E-001	-1.4274712E+000	0
5.5051532E+000	1.305792968964306E+002	-1.4288317E+000	-2.595443959552763E+002	3.7084526E-001	-1.4287798E+000	0
5.5018926E+000	1.306902968936265E+002	-1.4300226E+000	-2.599146653034932E+002	3.7168384E-001	-1.4298900E+000	0
5.4663267E+000	1.308207968903298E+002	-1.4312956E+000	-2.618386595851948E+002	3.7476853E-001	-1.4311953E+000	0
5.4666348E+000	1.309610968867855E+002	-1.4327480E+000	-2.620895611716760E+002	3.7550828E-001	-1.4325982E+000	0
5.4839168E+000	1.310917968834838E+002	-1.4340473E+000	-2.615005694632109E+002	3.7500420E-001	-1.4339045E+000	0
5.4860344E+000	1.312225968801795E+002	-1.4353014E+000	-2.616282293324189E+002	3.7551537E-001	-1.4352131E+000	0
5.4899516E+000	1.313627968766377E+002	-1.4367546E+000	-2.617062455853757E+002	3.7600765E-001	-1.4366155E+000	0
5.5143261E+000	1.314931968733436E+002	-1.4380547E+000	-2.607852188674058E+002	3.7502339E-001	-1.4379191E+000	0
5.5097256E+000	1.316140968702894E+002	-1.4392202E+000	-2.612145028622258E+002	3.7594518E-001	-1.4391276E+000	0
5.5041623E+000	1.317449968669825E+002	-1.4405547E+000	-2.617209834314099E+002	3.7702340E-001	-1.4404364E+000	0
5.4889488E+000	1.318656968639334E+002	-1.4417746E+000	-2.626686115948053E+002	3.7870893E-001	-1.4416444E+000	0
5.4914432E+000	1.319962968606342E+002	-1.4430465E+000	-2.627809151383316E+002	3.7920508E-001	-1.4429497E+000	0
5.5212994E+000	1.321068968578402E+002	-1.4441561E+000	-2.615608942500357E+002	3.7773475E-001	-1.4440560E+000	0
5.4930782E+000	1.322176968550411E+002	-1.4452714E+000	-2.631077314844424E+002	3.8026208E-001	-1.4451642E+000	0
5.4833651E+000	1.323288968522320E+002	-1.4463950E+000	-2.637787206641035E+002	3.8152823E-001	-1.4462754E+000	0
5.4220009E+000	1.324794968484275E+002	-1.4478918E+000	-2.670401397818068E+002	3.8664523E-001	-1.4477820E+000	0
5.3979950E+000	1.326301968446205E+002	-1.4494380E+000	-2.685141492520261E+002	3.8919461E-001	-1.4492892E+000	0
5.4019051E+000	1.327510968415663E+002	-1.4506552E+000	-2.685451276146368E+002	3.8956639E-001	-1.4504974E+000	0
5.4132290E+000	1.328617968387698E+002	-1.4517574E+000	-2.681869722683714E+002	3.8934243E-001	-1.4516045E+000	0
5.4146438E+000	1.330120968349729E+002	-1.4532371E+000	-2.683901458966229E+002	3.9003450E-001	-1.4531088E+000	0
5.4076066E+000	1.331726968309158E+002	-1.4548072E+000	-2.690297593528039E+002	3.9138642E-001	-1.4547139E+000	0
5.4065552E+000	1.333135968273564E+002	-1.4562851E+000	-2.693554604483807E+002	3.9225835E-001	-1.4561230E+000	0
5.3793435E+000	1.334740968233018E+002	-1.4578664E+000	-2.710119616636578E+002	3.9509925E-001	-1.4577280E+000	0
5.3533568E+000	1.336148968197449E+002	-1.4593378E+000	-2.726023805258610E+002	3.9781895E-001	-1.4591366E+000	0
5.3183260E+000	1.337655968159379E+002	-1.4608058E+000	-2.746739884474337E+002	4.0124536E-001	-1.4606428E+000	0
5.3380060E+000	1.339061968123860E+002	-1.4622183E+000	-2.739259331101770E+002	4.0053952E-001	-1.4620488E+000	0
5.3357944E+000	1.340466968088367E+002	-1.4635459E+000	-2.742882775158987E+002	4.0143350E-001	-1.4634541E+000	0
5.3466020E+000	1.341871968052874E+002	-1.4649650E+000	-2.739992568687148E+002	4.0139931E-001	-1.4648596E+000	0
5.3613381E+000	1.343378968014804E+002	-1.4665116E+000	-2.735346191823010E+002	4.0114170E-001	-1.4663651E+000	0
5.3774886E+000	1.344589967984211E+002	-1.4677435E+000	-2.729421971905806E+002	4.0060914E-001	-1.4675771E+000	0
5.3884759E+000	1.345895967951219E+002	-1.4690143E+000	-2.726214858726985E+002	4.0048486E-001	-1.4688829E+000	0
5.3854752E+000	1.346903967925755E+002	-1.4700575E+000	-2.729671008996411E+002	4.0127733E-001	-1.4698906E+000	0
5.3481188E+000	1.348107967895339E+002	-1.4711783E+000	-2.750833205933568E+002	4.0469661E-001	-1.4710956E+000	0
5.2837005E+000	1.349611967857345E+002	-1.4727812E+000	-2.787404749273073E+002	4.1052371E-001	-1.4725991E+000	0
5.1969128E+000	1.351017967821826E+002	-1.4741380E+000	-2.836564899751338E+002	4.1814882E-001	-1.4740051E+000	0
4.9985428E+000	1.352222967791386E+002	-1.4753470E+000	-2.951554398891076E+002	4.3545669E-001	-1.4752102E+000	0
4.9639211E+000	1.353428967760919E+002	-1.4765636E+000	-2.974591058571270E+002	4.3921727E-001	-1.4764158E+000	0
4.9915562E+000	1.354633967730479E+002	-1.4777333E+000	-2.960465929033489E+002	4.3747789E-001	-1.4776212E+000	0
4.9871016E+000	1.355841967699962E+002	-1.4788918E+000	-2.965433498376287E+002	4.3855554E-001	-1.4788285E+000	0
4.8416238E+000	1.356950967671946E+002	-1.4800293E+000	-3.056886266163031E+002	4.5242813E-001	-1.4799379E+000	0
4.5421190E+000	1.358154967641531E+002	-1.4812164E+000	-3.261069216226997E+002	4.8303494E-001	-1.4811420E+000	0
4.5919008E+000	1.359759967600985E+002	-1.4828665E+000	-3.229308765696225E+002	4.7886339E-001	-1.4827473E+000	0
4.5987792E+000	1.361364967560439E+002	-1.4845334E+000	-3.228103429552448E+002	4.7922274E-001	-1.4843527E+000	0
4.6206455E+000	1.362967967519944E+002	-1.4860837E+000	-3.216182149501001E+002	4.7795162E-001	-1.4859551E+000	0
4.6181550E+000	1.364274967486926E+002	-1.4873909E+000	-3.220747045875701E+002	4.7905096E-001	-1.4872625E+000	0
4.6315269E+000	1.365479967456486E+002	-1.4886202E+000	-3.214102369944230E+002	4.7845775E-001	-1.4884665E+000	0
4.6326804E+000	1.366885967420967E+002	-1.4900270E+000	-3.216338807187199E+002	4.7924316E-001	-1.4898729E+000	0
4.6259599E+000	1.368586967377996E+002	-1.4916685E+000	-3.224559991152723E+002	4.8099744E-001	-1.4915744E+000	0
4.6554527E+000	1.369992967342478E+002	-1.4931055E+000	-3.207218802115131E+002	4.7887161E-001	-1.4929799E+000	0
4.6685357E+000	1.371101967314462E+002	-1.4942311E+000	-3.200642017588743E+002	4.7824988E-001	-1.4940883E+000	0
4.6439962E+000	1.372409967281419E+002	-1.4954880E+000	-3.220260995117810E+002	4.8158619E-001	-1.4953972E+000	0
4.6266403E+000	1.373717967248376E+002	-1.4968264E+000	-3.235233844989834E+002	4.8425835E-001	-1.4967052E+000	0
4.5998702E+000	1.374824967220411E+002	-1.4979920E+000	-3.256596483920694E+002	4.8783556E-001	-1.4978123E+000	0
4.5676432E+000	1.376231967184867E+002	-1.4993528E+000	-3.282552384031878E+002	4.9217042E-001	-1.4992192E+000	0
4.5744567E+000	1.377441967154300E+002	-1.5005393E+000	-3.280256986197994E+002	4.9221545E-001	-1.5004288E+000	0
4.5932178E+000	1.378649967123783E+002	-1.5017581E+000	-3.269512183382221E+002	4.9100164E-001	-1.5016371E+000	0
4.5951791E+000	1.379857967093267E+002	-1.5029105E+000	-3.270624295386169E+002	4.9154556E-001	-1.5028445E+000	0
4.5480027E+000	1.381061967062851E+002	-1.5041630E+000	-3.307304623116938E+002	4.9747252E-001	-1.5040489E+000	0
4.5654922E+000	1.382067967037437E+002	-1.5051538E+000	-3.296805054207966E+002	4.9621984E-001	-1.5050552E+000	0
4.5715690E+000	1.383471967001969E+002	-1.5066562E+000	-3.295709222034777E+002	4.9655005E-001	-1.5064592E+000	0
4.5723553E+000	1.384875966966501E+002	-1.5079960E+000	-3.298072577250309E+002	4.9734801E-001	-1.5078629E+000	0
4.5926619E+000	1.386179966933560E+002	-1.5093505E+000	-3.286439437340250E+002	4.9603891E-001	-1.5091668E+000	0
4.6148806E+000	1.387581966898142E+002	-1.5106986E+000	-3.273537777925285E+002	4.9453288E-001	-1.5105698E+000	0
4.6404004E+000	1.388785966867727E+002	-1.5119280E+000	-3.258184281219055E+002	4.9261400E-001	-1.5117725E+000	0
4.5893917E+000	1.390092966834709E+002	-1.5132304E+000	-3.297235230284741E+002	4.9894768E-001	-1.5130805E+000	0
4.5897570E+000	1.391893966789212E+002	-1.5150098E+000	-3.300849614067683E+002	5.0008196E-001	-1.5148820E+000	0
4.6245494E+000	1.393893966738688E+002	-1.5170003E+000	-3.280320426958211E+002	4.9762473E-001	-1.5168818E+000	0
4.6588802E+000	1.395694966693191E+002	-1.5187747E+000	-3.259956546042522E+002	4.9511397E-001	-1.5186827E+000	0
4.6252537E+000	1.397000966660198E+002	-1.5201033E+000	-3.286529502309136E+002	4.9958643E-001	-1.5199888E+000	0
4.5377693E+000	1.398406966624680E+002	-1.5214946E+000	-3.352957085036915E+002	5.1015061E-001	-1.5213944E+000	0
4.4976397E+000	1.399911966586660E+002	-1.5230107E+000	-3.386244415412884E+002	5.1572865E-001	-1.5228995E+000	0
4.4924541E+000	1.401414966548691E+002	-1.5245252E+000	-3.393524184926690E+002	5.1735133E-001	-1.5244020E+000	0
4.5060306E+000	1.402819966513198E+002	-1.5259559E+000	-3.386474690230934E+002	5.1676112E-001	-1.5258075E+000	0
4.5105700E+000	1.404322966475229E+002	-1.5275103E+000	-3.386512670099637E+002	5.1729327E-001	-1.5273108E+000	0
4.5284562E+000	1.406122966429757E+002	-1.5292854E+000	-3.377056768411830E+002	5.1644838E-001	-1.5291109E+000	0
4.5195737E+000	1.407625966391788E+002	-1.5307100E+000	-3.386846093685826E+002	5.1842791E-001	-1.5306133E+000	0
4.5057039E+000	1.409228966351293E+002	-1.5323595E+000	-3.400932345982610E+002	5.2114511E-001	-1.5322168E+000	0
4.5264649E+000	1.410831966310798E+002	-1.5339477E+000	-3.388842492914059E+002	5.1983070E-001	-1.5338191E+000	0
4.4695768E+000	1.412236966275304E+002	-1.5353677E+000	-3.435152252460855E+002	5.2742219E-001	-1.5352247E+000	0
4.5036564E+000	1.413741966237285E+002	-1.5368887E+000	-3.412535503737781E+002	5.2446872E-001	-1.5367299E+000	0
4.5323219E+000	1.415442966194314E+002	-1.5385432E+000	-3.394602605034988E+002	5.2227426E-001	-1.5384302E+000	0
4.5606165E+000	1.416944966156370E+002	-1.5400676E+000	-3.376884452046314E+002	5.2006304E-001	-1.5399330E+000	0
4.5822754E+000	1.418346966120953E+002	-1.5414170E+000	-3.363868158741325E+002	5.1851237E-001	-1.5413342E+000	0
4.4349141E+000	1.419849966082984E+002	-1.5430179E+000	-3.479250764259766E+002	5.3685462E-001	-1.5428379E+000	0
4.3971014E+000	1.421451966042514E+002	-1.5446926E+000	-3.512979283760487E+002	5.4264730E-001	-1.5444390E+000	0
4.4156051E+000	1.423153965999518E+002	-1.5463073E+000	-3.501915033236660E+002	5.4150367E-001	-1.5461420E+000	0
4.4101858E+000	1.424757965958997E+002	-1.5479420E+000	-3.509924929402746E+002	5.4331601E-001	-1.5477450E+000	0
4.4132428E+000	1.426163965923479E+002	-1.5493376E+000	-3.510655818580259E+002	5.4391909E-001	-1.5491515E+000	0
4.4073105E+000	1.427664965885560E+002	-1.5508631E+000	-3.518842568242881E+002	5.4572433E-001	-1.5506523E+000	0
4.4142671E+000	1.429067965850118E+002	-1.5522373E+000	-3.516410105901841E+002	5.4583031E-001	-1.5520554E+000	0
4.4259210E+000	1.430669965809648E+002	-1.5538133E+000	-3.510712046370763E+002	5.4549915E-001	-1.5536577E+000	0
4.4173427E+000	1.432569965761650E+002	-1.5557444E+000	-3.521901242846536E+002	5.4791784E-001	-1.5555578E+000	0
4.3163733E+000	1.434172965721154E+002	-1.5573289E+000	-3.607956971474159E+002	5.6187761E-001	-1.5571600E+000	0
4.2289052E+000	1.435576965685686E+002	-1.5587586E+000	-3.685962527814880E+002	5.7455260E-001	-1.5585650E+000	0
4.2479134E+000	1.437377965640189E+002	-1.5605350E+000	-3.673650735632655E+002	5.7328606E-001	-1.5603658E+000	0
4.0106645E+000	1.438782965604696E+002	-1.5619800E+000	-3.894566441943998E+002	6.0832351E-001	-1.5617708E+000	0
3.7060823E+000	1.440285965566727E+002	-1.5635040E+000	-4.218751393115981E+002	6.5960348E-001	-1.5632735E+000	0
3.7506475E+000	1.441987965523731E+002	-1.5651836E+000	-4.173102358474212E+002	6.5316713E-001	-1.5649761E+000	0
3.7387021E+000	1.443888965475708E+002	-1.5670671E+000	-4.191473598001412E+002	6.5683204E-001	-1.5668764E+000	0
3.7726262E+000	1.445491965435212E+002	-1.5686623E+000	-4.158011375628575E+002	6.5225154E-001	-1.5684792E+000	0
3.7832155E+000	1.446995965397218E+002	-1.5701442E+000	-4.150289973318954E+002	6.5165538E-001	-1.5699837E+000	0
3.7728434E+000	1.448400965361725E+002	-1.5715778E+000	-4.165499622787847E+002	6.5464067E-001	-1.5713882E+000	0
3.6521802E+000	1.449801965326333E+002	-1.5734415E+000	-4.308225390658320E+002	6.7787409E-001	-1.5727897E+000	0
3.6330884E+000	1.451403965285863E+002	-1.5750794E+000	-4.335373487881943E+002	6.8285578E-001	-1.5743920E+000	0
3.4926393E+000	1.452907965247869E+002	-1.5766183E+000	-4.514117168217235E+002	7.1170396E-001	-1.5758955E+000	0
3.4898202E+000	1.454410965209900E+002	-1.5781263E+000	-4.522084864022499E+002	7.1364212E-001	-1.5773989E+000	0
3.5138900E+000	1.455911965171981E+002	-1.5796396E+000	-4.495415374463987E+002	7.1011358E-001	-1.5788995E+000	0
3.5064421E+000	1.457512965131536E+002	-1.5812489E+000	-4.509553646949453E+002	7.1307266E-001	-1.5805008E+000	0
3.5016897E+000	1.459112965091117E+002	-1.5827820E+000	-4.520052213832028E+002	7.1542573E-001	-1.5821006E+000	0
3.5447745E+000	1.460614965053173E+002	-1.5843396E+000	-4.469507413671388E+002	7.0812178E-001	-1.5836024E+000	0
3.5637445E+000	1.462116965015230E+002	-1.5858227E+000	-4.449877718717717E+002	7.0567173E-001	-1.5851049E+000	0
3.5900805E+000	1.463915964969783E+002	-1.5876333E+000	-4.422277658847597E+002	7.0209551E-001	-1.5869039E+000	0
3.6144135E+000	1.465320964934290E+002	-1.5890106E+000	-4.396316650858325E+002	6.9857937E-001	-1.5883080E+000	0
3.5981643E+000	1.466624964901348E+002	-1.5903434E+000	-4.419874058317409E+002	7.0291173E-001	-1.5896125E+000	0
3.5674915E+000	1.468125964863430E+002	-1.5918562E+000	-4.462116302373906E+002	7.1030480E-001	-1.5911137E+000	0
3.5913754E+000	1.469528964827987E+002	-1.5932413E+000	-4.436298646668511E+002	7.0680946E-001	-1.5925163E+000	0
3.5964808E+000	1.470832964795045E+002	-1.5945399E+000	-4.433611559039900E+002	7.0695704E-001	-1.5938202E+000	0
3.5233078E+000	1.472335964757076E+002	-1.5961171E+000	-4.530166739080332E+002	7.2306770E-001	-1.5953237E+000	0
3.4603813E+000	1.473935964716657E+002	-1.5976640E+000	-4.617017125200564E+002	7.3764420E-001	-1.5969238E+000	0
3.4553359E+000	1.475835964668659E+002	-1.5995692E+000	-4.629272621959244E+002	7.4048418E-001	-1.5988240E+000	0
3.4632740E+000	1.477437964628189E+002	-1.6011951E+000	-4.623356674733818E+002	7.4028963E-001	-1.6004255E+000	0
3.4650021E+000	1.478840964592746E+002	-1.6025677E+000	-4.625012088929807E+002	7.4118948E-001	-1.6018287E+000	0
3.4790208E+000	1.480542964549750E+002	-1.6042789E+000	-4.611294447631572E+002	7.3978025E-001	-1.6035305E+000	0
3.5014124E+000	1.482046964511756E+002	-1.6058365E+000	-4.586253500929870E+002	7.3647732E-001	-1.6050346E+000	0
3.5130696E+000	1.483253964481264E+002	-1.6070282E+000	-4.574427464178784E+002	7.3512340E-001	-1.6062411E+000	0
3.5310769E+000	1.484556964448348E+002	-1.6082580E+000	-4.554582290590674E+002	7.3249435E-001	-1.6075443E+000	0
3.5540426E+000	1.486058964410404E+002	-1.6097698E+000	-4.529404935678049E+002	7.2912991E-001	-1.6090465E+000	0
3.5567009E+000	1.487560964372460E+002	-1.6112905E+000	-4.530295036424741E+002	7.2996211E-001	-1.6105486E+000	0
3.4984031E+000	1.489259964329540E+002	-1.6129766E+000	-4.610608068421716E+002	7.4368030E-001	-1.6122476E+000	0
3.4376581E+000	1.490960964286569E+002	-1.6147014E+000	-4.697097069299125E+002	7.5844091E-001	-1.6139485E+000	0
3.4457419E+000	1.492465964248549E+002	-1.6161809E+000	-4.690371344792720E+002	7.5804883E-001	-1.6154536E+000	0
3.4740367E+000	1.493870964213056E+002	-1.6175896E+000	-4.656224678151728E+002	7.5318605E-001	-1.6168588E+000	0
3.3612556E+000	1.495572964170060E+002	-1.6193154E+000	-4.817590709454562E+002	7.8011990E-001	-1.6185606E+000	0
3.2705252E+000	1.497075964132091E+002	-1.6208459E+000	-4.955919259913280E+002	8.0327815E-001	-1.6200637E+000	0
3.2886183E+000	1.498675964091672E+002	-1.6224437E+000	-4.933511783133363E+002	8.0043447E-001	-1.6216636E+000	0
3.2689178E+000	1.500076964056279E+002	-1.6237926E+000	-4.967370845148489E+002	8.0659801E-001	-1.6230644E+000	0
3.2898207E+000	1.501479964020837E+002	-1.6252495E+000	-4.940237377268113E+002	8.0291182E-001	-1.6244677E+000	0
3.3124032E+000	1.502984963982817E+002	-1.6267269E+000	-4.911017143880218E+002	7.9888833E-001	-1.6259726E+000	0
3.3214650E+000	1.504586963942347E+002	-1.6283457E+000	-4.902492610996733E+002	7.9829532E-001	-1.6275748E+000	0
3.3579819E+000	1.506189963901852E+002	-1.6299419E+000	-4.853932988084434E+002	7.9116291E-001	-1.6291776E+000	0
3.3728490E+000	1.507690963863934E+002	-1.6314809E+000	-4.837100500211684E+002	7.8916371E-001	-1.6306787E+000	0
3.3776670E+000	1.509192963825990E+002	-1.6329759E+000	-4.834627021515544E+002	7.8948295E-001	-1.6321799E+000	0
3.3966033E+000	1.510598963790471E+002	-1.6343087E+000	-4.811597048740032E+002	7.8636348E-001	-1.6335868E+000	0
3.4141724E+000	1.512001963755029E+002	-1.6357788E+000	-4.791142895514978E+002	7.8372496E-001	-1.6349891E+000	0
3.4013500E+000	1.513703963712032E+002	-1.6374520E+000	-4.814123959184508E+002	7.8828967E-001	-1.6366920E+000	0
3.4285595E+000	1.515604963664009E+002	-1.6393448E+000	-4.781439055235551E+002	7.8384274E-001	-1.6385925E+000	0
3.4282842E+000	1.517305963621038E+002	-1.6410954E+000	-4.786929440761960E+002	7.8558081E-001	-1.6402936E+000	0
3.4306748E+000	1.518807963583095E+002	-1.6425279E+000	-4.787769271854968E+002	7.8640449E-001	-1.6417954E+000	0
3.3057263E+000	1.520112963550127E+002	-1.6439661E+000	-4.973085760198019E+002	8.1755841E-001	-1.6431009E+000	0
3.3112264E+000	1.521514963514710E+002	-1.6453172E+000	-4.968905827545623E+002	8.1754261E-001	-1.6445022E+000	0
3.3525183E+000	1.522818963481768E+002	-1.6465293E+000	-4.911320709417514E+002	8.0866337E-001	-1.6458066E+000	0
3.3875840E+000	1.524219963446376E+002	-1.6479905E+000	-4.864795813088595E+002	8.0171371E-001	-1.6472077E+000	0
3.3903663E+000	1.525520963413510E+002	-1.6492932E+000	-4.864646082884246E+002	8.0232275E-001	-1.6485084E+000	0
3.3383725E+000	1.526923963378067E+002	-1.6506793E+000	-4.944563286602624E+002	8.1618887E-001	-1.6499116E+000	0
3.3114760E+000	1.527931963352603E+002	-1.6516917E+000	-4.987781053030535E+002	8.2382762E-001	-1.6509187E+000	0
3.2973077E+000	1.529431963314710E+002	-1.6532364E+000	-5.013897707582049E+002	8.2891583E-001	-1.6524198E+000	0
3.3169281E+000	1.531232963269213E+002	-1.6550394E+000	-4.989675249310058E+002	8.2581091E-001	-1.6542205E+000	0
3.2905793E+000	1.533133963221189E+002	-1.6568828E+000	-5.035231321209410E+002	8.3427882E-001	-1.6561220E+000	0
3.2126071E+000	1.535033963173191E+002	-1.6588435E+000	-5.163542978825071E+002	8.5655099E-001	-1.6580219E+000	0
3.2324173E+000	1.536537963135197E+002	-1.6603335E+000	-5.136507228143382E+002	8.5283148E-001	-1.6595255E+000	0
3.2299566E+000	1.538239963092201E+002	-1.6620264E+000	-5.145661644277723E+002	8.5522252E-001	-1.6612279E+000	0
3.1157441E+000	1.539740963054282E+002	-1.6635680E+000	-5.339231756521076E+002	8.8821751E-001	-1.6627281E+000	0
3.0746598E+000	1.540943963023892E+002	-1.6646957E+000	-5.414243808998194E+002	9.0130687E-001	-1.6639314E+000	0
3.1174915E+000	1.542346962988449E+002	-1.6661794E+000	-5.344615731611011E+002	8.9050889E-001	-1.6653343E+000	0
3.1362727E+000	1.543749962953007E+002	-1.6675342E+000	-5.316929840156345E+002	8.8661623E-001	-1.6667376E+000	0
3.1527519E+000	1.545348962912612E+002	-1.6691459E+000	-5.294250714984992E+002	8.8368773E-001	-1.6683365E+000	0
3.1891916E+000	1.546949962872168E+002	-1.6707363E+000	-5.238745496421489E+002	8.7525624E-001	-1.6699376E+000	0
3.2089889E+000	1.548551962831698E+002	-1.6723347E+000	-5.211406888780082E+002	8.7152165E-001	-1.6715395E+000	0
3.2135653E+000	1.550154962791203E+002	-1.6739420E+000	-5.208986765848595E+002	8.7195414E-001	-1.6731430E+000	0
3.2315264E+000	1.552053962743230E+002	-1.6758355E+000	-5.185894385809024E+002	8.6907059E-001	-1.6750418E+000	0
3.2811787E+000	1.553755962700234E+002	-1.6774822E+000	-5.112437954110756E+002	8.5760242E-001	-1.6767435E+000	0
3.3031549E+000	1.555358962659739E+002	-1.6790912E+000	-5.083295501930088E+002	8.5353166E-001	-1.6783468E+000	0
3.2780812E+000	1.557060962616742E+002	-1.6808294E+000	-5.127479335113794E+002	8.6184180E-001	-1.6800485E+000	0
3.2596929E+000	1.558862962571220E+002	-1.6826596E+000	-5.162018848763437E+002	8.6859208E-001	-1.6818506E+000	0
3.2941620E+000	1.560465962530725E+002	-1.6842225E+000	-5.112749308922930E+002	8.6110073E-001	-1.6834533E+000	0
3.3398921E+000	1.561966962492806E+002	-1.6857333E+000	-5.047268581128083E+002	8.5083491E-001	-1.6849549E+000	0
3.3794339E+000	1.563371962457313E+002	-1.6870863E+000	-4.992216006645731E+002	8.4222996E-001	-1.6863595E+000	0
3.2755148E+000	1.564974962416818E+002	-1.6887485E+000	-5.155673478212902E+002	8.7066358E-001	-1.6879625E+000	0
3.2420754E+000	1.566675962373847E+002	-1.6904551E+000	-5.214113981148002E+002	8.8142252E-001	-1.6896640E+000	0
3.2945268E+000	1.568078962338404E+002	-1.6918504E+000	-5.135336761533736E+002	8.6882216E-001	-1.6910670E+000	0
3.3203840E+000	1.569679962297960E+002	-1.6934459E+000	-5.100150706399081E+002	8.6368293E-001	-1.6926678E+000	0
3.3405015E+000	1.571282962257465E+002	-1.6950974E+000	-5.074380135826914E+002	8.6015689E-001	-1.6942708E+000	0
3.3493412E+000	1.572785962219496E+002	-1.6965568E+000	-5.065344724696697E+002	8.5936451E-001	-1.6957731E+000	0
3.3696818E+000	1.574289962181501E+002	-1.6980550E+000	-5.039214876245505E+002	8.5568643E-001	-1.6972775E+000	0
3.3961642E+000	1.575991962138505E+002	-1.6997340E+000	-5.004863816020043E+002	8.5069370E-001	-1.6989796E+000	0
3.3690233E+000	1.577493962100561E+002	-1.7012888E+000	-5.049798362383517E+002	8.5911655E-001	-1.7004819E+000	0
3.4021916E+000	1.578996962062593E+002	-1.7028105E+000	-5.005039843034656E+002	8.5226345E-001	-1.7019850E+000	0
3.4214923E+000	1.580095962034829E+002	-1.7038620E+000	-4.979879357149830E+002	8.4850270E-001	-1.7030838E+000	0
3.4268558E+000	1.580481962025078E+002	-1.7041882E+000	-4.973037588936941E+002	8.4749919E-001	-1.7034837E+000	0