EC-Lab ASCII FILE
Nb header lines : 61                          

Linear Sweep Voltammetry

Run on channel : 1 (SN 1340)
User : 
Electrode connection : standard
Potential control : Ewe
Ewe ctrl range : min = -5.00 V, max = 5.00 V
Ewe,I filtering : <None>
Channel : Grounded
Acquisition started on : 02/05/2026 17:41:08.074
Technique started on : 02/05/2026 17:41:10.757
Loaded Setting File :  NONE
Saved on :
	File : Pt_22.5_Pd_22.5_Ni_22.5_Co_22_02_LSV_C01.mpr
	Directory : C:\Users\volt\Documents\Platalytix\
	Host : 127.0.0.1
Device : SP-200 (SN 0262)
Address : USB
EC-LAB for windows v11.60 (software)
Internet server v11.60 (firmware)
Command interpretor v11.60 (firmware)
Electrode material : PtPdNiCoCr
Initial state : 
Electrolyte : 1 M KOH
Comments : 
Cable : standard
Reference electrode : Hg/HgO (0.140 V)
Electrode surface area : 1.000 cm˛
Characteristic mass : 0.001 g
Equivalent Weight : 0.000 g/eq.
Density : 0.000 g/cm3
Volume (V) : 0.001 cmł
Cycle Definition : Charge/Discharge alternance
tR (h:m:s)          0:00:5.0000         
dER/dt (mV/h)       0.0                 
dER (mV)            0                   
dtR (s)             0.0000              
dE/dt               10.000              
dE/dt unit          mV/s                
Ei (V)              -0.200              
vs.                 Ref                 
EL (V)              -2.000              
vs.                 Ref                 
record              <I>                 
dI                  0.000               
unit dI             µA                  
tI (s)              0.0000              
step percent        50                  
N                   10                  
E range min (V)     -5.000              
E range max (V)     5.000               
I Range             Auto                
I Range min         Unset               
I Range max         Unset               
I Range init        Unset               
Bandwidth           8                   

Rwe/Ohm	time/s	Ewe/V	<I>/mA	Pwe/W	control/V	error	
0.0000000E+000	2.683400127425557E+000	-1.6860625E-001	0.000000000000000E+000	0.0000000E+000	0.0000000E+000	0
0.0000000E+000	7.683200001119985E+000	-4.1107539E-002	0.000000000000000E+000	0.0000000E+000	-1.9988312E-001	0
1.8983080E+003	7.883199996067560E+000	-2.0168586E-001	-1.062450703233481E-001	2.1428128E-005	-2.0178290E-001	0
1.3536221E+003	8.003199993036105E+000	-2.0292322E-001	-1.499112808782299E-001	3.0420480E-005	-2.0298293E-001	0
1.5973029E+003	8.213199987731059E+000	-2.0500463E-001	-1.283442494068756E-001	2.6311165E-005	-2.0508292E-001	0
1.8099510E+003	8.413199982678634E+000	-2.0710072E-001	-1.144233831899273E-001	2.3697165E-005	-2.0708279E-001	0
1.9855499E+003	8.613199977626209E+000	-2.0900290E-001	-1.052619706725277E-001	2.2000057E-005	-2.0908271E-001	0
2.1383164E+003	8.813199972573784E+000	-2.1107209E-001	-9.870947082738174E-002	2.0834814E-005	-2.1108261E-001	0
2.2717043E+003	9.013199967521359E+000	-2.1303450E-001	-9.377738375315969E-002	1.9977817E-005	-2.1308248E-001	0
2.3932195E+003	9.213199962468934E+000	-2.1505442E-001	-8.985988133113870E-002	1.9324765E-005	-2.1508239E-001	0
2.5035938E+003	9.413199957416509E+000	-2.1704338E-001	-8.669272908790981E-002	1.8816083E-005	-2.1708226E-001	0
2.6068259E+003	9.613199952364084E+000	-2.1905653E-001	-8.403190148386080E-002	1.8407736E-005	-2.1908213E-001	0
2.7020408E+003	9.813199947311659E+000	-2.2105122E-001	-8.180898982849882E-002	1.8083976E-005	-2.2108203E-001	0
2.7920920E+003	1.001319994225923E+001	-2.2305457E-001	-7.988797176350537E-002	1.7819377E-005	-2.2308193E-001	0
2.8808630E+003	1.021319993720681E+001	-2.2502463E-001	-7.811014565518826E-002	1.7576705E-005	-2.2508183E-001	0
2.9658555E+003	1.041319993215438E+001	-2.2704969E-001	-7.655453503970266E-002	1.7381684E-005	-2.2708169E-001	0
3.0461133E+003	1.061319992710196E+001	-2.2910483E-001	-7.521218225801285E-002	1.7231474E-005	-2.2908159E-001	0
3.1251863E+003	1.081319992204953E+001	-2.3108615E-001	-7.394316265002598E-002	1.7087241E-005	-2.3108147E-001	0
3.1988208E+003	1.101319991699711E+001	-2.3309290E-001	-7.286838566369114E-002	1.6985103E-005	-2.3308137E-001	0
3.2721250E+003	1.121319991194468E+001	-2.3501863E-001	-7.182446243442042E-002	1.6880087E-005	-2.3508126E-001	0
3.3449099E+003	1.141309990689479E+001	-2.3703657E-001	-7.086486152254867E-002	1.6797563E-005	-2.3708117E-001	0
3.4136313E+003	1.161299990184489E+001	-2.3901714E-001	-7.001844114864714E-002	1.6735608E-005	-2.3908104E-001	0
3.4834033E+003	1.181299989679246E+001	-2.4113341E-001	-6.922350955658230E-002	1.6692100E-005	-2.4108094E-001	0
3.5507939E+003	1.201299989174004E+001	-2.4306147E-001	-6.845271018969412E-002	1.6638216E-005	-2.4308079E-001	0
3.6180156E+003	1.221299988668761E+001	-2.4507758E-001	-6.773812251055678E-002	1.6601096E-005	-2.4508072E-001	0
3.6827419E+003	1.241299988163519E+001	-2.4708053E-001	-6.709146001344535E-002	1.6576994E-005	-2.4708061E-001	0
3.7488345E+003	1.261299987658276E+001	-2.4904360E-001	-6.643227285329600E-002	1.6544533E-005	-2.4908048E-001	0
3.8086597E+003	1.281299987153034E+001	-2.5108752E-001	-6.592542564447834E-002	1.6553051E-005	-2.5108036E-001	0
3.8728157E+003	1.301299986647791E+001	-2.5298989E-001	-6.532453693705043E-002	1.6526446E-005	-2.5308025E-001	0
3.9350762E+003	1.321299986142549E+001	-2.5506926E-001	-6.481939578183879E-002	1.6533435E-005	-2.5508016E-001	0
4.0009067E+003	1.341299985637306E+001	-2.5704759E-001	-6.424733450796793E-002	1.6514623E-005	-2.5708005E-001	0
4.0579233E+003	1.361299985132064E+001	-2.5904778E-001	-6.383752324692327E-002	1.6536969E-005	-2.5907993E-001	0
4.1192676E+003	1.381299984626821E+001	-2.6103801E-001	-6.337000638016321E-002	1.6541981E-005	-2.6107985E-001	0
4.1826597E+003	1.401299984121579E+001	-2.6303399E-001	-6.288677383775987E-002	1.6541358E-005	-2.6307973E-001	0
4.2404717E+003	1.421299983616336E+001	-2.6499236E-001	-6.249124679108320E-002	1.6559703E-005	-2.6507959E-001	0
4.3011968E+003	1.441299983111094E+001	-2.6702648E-001	-6.208190588753593E-002	1.6577513E-005	-2.6707950E-001	0
4.3660444E+003	1.461299982605851E+001	-2.6901251E-001	-6.161469741578740E-002	1.6575124E-005	-2.6907939E-001	0
4.4219922E+003	1.481299982100609E+001	-2.7104345E-001	-6.129442305407617E-002	1.6613452E-005	-2.7107927E-001	0
4.4878896E+003	1.501289981595619E+001	-2.7307358E-001	-6.084676977593761E-002	1.6615646E-005	-2.7307895E-001	0
4.5463252E+003	1.521279981090629E+001	-2.7501968E-001	-6.049274113303771E-002	1.6636694E-005	-2.7507904E-001	0
4.6056357E+003	1.541279980585387E+001	-2.7711770E-001	-6.016925798439743E-002	1.6673966E-005	-2.7707896E-001	0
4.6672046E+003	1.561279980080144E+001	-2.7900991E-001	-5.978094470949086E-002	1.6679476E-005	-2.7907884E-001	0
4.7232368E+003	1.581279979574902E+001	-2.8103808E-001	-5.950116423590107E-002	1.6722093E-005	-2.8107873E-001	0
4.7883477E+003	1.601279979069659E+001	-2.8310728E-001	-5.912421324106587E-002	1.6738495E-005	-2.8307858E-001	0
4.8391123E+003	1.621279978564417E+001	-2.8505909E-001	-5.890731025558971E-002	1.6792064E-005	-2.8507850E-001	0
4.8970000E+003	1.641279978059174E+001	-2.8696933E-001	-5.860104550482914E-002	1.6816703E-005	-2.8707838E-001	0
4.9565601E+003	1.661279977553932E+001	-2.8906754E-001	-5.832019116773846E-002	1.6858474E-005	-2.8907827E-001	0
5.0176299E+003	1.681279977048689E+001	-2.9105395E-001	-5.800626188349811E-002	1.6882952E-005	-2.9107815E-001	0
5.0754053E+003	1.701279976543447E+001	-2.9306412E-001	-5.774201209183860E-002	1.6922111E-005	-2.9307806E-001	0
5.1344028E+003	1.721279976038204E+001	-2.9510167E-001	-5.747536307648515E-002	1.6961076E-005	-2.9507792E-001	0
5.1905371E+003	1.741279975532962E+001	-2.9705498E-001	-5.723010517642035E-002	1.7000488E-005	-2.9707780E-001	0
5.2478276E+003	1.761279975027719E+001	-2.9909337E-001	-5.699374891190353E-002	1.7046452E-005	-2.9907772E-001	0
5.3026973E+003	1.781279974522477E+001	-3.0106217E-001	-5.677528742356597E-002	1.7092891E-005	-3.0107760E-001	0
5.3615527E+003	1.801279974017234E+001	-3.0303603E-001	-5.652019785307411E-002	1.7127657E-005	-3.0307749E-001	0
5.4255415E+003	1.821279973511992E+001	-3.0510649E-001	-5.623521457020786E-002	1.7157729E-005	-3.0507737E-001	0
5.4748545E+003	1.841279973006749E+001	-3.0705875E-001	-5.608528177201105E-002	1.7221477E-005	-3.0707729E-001	0
5.5339985E+003	1.861269972501759E+001	-3.0908296E-001	-5.585165029087380E-002	1.7262793E-005	-3.0907694E-001	0
5.5869214E+003	1.881259971996769E+001	-3.1104425E-001	-5.567363888561683E-002	1.7316965E-005	-3.1107703E-001	0
5.6524575E+003	1.901259971491527E+001	-3.1302452E-001	-5.537848251495864E-002	1.7334823E-005	-3.1307694E-001	0
5.7057119E+003	1.921259970986284E+001	-3.1503853E-001	-5.521458729440576E-002	1.7394723E-005	-3.1507686E-001	0
5.7669258E+003	1.941259970481042E+001	-3.1707013E-001	-5.498078972092735E-002	1.7432765E-005	-3.1707671E-001	0
5.8214702E+003	1.961259969975799E+001	-3.1903404E-001	-5.480299937821792E-002	1.7484022E-005	-3.1907660E-001	0
5.8759717E+003	1.981259969470557E+001	-3.2104993E-001	-5.463775852483932E-002	1.7541448E-005	-3.2107648E-001	0
5.9297905E+003	2.001259968965314E+001	-3.2303017E-001	-5.447581696245885E-002	1.7597333E-005	-3.2307640E-001	0
5.9840952E+003	2.021259968460072E+001	-3.2502446E-001	-5.431472021999806E-002	1.7653612E-005	-3.2507628E-001	0
6.0484912E+003	2.041259967954829E+001	-3.2704270E-001	-5.407012934804956E-002	1.7683242E-005	-3.2707614E-001	0
6.1003657E+003	2.061259967449587E+001	-3.2904541E-001	-5.393863771302954E-002	1.7748262E-005	-3.2907605E-001	0
6.1527695E+003	2.081259966944344E+001	-3.3102843E-001	-5.380153399416976E-002	1.7809838E-005	-3.3107594E-001	0
6.2143193E+003	2.101259966439102E+001	-3.3306384E-001	-5.359619138751806E-002	1.7850953E-005	-3.3307582E-001	0
6.2623867E+003	2.121259965933859E+001	-3.3507276E-001	-5.350560052563236E-002	1.7928269E-005	-3.3507571E-001	0
6.3136968E+003	2.141259965428617E+001	-3.3706656E-001	-5.338656156832795E-002	1.7994826E-005	-3.3707562E-001	0
6.3705303E+003	2.161259964923374E+001	-3.3907717E-001	-5.322589539677802E-002	1.8047685E-005	-3.3907548E-001	0
6.4366675E+003	2.181259964418132E+001	-3.4103262E-001	-5.298279470694400E-002	1.8068862E-005	-3.4107539E-001	0
6.4840425E+003	2.201259963912889E+001	-3.4303492E-001	-5.290448543765569E-002	1.8148086E-005	-3.4307525E-001	0
6.5458433E+003	2.221249963407899E+001	-3.4507132E-001	-5.271609967067925E-002	1.8190814E-005	-3.4507495E-001	0
6.5957935E+003	2.241239962902910E+001	-3.4703726E-001	-5.261493520758392E-002	1.8259343E-005	-3.4707505E-001	0
6.6536738E+003	2.261239962397667E+001	-3.4904194E-001	-5.245852775717591E-002	1.8310226E-005	-3.4907496E-001	0
6.7135273E+003	2.281239961892425E+001	-3.5105634E-001	-5.229089299613898E-002	1.8357050E-005	-3.5107481E-001	0
6.7630840E+003	2.301239961387182E+001	-3.5307986E-001	-5.220692979843427E-002	1.8433215E-005	-3.5307473E-001	0
6.8247480E+003	2.321239960881940E+001	-3.5509065E-001	-5.202985412542571E-002	1.8475315E-005	-3.5507461E-001	0
6.8737368E+003	2.341239960376697E+001	-3.5703358E-001	-5.194169906223511E-002	1.8544932E-005	-3.5707450E-001	0
6.9249263E+003	2.361239959871455E+001	-3.5910660E-001	-5.185709919520751E-002	1.8622226E-005	-3.5907438E-001	0
6.9881030E+003	2.381239959366212E+001	-3.6106431E-001	-5.166843033748392E-002	1.8655626E-005	-3.6107430E-001	0
7.0374312E+003	2.401239958860970E+001	-3.6298835E-001	-5.157966808259673E-002	1.8722818E-005	-3.6307415E-001	0
7.0852803E+003	2.421239958355727E+001	-3.6508593E-001	-5.152737838163302E-002	1.8811921E-005	-3.6507404E-001	0
7.1409795E+003	2.441239957850485E+001	-3.6701232E-001	-5.139523644428989E-002	1.8862685E-005	-3.6707395E-001	0
7.1946938E+003	2.461239957345242E+001	-3.6898088E-001	-5.128514021635056E-002	1.8923236E-005	-3.6907387E-001	0
7.2502158E+003	2.481239956840000E+001	-3.7110162E-001	-5.118490554352206E-002	1.8994800E-005	-3.7107375E-001	0
7.3022661E+003	2.501239956334757E+001	-3.7306210E-001	-5.108854009362285E-002	1.9059198E-005	-3.7307361E-001	0
7.3557832E+003	2.521239955829515E+001	-3.7507439E-001	-5.099040708323005E-002	1.9125197E-005	-3.7507352E-001	0
7.4101060E+003	2.541239955324272E+001	-3.7700057E-001	-5.087654361059962E-002	1.9180487E-005	-3.7707338E-001	0
7.4701406E+003	2.561239954819030E+001	-3.7903893E-001	-5.074053555843133E-002	1.9232639E-005	-3.7907332E-001	0
7.5171553E+003	2.581229954314040E+001	-3.8107601E-001	-5.069417802661397E-002	1.9318335E-005	-3.8107276E-001	0
7.5848003E+003	2.601219953809050E+001	-3.8306823E-001	-5.050472317785126E-002	1.9346755E-005	-3.8307309E-001	0
7.6310820E+003	2.621219953303807E+001	-3.8504082E-001	-5.045690919407786E-002	1.9427969E-005	-3.8507295E-001	0
7.6905503E+003	2.641219952798565E+001	-3.8715157E-001	-5.034120558484401E-002	1.9489677E-005	-3.8707283E-001	0
7.7362939E+003	2.661219952293322E+001	-3.8899603E-001	-5.028196053406271E-002	1.9559484E-005	-3.8907275E-001	0
7.7965239E+003	2.681219951788080E+001	-3.9113009E-001	-5.016724161894548E-002	1.9621917E-005	-3.9107260E-001	0
7.8436948E+003	2.701219951282837E+001	-3.9300683E-001	-5.010481043074633E-002	1.9691533E-005	-3.9307255E-001	0
7.9029053E+003	2.721219950777595E+001	-3.9502567E-001	-4.998486659958412E-002	1.9745305E-005	-3.9507240E-001	0
7.9586743E+003	2.741219950272352E+001	-3.9709318E-001	-4.989438798318691E-002	1.9812722E-005	-3.9707226E-001	0
8.0073765E+003	2.761219949767110E+001	-3.9902234E-001	-4.983184597816082E-002	1.9884021E-005	-3.9907217E-001	0
8.0691685E+003	2.781219949261867E+001	-4.0105703E-001	-4.970239998103287E-002	1.9933497E-005	-4.0107208E-001	0
8.1167373E+003	2.801219948756625E+001	-4.0303516E-001	-4.965482437729740E-002	2.0012640E-005	-4.0307197E-001	0
8.1630923E+003	2.821219948251382E+001	-4.0501356E-001	-4.961521418283688E-002	2.0094834E-005	-4.0507188E-001	0
8.2139561E+003	2.841219947746140E+001	-4.0702286E-001	-4.955259932188172E-002	2.0169040E-005	-4.0707174E-001	0
8.2653213E+003	2.861219947240897E+001	-4.0905786E-001	-4.949085733245068E-002	2.0244624E-005	-4.0907162E-001	0
8.3139678E+003	2.881219946735655E+001	-4.1100311E-001	-4.943525441447066E-002	2.0318044E-005	-4.1107151E-001	0
8.3773721E+003	2.901219946230412E+001	-4.1304362E-001	-4.930467641428815E-002	2.0364982E-005	-4.1307139E-001	0
8.4408584E+003	2.921219945725170E+001	-4.1507903E-001	-4.917498000965043E-002	2.0411502E-005	-4.1507131E-001	0
8.4995215E+003	2.941219945219927E+001	-4.1706714E-001	-4.906948343734507E-002	2.0465270E-005	-4.1707140E-001	0
8.5616475E+003	2.961199944715190E+001	-4.1906208E-001	-4.894643063545778E-002	2.0511592E-005	-4.1907111E-001	0
8.6042236E+003	2.981199944209948E+001	-4.2107692E-001	-4.893839905141972E-002	2.0606831E-005	-4.2107096E-001	0
8.6495234E+003	3.001199943704705E+001	-4.2307389E-001	-4.891296926845712E-002	2.0693800E-005	-4.2307088E-001	0
8.7067002E+003	3.021199943199463E+001	-4.2510447E-001	-4.882497939517716E-002	2.0755717E-005	-4.2507073E-001	0
8.7495801E+003	3.041199942694220E+001	-4.2706180E-001	-4.880940547062996E-002	2.0844633E-005	-4.2707068E-001	0
8.8098496E+003	3.061199942188978E+001	-4.2903864E-001	-4.869988393682623E-002	2.0894133E-005	-4.2907053E-001	0
8.8520127E+003	3.081199941683735E+001	-4.3111059E-001	-4.870198591630237E-002	2.0995942E-005	-4.3107039E-001	0
8.9186338E+003	3.101199941178493E+001	-4.3305966E-001	-4.855672898675922E-002	2.1027961E-005	-4.3307033E-001	0
8.9794404E+003	3.121199940673250E+001	-4.3509650E-001	-4.845474500213298E-002	2.1082489E-005	-4.3507019E-001	0
9.0149268E+003	3.141199940168008E+001	-4.3706599E-001	-4.848248016985712E-002	2.1190042E-005	-4.3707010E-001	0
9.0785342E+003	3.161199939662765E+001	-4.3903923E-001	-4.836014563549307E-002	2.1232001E-005	-4.3906996E-001	0
9.1340078E+003	3.181199939157523E+001	-4.4112855E-001	-4.829518250617382E-002	2.1304384E-005	-4.4106984E-001	0
9.1834111E+003	3.201199938652280E+001	-4.4303814E-001	-4.824330671658723E-002	2.1373624E-005	-4.4306976E-001	0
9.2298555E+003	3.221199938147038E+001	-4.4512385E-001	-4.822652246602399E-002	2.1466776E-005	-4.4506961E-001	0
9.2967549E+003	3.241199937641795E+001	-4.4707593E-001	-4.808945913905743E-002	2.1499640E-005	-4.4706956E-001	0
9.3501045E+003	3.261199937136553E+001	-4.4908032E-001	-4.802944384200658E-002	2.1569078E-005	-4.4906941E-001	0
9.4046602E+003	3.281199936631310E+001	-4.5108712E-001	-4.796421402498285E-002	2.1636039E-005	-4.5106933E-001	0
9.4990850E+003	3.301189936126320E+001	-4.5307025E-001	-4.769620108728789E-002	2.1609731E-005	-4.5306832E-001	0
9.5161787E+003	3.321179935621331E+001	-4.5507687E-001	-4.782139013712494E-002	2.1762409E-005	-4.5506904E-001	0
9.5767939E+003	3.341179935116088E+001	-4.5709088E-001	-4.772900748161651E-002	2.1816495E-005	-4.5706898E-001	0
9.6307559E+003	3.361179934610846E+001	-4.5905882E-001	-4.766592044645146E-002	2.1881462E-005	-4.5906883E-001	0
9.6643936E+003	3.381179934105603E+001	-4.6104676E-001	-4.770571222848752E-002	2.1994563E-005	-4.6106875E-001	0
9.7369814E+003	3.401179933600361E+001	-4.6306583E-001	-4.755743308169164E-002	2.2022223E-005	-4.6306863E-001	0
9.7776514E+003	3.421179933095118E+001	-4.6506011E-001	-4.756358252360973E-002	2.2119924E-005	-4.6506852E-001	0
9.8459521E+003	3.441179932589876E+001	-4.6706623E-001	-4.743738522301172E-002	2.2156401E-005	-4.6706846E-001	0
9.8878242E+003	3.461179932084633E+001	-4.6904367E-001	-4.743649031467465E-002	2.2249786E-005	-4.6906826E-001	0
9.9457236E+003	3.481179931579391E+001	-4.7105688E-001	-4.736275596110157E-002	2.2310553E-005	-4.7106826E-001	0
9.9763867E+003	3.501179931074148E+001	-4.7306746E-001	-4.741871542357512E-002	2.2432252E-005	-4.7306806E-001	0
1.0042799E+004	3.521179930568906E+001	-4.7512046E-001	-4.730956437427314E-002	2.2477741E-005	-4.7506797E-001	0
1.0089487E+004	3.541179930063663E+001	-4.7708568E-001	-4.728542424051019E-002	2.2559199E-005	-4.7706789E-001	0
1.0150864E+004	3.561179929558421E+001	-4.7904530E-001	-4.719256291687579E-002	2.2607375E-005	-4.7906774E-001	0
1.0196421E+004	3.581179929053178E+001	-4.8110792E-001	-4.718399846656007E-002	2.2700595E-005	-4.8106769E-001	0
1.0238919E+004	3.601179928547936E+001	-4.8302853E-001	-4.717573636953765E-002	2.2787226E-005	-4.8306748E-001	0
1.0291877E+004	3.621179928042693E+001	-4.8510006E-001	-4.713426385884767E-002	2.2864835E-005	-4.8506743E-001	0
1.0339582E+004	3.641179927537451E+001	-4.8702914E-001	-4.710336999023701E-002	2.2940714E-005	-4.8706731E-001	0
1.0381430E+004	3.661179927032208E+001	-4.8908857E-001	-4.711186939712131E-002	2.3041877E-005	-4.8906720E-001	0
1.0415230E+004	3.681159926527471E+001	-4.9108192E-001	-4.715036371138892E-002	2.3154691E-005	-4.9106714E-001	0
1.0481862E+004	3.701159926022228E+001	-4.9307436E-001	-4.704072135115167E-002	2.3194574E-005	-4.9306697E-001	0
1.0537645E+004	3.721159925516986E+001	-4.9506626E-001	-4.698073275175074E-002	2.3258575E-005	-4.9506691E-001	0
1.0578938E+004	3.741159925011743E+001	-4.9709487E-001	-4.698911132665828E-002	2.3358047E-005	-4.9706677E-001	0
1.0626092E+004	3.761159924506501E+001	-4.9905664E-001	-4.696520846263169E-002	2.3438299E-005	-4.9906668E-001	0
1.0673899E+004	3.781159924001258E+001	-5.0108004E-001	-4.694442041012359E-002	2.3522913E-005	-5.0106657E-001	0
1.0712771E+004	3.801159923496016E+001	-5.0303203E-001	-4.695629444086302E-002	2.3620520E-005	-5.0306642E-001	0
1.0761104E+004	3.821159922990773E+001	-5.0510144E-001	-4.693769955798538E-002	2.3708300E-005	-5.0506639E-001	0
1.0815059E+004	3.841159922485531E+001	-5.0712264E-001	-4.689041982365821E-002	2.3779194E-005	-5.0706619E-001	0
1.0857384E+004	3.861159921980288E+001	-5.0909382E-001	-4.688918071797921E-002	2.3870993E-005	-5.0906610E-001	0
1.0915925E+004	3.881159921475046E+001	-5.1108634E-001	-4.682025221248259E-002	2.3929191E-005	-5.1106602E-001	0
1.0953551E+004	3.901159920969803E+001	-5.1310396E-001	-4.684362039202294E-002	2.4035648E-005	-5.1306587E-001	0
1.1004029E+004	3.921159920464561E+001	-5.1508695E-001	-4.680893932576892E-002	2.4110674E-005	-5.1506579E-001	0
1.1074616E+004	3.941159919959318E+001	-5.1714844E-001	-4.669673450327061E-002	2.4149143E-005	-5.1706564E-001	0
1.1083691E+004	3.961159919454076E+001	-5.1908350E-001	-4.683308680293673E-002	2.4310282E-005	-5.1906556E-001	0
1.1130191E+004	3.981159918948833E+001	-5.2105910E-001	-4.681492581844204E-002	2.4393343E-005	-5.2106541E-001	0
1.1183229E+004	4.001159918443591E+001	-5.2308351E-001	-4.677392623509768E-002	2.4466670E-005	-5.2306533E-001	0
1.1233417E+004	4.021149917938601E+001	-5.2506125E-001	-4.674100971843298E-002	2.4541892E-005	-5.2506459E-001	0
1.1285501E+004	4.041139917433611E+001	-5.2711540E-001	-4.670730906408432E-002	2.4620142E-005	-5.2706486E-001	0
1.1336727E+004	4.061139916928369E+001	-5.2908832E-001	-4.667028953065722E-002	2.4692705E-005	-5.2906501E-001	0
1.1387186E+004	4.081139916423126E+001	-5.3109211E-001	-4.663945352019792E-002	2.4769846E-005	-5.3106493E-001	0
1.1429977E+004	4.101139915917884E+001	-5.3309196E-001	-4.663981296081943E-002	2.4863310E-005	-5.3306478E-001	0
1.1478765E+004	4.121139915412641E+001	-5.3503740E-001	-4.661106090499589E-002	2.4938661E-005	-5.3506470E-001	0
1.1531446E+004	4.141139914907399E+001	-5.3715408E-001	-4.658167325530449E-002	2.5021536E-005	-5.3706449E-001	0
1.1576551E+004	4.161139914402156E+001	-5.3909868E-001	-4.656816071929937E-002	2.5104833E-005	-5.3906447E-001	0
1.1619842E+004	4.181139913896914E+001	-5.4109824E-001	-4.656674667650118E-002	2.5197185E-005	-5.4106432E-001	0
1.1692021E+004	4.201139913391671E+001	-5.4314256E-001	-4.645412405789142E-002	2.5231211E-005	-5.4306424E-001	0
1.1718591E+004	4.221139912886429E+001	-5.4510522E-001	-4.651627870215336E-002	2.5356267E-005	-5.4506415E-001	0
1.1747268E+004	4.241139912381186E+001	-5.4710668E-001	-4.657310219729724E-002	2.5480456E-005	-5.4706401E-001	0
1.1794566E+004	4.261139911875944E+001	-5.4906762E-001	-4.655259057943859E-002	2.5560519E-005	-5.4906392E-001	0
1.1833802E+004	4.281139911370701E+001	-5.5109411E-001	-4.656948939930913E-002	2.5664172E-005	-5.5106378E-001	0
1.1886537E+004	4.301139910865459E+001	-5.5306101E-001	-4.652835274576672E-002	2.5733018E-005	-5.5306369E-001	0
1.1955011E+004	4.321139910360216E+001	-5.5511785E-001	-4.643390772974054E-002	2.5776291E-005	-5.5506361E-001	0
1.1981421E+004	4.341139909854974E+001	-5.5706185E-001	-4.649380620494031E-002	2.5899926E-005	-5.5706346E-001	0
1.2028176E+004	4.361139909349731E+001	-5.5908096E-001	-4.648094513092405E-002	2.5986612E-005	-5.5906337E-001	0
1.2049461E+004	4.381129908844741E+001	-5.6107491E-001	-4.656431545511097E-002	2.6126068E-005	-5.6106234E-001	0
1.2110703E+004	4.401129908339499E+001	-5.6313062E-001	-4.649858809527030E-002	2.6184778E-005	-5.6306404E-001	0
1.2155288E+004	4.421119907834509E+001	-5.6507695E-001	-4.648815671693685E-002	2.6269387E-005	-5.6506300E-001	0
1.2185394E+004	4.441119907329266E+001	-5.6708944E-001	-4.653845854259853E-002	2.6391468E-005	-5.6706285E-001	0
1.2232438E+004	4.461119906824024E+001	-5.6909275E-001	-4.652325015133912E-002	2.6476044E-005	-5.6906283E-001	0
1.2276684E+004	4.481119906318781E+001	-5.7109487E-001	-4.651865889920159E-002	2.6566568E-005	-5.7106262E-001	0
1.2313075E+004	4.501119905813539E+001	-5.7302630E-001	-4.653803389329370E-002	2.6667518E-005	-5.7306260E-001	0
1.2375500E+004	4.521119905308296E+001	-5.7517225E-001	-4.647668689260254E-002	2.6732101E-005	-5.7506245E-001	0
1.2424175E+004	4.541119904803054E+001	-5.7698023E-001	-4.644012510118689E-002	2.6795035E-005	-5.7706237E-001	0
1.2462769E+004	4.561119904297811E+001	-5.7907891E-001	-4.646470978361894E-002	2.6906733E-005	-5.7906222E-001	0
1.2478907E+004	4.581119903792569E+001	-5.8114403E-001	-4.657010546206486E-002	2.7063939E-005	-5.8106208E-001	0
1.2532364E+004	4.601119903287326E+001	-5.8304298E-001	-4.652298478960870E-002	2.7124899E-005	-5.8306205E-001	0
1.2570077E+004	4.621119902782084E+001	-5.8510774E-001	-4.654766628919942E-002	2.7235399E-005	-5.8506185E-001	0
1.2611851E+004	4.641119902276841E+001	-5.8703285E-001	-4.654613224490683E-002	2.7324109E-005	-5.8706176E-001	0
1.2669218E+004	4.661119901771599E+001	-5.8899903E-001	-4.649056174371041E-002	2.7382895E-005	-5.8906168E-001	0
1.2715834E+004	4.681119901266356E+001	-5.9112376E-001	-4.648721955142190E-002	2.7479700E-005	-5.9106153E-001	0
1.2729409E+004	4.701119900761114E+001	-5.9308219E-001	-4.659149557475628E-002	2.7632586E-005	-5.9306145E-001	0
1.2763973E+004	4.721119900255871E+001	-5.9509957E-001	-4.662338065938032E-002	2.7745553E-005	-5.9506130E-001	0
1.2806215E+004	4.741119899750629E+001	-5.9710306E-001	-4.662603923777184E-002	2.7840551E-005	-5.9706146E-001	0
1.2852840E+004	4.761109899245639E+001	-5.9912443E-001	-4.661416829055176E-002	2.7927686E-005	-5.9906203E-001	0
1.2893259E+004	4.781099898740649E+001	-6.0115409E-001	-4.662545745486982E-002	2.8029084E-005	-6.0106099E-001	0
1.2913957E+004	4.801099898235407E+001	-6.0309911E-001	-4.670133996520476E-002	2.8165536E-005	-6.0306090E-001	0
1.2960418E+004	4.821099897730164E+001	-6.0506707E-001	-4.668576741573160E-002	2.8248021E-005	-6.0506076E-001	0
1.2998267E+004	4.841099897224922E+001	-6.0715848E-001	-4.671072795387365E-002	2.8360815E-005	-6.0706067E-001	0
1.3045717E+004	4.861099896719679E+001	-6.0910308E-001	-4.668988965112758E-002	2.8438955E-005	-6.0906059E-001	0
1.3065174E+004	4.881099896214437E+001	-6.1105853E-001	-4.677002564074734E-002	2.8579223E-005	-6.1106044E-001	0
1.3099976E+004	4.901099895709194E+001	-6.1310285E-001	-4.680183071478383E-002	2.8694336E-005	-6.1306036E-001	0
1.3139154E+004	4.921099895203952E+001	-6.1506605E-001	-4.681169366476690E-002	2.8792283E-005	-6.1506021E-001	0
1.3172416E+004	4.941099894698709E+001	-6.1710477E-001	-4.684826080679949E-002	2.8910285E-005	-6.1706018E-001	0
1.3208806E+004	4.961099894193467E+001	-6.1910516E-001	-4.687063945346459E-002	2.9017854E-005	-6.1905998E-001	0
1.3220895E+004	4.981099893688224E+001	-6.2099606E-001	-4.697080608562892E-002	2.9168685E-005	-6.2105995E-001	0
1.3266740E+004	5.001099893182982E+001	-6.2314224E-001	-4.697026163175955E-002	2.9269155E-005	-6.2305981E-001	0
1.3302851E+004	5.021099892677739E+001	-6.2509543E-001	-4.698958457051605E-002	2.9372974E-005	-6.2505966E-001	0
1.3342210E+004	5.041099892172497E+001	-6.2712991E-001	-4.700345055531718E-002	2.9477269E-005	-6.2705958E-001	0
1.3384535E+004	5.061099891667254E+001	-6.2914568E-001	-4.700541891191422E-002	2.9573257E-005	-6.2905949E-001	0
1.3400866E+004	5.081099891162012E+001	-6.3104266E-001	-4.708969295806270E-002	2.9715606E-005	-6.3105941E-001	0
1.3429847E+004	5.101099890656769E+001	-6.3307667E-001	-4.713953067833665E-002	2.9842937E-005	-6.3305926E-001	0
1.3447452E+004	5.121079890152032E+001	-6.3505900E-001	-4.722522721007816E-002	2.9990806E-005	-6.3505918E-001	0
1.3471576E+004	5.141079889646790E+001	-6.3707381E-001	-4.729022257597038E-002	3.0127363E-005	-6.3705903E-001	0
1.3506698E+004	5.161079889141547E+001	-6.3912243E-001	-4.731892283199146E-002	3.0242585E-005	-6.3905889E-001	0
1.3528618E+004	5.181079888636305E+001	-6.4111882E-001	-4.738982467275404E-002	3.0382509E-005	-6.4105880E-001	0
1.3549017E+004	5.201079888131062E+001	-6.4312732E-001	-4.746671618768095E-002	3.0527142E-005	-6.4305866E-001	0
1.3556762E+004	5.221079887625820E+001	-6.4510500E-001	-4.758547824177084E-002	3.0697629E-005	-6.4505857E-001	0
1.3589035E+004	5.241079887120577E+001	-6.4708972E-001	-4.761851670525652E-002	3.0813451E-005	-6.4705849E-001	0
1.3591407E+004	5.261079886615335E+001	-6.4913124E-001	-4.776041380968143E-002	3.1002775E-005	-6.4905834E-001	0
1.3632437E+004	5.281079886110092E+001	-6.5106440E-001	-4.775847595046734E-002	3.1093845E-005	-6.5105826E-001	0
1.3661940E+004	5.301079885604850E+001	-6.5306902E-001	-4.780206962619515E-002	3.1218049E-005	-6.5305811E-001	0
1.3690023E+004	5.321079885099607E+001	-6.5509403E-001	-4.785192806417310E-002	3.1347514E-005	-6.5505803E-001	0
1.3736817E+004	5.341079884594365E+001	-6.5708542E-001	-4.783389204743504E-002	3.1430955E-005	-6.5705788E-001	0
1.3745827E+004	5.361079884089122E+001	-6.5908599E-001	-4.794807779410520E-002	3.1601907E-005	-6.5905780E-001	0
1.3752146E+004	5.381079883583880E+001	-6.6109681E-001	-4.807226526838171E-002	3.1780422E-005	-6.6105771E-001	0
1.3788435E+004	5.401079883078637E+001	-6.6310698E-001	-4.809153531973687E-002	3.1889831E-005	-6.6305757E-001	0
1.3805503E+004	5.421079882573395E+001	-6.6505736E-001	-4.817335434044678E-002	3.2038042E-005	-6.6505754E-001	0
1.3836790E+004	5.441079882068152E+001	-6.6704094E-001	-4.820778023302696E-002	3.2156564E-005	-6.6705739E-001	0
1.3860368E+004	5.461079881562910E+001	-6.6905922E-001	-4.827138996480318E-002	3.2296419E-005	-6.6905725E-001	0
1.3880947E+004	5.481059881058172E+001	-6.7110968E-001	-4.834754058751828E-002	3.2446504E-005	-6.7105693E-001	0
1.3909433E+004	5.501059880552930E+001	-6.7306489E-001	-4.838909816642045E-002	3.2569002E-005	-6.7305702E-001	0
1.3918749E+004	5.521059880047687E+001	-6.7505890E-001	-4.849996781472950E-002	3.2740336E-005	-6.7505693E-001	0
1.3931726E+004	5.541059879542445E+001	-6.7706448E-001	-4.859875132622248E-002	3.2904489E-005	-6.7705679E-001	0
1.3935529E+004	5.561059879037202E+001	-6.7908567E-001	-4.873052689953250E-002	3.3092201E-005	-6.7905670E-001	0
1.3944426E+004	5.581059878531960E+001	-6.8113184E-001	-4.884617279791614E-002	3.3270684E-005	-6.8105662E-001	0
1.3975294E+004	5.601059878026717E+001	-6.8313658E-001	-4.888173430427367E-002	3.3392902E-005	-6.8305647E-001	0
1.3981366E+004	5.621059877521475E+001	-6.8512869E-001	-4.900298736959952E-002	3.3573353E-005	-6.8505639E-001	0
1.4019023E+004	5.641059877016232E+001	-6.8709475E-001	-4.901159770286267E-002	3.3675613E-005	-6.8705624E-001	0
1.4046440E+004	5.661059876510990E+001	-6.8905336E-001	-4.905537015583183E-002	3.3801767E-005	-6.8905616E-001	0
1.4071938E+004	5.681059876005747E+001	-6.9111717E-001	-4.911314954510282E-002	3.3942943E-005	-6.9105601E-001	0
1.4084654E+004	5.701059875500505E+001	-6.9311887E-001	-4.921092388543241E-002	3.4109020E-005	-6.9305587E-001	0
1.4090717E+004	5.721059874995262E+001	-6.9504935E-001	-4.932675512281582E-002	3.4284531E-005	-6.9505584E-001	0
1.4118280E+004	5.741059874490020E+001	-6.9710571E-001	-4.937610601480447E-002	3.4420365E-005	-6.9705570E-001	0
1.4126348E+004	5.761059873984777E+001	-6.9912463E-001	-4.949082787277463E-002	3.4600256E-005	-6.9905561E-001	0
1.4144863E+004	5.781059873479535E+001	-7.0110250E-001	-4.956587202648510E-002	3.4750756E-005	-7.0105547E-001	0
1.4162057E+004	5.801059872974292E+001	-7.0308828E-001	-4.964591797056883E-002	3.4905464E-005	-7.0305538E-001	0
1.4180964E+004	5.821049872469303E+001	-7.0508927E-001	-4.972082915793208E-002	3.5057623E-005	-7.0505440E-001	0
1.4182232E+004	5.841049871964060E+001	-7.0707053E-001	-4.985608125772992E-002	3.5251767E-005	-7.0705605E-001	0
1.4180987E+004	5.861039871459070E+001	-7.0907950E-001	-5.000212484951677E-002	3.5455483E-005	-7.0905513E-001	0
1.4193438E+004	5.881039870953828E+001	-7.1106786E-001	-5.009835427458009E-002	3.5623329E-005	-7.1105492E-001	0
1.4228665E+004	5.901039870448585E+001	-7.1309835E-001	-5.011702521678818E-002	3.5738369E-005	-7.1305484E-001	0
1.4236167E+004	5.921039869943343E+001	-7.1506912E-001	-5.022904739816531E-002	3.5917241E-005	-7.1505469E-001	0
1.4260013E+004	5.941039869438100E+001	-7.1716017E-001	-5.029169117446873E-002	3.6067198E-005	-7.1705461E-001	0
1.4282170E+004	5.961039868932858E+001	-7.1907538E-001	-5.034776743186747E-002	3.6203841E-005	-7.1905452E-001	0
1.4279880E+004	5.981039868427615E+001	-7.2111785E-001	-5.049887471705627E-002	3.6415640E-005	-7.2105432E-001	0
1.4291403E+004	6.001039867922373E+001	-7.2308642E-001	-5.059589993086167E-002	3.6585207E-005	-7.2305423E-001	0
1.4302239E+004	6.021039867417130E+001	-7.2506291E-001	-5.069576279902221E-002	3.6757618E-005	-7.2505414E-001	0
1.4323312E+004	6.041039866911888E+001	-7.2718048E-001	-5.076901985030388E-002	3.6918242E-005	-7.2705406E-001	0
1.4342147E+004	6.061039866406645E+001	-7.2904062E-001	-5.083203943691250E-002	3.7058620E-005	-7.2905397E-001	0
1.4350594E+004	6.081039865901403E+001	-7.3106205E-001	-5.094298371483411E-002	3.7242484E-005	-7.3105377E-001	0
1.4374762E+004	6.101039865396160E+001	-7.3312205E-001	-5.100063996942808E-002	3.7389695E-005	-7.3305374E-001	0
1.4384681E+004	6.121039864890918E+001	-7.3508412E-001	-5.110187199317318E-002	3.7564176E-005	-7.3505354E-001	0
1.4393530E+004	6.141039864385675E+001	-7.3706007E-001	-5.120773467946971E-002	3.7743175E-005	-7.3705345E-001	0
1.4405836E+004	6.161039863880433E+001	-7.3909420E-001	-5.130519213518137E-002	3.7919370E-005	-7.3905337E-001	0
1.4423884E+004	6.181039863375190E+001	-7.4108219E-001	-5.137882544870276E-002	3.8075934E-005	-7.4105328E-001	0
1.4438061E+004	6.201029862870200E+001	-7.4307567E-001	-5.146644783460730E-002	3.8243466E-005	-7.4305409E-001	0
1.4444384E+004	6.221019862365210E+001	-7.4511707E-001	-5.158524367115658E-002	3.8437047E-005	-7.4505305E-001	0
1.4451175E+004	6.241019861859968E+001	-7.4710661E-001	-5.169867532213712E-002	3.8624421E-005	-7.4705297E-001	0
1.4474197E+004	6.261019861354725E+001	-7.4909830E-001	-5.175404654828469E-002	3.8768867E-005	-7.4905288E-001	0
1.4486663E+004	6.281019860849483E+001	-7.5111514E-001	-5.184873475116625E-002	3.8944370E-005	-7.5105268E-001	0
1.4491340E+004	6.301019860344240E+001	-7.5311875E-001	-5.197026384751546E-002	3.9139781E-005	-7.5305259E-001	0
1.4488947E+004	6.321019859838998E+001	-7.5506294E-001	-5.211302833874476E-002	3.9348615E-005	-7.5505251E-001	0
1.4500480E+004	6.341019859333755E+001	-7.5705826E-001	-5.220918506573968E-002	3.9525396E-005	-7.5705242E-001	0
1.4524039E+004	6.361019858828513E+001	-7.5909686E-001	-5.226485999860730E-002	3.9674091E-005	-7.5905228E-001	0
1.4538024E+004	6.381019858323270E+001	-7.6108283E-001	-5.235118544586581E-002	3.9843588E-005	-7.6105213E-001	0
1.4538583E+004	6.401019857818028E+001	-7.6311678E-001	-5.248907695486404E-002	4.0055296E-005	-7.6305211E-001	0
1.4568594E+004	6.421019857312785E+001	-7.6512098E-001	-5.251852118055400E-002	4.0183022E-005	-7.6505190E-001	0
1.4553049E+004	6.441019856807543E+001	-7.6708931E-001	-5.270986900033425E-002	4.0433177E-005	-7.6705182E-001	0
1.4561332E+004	6.461019856302300E+001	-7.6910543E-001	-5.281834303910370E-002	4.0622876E-005	-7.6905173E-001	0
1.4569405E+004	6.481019855797058E+001	-7.7109122E-001	-5.292537468833974E-002	4.0810293E-005	-7.7105165E-001	0
1.4583364E+004	6.501019855291815E+001	-7.7305043E-001	-5.300906075633471E-002	4.0978677E-005	-7.7305156E-001	0
1.4596207E+004	6.521019854786573E+001	-7.7520788E-001	-5.311022659968515E-002	4.1171465E-005	-7.7505136E-001	0
1.4614378E+004	6.541019854281330E+001	-7.7712858E-001	-5.317561920307790E-002	4.1324292E-005	-7.7705133E-001	0
1.4596124E+004	6.560999853776593E+001	-7.7904230E-001	-5.337323028672847E-002	4.1580006E-005	-7.7905101E-001	0
1.4613673E+004	6.580999853271351E+001	-7.8108358E-001	-5.344882065719614E-002	4.1747997E-005	-7.8105104E-001	0
1.4625362E+004	6.600999852766108E+001	-7.8305560E-001	-5.354093667700505E-002	4.1925530E-005	-7.8305095E-001	0
1.4617268E+004	6.620999852260866E+001	-7.8512537E-001	-5.371218479223655E-002	4.2170799E-005	-7.8505087E-001	0
1.4575258E+004	6.640999851755623E+001	-7.8706676E-001	-5.400019393898070E-002	4.2501757E-005	-7.8705078E-001	0
1.4604121E+004	6.660999851250381E+001	-7.8901881E-001	-5.402713248721594E-002	4.2628424E-005	-7.8905064E-001	0
1.4625635E+004	6.680999850745138E+001	-7.9110730E-001	-5.409045875613122E-002	4.2791358E-005	-7.9105055E-001	0
1.4613839E+004	6.700999850239896E+001	-7.9304725E-001	-5.426686824945648E-002	4.3036191E-005	-7.9305041E-001	0
1.4596878E+004	6.720999849734653E+001	-7.9511684E-001	-5.447170492303875E-002	4.3311371E-005	-7.9505026E-001	0
1.4597209E+004	6.740999849229411E+001	-7.9705036E-001	-5.460292679287271E-002	4.3521282E-005	-7.9705024E-001	0
1.4597102E+004	6.760999848724168E+001	-7.9906797E-001	-5.474154980559623E-002	4.3742220E-005	-7.9905009E-001	0
1.4596095E+004	6.780999848218926E+001	-8.0110449E-001	-5.488485110978548E-002	4.3968499E-005	-8.0105007E-001	0
1.4582920E+004	6.800999847713683E+001	-8.0309302E-001	-5.507079657017266E-002	4.4226974E-005	-8.0304980E-001	0
1.4573536E+004	6.820999847208441E+001	-8.0510169E-001	-5.524408752985660E-002	4.4477107E-005	-8.0504972E-001	0
1.4565043E+004	6.840999846703198E+001	-8.0710906E-001	-5.541412243957478E-002	4.4725239E-005	-8.0704963E-001	0
1.4547316E+004	6.860999846197956E+001	-8.0911607E-001	-5.561961084308620E-002	4.5002722E-005	-8.0904949E-001	0
1.4551987E+004	6.880999845692713E+001	-8.1113279E-001	-5.574034357415980E-002	4.5212819E-005	-8.1104940E-001	0
1.4522608E+004	6.900999845187471E+001	-8.1305915E-001	-5.598575109246351E-002	4.5519726E-005	-8.1304932E-001	0
1.4513539E+004	6.920979844682734E+001	-8.1498116E-001	-5.615316570813456E-002	4.5763773E-005	-8.1504899E-001	0
1.4505440E+004	6.940979844177491E+001	-8.1709862E-001	-5.633049244652444E-002	4.6027566E-005	-8.1704909E-001	0
1.4472231E+004	6.960979843672249E+001	-8.1903362E-001	-5.659345664240245E-002	4.6351943E-005	-8.1904894E-001	0
1.4469187E+004	6.980979843167006E+001	-8.2110667E-001	-5.674864113322386E-002	4.6596688E-005	-8.2104892E-001	0
1.4424092E+004	7.000979842661764E+001	-8.2312530E-001	-5.706600555590424E-002	4.6972473E-005	-8.2304871E-001	0
1.4395229E+004	7.020979842156521E+001	-8.2501984E-001	-5.731203211756530E-002	4.7283564E-005	-8.2504863E-001	0
1.4366345E+004	7.040979841651279E+001	-8.2708836E-001	-5.757124582939099E-002	4.7616508E-005	-8.2704854E-001	0
1.4341385E+004	7.060979841146036E+001	-8.2911277E-001	-5.781259998265265E-002	4.7933165E-005	-8.2904845E-001	0
1.4328545E+004	7.080979840640794E+001	-8.3108371E-001	-5.800196319467921E-002	4.8204489E-005	-8.3104837E-001	0
1.4294473E+004	7.100979840135551E+001	-8.3309501E-001	-5.828092113515271E-002	4.8553546E-005	-8.3304816E-001	0
1.4247596E+004	7.120979839630309E+001	-8.3507746E-001	-5.861181594629883E-002	4.8945407E-005	-8.3504808E-001	0
1.4205792E+004	7.140979839125066E+001	-8.3706152E-001	-5.892396078428119E-002	4.9322982E-005	-8.3704805E-001	0
1.4169790E+004	7.160979838619824E+001	-8.3908385E-001	-5.921639241922261E-002	4.9687518E-005	-8.3904785E-001	0
1.4107497E+004	7.180979838114581E+001	-8.4106988E-001	-5.961864658097094E-002	5.0143448E-005	-8.4104776E-001	0
1.4073568E+004	7.200979837609339E+001	-8.4307599E-001	-5.990492004020553E-002	5.0504401E-005	-8.4304756E-001	0
1.3990203E+004	7.220979837104096E+001	-8.4504843E-001	-6.040286844545573E-002	5.1043349E-005	-8.4504759E-001	0
1.3917750E+004	7.240979836598854E+001	-8.4707469E-001	-6.086290230744365E-002	5.1555424E-005	-8.4704745E-001	0
1.3841866E+004	7.260979836093611E+001	-8.4907776E-001	-6.134127798836575E-002	5.2083516E-005	-8.4904736E-001	0
1.3780407E+004	7.280969835588621E+001	-8.5106307E-001	-6.175891909203690E-002	5.2560736E-005	-8.5104698E-001	0
1.3701551E+004	7.300959835083631E+001	-8.5308337E-001	-6.226181043174672E-002	5.3114516E-005	-8.5304707E-001	0
1.3594522E+004	7.320959834578389E+001	-8.5508949E-001	-6.289955825690619E-002	5.3784752E-005	-8.5504699E-001	0
1.3493768E+004	7.340959834073146E+001	-8.5708326E-001	-6.351697355796010E-002	5.4439333E-005	-8.5704690E-001	0
1.3396015E+004	7.360959833567904E+001	-8.5913163E-001	-6.413337510119266E-002	5.5099012E-005	-8.5904682E-001	0
1.3283528E+004	7.380959833062661E+001	-8.6106771E-001	-6.482221201841486E-002	5.5816316E-005	-8.6104661E-001	0
1.3134498E+004	7.400959832557419E+001	-8.6305511E-001	-6.570902694113845E-002	5.6710513E-005	-8.6304653E-001	0
1.2967600E+004	7.420959832052176E+001	-8.6509019E-001	-6.671166489726488E-002	5.7711608E-005	-8.6504644E-001	0
1.2824022E+004	7.440959831546934E+001	-8.6708349E-001	-6.761400363473488E-002	5.8626985E-005	-8.6704630E-001	0
1.2657094E+004	7.460959831041691E+001	-8.6907494E-001	-6.866307319891618E-002	5.9673355E-005	-8.6904621E-001	0
1.2478393E+004	7.480959830536449E+001	-8.7106991E-001	-6.980626121936295E-002	6.0806135E-005	-8.7104607E-001	0
1.2300116E+004	7.500959830031206E+001	-8.7306786E-001	-7.098045771890871E-002	6.1970757E-005	-8.7304592E-001	0
1.2064036E+004	7.520959829525964E+001	-8.7503225E-001	-7.253229524201088E-002	6.3468098E-005	-8.7504596E-001	0
1.1843670E+004	7.540959829020721E+001	-8.7702954E-001	-7.405048687815613E-002	6.4944463E-005	-8.7704575E-001	0
1.1582958E+004	7.560959828515479E+001	-8.7908685E-001	-7.589484985427886E-002	6.6718167E-005	-8.7904572E-001	0
1.1311152E+004	7.580959828010236E+001	-8.8107783E-001	-7.789461196784564E-002	6.8631212E-005	-8.8104552E-001	0
1.1011365E+004	7.600959827504994E+001	-8.8306028E-001	-8.019535203808575E-002	7.0817332E-005	-8.8304543E-001	0
1.0687931E+004	7.620959826999751E+001	-8.8507819E-001	-8.281099835153052E-002	7.3294206E-005	-8.8504535E-001	0
1.0348202E+004	7.640949826494762E+001	-8.8706404E-001	-8.572155807478132E-002	7.6040509E-005	-8.8704485E-001	0
9.9913115E+003	7.660939825989772E+001	-8.8903803E-001	-8.898110940731385E-002	7.9107587E-005	-8.8904518E-001	0
9.6201152E+003	7.680939825484529E+001	-8.9103878E-001	-9.262245950920506E-002	8.2530205E-005	-8.9104497E-001	0
9.2189688E+003	7.700939824979287E+001	-8.9306104E-001	-9.687211657842632E-002	8.6512715E-005	-8.9304489E-001	0
8.8130410E+003	7.720939824474044E+001	-8.9506602E-001	-1.015615364126949E-001	9.0904279E-005	-8.9504480E-001	0
8.3908779E+003	7.740939823968802E+001	-8.9704847E-001	-1.069075874593575E-001	9.5901290E-005	-8.9704466E-001	0
7.9431206E+003	7.760939823463559E+001	-8.9906073E-001	-1.131873449285323E-001	1.0176230E-004	-8.9904457E-001	0
7.5065693E+003	7.780939822958317E+001	-9.0106690E-001	-1.200371086175071E-001	1.0816147E-004	-9.0104437E-001	0
7.0600586E+003	7.800939822453074E+001	-9.0303952E-001	-1.279082193563097E-001	1.1550618E-004	-9.0304440E-001	0
6.6132236E+003	7.820939821947832E+001	-9.0508294E-001	-1.368595685602891E-001	1.2386926E-004	-9.0504444E-001	0
6.1748862E+003	7.840939821442589E+001	-9.0705776E-001	-1.468946505802560E-001	1.3324193E-004	-9.0704513E-001	0
5.7475376E+003	7.860939820937347E+001	-9.0905583E-001	-1.581644013633872E-001	1.4378027E-004	-9.0904510E-001	0
5.3250464E+003	7.880939820432104E+001	-9.1106665E-001	-1.710908424009966E-001	1.5587515E-004	-9.1104507E-001	0
4.9101191E+003	7.900939819926862E+001	-9.1306299E-001	-1.859553706232462E-001	1.6978897E-004	-9.1304505E-001	0
4.5349707E+003	7.920939819421619E+001	-9.1509455E-001	-2.017862202183620E-001	1.8465347E-004	-9.1504514E-001	0
4.1670171E+003	7.940939818916377E+001	-9.1704941E-001	-2.200733431173562E-001	2.0181813E-004	-9.1704512E-001	0
3.8229504E+003	7.960939818411134E+001	-9.1905510E-001	-2.404046570945564E-001	2.2094513E-004	-9.1904503E-001	0
3.5019858E+003	7.980939817905892E+001	-9.2112452E-001	-2.630291928404138E-001	2.4228264E-004	-9.2104506E-001	0
3.1349973E+003	8.000939817400649E+001	-9.2306739E-001	-2.944396192191050E-001	2.7178761E-004	-9.2304516E-001	0
2.8854189E+003	8.020939816895407E+001	-9.2506498E-001	-3.205998911313253E-001	2.9657574E-004	-9.2504501E-001	0
2.6410015E+003	8.040939816390164E+001	-9.2707914E-001	-3.510331771296373E-001	3.2543554E-004	-9.2704505E-001	0
2.4146589E+003	8.060939815884922E+001	-9.2909360E-001	-3.847721801635691E-001	3.5748936E-004	-9.2904508E-001	0
2.1738123E+003	8.080939815379679E+001	-9.3109381E-001	-4.283229919095559E-001	3.9880889E-004	-9.3104506E-001	0
1.9881857E+003	8.100939814874437E+001	-9.3304914E-001	-4.692967869299116E-001	4.3787697E-004	-9.3304503E-001	0
1.8235657E+003	8.120939814369194E+001	-9.3511879E-001	-5.127968852051330E-001	4.7952600E-004	-9.3504506E-001	0
1.6495350E+003	8.140939813863952E+001	-9.3707722E-001	-5.680856776134440E-001	5.3234014E-004	-9.3704504E-001	0
1.5136117E+003	8.160939813358709E+001	-9.3912399E-001	-6.204524089934931E-001	5.8268174E-004	-9.3904501E-001	0
1.3860674E+003	8.180939812853467E+001	-9.4118500E-001	-6.790326713349959E-001	6.3909538E-004	-9.4104511E-001	0
1.2652979E+003	8.200939812348224E+001	-9.4303638E-001	-7.453078390722148E-001	7.0285238E-004	-9.4304508E-001	0
1.1666238E+003	8.220939811842982E+001	-9.4512540E-001	-8.101372325163609E-001	7.6568127E-004	-9.4504505E-001	0
1.0679094E+003	8.240939811337739E+001	-9.4713509E-001	-8.869057886995155E-001	8.4001961E-004	-9.4704509E-001	0
9.8329956E+002	8.260939810832497E+001	-9.4905895E-001	-9.651778377592568E-001	9.1601064E-004	-9.4904512E-001	0
9.0476874E+002	8.281939810301992E+001	-9.5122492E-001	-1.051345950971819E+000	1.0000665E-003	-9.5114517E-001	0
8.3212805E+002	8.302939809771487E+001	-9.5326716E-001	-1.145577509488376E+000	1.0920414E-003	-9.5324504E-001	0
7.7341302E+002	8.322939809266245E+001	-9.5532686E-001	-1.235209141957178E+000	1.1800284E-003	-9.5524508E-001	0
7.1905914E+002	8.342939808761003E+001	-9.5731431E-001	-1.331342904653201E+000	1.2745137E-003	-9.5724505E-001	0
6.6785284E+002	8.362939808255760E+001	-9.5927143E-001	-1.436351518976648E+000	1.3778510E-003	-9.5924503E-001	0
6.2290344E+002	8.382939807750518E+001	-9.6126950E-001	-1.543207854319720E+000	1.4834387E-003	-9.6124512E-001	0
5.8254913E+002	8.402939807245275E+001	-9.6327150E-001	-1.653545460919283E+000	1.5928132E-003	-9.6324509E-001	0
5.4598792E+002	8.422939806740033E+001	-9.6527612E-001	-1.767944022709003E+000	1.7065542E-003	-9.6524507E-001	0
5.1203241E+002	8.442939806234790E+001	-9.6720922E-001	-1.888960973763009E+000	1.8270204E-003	-9.6724504E-001	0
4.8090619E+002	8.462939805729548E+001	-9.6924692E-001	-2.015459458235981E+000	1.9534780E-003	-9.6924514E-001	0
4.5325052E+002	8.482939805224305E+001	-9.7128361E-001	-2.142928810312895E+000	2.0813916E-003	-9.7124511E-001	0
4.2767261E+002	8.502939804719063E+001	-9.7324193E-001	-2.275670449023480E+000	2.2147780E-003	-9.7324508E-001	0
4.0417783E+002	8.522939804213820E+001	-9.7530633E-001	-2.413062413026680E+000	2.3534750E-003	-9.7524506E-001	0
3.8277817E+002	8.542939803708578E+001	-9.7730905E-001	-2.553199508140818E+000	2.4952649E-003	-9.7724515E-001	0
3.6265961E+002	8.562939803203335E+001	-9.7924197E-001	-2.700168364290610E+000	2.6441182E-003	-9.7924501E-001	0
3.4403485E+002	8.582939802698093E+001	-9.8121876E-001	-2.852091087657716E+000	2.7985252E-003	-9.8124504E-001	0
3.2713364E+002	8.602939802192850E+001	-9.8327571E-001	-3.005731001124630E+000	2.9554623E-003	-9.8324507E-001	0
3.1129150E+002	8.622939801687608E+001	-9.8527443E-001	-3.165118351257718E+000	3.1185101E-003	-9.8524505E-001	0
2.9704437E+002	8.642939801182365E+001	-9.8729396E-001	-3.323725621378600E+000	3.2814941E-003	-9.8724508E-001	0
2.8344870E+002	8.662939800677123E+001	-9.8925644E-001	-3.490072101726284E+000	3.4525762E-003	-9.8924506E-001	0
2.7086151E+002	8.682939800171880E+001	-9.9130619E-001	-3.659826746299144E+000	3.6280090E-003	-9.9124503E-001	0
2.5925510E+002	8.702939799666638E+001	-9.9326825E-001	-3.831238854600464E+000	3.8054478E-003	-9.9324501E-001	0
2.4840431E+002	8.722939799161395E+001	-9.9525052E-001	-4.006574960928120E+000	3.9875456E-003	-9.9524498E-001	0
2.3805305E+002	8.742939798656153E+001	-9.9728614E-001	-4.189344042891008E+000	4.1779745E-003	-9.9724495E-001	0
2.2875826E+002	8.762939798150910E+001	-9.9926895E-001	-4.368231278934983E+000	4.3650377E-003	-9.9924505E-001	0
2.1995969E+002	8.782939797645668E+001	-1.0012507E+000	-4.551973945463317E+000	4.5576673E-003	-1.0012450E+000	0
2.1142987E+002	8.802939797140425E+001	-1.0032818E+000	-4.745222657614839E+000	4.7607957E-003	-1.0032451E+000	0
2.0364511E+002	8.822939796635183E+001	-1.0052687E+000	-4.936375218521725E+000	4.9623833E-003	-1.0052450E+000	0
1.9613397E+002	8.842939796129940E+001	-1.0073084E+000	-5.135818073031835E+000	5.1733525E-003	-1.0072451E+000	0
1.8925845E+002	8.862939795624698E+001	-1.0092788E+000	-5.332807003742175E+000	5.3822887E-003	-1.0092450E+000	0
1.8263486E+002	8.882939795119455E+001	-1.0112743E+000	-5.537137604996452E+000	5.5995653E-003	-1.0112451E+000	0
1.7641217E+002	8.902939794614213E+001	-1.0133122E+000	-5.744004131883990E+000	5.8204695E-003	-1.0132450E+000	0
1.7043515E+002	8.922939794108970E+001	-1.0152899E+000	-5.957044995797460E+000	6.0481275E-003	-1.0152451E+000	0
1.6477966E+002	8.942939793603728E+001	-1.0172919E+000	-6.173649674302588E+000	6.2804040E-003	-1.0172451E+000	0
1.5921344E+002	8.962939793098485E+001	-1.0193133E+000	-6.402181251384235E+000	6.5258285E-003	-1.0192450E+000	0
1.5405930E+002	8.982939792593243E+001	-1.0213368E+000	-6.629504301718299E+000	6.7709568E-003	-1.0212451E+000	0
1.4897119E+002	9.002939792088000E+001	-1.0233166E+000	-6.869224875151730E+000	7.0293918E-003	-1.0232451E+000	0
1.4433835E+002	9.022939791582758E+001	-1.0253060E+000	-7.103489561348539E+000	7.2832503E-003	-1.0252451E+000	0
1.3990053E+002	9.042939791077515E+001	-1.0273063E+000	-7.343119291626678E+000	7.5436328E-003	-1.0272449E+000	0
1.3569579E+002	9.062939790572273E+001	-1.0293256E+000	-7.585538842510493E+000	7.8079891E-003	-1.0292451E+000	0
1.3163429E+002	9.082939790067030E+001	-1.0312909E+000	-7.834515391226006E+000	8.0796648E-003	-1.0312451E+000	0
1.2777480E+002	9.102939789561788E+001	-1.0333616E+000	-8.087366282737193E+000	8.3571738E-003	-1.0332451E+000	0
1.2396811E+002	9.122939789056545E+001	-1.0352533E+000	-8.350964666967229E+000	8.6453632E-003	-1.0352451E+000	0
1.2053054E+002	9.142939788551303E+001	-1.0372926E+000	-8.606055924411294E+000	8.9269979E-003	-1.0372450E+000	0
1.1713461E+002	9.162939788046060E+001	-1.0393350E+000	-8.872997117758857E+000	9.2220167E-003	-1.0392451E+000	0
1.1387517E+002	9.182939787540818E+001	-1.0412791E+000	-9.144039882689086E+000	9.5214974E-003	-1.0412451E+000	0
1.1078047E+002	9.202939787035575E+001	-1.0433338E+000	-9.418029805092038E+000	9.8261489E-003	-1.0432451E+000	0
1.0784496E+002	9.222939786530333E+001	-1.0452861E+000	-9.692488459840604E+000	1.0131423E-002	-1.0452451E+000	0
1.0503041E+002	9.242939786025090E+001	-1.0472963E+000	-9.971362334665542E+000	1.0442970E-002	-1.0472450E+000	0
1.0230193E+002	9.262939785519848E+001	-1.0493611E+000	-1.025749085090052E+001	1.0763812E-002	-1.0492451E+000	0
9.9611313E+001	9.282939785014605E+001	-1.0512744E+000	-1.055376542263294E+001	1.1094904E-002	-1.0512451E+000	0
9.6877975E+001	9.303939784484101E+001	-1.0533388E+000	-1.087284070454079E+001	1.1452785E-002	-1.0533452E+000	0
9.4096367E+001	9.324939783953596E+001	-1.0555055E+000	-1.121728256473199E+001	1.1839904E-002	-1.0554451E+000	0
9.1761909E+001	9.344939783448353E+001	-1.0574611E+000	-1.152396573981190E+001	1.2186146E-002	-1.0574450E+000	0
8.9502937E+001	9.364939782943111E+001	-1.0595144E+000	-1.183776125082085E+001	1.2542279E-002	-1.0594451E+000	0
8.7326149E+001	9.384939782437868E+001	-1.0614897E+000	-1.215546181777711E+001	1.2902898E-002	-1.0614451E+000	0
8.5214165E+001	9.404939781932626E+001	-1.0634391E+000	-1.247960536584023E+001	1.3271301E-002	-1.0634451E+000	0
8.3291466E+001	9.424939781427383E+001	-1.0655010E+000	-1.279243889133403E+001	1.3630356E-002	-1.0654451E+000	0
8.1293648E+001	9.444939780922141E+001	-1.0674347E+000	-1.313060425914603E+001	1.4016062E-002	-1.0674449E+000	0
7.9316223E+001	9.464939780416898E+001	-1.0695121E+000	-1.348415371174177E+001	1.4421466E-002	-1.0694451E+000	0
7.7496773E+001	9.484939779911656E+001	-1.0714842E+000	-1.382617896443855E+001	1.4814532E-002	-1.0714451E+000	0
7.5648895E+001	9.504939779406413E+001	-1.0735078E+000	-1.419065981954680E+001	1.5233784E-002	-1.0734452E+000	0
7.3804497E+001	9.524939778901171E+001	-1.0754496E+000	-1.457159972339528E+001	1.5671020E-002	-1.0754451E+000	0
7.2087517E+001	9.544939778395928E+001	-1.0774517E+000	-1.494643964680952E+001	1.6104067E-002	-1.0774450E+000	0
7.0580299E+001	9.564939777890686E+001	-1.0795099E+000	-1.529477615867340E+001	1.6510861E-002	-1.0794451E+000	0
6.8921982E+001	9.584939777385443E+001	-1.0814655E+000	-1.569115475164793E+001	1.6969442E-002	-1.0814451E+000	0
6.7367737E+001	9.604939776880201E+001	-1.0834476E+000	-1.608258761016145E+001	1.7424641E-002	-1.0834450E+000	0
6.5897461E+001	9.624939776374958E+001	-1.0854309E+000	-1.647151321010517E+001	1.7878689E-002	-1.0854450E+000	0
6.4429420E+001	9.644939775869716E+001	-1.0874510E+000	-1.687817376852029E+001	1.8354187E-002	-1.0874450E+000	0
6.3074512E+001	9.664939775364473E+001	-1.0894672E+000	-1.727270097675776E+001	1.8818041E-002	-1.0894450E+000	0
6.1644524E+001	9.684939774859231E+001	-1.0914381E+000	-1.770535329410012E+001	1.9324297E-002	-1.0914451E+000	0
6.0356571E+001	9.704939774353988E+001	-1.0934772E+000	-1.811695444637951E+001	1.9810477E-002	-1.0934451E+000	0
5.9036747E+001	9.724939773848746E+001	-1.0954797E+000	-1.855589615731009E+001	2.0327607E-002	-1.0954450E+000	0
5.7837296E+001	9.744939773343503E+001	-1.0975119E+000	-1.897585095083361E+001	2.0826222E-002	-1.0974450E+000	0
5.6635040E+001	9.764939772838261E+001	-1.0994706E+000	-1.941325785310900E+001	2.1344306E-002	-1.0994451E+000	0
5.5459408E+001	9.784939772333018E+001	-1.1014796E+000	-1.986100641845854E+001	2.1876493E-002	-1.1014452E+000	0
5.4303867E+001	9.804939771827776E+001	-1.1034442E+000	-2.031980880236686E+001	2.2421775E-002	-1.1034451E+000	0
5.3195107E+001	9.824939771322533E+001	-1.1054730E+000	-2.078148063780768E+001	2.2973366E-002	-1.1054450E+000	0
5.2111122E+001	9.844939770817291E+001	-1.1074451E+000	-2.125160786556815E+001	2.3534989E-002	-1.1074450E+000	0
5.1046329E+001	9.864939770312049E+001	-1.1094882E+000	-2.173492677479379E+001	2.4114646E-002	-1.1094451E+000	0
5.0059330E+001	9.884939769806806E+001	-1.1114620E+000	-2.220289387319093E+001	2.4677673E-002	-1.1114451E+000	0
4.9060066E+001	9.904939769301564E+001	-1.1135018E+000	-2.269670319962665E+001	2.5272820E-002	-1.1134450E+000	0
4.8096073E+001	9.924939768796321E+001	-1.1155139E+000	-2.319345073837815E+001	2.5872618E-002	-1.1154451E+000	0
4.7104374E+001	9.944939768291079E+001	-1.1174910E+000	-2.372371985095981E+001	2.6511043E-002	-1.1174450E+000	0
4.6191540E+001	9.964939767785836E+001	-1.1195084E+000	-2.423622046752314E+001	2.7132653E-002	-1.1194451E+000	0
4.5255783E+001	9.984939767280594E+001	-1.1215087E+000	-2.478155663832510E+001	2.7792731E-002	-1.1214451E+000	0
4.4383602E+001	1.000493976677535E+002	-1.1234502E+000	-2.531228002939633E+001	2.8437085E-002	-1.1234450E+000	0
4.3555656E+001	1.002493976627011E+002	-1.1255474E+000	-2.584159022988644E+001	2.9085934E-002	-1.1254451E+000	0
4.2765717E+001	1.004493976576487E+002	-1.1275210E+000	-2.636506830159229E+001	2.9727168E-002	-1.1274451E+000	0
4.1990089E+001	1.006493976525962E+002	-1.1294755E+000	-2.689862147399367E+001	3.0381333E-002	-1.1294451E+000	0
4.1255779E+001	1.008493976475438E+002	-1.1314682E+000	-2.742568917366367E+001	3.1031294E-002	-1.1314452E+000	0
4.0409351E+001	1.010493976424914E+002	-1.1335118E+000	-2.805072998513977E+001	3.1795833E-002	-1.1334451E+000	0
3.9656982E+001	1.012493976374390E+002	-1.1355156E+000	-2.863343218502814E+001	3.2513708E-002	-1.1354450E+000	0
3.8881031E+001	1.014493976323865E+002	-1.1375194E+000	-2.925641013786625E+001	3.3279732E-002	-1.1374451E+000	0
3.8239269E+001	1.016493976273341E+002	-1.1395050E+000	-2.979934176025489E+001	3.3956502E-002	-1.1394451E+000	0
3.7597992E+001	1.018493976222817E+002	-1.1415013E+000	-3.036069763301452E+001	3.4656774E-002	-1.1414452E+000	0
3.6993134E+001	1.020493976172293E+002	-1.1435121E+000	-3.091147106953474E+001	3.5347641E-002	-1.1434451E+000	0
3.6391304E+001	1.022493976121768E+002	-1.1455038E+000	-3.147740282277130E+001	3.6057483E-002	-1.1454450E+000	0
3.5801861E+001	1.024493976071244E+002	-1.1474693E+000	-3.205054915924455E+001	3.6777020E-002	-1.1474451E+000	0
3.5072533E+001	1.026493976020720E+002	-1.1494403E+000	-3.277323176828378E+001	3.7670873E-002	-1.1494451E+000	0
3.4422501E+001	1.028493975970196E+002	-1.1514883E+000	-3.345161706465967E+001	3.8519144E-002	-1.1514450E+000	0
3.3755672E+001	1.030493975919671E+002	-1.1534412E+000	-3.417029222068865E+001	3.9413422E-002	-1.1534451E+000	0
3.3170624E+001	1.032493975869147E+002	-1.1554990E+000	-3.483500722043902E+001	4.0251814E-002	-1.1554451E+000	0
3.2611481E+001	1.034493975818623E+002	-1.1575129E+000	-3.549403107436592E+001	4.1084800E-002	-1.1574450E+000	0
3.1893129E+001	1.036493975768099E+002	-1.1594324E+000	-3.635367291908960E+001	4.2149626E-002	-1.1594450E+000	0
3.1275856E+001	1.038493975717574E+002	-1.1615428E+000	-3.713864011991598E+001	4.3138120E-002	-1.1614451E+000	0
3.0725645E+001	1.040493975667050E+002	-1.1634803E+000	-3.786674924286049E+001	4.4057216E-002	-1.1634450E+000	0
3.0239023E+001	1.042493975616526E+002	-1.1655023E+000	-3.854298901152458E+001	4.4921942E-002	-1.1654451E+000	0
2.9679466E+001	1.044493975566002E+002	-1.1675133E+000	-3.933740609411228E+001	4.5926943E-002	-1.1674451E+000	0
2.9168938E+001	1.046493975515477E+002	-1.1694869E+000	-4.009357167804046E+001	4.6888907E-002	-1.1694452E+000	0
2.8677824E+001	1.048493975464953E+002	-1.1715333E+000	-4.085154367979965E+001	4.7858946E-002	-1.1714451E+000	0
2.8307590E+001	1.050493975414429E+002	-1.1735823E+000	-4.145822056702195E+001	4.8654635E-002	-1.1734450E+000	0
2.7921658E+001	1.052493975363905E+002	-1.1755383E+000	-4.210130689987508E+001	4.9491700E-002	-1.1754451E+000	0
2.7512934E+001	1.054493975313380E+002	-1.1775596E+000	-4.280021995076248E+001	5.0399810E-002	-1.1774451E+000	0
2.7095053E+001	1.056493975262856E+002	-1.1795778E+000	-4.353480484939757E+001	5.1352691E-002	-1.1794450E+000	0
2.6457800E+001	1.058493975212332E+002	-1.1815898E+000	-4.465941441329426E+001	5.2769110E-002	-1.1814451E+000	0
2.5912134E+001	1.060493975161808E+002	-1.1835090E+000	-4.567392898011371E+001	5.4055505E-002	-1.1834451E+000	0
2.5627382E+001	1.062493975111283E+002	-1.1855791E+000	-4.626219998627835E+001	5.4847497E-002	-1.1854451E+000	0
2.5004122E+001	1.064493975060759E+002	-1.1875674E+000	-4.749486413266936E+001	5.6403350E-002	-1.1874450E+000	0
2.4456842E+001	1.066493975010235E+002	-1.1895599E+000	-4.863914807583473E+001	5.7859182E-002	-1.1894451E+000	0
2.3976339E+001	1.068493974959711E+002	-1.1915629E+000	-4.969745009502299E+001	5.9217636E-002	-1.1914451E+000	0
2.3504112E+001	1.070493974909186E+002	-1.1934991E+000	-5.077831070493403E+001	6.0603868E-002	-1.1934451E+000	0
2.3149307E+001	1.072493974858662E+002	-1.1955827E+000	-5.164658760591979E+001	6.1747771E-002	-1.1954451E+000	0
2.2902363E+001	1.074493974808138E+002	-1.1975535E+000	-5.228951899967490E+001	6.2619500E-002	-1.1974452E+000	0
2.2595701E+001	1.076493974757614E+002	-1.1995459E+000	-5.308734940941920E+001	6.3680708E-002	-1.1994451E+000	0
2.2272852E+001	1.078493974707089E+002	-1.2015650E+000	-5.394751763722257E+001	6.4821452E-002	-1.2014451E+000	0
2.1926514E+001	1.080493974656565E+002	-1.2035378E+000	-5.488960972286412E+001	6.6061720E-002	-1.2034451E+000	0
2.1149748E+001	1.082493974606041E+002	-1.2055192E+000	-5.699922324362285E+001	6.8713658E-002	-1.2054451E+000	0
2.0934038E+001	1.084493974555517E+002	-1.2075682E+000	-5.768443461989057E+001	6.9657885E-002	-1.2074450E+000	0
2.0705097E+001	1.086493974504992E+002	-1.2095500E+000	-5.841798115101017E+001	7.0659474E-002	-1.2094451E+000	0
2.0412102E+001	1.088493974454468E+002	-1.2115036E+000	-5.935222074125886E+001	7.1905434E-002	-1.2114451E+000	0
2.0106014E+001	1.090493974403944E+002	-1.2135217E+000	-6.035615252475355E+001	7.3243499E-002	-1.2134451E+000	0
1.9929756E+001	1.092493974353420E+002	-1.2155133E+000	-6.098987788840509E+001	7.4134007E-002	-1.2154450E+000	0
1.9675381E+001	1.094493974302895E+002	-1.2175798E+000	-6.188341808913765E+001	7.5348005E-002	-1.2174451E+000	0
1.9370975E+001	1.096493974252371E+002	-1.2195405E+000	-6.295709894087292E+001	7.6778732E-002	-1.2194451E+000	0
1.9113459E+001	1.098493974201847E+002	-1.2215202E+000	-6.390890620192681E+001	7.8066021E-002	-1.2214451E+000	0
1.8910952E+001	1.100493974151323E+002	-1.2235674E+000	-6.470152304718555E+001	7.9166673E-002	-1.2234451E+000	0
1.8716171E+001	1.102493974100798E+002	-1.2255721E+000	-6.548198774828660E+001	8.0252901E-002	-1.2254449E+000	0
1.8389647E+001	1.104493974050274E+002	-1.2275194E+000	-6.675057197103696E+001	8.1937619E-002	-1.2274450E+000	0
1.8148703E+001	1.106493973999750E+002	-1.2295536E+000	-6.774884184309678E+001	8.3300829E-002	-1.2294451E+000	0
1.7693785E+001	1.108493973949226E+002	-1.2315338E+000	-6.960261671451212E+001	8.5717976E-002	-1.2314452E+000	0
1.7131735E+001	1.110493973898701E+002	-1.2335409E+000	-7.200326657187111E+001	8.8818975E-002	-1.2334450E+000	0
1.6946327E+001	1.112493973848177E+002	-1.2355295E+000	-7.290840018309177E+001	9.0080485E-002	-1.2354450E+000	0
1.6668457E+001	1.114493973797653E+002	-1.2375214E+000	-7.424330956595293E+001	9.1877684E-002	-1.2374451E+000	0
1.6404329E+001	1.116493973747129E+002	-1.2395498E+000	-7.556235408891052E+001	9.3663298E-002	-1.2394451E+000	0
1.5858839E+001	1.118493973696604E+002	-1.2415740E+000	-7.828908786427724E+001	9.7201698E-002	-1.2414449E+000	0
1.5666452E+001	1.120493973646080E+002	-1.2435645E+000	-7.937754127281880E+001	9.8711088E-002	-1.2434450E+000	0
1.5520876E+001	1.122493973595556E+002	-1.2455517E+000	-8.025009038388839E+001	9.9955633E-002	-1.2454450E+000	0
1.5337516E+001	1.124493973545032E+002	-1.2475469E+000	-8.133956937995325E+001	1.0147493E-001	-1.2474450E+000	0
1.4988305E+001	1.126493973494507E+002	-1.2495773E+000	-8.337015524797167E+001	1.0417745E-001	-1.2494451E+000	0
1.4801049E+001	1.128493973443983E+002	-1.2515626E+000	-8.455904471468750E+001	1.0583094E-001	-1.2514451E+000	0
1.4637581E+001	1.130493973393459E+002	-1.2535626E+000	-8.564001214639393E+001	1.0735511E-001	-1.2534450E+000	0
1.4545621E+001	1.132493973342935E+002	-1.2555243E+000	-8.631630840106891E+001	1.0837222E-001	-1.2554450E+000	0
1.4349917E+001	1.134493973292410E+002	-1.2575719E+000	-8.763617924011237E+001	1.1020880E-001	-1.2574451E+000	0
1.3789910E+001	1.136493973241886E+002	-1.2595086E+000	-9.133552065565982E+001	1.1503787E-001	-1.2594451E+000	0
1.3408912E+001	1.138493973191362E+002	-1.2615894E+000	-9.408588924537753E+001	1.1869776E-001	-1.2614450E+000	0
1.3262798E+001	1.140493973140838E+002	-1.2636157E+000	-9.527519708912382E+001	1.2039123E-001	-1.2634451E+000	0
1.3217471E+001	1.142493973090313E+002	-1.2656031E+000	-9.575228372885249E+001	1.2118439E-001	-1.2654451E+000	0
1.3155634E+001	1.144493973039789E+002	-1.2675015E+000	-9.634666357505319E+001	1.2211954E-001	-1.2674451E+000	0
1.3054269E+001	1.146493972989265E+002	-1.2695866E+000	-9.725451170722408E+001	1.2347302E-001	-1.2694451E+000	0
1.2913716E+001	1.148493972938741E+002	-1.2715497E+000	-9.846505097683314E+001	1.2520321E-001	-1.2714450E+000	0
1.2773035E+001	1.150493972888216E+002	-1.2735457E+000	-9.970580755555989E+001	1.2697990E-001	-1.2734451E+000	0
1.2712114E+001	1.152493972837692E+002	-1.2755091E+000	-1.003380749858155E+002	1.2798212E-001	-1.2754451E+000	0
1.2630607E+001	1.154493972787168E+002	-1.2775412E+000	-1.011464619712225E+002	1.2921877E-001	-1.2774451E+000	0
1.2497046E+001	1.156493972736644E+002	-1.2795544E+000	-1.023885528030310E+002	1.3101172E-001	-1.2794452E+000	0
1.2333485E+001	1.158493972686119E+002	-1.2815194E+000	-1.039057044063838E+002	1.3315718E-001	-1.2814451E+000	0
1.2107855E+001	1.160493972635595E+002	-1.2836003E+000	-1.060138489178250E+002	1.3607942E-001	-1.2834451E+000	0
1.1965244E+001	1.162493972585071E+002	-1.2855189E+000	-1.074377451624190E+002	1.3811325E-001	-1.2854451E+000	0
1.1851785E+001	1.164493972534547E+002	-1.2875122E+000	-1.086344571773152E+002	1.3986818E-001	-1.2874451E+000	0
1.1803389E+001	1.166493972484022E+002	-1.2895675E+000	-1.092540023051156E+002	1.4089040E-001	-1.2894452E+000	0
1.1669821E+001	1.168593972430972E+002	-1.2916529E+000	-1.106831835007182E+002	1.4296426E-001	-1.2915453E+000	0
1.1542594E+001	1.170693972377921E+002	-1.2937361E+000	-1.120836571425269E+002	1.4500667E-001	-1.2936451E+000	0
1.1484045E+001	1.172693972327397E+002	-1.2957008E+000	-1.128261655096026E+002	1.4618894E-001	-1.2956451E+000	0
1.1259202E+001	1.174693972276873E+002	-1.2977728E+000	-1.152632945519185E+002	1.4958556E-001	-1.2976451E+000	0
1.0995504E+001	1.176693972226349E+002	-1.2997860E+000	-1.182106740307104E+002	1.5364857E-001	-1.2996452E+000	0
1.0900994E+001	1.178693972175824E+002	-1.3017429E+000	-1.194150653177380E+002	1.5544772E-001	-1.3016452E+000	0
1.0755291E+001	1.180693972125300E+002	-1.3037150E+000	-1.212161511563932E+002	1.5803131E-001	-1.3036451E+000	0
1.0399344E+001	1.182693972074776E+002	-1.3057506E+000	-1.255608525178870E+002	1.6395116E-001	-1.3056451E+000	0
1.0262907E+001	1.184693972024252E+002	-1.3077395E+000	-1.274238867456950E+002	1.6663726E-001	-1.3076451E+000	0
1.0186188E+001	1.186693971973727E+002	-1.3097532E+000	-1.285812864584721E+002	1.6840975E-001	-1.3096451E+000	0
1.0183900E+001	1.188693971923203E+002	-1.3117341E+000	-1.288046905643007E+002	1.6895750E-001	-1.3116452E+000	0
1.0150674E+001	1.190693971872679E+002	-1.3137447E+000	-1.294243801499711E+002	1.7003059E-001	-1.3136450E+000	0
1.0099621E+001	1.192693971822155E+002	-1.3157445E+000	-1.302766299799191E+002	1.7141077E-001	-1.3156450E+000	0
1.0029072E+001	1.194693971771630E+002	-1.3176929E+000	-1.313873244413162E+002	1.7312814E-001	-1.3176451E+000	0
9.9214516E+000	1.196693971721106E+002	-1.3197558E+000	-1.330204322127263E+002	1.7555448E-001	-1.3196452E+000	0
9.8287230E+000	1.198693971670582E+002	-1.3217596E+000	-1.344792743486064E+002	1.7774928E-001	-1.3216451E+000	0
9.7187529E+000	1.200693971620058E+002	-1.3237156E+000	-1.362022098186604E+002	1.8029298E-001	-1.3236451E+000	0
9.5721169E+000	1.202693971569533E+002	-1.3257335E+000	-1.384995112440759E+002	1.8361345E-001	-1.3256450E+000	0
9.5479975E+000	1.204693971519009E+002	-1.3277555E+000	-1.390611457359767E+002	1.8463920E-001	-1.3276451E+000	0
9.4889097E+000	1.206693971468485E+002	-1.3297485E+000	-1.401371295511581E+002	1.8634714E-001	-1.3296452E+000	0
9.4744101E+000	1.208693971417961E+002	-1.3317466E+000	-1.405624844968452E+002	1.8719360E-001	-1.3316451E+000	0
9.3800821E+000	1.210693971367436E+002	-1.3337367E+000	-1.421881710255774E+002	1.8964158E-001	-1.3336451E+000	0
9.2660370E+000	1.212693971316912E+002	-1.3357292E+000	-1.441532328026096E+002	1.9254969E-001	-1.3356450E+000	0
9.2069902E+000	1.214693971266388E+002	-1.3377225E+000	-1.452942334378388E+002	1.9436337E-001	-1.3376451E+000	0
9.0616093E+000	1.216693971215864E+002	-1.3397504E+000	-1.478490635651312E+002	1.9808084E-001	-1.3396451E+000	0
9.0552597E+000	1.218693971165339E+002	-1.3417327E+000	-1.481716423175233E+002	1.9880675E-001	-1.3416450E+000	0
8.9746847E+000	1.220693971114815E+002	-1.3437109E+000	-1.497223469794740E+002	2.0118354E-001	-1.3436450E+000	0
8.8936129E+000	1.222693971064291E+002	-1.3457177E+000	-1.513128306027711E+002	2.0362435E-001	-1.3456451E+000	0
8.8155441E+000	1.224693971013767E+002	-1.3477068E+000	-1.528784626454723E+002	2.0603535E-001	-1.3476450E+000	0
8.7532787E+000	1.226693970963242E+002	-1.3497968E+000	-1.542047005326835E+002	2.0814501E-001	-1.3496451E+000	0
8.6748943E+000	1.228693970912718E+002	-1.3517377E+000	-1.558218072558203E+002	2.1063022E-001	-1.3516451E+000	0
8.5443640E+000	1.230693970862194E+002	-1.3537673E+000	-1.584398019470596E+002	2.1449062E-001	-1.3536451E+000	0
8.4649830E+000	1.232693970811670E+002	-1.3557650E+000	-1.601615725277225E+002	2.1714145E-001	-1.3556451E+000	0
8.4338121E+000	1.234693970761145E+002	-1.3577160E+000	-1.609848478397270E+002	2.1857169E-001	-1.3576450E+000	0
8.4333982E+000	1.236693970710621E+002	-1.3597497E+000	-1.612339044785012E+002	2.1923774E-001	-1.3596451E+000	0
8.4164352E+000	1.238693970660097E+002	-1.3616850E+000	-1.617888075586343E+002	2.2030540E-001	-1.3616451E+000	0
8.1435881E+000	1.240693970609573E+002	-1.3637741E+000	-1.674659890512219E+002	2.2838578E-001	-1.3636451E+000	0
7.4711080E+000	1.242693970559048E+002	-1.3657920E+000	-1.828098344954233E+002	2.4968022E-001	-1.3656451E+000	0
7.4574733E+000	1.244693970508524E+002	-1.3677504E+000	-1.834066777283366E+002	2.5085455E-001	-1.3676451E+000	0
7.3968258E+000	1.246693970458000E+002	-1.3697358E+000	-1.851788715289017E+002	2.5364614E-001	-1.3696451E+000	0
7.2848458E+000	1.248695970407425E+002	-1.3718195E+000	-1.883113981104766E+002	2.5832924E-001	-1.3716466E+000	0
7.2932854E+000	1.250699970356800E+002	-1.3737912E+000	-1.883638346901894E+002	2.5877258E-001	-1.3736502E+000	0
7.2887216E+000	1.252702970306200E+002	-1.3758248E+000	-1.887607829873191E+002	2.5970176E-001	-1.3756539E+000	0
7.2802973E+000	1.254704970255625E+002	-1.3777550E+000	-1.892443407212727E+002	2.6073235E-001	-1.3776559E+000	0
7.2456517E+000	1.256708970205000E+002	-1.3798162E+000	-1.904336920584556E+002	2.6276350E-001	-1.3796597E+000	0
7.2233667E+000	1.258711970154400E+002	-1.3817970E+000	-1.912954232819766E+002	2.6433143E-001	-1.3816627E+000	0
7.1651363E+000	1.260715970103774E+002	-1.3837878E+000	-1.931279043725622E+002	2.6724803E-001	-1.3836666E+000	0
7.1241832E+000	1.262719970053149E+002	-1.3858297E+000	-1.945247099527191E+002	2.6957813E-001	-1.3856707E+000	0
7.1017523E+000	1.264724970002499E+002	-1.3877631E+000	-1.954113634367799E+002	2.7118468E-001	-1.3876758E+000	0
7.0599980E+000	1.266727969951899E+002	-1.3897979E+000	-1.968552853792527E+002	2.7358907E-001	-1.3896787E+000	0
6.9843383E+000	1.268729969901324E+002	-1.3918579E+000	-1.992827044270934E+002	2.7737319E-001	-1.3916808E+000	0
6.9494724E+000	1.270731969850749E+002	-1.3938129E+000	-2.005638460674229E+002	2.7954847E-001	-1.3936827E+000	0
6.9317479E+000	1.272734969800149E+002	-1.3958038E+000	-2.013639011566897E+002	2.8106451E-001	-1.3956860E+000	0
6.8505988E+000	1.274736969749574E+002	-1.3978053E+000	-2.040413383404607E+002	2.8521007E-001	-1.3976879E+000	0
6.7090273E+000	1.276739969698974E+002	-1.3998247E+000	-2.086479351886533E+002	2.9207054E-001	-1.3996907E+000	0
6.6921539E+000	1.278741969648399E+002	-1.4018489E+000	-2.094764827525128E+002	2.9365438E-001	-1.4016924E+000	0
6.6105781E+000	1.280742969597850E+002	-1.4038328E+000	-2.123615716236388E+002	2.9812014E-001	-1.4036938E+000	0
6.5260239E+000	1.282743969547300E+002	-1.4058417E+000	-2.154208658763341E+002	3.0284762E-001	-1.4056951E+000	0
6.5153012E+000	1.284743969496776E+002	-1.4078456E+000	-2.160829720313318E+002	3.0421147E-001	-1.4076951E+000	0
6.4657016E+000	1.286748969446126E+002	-1.4098169E+000	-2.180454593056174E+002	3.0740416E-001	-1.4096993E+000	0
6.3908601E+000	1.288755969395424E+002	-1.4118694E+000	-2.209200974666937E+002	3.1191033E-001	-1.4117066E+000	0
6.3795776E+000	1.290757969344850E+002	-1.4138312E+000	-2.216183101696579E+002	3.1333089E-001	-1.4137092E+000	0
6.3701658E+000	1.292760969294250E+002	-1.4158171E+000	-2.222575006043180E+002	3.1467599E-001	-1.4157119E+000	0
6.3745966E+000	1.294761969243700E+002	-1.4178375E+000	-2.224199628456777E+002	3.1535536E-001	-1.4177130E+000	0
6.3528152E+000	1.296764969193100E+002	-1.4198482E+000	-2.234990626629988E+002	3.1733474E-001	-1.4197155E+000	0
6.2842684E+000	1.298768969142475E+002	-1.4218121E+000	-2.262494110358393E+002	3.2168415E-001	-1.4217199E+000	0
6.2589521E+000	1.300771969091875E+002	-1.4238445E+000	-2.274892715146909E+002	3.2390934E-001	-1.4237226E+000	0
6.2297335E+000	1.302775969041249E+002	-1.4258448E+000	-2.288773421384849E+002	3.2634357E-001	-1.4257267E+000	0
6.2079573E+000	1.304780968990599E+002	-1.4279015E+000	-2.300114946971084E+002	3.2843375E-001	-1.4277319E+000	0
6.2001185E+000	1.306781968940049E+002	-1.4298859E+000	-2.306223371272181E+002	3.2976362E-001	-1.4297332E+000	0
6.2232404E+000	1.308784968889449E+002	-1.4318963E+000	-2.300885537112981E+002	3.2946295E-001	-1.4317358E+000	0
6.2234879E+000	1.310788968838824E+002	-1.4338851E+000	-2.303989620297680E+002	3.3036563E-001	-1.4337398E+000	0
6.1964421E+000	1.312791968788224E+002	-1.4358561E+000	-2.317226713126604E+002	3.3272040E-001	-1.4357426E+000	0
6.1332870E+000	1.314795968737599E+002	-1.4379051E+000	-2.344428170913125E+002	3.3710653E-001	-1.4377466E+000	0
6.0974450E+000	1.316797968687024E+002	-1.4399024E+000	-2.361484921794899E+002	3.4003079E-001	-1.4397491E+000	0
6.0792770E+000	1.318799968636449E+002	-1.4418958E+000	-2.371821189692250E+002	3.4199190E-001	-1.4417506E+000	0
6.0812020E+000	1.320803968585824E+002	-1.4439116E+000	-2.374385054914591E+002	3.4284019E-001	-1.4437547E+000	0
6.0872550E+000	1.322805968535249E+002	-1.4458857E+000	-2.375267030039437E+002	3.4343645E-001	-1.4457568E+000	0
6.0841289E+000	1.324806968484700E+002	-1.4479008E+000	-2.379799666258147E+002	3.4457138E-001	-1.4477580E+000	0
6.0565944E+000	1.326807968434150E+002	-1.4498364E+000	-2.393814534643603E+002	3.4706393E-001	-1.4497591E+000	0
5.9169722E+000	1.328808968383601E+002	-1.4519149E+000	-2.453814014795898E+002	3.5627291E-001	-1.4517597E+000	0
5.6966991E+000	1.330811968333001E+002	-1.4539187E+000	-2.552212620880828E+002	3.7107095E-001	-1.4537624E+000	0
5.6829543E+000	1.332715968284901E+002	-1.4558269E+000	-2.561743133302243E+002	3.7294546E-001	-1.4556665E+000	0
5.6610565E+000	1.334618968236828E+002	-1.4577632E+000	-2.575072573890620E+002	3.7538460E-001	-1.4575698E+000	0
5.6487889E+000	1.336521968188754E+002	-1.4596435E+000	-2.583993591394869E+002	3.7717095E-001	-1.4594724E+000	0
5.6447763E+000	1.338426968140629E+002	-1.4615536E+000	-2.589214389818180E+002	3.7842757E-001	-1.4613774E+000	0
5.6472473E+000	1.340431968089979E+002	-1.4635097E+000	-2.591545123095440E+002	3.7927514E-001	-1.4633826E+000	0
5.6369619E+000	1.342434968039379E+002	-1.4655001E+000	-2.599804973239402E+002	3.8100144E-001	-1.4653858E+000	0
5.5983634E+000	1.344435967988829E+002	-1.4674898E+000	-2.621283668725673E+002	3.8467070E-001	-1.4673872E+000	0
5.6169953E+000	1.346435967938305E+002	-1.4695884E+000	-2.616324839083782E+002	3.8449207E-001	-1.4693871E+000	0
5.6041946E+000	1.348435967887781E+002	-1.4715465E+000	-2.625794769966142E+002	3.8639793E-001	-1.4713871E+000	0
5.4963608E+000	1.350436967837231E+002	-1.4736010E+000	-2.681048484168305E+002	3.9507958E-001	-1.4733880E+000	0
5.1295266E+000	1.352441967786581E+002	-1.4754883E+000	-2.876460908124582E+002	4.2441845E-001	-1.4753925E+000	0
5.0069594E+000	1.354447967735905E+002	-1.4776478E+000	-2.951187774300395E+002	4.3608162E-001	-1.4773986E+000	0
5.0013161E+000	1.356449967685330E+002	-1.4795872E+000	-2.958395707331324E+002	4.3772045E-001	-1.4794009E+000	0
5.0073709E+000	1.358450967634781E+002	-1.4815680E+000	-2.958774071405821E+002	4.3836248E-001	-1.4814019E+000	0
5.0245676E+000	1.360452967584206E+002	-1.4835759E+000	-2.952643946141388E+002	4.3804714E-001	-1.4834036E+000	0
5.0543456E+000	1.362454967533631E+002	-1.4855939E+000	-2.939240747344593E+002	4.3665183E-001	-1.4854059E+000	0
5.0611558E+000	1.364457967483031E+002	-1.4875585E+000	-2.939167581740912E+002	4.3721837E-001	-1.4874086E+000	0
5.0775309E+000	1.366460967432431E+002	-1.4895586E+000	-2.933627913069424E+002	4.3698105E-001	-1.4894121E+000	0
5.0738115E+000	1.368462967381856E+002	-1.4916211E+000	-2.939843351652898E+002	4.3851325E-001	-1.4914137E+000	0
5.0406380E+000	1.370465967331256E+002	-1.4935939E+000	-2.963104842877897E+002	4.4256753E-001	-1.4934167E+000	0
5.0306692E+000	1.372467967280681E+002	-1.4955665E+000	-2.972897665495238E+002	4.4461662E-001	-1.4954190E+000	0
5.0094085E+000	1.374469967230107E+002	-1.4976137E+000	-2.989601843625396E+002	4.4772685E-001	-1.4974205E+000	0
5.0181537E+000	1.376472967179507E+002	-1.4996043E+000	-2.988358692752799E+002	4.4813555E-001	-1.4994237E+000	0
5.0304036E+000	1.378477967128856E+002	-1.5016203E+000	-2.985089203030730E+002	4.4824705E-001	-1.5014284E+000	0
5.0205407E+000	1.380481967078231E+002	-1.5036113E+000	-2.994919033806718E+002	4.5031941E-001	-1.5034325E+000	0
4.9614234E+000	1.382484967027631E+002	-1.5056323E+000	-3.034678112384272E+002	4.5691094E-001	-1.5054359E+000	0
4.7540689E+000	1.384486966977056E+002	-1.5076576E+000	-3.171299413135232E+002	4.7812337E-001	-1.5074379E+000	0
4.7462420E+000	1.386490966926431E+002	-1.5096229E+000	-3.180669787038923E+002	4.8016119E-001	-1.5094415E+000	0
4.6219263E+000	1.388496966875755E+002	-1.5116204E+000	-3.270541970543236E+002	4.9438179E-001	-1.5114474E+000	0
4.5553722E+000	1.390499966825155E+002	-1.5136906E+000	-3.322869291262289E+002	5.0297958E-001	-1.5134510E+000	0
4.3068209E+000	1.392499966774631E+002	-1.5156658E+000	-3.519221845202983E+002	5.3339642E-001	-1.5154508E+000	0
4.1622014E+000	1.394499966724106E+002	-1.5176936E+000	-3.646372594227860E+002	5.5340767E-001	-1.5174508E+000	0
4.1456356E+000	1.396499966673582E+002	-1.5196700E+000	-3.665710467405607E+002	5.5706704E-001	-1.5194508E+000	0
4.1424918E+000	1.398499966623058E+002	-1.5216833E+000	-3.673352798669530E+002	5.5896795E-001	-1.5214509E+000	0
4.1391754E+000	1.400499966572534E+002	-1.5236391E+000	-3.681020608240242E+002	5.6085467E-001	-1.5234510E+000	0
4.1077247E+000	1.402499966522009E+002	-1.5256687E+000	-3.714145387727403E+002	5.6665558E-001	-1.5254508E+000	0
4.0956650E+000	1.404499966471485E+002	-1.5276781E+000	-3.729987930051320E+002	5.6982207E-001	-1.5274508E+000	0
4.1030025E+000	1.406499966420961E+002	-1.5296535E+000	-3.728132161120993E+002	5.7027507E-001	-1.5294509E+000	0
4.0888238E+000	1.408499966370437E+002	-1.5317066E+000	-3.746081334414657E+002	5.7378972E-001	-1.5314509E+000	0
4.0634398E+000	1.410499966319912E+002	-1.5336910E+000	-3.774366526787526E+002	5.7887119E-001	-1.5334510E+000	0
4.0891533E+000	1.412499966269388E+002	-1.5356737E+000	-3.755481051901315E+002	5.7671934E-001	-1.5354509E+000	0
4.0776629E+000	1.414499966218864E+002	-1.5377169E+000	-3.771073872356460E+002	5.7988441E-001	-1.5374508E+000	0
4.0887189E+000	1.416499966168340E+002	-1.5396682E+000	-3.765649442240228E+002	5.7978505E-001	-1.5394509E+000	0
4.0944891E+000	1.418499966117815E+002	-1.5416564E+000	-3.765198386445354E+002	5.8046418E-001	-1.5414510E+000	0
4.0749598E+000	1.420499966067291E+002	-1.5437179E+000	-3.788302176360894E+002	5.8480698E-001	-1.5434510E+000	0
4.0309701E+000	1.422499966016767E+002	-1.5456562E+000	-3.834452215051977E+002	5.9267449E-001	-1.5454509E+000	0
4.0227447E+000	1.424499965966243E+002	-1.5476624E+000	-3.847279598339887E+002	5.9542900E-001	-1.5474509E+000	0
4.0173078E+000	1.426499965915718E+002	-1.5496792E+000	-3.857506603124184E+002	5.9778976E-001	-1.5494509E+000	0
4.0073524E+000	1.428499965865194E+002	-1.5516341E+000	-3.871968294282078E+002	6.0078782E-001	-1.5514507E+000	0
3.9936659E+000	1.430499965814670E+002	-1.5536740E+000	-3.890345326248498E+002	6.0443282E-001	-1.5534508E+000	0
4.0116181E+000	1.432499965764146E+002	-1.5556580E+000	-3.877881613188583E+002	6.0326576E-001	-1.5554509E+000	0
4.0288596E+000	1.434499965713621E+002	-1.5576450E+000	-3.866218156857849E+002	6.0221952E-001	-1.5574508E+000	0
4.0449786E+000	1.436499965663097E+002	-1.5596704E+000	-3.855818929737106E+002	6.0138071E-001	-1.5594509E+000	0
4.0317578E+000	1.438499965612573E+002	-1.5616328E+000	-3.873329735040124E+002	6.0487187E-001	-1.5614510E+000	0
4.0242662E+000	1.440499965562049E+002	-1.5636926E+000	-3.885658811301055E+002	6.0759759E-001	-1.5634508E+000	0
4.0246081E+000	1.442499965511524E+002	-1.5657001E+000	-3.890316668227151E+002	6.0910690E-001	-1.5654509E+000	0
4.0527363E+000	1.444499965461000E+002	-1.5677000E+000	-3.868250751300732E+002	6.0642570E-001	-1.5674508E+000	0
4.0624413E+000	1.446499965410476E+002	-1.5696743E+000	-3.863869275787238E+002	6.0650164E-001	-1.5694509E+000	0
4.0903621E+000	1.448499965359952E+002	-1.5716857E+000	-3.842411904280962E+002	6.0390639E-001	-1.5714509E+000	0
4.0997939E+000	1.450499965309427E+002	-1.5736569E+000	-3.838380496874956E+002	6.0402942E-001	-1.5734510E+000	0
4.1003780E+000	1.452499965258903E+002	-1.5756370E+000	-3.842662688599141E+002	6.0546416E-001	-1.5754509E+000	0
4.1220412E+000	1.454499965208379E+002	-1.5776826E+000	-3.827430238550769E+002	6.0384703E-001	-1.5774508E+000	0
4.1210432E+000	1.456499965157855E+002	-1.5797231E+000	-3.833308841095477E+002	6.0555667E-001	-1.5794508E+000	0
4.0162349E+000	1.458499965107330E+002	-1.5817055E+000	-3.938279474392502E+002	6.2291980E-001	-1.5814509E+000	0
3.9791586E+000	1.460499965056806E+002	-1.5836905E+000	-3.979963313424923E+002	6.3030303E-001	-1.5834510E+000	0
3.9139383E+000	1.462499965006282E+002	-1.5856714E+000	-4.051344992146742E+002	6.4241022E-001	-1.5854509E+000	0
3.9131811E+000	1.464499964955758E+002	-1.5876724E+000	-4.057242120928772E+002	6.4415711E-001	-1.5874509E+000	0
3.9193051E+000	1.466499964905233E+002	-1.5897272E+000	-4.056145557870664E+002	6.4481646E-001	-1.5894508E+000	0
3.9375529E+000	1.468399964857235E+002	-1.5915697E+000	-4.042027242120180E+002	6.4331681E-001	-1.5913508E+000	0
3.8314955E+000	1.470099964814290E+002	-1.5935887E+000	-4.159182053071149E+002	6.6280258E-001	-1.5930507E+000	0
3.6649580E+000	1.471899964768818E+002	-1.5955920E+000	-4.353643392446083E+002	6.9466388E-001	-1.5948509E+000	0
3.6397705E+000	1.473800964720795E+002	-1.5974805E+000	-4.388959501153258E+002	7.0112771E-001	-1.5967517E+000	0
3.3775518E+000	1.475699964672822E+002	-1.5994395E+000	-4.735499512498709E+002	7.5741452E-001	-1.5986508E+000	0
3.2602878E+000	1.477699964622298E+002	-1.6014465E+000	-4.911978926020711E+002	7.8662717E-001	-1.6006509E+000	0
3.2685583E+000	1.479699964571773E+002	-1.6034184E+000	-4.905582900620373E+002	7.8657019E-001	-1.6026510E+000	0
3.2437301E+000	1.481699964521249E+002	-1.6055015E+000	-4.949553407682060E+002	7.9465157E-001	-1.6046509E+000	0
3.2189629E+000	1.483699964470725E+002	-1.6074178E+000	-4.993589296103073E+002	8.0267847E-001	-1.6066509E+000	0
3.2112131E+000	1.485699964420201E+002	-1.6094804E+000	-5.012063290645720E+002	8.0668175E-001	-1.6086508E+000	0
3.2290494E+000	1.487699964369676E+002	-1.6114782E+000	-4.990565393408942E+002	8.0421871E-001	-1.6106509E+000	0
3.2488308E+000	1.489699964319152E+002	-1.6135330E+000	-4.966503676589650E+002	8.0136174E-001	-1.6126510E+000	0
3.2593136E+000	1.491699964268628E+002	-1.6154634E+000	-4.956452753754711E+002	8.0069679E-001	-1.6146508E+000	0
3.2759645E+000	1.493699964218104E+002	-1.6174493E+000	-4.937322391155353E+002	7.9858685E-001	-1.6166509E+000	0
3.2896316E+000	1.495699964167579E+002	-1.6194744E+000	-4.922965989967047E+002	7.9726171E-001	-1.6186509E+000	0
3.2972040E+000	1.497699964117055E+002	-1.6214427E+000	-4.917629220966865E+002	7.9736537E-001	-1.6206509E+000	0
3.2281868E+000	1.499599964069057E+002	-1.6233678E+000	-5.028729356884287E+002	8.1634772E-001	-1.6225508E+000	0
3.2454214E+000	1.501499964021059E+002	-1.6252551E+000	-5.007840154565656E+002	8.1390178E-001	-1.6244510E+000	0
3.2741306E+000	1.503499963970535E+002	-1.6272773E+000	-4.970104882506294E+002	8.0877388E-001	-1.6264509E+000	0
3.2906802E+000	1.505499963920010E+002	-1.6291878E+000	-4.950915037488166E+002	8.0659705E-001	-1.6284510E+000	0
3.2951157E+000	1.507499963869486E+002	-1.6312319E+000	-4.950453959614233E+002	8.0753386E-001	-1.6304510E+000	0
3.3017938E+000	1.509499963818962E+002	-1.6332613E+000	-4.946587839623984E+002	8.0790704E-001	-1.6324509E+000	0
3.1740687E+000	1.511499963768438E+002	-1.6352746E+000	-5.151982472478139E+002	8.4249061E-001	-1.6344509E+000	0
3.0240567E+000	1.513499963717913E+002	-1.6372825E+000	-5.414192407612363E+002	8.8645625E-001	-1.6364510E+000	0
2.9873569E+000	1.515499963667389E+002	-1.6392878E+000	-5.487418877305367E+002	8.9954591E-001	-1.6384509E+000	0
3.0232942E+000	1.517499963616865E+002	-1.6413323E+000	-5.428953235608905E+002	8.9107162E-001	-1.6404510E+000	0
3.0339739E+000	1.519499963566341E+002	-1.6432728E+000	-5.416238835955392E+002	8.9003575E-001	-1.6424508E+000	0
3.0298879E+000	1.521499963515816E+002	-1.6453100E+000	-5.430267158343922E+002	8.9344734E-001	-1.6444509E+000	0
3.0281961E+000	1.523499963465292E+002	-1.6472273E+000	-5.439632106789613E+002	8.9603102E-001	-1.6464510E+000	0
3.0377257E+000	1.525200963422321E+002	-1.6490786E+000	-5.428662106066145E+002	8.9522904E-001	-1.6481518E+000	0
3.0553184E+000	1.527099963374349E+002	-1.6508235E+000	-5.403114502446151E+002	8.9195883E-001	-1.6500509E+000	0
3.0793126E+000	1.529099963323824E+002	-1.6528379E+000	-5.367554833461918E+002	8.8716978E-001	-1.6520510E+000	0
3.0900071E+000	1.531099963273300E+002	-1.6548959E+000	-5.355638011620995E+002	8.8630235E-001	-1.6540508E+000	0
3.1073534E+000	1.533099963222776E+002	-1.6568406E+000	-5.331999047164736E+002	8.8342720E-001	-1.6560509E+000	0
3.1178331E+000	1.535099963172252E+002	-1.6589246E+000	-5.320761218211574E+002	8.8267416E-001	-1.6580509E+000	0
3.1199751E+000	1.537099963121727E+002	-1.6608783E+000	-5.323370551500739E+002	8.8414705E-001	-1.6600509E+000	0
3.1363394E+000	1.539099963071203E+002	-1.6628962E+000	-5.302028824207205E+002	8.8167232E-001	-1.6620510E+000	0
3.1265342E+000	1.541099963020679E+002	-1.6648363E+000	-5.324861905061189E+002	8.8650233E-001	-1.6640509E+000	0
3.1321056E+000	1.543099962970155E+002	-1.6668670E+000	-5.321873749843255E+002	8.8708556E-001	-1.6660509E+000	0
3.1349781E+000	1.545099962919630E+002	-1.6688827E+000	-5.323427193224279E+002	8.8841754E-001	-1.6680509E+000	0
3.1423476E+000	1.547099962869106E+002	-1.6708796E+000	-5.317297202562277E+002	8.8845634E-001	-1.6700510E+000	0
3.1221795E+000	1.548999962821108E+002	-1.6727651E+000	-5.357683855294226E+002	8.9621466E-001	-1.6719508E+000	0
3.1395757E+000	1.550899962773110E+002	-1.6746939E+000	-5.334141137994593E+002	8.9330536E-001	-1.6738509E+000	0
3.1234484E+000	1.552899962722586E+002	-1.6766624E+000	-5.367985086159924E+002	9.0002990E-001	-1.6758510E+000	0
3.1264789E+000	1.554899962672062E+002	-1.6787057E+000	-5.369317114650548E+002	9.0135032E-001	-1.6778508E+000	0
3.1320794E+000	1.556899962621537E+002	-1.6807437E+000	-5.366223304860996E+002	9.0192461E-001	-1.6798509E+000	0
3.1276648E+000	1.558899962571013E+002	-1.6827178E+000	-5.380109235629459E+002	9.0532058E-001	-1.6818510E+000	0
3.1138844E+000	1.560899962520489E+002	-1.6847399E+000	-5.410412671398394E+002	9.1151386E-001	-1.6838509E+000	0
3.1038733E+000	1.562899962469965E+002	-1.6866515E+000	-5.434021591826622E+002	9.1653007E-001	-1.6858507E+000	0
3.1324003E+000	1.564899962419440E+002	-1.6886896E+000	-5.391040122968552E+002	9.1037935E-001	-1.6878508E+000	0
3.1542423E+000	1.566899962368916E+002	-1.6907357E+000	-5.360196109088356E+002	9.0626746E-001	-1.6898509E+000	0
3.1636686E+000	1.568899962318392E+002	-1.6926732E+000	-5.350349047740856E+002	9.0563923E-001	-1.6918510E+000	0
3.1619251E+000	1.570899962267868E+002	-1.6947094E+000	-5.359739500768055E+002	9.0832013E-001	-1.6938509E+000	0
3.1544209E+000	1.572899962217343E+002	-1.6967130E+000	-5.378841656319437E+002	9.1263503E-001	-1.6958508E+000	0
3.1697199E+000	1.574899962166819E+002	-1.6986877E+000	-5.359109593043258E+002	9.1034532E-001	-1.6978508E+000	0
3.1766789E+000	1.576899962116295E+002	-1.7007250E+000	-5.353783069100245E+002	9.1053122E-001	-1.6998509E+000	0
3.1884997E+000	1.578899962065771E+002	-1.7027009E+000	-5.340131698444029E+002	9.0926468E-001	-1.7018510E+000	0
3.1938829E+000	1.580899962015246E+002	-1.7047216E+000	-5.337457748335246E+002	9.0988791E-001	-1.7038509E+000	0
3.1858599E+000	1.582899961964722E+002	-1.7066766E+000	-5.357036016382017E+002	9.1427279E-001	-1.7058508E+000	0
3.2007816E+000	1.584899961914198E+002	-1.7086992E+000	-5.338381250385801E+002	9.1216880E-001	-1.7078508E+000	0
3.2108865E+000	1.586899961863674E+002	-1.7107306E+000	-5.327907283506211E+002	9.1146135E-001	-1.7098509E+000	0
3.2117929E+000	1.588899961813149E+002	-1.7126445E+000	-5.332362539243786E+002	9.1324413E-001	-1.7118510E+000	0
3.2063079E+000	1.590899961762625E+002	-1.7146890E+000	-5.347861253993565E+002	9.1699189E-001	-1.7138509E+000	0
3.1963830E+000	1.592899961712101E+002	-1.7167186E+000	-5.370815996745255E+002	9.2201793E-001	-1.7158508E+000	0
3.2075248E+000	1.594899961661577E+002	-1.7187473E+000	-5.358484621718362E+002	9.2098808E-001	-1.7178509E+000	0
3.1830728E+000	1.596899961611052E+002	-1.7207247E+000	-5.405860458598891E+002	9.3019974E-001	-1.7198509E+000	0
3.2026312E+000	1.598899961560528E+002	-1.7227015E+000	-5.379019349589089E+002	9.2664450E-001	-1.7218510E+000	0
3.1902761E+000	1.600899961510004E+002	-1.7247034E+000	-5.406125997902282E+002	9.3239641E-001	-1.7238510E+000	0
3.1925333E+000	1.602899961459480E+002	-1.7266878E+000	-5.408519196975240E+002	9.3388242E-001	-1.7258509E+000	0
3.1498528E+000	1.604899961408955E+002	-1.7287065E+000	-5.488213554650474E+002	9.4875103E-001	-1.7278509E+000	0
3.0172629E+000	1.606899961358431E+002	-1.7307241E+000	-5.736072960591894E+002	9.9275595E-001	-1.7298508E+000	0
2.9658418E+000	1.608899961307907E+002	-1.7326969E+000	-5.842175739227769E+002	1.0122720E+000	-1.7318510E+000	0
2.8896117E+000	1.610899961257383E+002	-1.7347311E+000	-6.003336162264397E+002	1.0414174E+000	-1.7338510E+000	0
2.8931348E+000	1.612899961206858E+002	-1.7367464E+000	-6.002991896519015E+002	1.0425675E+000	-1.7358509E+000	0
2.8928440E+000	1.614499961166439E+002	-1.7382286E+000	-6.008718756072349E+002	1.0444527E+000	-1.7374508E+000	0
2.7910004E+000	1.615199961148755E+002	-1.7389562E+000	-6.230584106445313E+002	1.0834713E+000	-1.7381506E+000	1