EC-Lab ASCII FILE
Nb header lines : 63                          

Linear Sweep Voltammetry

Run on channel : 1 (SN 1340)
User : 
Electrode connection : standard
Potential control : Ewe
Ewe ctrl range : min = -5.00 V, max = 5.00 V
Ewe,I filtering : <None>
Safety Limits :
	Do not start on E overload
Channel : Floating
Acquisition started on : 02/12/2026 12:38:21.953
Technique started on : 02/12/2026 12:38:24.794
Loaded Setting File :  NONE
Saved on :
	File : double_X22_5_equimolar_2-12_02_LSV_C01.mpr
	Directory : C:\Users\volt\Documents\Platalytix\
	Host : 127.0.0.1
Device : SP-200 (SN 0262)
Address : USB
EC-LAB for windows v11.60 (software)
Internet server v11.60 (firmware)
Command interpretor v11.60 (firmware)
Electrode material : PtPdNiCoCr
Initial state : 
Electrolyte : KOH (1M)
Comments : double between equimolar and  X22.5
Cable : standard
Reference electrode : Hg/HgO (0.140 V)
Electrode surface area : 1.000 cm˛
Characteristic mass : 0.001 g
Equivalent Weight : 0.000 g/eq.
Density : 0.000 g/cm3
Volume (V) : 0.001 cmł
Cycle Definition : Charge/Discharge alternance
tR (h:m:s)          0:00:5.0000         
dER/dt (mV/h)       0.0                 
dER (mV)            0                   
dtR (s)             0.0000              
dE/dt               10.000              
dE/dt unit          mV/s                
Ei (V)              -0.200              
vs.                 Ref                 
EL (V)              -2.500              
vs.                 Ref                 
record              <I>                 
dI                  0.000               
unit dI             µA                  
tI (s)              0.0000              
step percent        50                  
N                   10                  
E range min (V)     -5.000              
E range max (V)     5.000               
I Range             Auto                
I Range min         Unset               
I Range max         Unset               
I Range init        Unset               
Bandwidth           8                   

Rwe/Ohm	time/s	Ewe/V	<I>/mA	Pwe/W	control/V	error	
0.0000000E+000	2.841400134930154E+000	-1.3864368E-001	0.000000000000000E+000	0.0000000E+000	0.0000000E+000	0
0.0000000E+000	7.841200008624583E+000	-7.8456365E-003	0.000000000000000E+000	0.0000000E+000	-1.9982530E-001	0
3.2050027E+002	8.041200003572158E+000	-2.0144667E-001	-6.285382330417644E-001	1.2661693E-004	-2.0172508E-001	0
3.5621088E+002	8.151200000793324E+000	-2.0258646E-001	-5.687262214331650E-001	1.1521623E-004	-2.0282513E-001	0
4.3018253E+002	8.351199995740899E+000	-2.0456670E-001	-4.755346668491356E-001	9.7278556E-005	-2.0482503E-001	0
4.8966577E+002	8.561199990435853E+000	-2.0670505E-001	-4.221349639862696E-001	8.7257431E-005	-2.0692493E-001	0
5.3747888E+002	8.771199985130806E+000	-2.0884679E-001	-3.885674297623769E-001	8.1151062E-005	-2.0902479E-001	0
5.7467242E+002	8.971199980078381E+000	-2.1080643E-001	-3.668288444369487E-001	7.7329882E-005	-2.1102470E-001	0
6.0698676E+002	9.171199975025957E+000	-2.1281047E-001	-3.506014919280152E-001	7.4611671E-005	-2.1302460E-001	0
6.3589990E+002	9.371199969973532E+000	-2.1480408E-001	-3.377954364160833E-001	7.2559837E-005	-2.1502450E-001	0
6.6226288E+002	9.571199964921107E+000	-2.1681744E-001	-3.273887906430484E-001	7.0983602E-005	-2.1702439E-001	0
6.8660522E+002	9.771199959868682E+000	-2.1879451E-001	-3.186612978108774E-001	6.9721340E-005	-2.1902429E-001	0
7.0954193E+002	9.971199954816257E+000	-2.2081722E-001	-3.112109622932839E-001	6.8720743E-005	-2.2102416E-001	0
7.3077661E+002	1.017119994976383E+001	-2.2279404E-001	-3.048729652289701E-001	6.7923880E-005	-2.2302406E-001	0
7.5143872E+002	1.037119994471141E+001	-2.2483309E-001	-2.992034790057532E-001	6.7270841E-005	-2.2502397E-001	0
7.7245062E+002	1.057119993965898E+001	-2.2679399E-001	-2.936032121629364E-001	6.6587447E-005	-2.2702493E-001	0
7.9108148E+002	1.077119993460656E+001	-2.2886689E-001	-2.893088736218690E-001	6.6213222E-005	-2.2902511E-001	0
8.0847919E+002	1.097119992955413E+001	-2.3079295E-001	-2.854655441150169E-001	6.5883440E-005	-2.3102514E-001	0
8.2614606E+002	1.117119992450171E+001	-2.3280278E-001	-2.817937390236787E-001	6.5602362E-005	-2.3302512E-001	0
8.4302087E+002	1.137119991944928E+001	-2.3480713E-001	-2.785306364179618E-001	6.5400978E-005	-2.3502515E-001	0
8.6008990E+002	1.157119991439686E+001	-2.3682123E-001	-2.753447387388608E-001	6.5207481E-005	-2.3702513E-001	0
8.7644763E+002	1.177119990934443E+001	-2.3881070E-001	-2.724757168311078E-001	6.5070119E-005	-2.3902513E-001	0
8.9264197E+002	1.197119990429201E+001	-2.4086492E-001	-2.698337446007026E-001	6.4993481E-005	-2.4102512E-001	0
9.0830164E+002	1.217119989923958E+001	-2.4286158E-001	-2.673798862595507E-001	6.4936299E-005	-2.4302512E-001	0
9.2405420E+002	1.237119989418716E+001	-2.4482629E-001	-2.649479706807565E-001	6.4866224E-005	-2.4502516E-001	0
9.3952844E+002	1.257119988913473E+001	-2.4684481E-001	-2.627326588499073E-001	6.4854197E-005	-2.4702512E-001	0
9.5473468E+002	1.277119988408231E+001	-2.4875790E-001	-2.605518685894563E-001	6.4814332E-005	-2.4902514E-001	0
9.7024310E+002	1.297119987902988E+001	-2.5079319E-001	-2.584848983610327E-001	6.4826250E-005	-2.5102511E-001	0
9.8583112E+002	1.317119987397746E+001	-2.5283596E-001	-2.564698527894427E-001	6.4844804E-005	-2.5302511E-001	0
1.0008250E+003	1.337119986892503E+001	-2.5482690E-001	-2.546168616814475E-001	6.4883228E-005	-2.5502515E-001	0
1.0158129E+003	1.357119986387261E+001	-2.5680688E-001	-2.528092202048340E-001	6.4923144E-005	-2.5702512E-001	0
1.0309840E+003	1.377119985882018E+001	-2.5878465E-001	-2.510074383860075E-001	6.4956876E-005	-2.5902513E-001	0
1.0463433E+003	1.397119985376776E+001	-2.6086608E-001	-2.493121455024392E-001	6.5037078E-005	-2.6102513E-001	0
1.0612010E+003	1.417119984871533E+001	-2.6278698E-001	-2.476316708374493E-001	6.5074382E-005	-2.6302513E-001	0
1.0763090E+003	1.437119984366291E+001	-2.6481530E-001	-2.460402166745421E-001	6.5155211E-005	-2.6502514E-001	0
1.0909849E+003	1.457119983861048E+001	-2.6679546E-001	-2.445455126489700E-001	6.5243628E-005	-2.6702514E-001	0
1.1060350E+003	1.477119983355806E+001	-2.6881695E-001	-2.430455995546216E-001	6.5334774E-005	-2.6902515E-001	0
1.1202618E+003	1.497119982850563E+001	-2.7077311E-001	-2.417052038026615E-001	6.5447268E-005	-2.7102512E-001	0
1.1347821E+003	1.517119982345321E+001	-2.7281138E-001	-2.404085928637567E-001	6.5586202E-005	-2.7302516E-001	0
1.1498210E+003	1.537119981840078E+001	-2.7477205E-001	-2.389693912076423E-001	6.5662112E-005	-2.7502513E-001	0
1.1644380E+003	1.557119981334836E+001	-2.7679971E-001	-2.377109925416789E-001	6.5798333E-005	-2.7702513E-001	0
1.1787743E+003	1.577119980829593E+001	-2.7878708E-001	-2.365059026151632E-001	6.5934786E-005	-2.7902514E-001	0
1.1937030E+003	1.597119980324351E+001	-2.8078163E-001	-2.352189888814449E-001	6.6045170E-005	-2.8102514E-001	0
1.2087095E+003	1.617119979819108E+001	-2.8280488E-001	-2.339725922476363E-001	6.6168592E-005	-2.8302512E-001	0
1.2231104E+003	1.637119979313866E+001	-2.8479034E-001	-2.328410805403633E-001	6.6310888E-005	-2.8502512E-001	0
1.2382625E+003	1.657119978808623E+001	-2.8679043E-001	-2.316071515957787E-001	6.6422712E-005	-2.8702515E-001	0
1.2523223E+003	1.677119978303381E+001	-2.8878841E-001	-2.306023155024386E-001	6.6595276E-005	-2.8902513E-001	0
1.2668213E+003	1.697119977798138E+001	-2.9078296E-001	-2.295374796575858E-001	6.6745590E-005	-2.9102516E-001	0
1.2810786E+003	1.717119977292896E+001	-2.9281637E-001	-2.285701834265126E-001	6.6929089E-005	-2.9302514E-001	0
1.2944069E+003	1.737119976787653E+001	-2.9477572E-001	-2.277303540661015E-001	6.7129382E-005	-2.9502511E-001	0
1.3083856E+003	1.757119976282411E+001	-2.9679617E-001	-2.268415180324261E-001	6.7325695E-005	-2.9702511E-001	0
1.3240502E+003	1.777119975777168E+001	-2.9880500E-001	-2.256749748292461E-001	6.7432811E-005	-2.9902512E-001	0
1.3390640E+003	1.797119975271926E+001	-3.0080804E-001	-2.246405316554776E-001	6.7573681E-005	-3.0102512E-001	0
1.3534476E+003	1.817119974766683E+001	-3.0281410E-001	-2.237353597888025E-001	6.7750218E-005	-3.0302513E-001	0
1.3682283E+003	1.837119974261441E+001	-3.0480927E-001	-2.227766125118715E-001	6.7904381E-005	-3.0502513E-001	0
1.3816345E+003	1.857119973756198E+001	-3.0678666E-001	-2.220461724089495E-001	6.8120804E-005	-3.0702513E-001	0
1.3969841E+003	1.877119973250956E+001	-3.0879653E-001	-2.210451268259432E-001	6.8257970E-005	-3.0902514E-001	0
1.4105862E+003	1.897119972745713E+001	-3.1080574E-001	-2.203380040119067E-001	6.8482317E-005	-3.1102514E-001	0
1.4263441E+003	1.917119972240471E+001	-3.1276086E-001	-2.192744772349077E-001	6.8580477E-005	-3.1302515E-001	0
1.4421920E+003	1.937119971735228E+001	-3.1477264E-001	-2.182598600286543E-001	6.8702233E-005	-3.1502515E-001	0
1.4579933E+003	1.957119971229986E+001	-3.1681514E-001	-2.172953377154707E-001	6.8842455E-005	-3.1702513E-001	0
1.4738323E+003	1.977119970724743E+001	-3.1880271E-001	-2.163086831231769E-001	6.8959795E-005	-3.1902513E-001	0
1.4907141E+003	1.997119970219501E+001	-3.2081848E-001	-2.152112789405614E-001	6.9043759E-005	-3.2102513E-001	0
1.5069092E+003	2.017119969714258E+001	-3.2273903E-001	-2.141728430264156E-001	6.9121939E-005	-3.2302514E-001	0
1.5245602E+003	2.037119969209016E+001	-3.2476160E-001	-2.130198701308048E-001	6.9180671E-005	-3.2502514E-001	0
1.5409894E+003	2.057119968703773E+001	-3.2681435E-001	-2.120808612411667E-001	6.9311071E-005	-3.2702515E-001	0
1.5582185E+003	2.077119968198531E+001	-3.2882500E-001	-2.110262454831608E-001	6.9390706E-005	-3.2902515E-001	0
1.5744358E+003	2.097119967693288E+001	-3.3082786E-001	-2.101247012087243E-001	6.9515103E-005	-3.3102512E-001	0
1.5913422E+003	2.117119967188046E+001	-3.3279404E-001	-2.091278963914460E-001	6.9596521E-005	-3.3302516E-001	0
1.6078116E+003	2.137119966682803E+001	-3.3485734E-001	-2.082690160358306E-001	6.9740410E-005	-3.3502510E-001	0
1.6257573E+003	2.157119966177561E+001	-3.3681497E-001	-2.071742017430318E-001	6.9779373E-005	-3.3702514E-001	0
1.6437410E+003	2.177119965672318E+001	-3.3881932E-001	-2.061269590631125E-001	6.9839800E-005	-3.3902514E-001	0
1.6607629E+003	2.197119965167076E+001	-3.4077695E-001	-2.051930059795009E-001	6.9925045E-005	-3.4102514E-001	0
1.6775223E+003	2.217119964661833E+001	-3.4280103E-001	-2.043496130684774E-001	7.0051261E-005	-3.4302515E-001	0
1.6952185E+003	2.237119964156591E+001	-3.4482065E-001	-2.034077955401441E-001	7.0139205E-005	-3.4502515E-001	0
1.7109240E+003	2.257119963651348E+001	-3.4681991E-001	-2.027091358591917E-001	7.0303562E-005	-3.4702513E-001	0
1.7285267E+003	2.277119963146106E+001	-3.4884590E-001	-2.018169000947557E-001	7.0402995E-005	-3.4902513E-001	0
1.7440532E+003	2.297119962640863E+001	-3.5084385E-001	-2.011657880847260E-001	7.0577778E-005	-3.5102516E-001	0
1.7614048E+003	2.317119962135621E+001	-3.5279238E-001	-2.002903504651928E-001	7.0660913E-005	-3.5302514E-001	0
1.7784448E+003	2.337119961630378E+001	-3.5482943E-001	-1.995166935757338E-001	7.0794398E-005	-3.5502511E-001	0
1.7956456E+003	2.357119961125136E+001	-3.5681191E-001	-1.987095422421881E-001	7.0901930E-005	-3.5702515E-001	0
1.8134017E+003	2.377119960619893E+001	-3.5882965E-001	-1.978765271620946E-001	7.1003968E-005	-3.5902512E-001	0
1.8308773E+003	2.397119960114651E+001	-3.6079004E-001	-1.970585532182332E-001	7.1096765E-005	-3.6102515E-001	0
1.8488529E+003	2.417119959609408E+001	-3.6278781E-001	-1.962231920309829E-001	7.1187380E-005	-3.6302513E-001	0
1.8666578E+003	2.437119959104166E+001	-3.6478361E-001	-1.954207147520177E-001	7.1286275E-005	-3.6502513E-001	0
1.8842922E+003	2.457119958598923E+001	-3.6680788E-001	-1.946661272413532E-001	7.1405069E-005	-3.6702517E-001	0
1.9028341E+003	2.477119958093681E+001	-3.6882156E-001	-1.938274859486659E-001	7.1487753E-005	-3.6902514E-001	0
1.9192988E+003	2.497119957588438E+001	-3.7080446E-001	-1.931978813594286E-001	7.1638635E-005	-3.7102517E-001	0
1.9381255E+003	2.517119957083196E+001	-3.7284613E-001	-1.923746019939715E-001	7.1726128E-005	-3.7302515E-001	0
1.9561909E+003	2.537119956577953E+001	-3.7481630E-001	-1.916051757196708E-001	7.1816743E-005	-3.7502518E-001	0
1.9743258E+003	2.557119956072711E+001	-3.7677398E-001	-1.908367837899592E-001	7.1902337E-005	-3.7702513E-001	0
1.9932528E+003	2.577119955567468E+001	-3.7882563E-001	-1.900539784586637E-001	7.1997318E-005	-3.7902513E-001	0
2.0099279E+003	2.597119955062226E+001	-3.8080475E-001	-1.894618994144555E-001	7.2147988E-005	-3.8102517E-001	0
2.0220417E+003	2.617119954556983E+001	-3.8279885E-001	-1.893130313317863E-001	7.2468814E-005	-3.8302514E-001	0
2.0376293E+003	2.637119954051741E+001	-3.8481465E-001	-1.888541061148183E-001	7.2673829E-005	-3.8502514E-001	0
2.0544045E+003	2.657119953546498E+001	-3.8679799E-001	-1.882774290869489E-001	7.2825329E-005	-3.8702512E-001	0
2.0746797E+003	2.677119953041256E+001	-3.8883626E-001	-1.874198915337605E-001	7.2875649E-005	-3.8902515E-001	0
2.0950269E+003	2.697119952536013E+001	-3.9079607E-001	-1.865351126938979E-001	7.2897186E-005	-3.9102519E-001	0
2.1141030E+003	2.717119952030771E+001	-3.9278892E-001	-1.857946051977357E-001	7.2978059E-005	-3.9302519E-001	0
2.1357542E+003	2.737119951525528E+001	-3.9481446E-001	-1.848595170863816E-001	7.2985211E-005	-3.9502513E-001	0
2.1549368E+003	2.757119951020286E+001	-3.9684129E-001	-1.841544894366418E-001	7.3080104E-005	-3.9702517E-001	0
2.1733511E+003	2.777119950515043E+001	-3.9879009E-001	-1.834908791177829E-001	7.3174342E-005	-3.9902520E-001	0
2.1928887E+003	2.797119950009801E+001	-4.0077528E-001	-1.827613493351605E-001	7.3246229E-005	-4.0102515E-001	0
2.2149866E+003	2.817119949504558E+001	-4.0283102E-001	-1.818661192165951E-001	7.3261312E-005	-4.0302515E-001	0
2.2374885E+003	2.837119948999316E+001	-4.0484446E-001	-1.809370055226632E-001	7.3251344E-005	-4.0502518E-001	0
2.2573047E+003	2.857119948494073E+001	-4.0681884E-001	-1.802232647568083E-001	7.3318217E-005	-4.0702513E-001	0
2.2774426E+003	2.877119947988831E+001	-4.0881959E-001	-1.795081737221054E-001	7.3386458E-005	-4.0902516E-001	0
2.2988967E+003	2.897119947483588E+001	-4.1080526E-001	-1.786967060727209E-001	7.3409545E-005	-4.1102517E-001	0
2.3194187E+003	2.917119946978346E+001	-4.1281253E-001	-1.779810237157617E-001	7.3472795E-005	-4.1302520E-001	0
2.3441865E+003	2.937119946473103E+001	-4.1491452E-001	-1.769972235859791E-001	7.3438721E-005	-4.1502514E-001	0
2.3667688E+003	2.957119945967861E+001	-4.1684330E-001	-1.761233734649070E-001	7.3415846E-005	-4.1702518E-001	0
2.3900029E+003	2.977119945462618E+001	-4.1886359E-001	-1.752565154370735E-001	7.3408577E-005	-4.1902515E-001	0
2.4127224E+003	2.997119944957376E+001	-4.2085263E-001	-1.744305998257984E-001	7.3409574E-005	-4.2102516E-001	0
2.4344377E+003	3.017119944452134E+001	-4.2287159E-001	-1.737040055951606E-001	7.3454488E-005	-4.2302516E-001	0
2.4588647E+003	3.037119943946891E+001	-4.2484704E-001	-1.727817914260723E-001	7.3405834E-005	-4.2502517E-001	0
2.4844150E+003	3.057119943441649E+001	-4.2682704E-001	-1.718018232547001E-001	7.3329662E-005	-4.2702517E-001	0
2.5092163E+003	3.077119942936406E+001	-4.2883897E-001	-1.709055446854908E-001	7.3290954E-005	-4.2902517E-001	0
2.5340842E+003	3.097119942431164E+001	-4.3081656E-001	-1.700087740231733E-001	7.3242598E-005	-4.3102518E-001	0
2.5623215E+003	3.117119941925921E+001	-4.3285930E-001	-1.689324687634196E-001	7.3123992E-005	-4.3302518E-001	0
2.5872109E+003	3.137119941420679E+001	-4.3485665E-001	-1.680793115867050E-001	7.3090407E-005	-4.3502516E-001	0
2.6124998E+003	3.157119940915436E+001	-4.3681982E-001	-1.672037711341670E-001	7.3037918E-005	-4.3702513E-001	0
2.6380520E+003	3.177119940410194E+001	-4.3883348E-001	-1.663475474437734E-001	7.2998875E-005	-4.3902516E-001	0
2.6623638E+003	3.197119939904951E+001	-4.4085693E-001	-1.655885469191656E-001	7.3000861E-005	-4.4102520E-001	0
2.6901963E+003	3.217119939399709E+001	-4.4289690E-001	-1.646336735787963E-001	7.2915747E-005	-4.4302517E-001	0
2.7168999E+003	3.237119938894466E+001	-4.4484735E-001	-1.637334349858752E-001	7.2836381E-005	-4.4502515E-001	0
2.7438645E+003	3.257119938389224E+001	-4.4683731E-001	-1.628496307782541E-001	7.2767289E-005	-4.4702518E-001	0
2.7727866E+003	3.277119937883981E+001	-4.4885311E-001	-1.618779893202150E-001	7.2659437E-005	-4.4902512E-001	0
2.7991345E+003	3.297119937378739E+001	-4.5084617E-001	-1.610662774130062E-001	7.2616116E-005	-4.5102516E-001	0
2.8260095E+003	3.317119936873496E+001	-4.5284963E-001	-1.602434912863315E-001	7.2566203E-005	-4.5302519E-001	0
2.8537332E+003	3.337119936368254E+001	-4.5489216E-001	-1.594024885714034E-001	7.2510942E-005	-4.5502517E-001	0
2.8809250E+003	3.357119935863011E+001	-4.5686108E-001	-1.585813799150744E-001	7.2449657E-005	-4.5702514E-001	0
2.9083252E+003	3.377119935357769E+001	-4.5884421E-001	-1.577692193975949E-001	7.2391493E-005	-4.5902517E-001	0
2.9388250E+003	3.397119934852526E+001	-4.6082684E-001	-1.568064950132015E-001	7.2260642E-005	-4.6102521E-001	0
2.9667463E+003	3.417119934347284E+001	-4.6286178E-001	-1.560166379850769E-001	7.2214141E-005	-4.6302515E-001	0
2.9946943E+003	3.437119933842041E+001	-4.6482131E-001	-1.552149369888216E-001	7.2147210E-005	-4.6502516E-001	0
3.0243567E+003	3.457119933336799E+001	-4.6686637E-001	-1.543688191673259E-001	7.2069612E-005	-4.6702519E-001	0
3.0545239E+003	3.477119932831556E+001	-4.6883973E-001	-1.534902858347240E-001	7.1962342E-005	-4.6902514E-001	0
3.0832983E+003	3.497119932326314E+001	-4.7088185E-001	-1.527201682909931E-001	7.1913157E-005	-4.7102517E-001	0
3.1113062E+003	3.517119931821071E+001	-4.7281826E-001	-1.519677741590320E-001	7.1853137E-005	-4.7302520E-001	0
3.1425876E+003	3.537119931315829E+001	-4.7482666E-001	-1.510941656929381E-001	7.1743540E-005	-4.7502518E-001	0
3.1688635E+003	3.557119930810586E+001	-4.7683293E-001	-1.504744252162546E-001	7.1751158E-005	-4.7702515E-001	0
3.1980806E+003	3.577119930305344E+001	-4.7882581E-001	-1.497228740779952E-001	7.1691175E-005	-4.7902516E-001	0
3.2268228E+003	3.597119929800101E+001	-4.8081931E-001	-1.490070412659819E-001	7.1645467E-005	-4.8102522E-001	0
3.2562578E+003	3.617119929294859E+001	-4.8281157E-001	-1.482719078094039E-001	7.1587390E-005	-4.8302516E-001	0
3.2866104E+003	3.637119928789616E+001	-4.8483902E-001	-1.475194688145145E-001	7.1523194E-005	-4.8502514E-001	0
3.3155999E+003	3.657119928284374E+001	-4.8685631E-001	-1.468380792372668E-001	7.1489048E-005	-4.8702517E-001	0
3.3448716E+003	3.677119927779131E+001	-4.8883727E-001	-1.461453032954392E-001	7.1441274E-005	-4.8902518E-001	0
3.3752773E+003	3.697119927273889E+001	-4.9077943E-001	-1.454041783746478E-001	7.1361377E-005	-4.9102512E-001	0
3.4058899E+003	3.717119926768646E+001	-4.9288458E-001	-1.447153549732183E-001	7.1327966E-005	-4.9302515E-001	0
3.4335559E+003	3.737119926263404E+001	-4.9482232E-001	-1.441136643907184E-001	7.1310656E-005	-4.9502519E-001	0
3.4610955E+003	3.757119925758161E+001	-4.9686271E-001	-1.435564930261435E-001	7.1327871E-005	-4.9702516E-001	0
3.4904185E+003	3.777119925252919E+001	-4.9885622E-001	-1.429216097554615E-001	7.1297334E-005	-4.9902514E-001	0
3.5178662E+003	3.797119924747676E+001	-5.0081664E-001	-1.423637531856139E-001	7.1298135E-005	-5.0102520E-001	0
3.5461289E+003	3.817119924242434E+001	-5.0282586E-001	-1.417957058127826E-001	7.1298549E-005	-5.0302511E-001	0
3.5755154E+003	3.837119923737191E+001	-5.0489956E-001	-1.412102921143634E-001	7.1297014E-005	-5.0502515E-001	0
3.6008311E+003	3.857119923231949E+001	-5.0683939E-001	-1.407562241648788E-001	7.1340801E-005	-5.0702518E-001	0
3.6292146E+003	3.877119922726706E+001	-5.0883627E-001	-1.402056190066980E-001	7.1341703E-005	-5.0902516E-001	0
3.6564470E+003	3.897119922221464E+001	-5.1086164E-001	-1.397153113825065E-001	7.1375194E-005	-5.1102513E-001	0
3.6845120E+003	3.917119921716221E+001	-5.1285815E-001	-1.391929716406106E-001	7.1386254E-005	-5.1302516E-001	0
3.7108879E+003	3.937119921210979E+001	-5.1483786E-001	-1.387371112890285E-001	7.1427115E-005	-5.1502520E-001	0
3.7380217E+003	3.957119920705736E+001	-5.1687515E-001	-1.382750521979954E-001	7.1470939E-005	-5.1702517E-001	0
3.7657896E+003	3.977119920200494E+001	-5.1884866E-001	-1.377795192565081E-001	7.1486720E-005	-5.1902515E-001	0
3.7925906E+003	3.997119919695251E+001	-5.2086365E-001	-1.373371677652697E-001	7.1533941E-005	-5.2102518E-001	0
3.8172090E+003	4.017119919190009E+001	-5.2283889E-001	-1.369688925808488E-001	7.1612667E-005	-5.2302516E-001	0
3.8441880E+003	4.037119918684766E+001	-5.2483857E-001	-1.365278094791536E-001	7.1655057E-005	-5.2502519E-001	0
3.8693064E+003	4.057119918179524E+001	-5.2681917E-001	-1.361533827697454E-001	7.1728209E-005	-5.2702516E-001	0
3.8942244E+003	4.077119917674281E+001	-5.2888143E-001	-1.358117472714069E-001	7.1828312E-005	-5.2902520E-001	0
3.9156106E+003	4.097119917169039E+001	-5.3090996E-001	-1.355880337108409E-001	7.1985036E-005	-5.3102523E-001	0
3.9403533E+003	4.117119916663796E+001	-5.3288013E-001	-1.352366402105361E-001	7.2064919E-005	-5.3302515E-001	0
3.9639626E+003	4.137119916158554E+001	-5.3483546E-001	-1.349244418875006E-001	7.2162373E-005	-5.3502518E-001	0
3.9893267E+003	4.157119915653311E+001	-5.3683782E-001	-1.345685273577832E-001	7.2241477E-005	-5.3702521E-001	0
4.0116399E+003	4.177119915148069E+001	-5.3881794E-001	-1.343136394698417E-001	7.2370596E-005	-5.3902513E-001	0
4.0375798E+003	4.197119914642826E+001	-5.4082489E-001	-1.339477912328559E-001	7.2442301E-005	-5.4102516E-001	0
4.0620615E+003	4.217119914137584E+001	-5.4288357E-001	-1.336473057335856E-001	7.2554925E-005	-5.4302520E-001	0
4.0825771E+003	4.237119913632341E+001	-5.4484099E-001	-1.334551584499288E-001	7.2711839E-005	-5.4502523E-001	0
4.1084702E+003	4.257119913127099E+001	-5.4685229E-001	-1.331036345940295E-001	7.2788025E-005	-5.4702514E-001	0
4.1340581E+003	4.277119912621856E+001	-5.4885876E-001	-1.327651271600774E-001	7.2869305E-005	-5.4902518E-001	0
4.1554849E+003	4.297119912116614E+001	-5.5082679E-001	-1.325541537438784E-001	7.3014380E-005	-5.5102521E-001	0
4.1814185E+003	4.317119911611371E+001	-5.5286658E-001	-1.322198683605054E-001	7.3099945E-005	-5.5302513E-001	0
4.1979932E+003	4.337119911106129E+001	-5.5490595E-001	-1.321836236131513E-001	7.3349482E-005	-5.5502516E-001	0
4.2258433E+003	4.357119910600886E+001	-5.5686277E-001	-1.317755440228918E-001	7.3380892E-005	-5.5702519E-001	0
4.2497021E+003	4.377119910095644E+001	-5.5880421E-001	-1.314925583197724E-001	7.3478594E-005	-5.5902517E-001	0
4.2717866E+003	4.397119909590401E+001	-5.6085557E-001	-1.312929737136663E-001	7.3636395E-005	-5.6102520E-001	0
4.2938530E+003	4.417119909085159E+001	-5.6287211E-001	-1.310878867851546E-001	7.3785719E-005	-5.6302518E-001	0
4.3167632E+003	4.437119908579916E+001	-5.6488216E-001	-1.308577997702893E-001	7.3919240E-005	-5.6502521E-001	0
4.3404473E+003	4.457119908074674E+001	-5.6684238E-001	-1.305953870852667E-001	7.4026997E-005	-5.6702513E-001	0
4.3601152E+003	4.477119907569431E+001	-5.6883383E-001	-1.304630218126523E-001	7.4211777E-005	-5.6902516E-001	0
4.3877627E+003	4.497119907064189E+001	-5.7083559E-001	-1.300971906963739E-001	7.4264106E-005	-5.7102519E-001	0
4.4071919E+003	4.517119906558946E+001	-5.7285315E-001	-1.299814424654909E-001	7.4460280E-005	-5.7302511E-001	0
4.4307881E+003	4.537119906053704E+001	-5.7482708E-001	-1.297347271179279E-001	7.4575037E-005	-5.7502520E-001	0
4.4520288E+003	4.557119905548461E+001	-5.7682079E-001	-1.295635732610934E-001	7.4734962E-005	-5.7702523E-001	0
4.4744658E+003	4.577119905043219E+001	-5.7884526E-001	-1.293663375022616E-001	7.4883093E-005	-5.7902521E-001	0
4.4978232E+003	4.597119904537976E+001	-5.8081442E-001	-1.291323422925237E-001	7.5001924E-005	-5.8102512E-001	0
4.5192012E+003	4.617119904032734E+001	-5.8288044E-001	-1.289786418536658E-001	7.5179130E-005	-5.8302516E-001	0
4.5365068E+003	4.637119903527491E+001	-5.8486891E-001	-1.289249506795914E-001	7.5404198E-005	-5.8502525E-001	0
4.5576875E+003	4.657119903022249E+001	-5.8682489E-001	-1.287549697844701E-001	7.5556622E-005	-5.8702511E-001	0
4.5781909E+003	4.677119902517006E+001	-5.8883005E-001	-1.286163139896144E-001	7.5733151E-005	-5.8902514E-001	0
4.5950903E+003	4.697119902011764E+001	-5.9083605E-001	-1.285798576778721E-001	7.5969612E-005	-5.9102523E-001	0
4.6186475E+003	4.717119901506521E+001	-5.9279817E-001	-1.283488725407091E-001	7.6084980E-005	-5.9302515E-001	0
4.6370957E+003	4.737119901001279E+001	-5.9491140E-001	-1.282939605526800E-001	7.6323537E-005	-5.9502518E-001	0
4.6563208E+003	4.757119900496036E+001	-5.9685016E-001	-1.281806362904778E-001	7.6504635E-005	-5.9702516E-001	0
4.6778892E+003	4.777119899990794E+001	-5.9886938E-001	-1.280212847858062E-001	7.6668031E-005	-5.9902519E-001	0
4.6978706E+003	4.797119899485551E+001	-6.0088974E-001	-1.279068246469022E-001	7.6857898E-005	-6.0102516E-001	0
4.7157158E+003	4.817119898980309E+001	-6.0287207E-001	-1.278431715260001E-001	7.7073077E-005	-6.0302514E-001	0
4.7320767E+003	4.837119898475066E+001	-6.0484695E-001	-1.278185080990292E-001	7.7310637E-005	-6.0502523E-001	0
4.7529824E+003	4.857119897969824E+001	-6.0678977E-001	-1.276650606018928E-001	7.7465855E-005	-6.0702515E-001	0
4.7697612E+003	4.877119897464581E+001	-6.0881335E-001	-1.276402153621712E-001	7.7709068E-005	-6.0902518E-001	0
4.7902632E+003	4.897119896959339E+001	-6.1085969E-001	-1.275211102445346E-001	7.7897508E-005	-6.1102521E-001	0
4.8041030E+003	4.917119896454096E+001	-6.1287403E-001	-1.275730384239191E-001	7.8186204E-005	-6.1302519E-001	0
4.8234424E+003	4.937119895948854E+001	-6.1478990E-001	-1.274587461712207E-001	7.8360354E-005	-6.1502516E-001	0
4.8359268E+003	4.957119895443611E+001	-6.1682516E-001	-1.275505592345418E-001	7.8676392E-005	-6.1702514E-001	0
4.8496563E+003	4.977119894938369E+001	-6.1883020E-001	-1.276028999623731E-001	7.8964527E-005	-6.1902523E-001	0
4.8617842E+003	4.997119894433126E+001	-6.2082726E-001	-1.276953513575654E-001	7.9276753E-005	-6.2102515E-001	0
4.8758491E+003	5.017119893927884E+001	-6.2285537E-001	-1.277429498003511E-001	7.9565383E-005	-6.2302512E-001	0
4.8898774E+003	5.037119893422641E+001	-6.2488264E-001	-1.277910620977259E-001	7.9854413E-005	-6.2502521E-001	0
4.9037925E+003	5.057119892917399E+001	-6.2685323E-001	-1.278302980462284E-001	8.0130834E-005	-6.2702519E-001	0
4.9137256E+003	5.077119892412156E+001	-6.2884676E-001	-1.279775930923363E-001	8.0478298E-005	-6.2902516E-001	0
4.9223213E+003	5.097119891906914E+001	-6.3087845E-001	-1.281668538092526E-001	8.0857702E-005	-6.3102514E-001	0
4.9309692E+003	5.117119891401671E+001	-6.3289958E-001	-1.283519598602607E-001	8.1233899E-005	-6.3302523E-001	0
4.9395757E+003	5.137119890896429E+001	-6.3486338E-001	-1.285258940328129E-001	8.1596379E-005	-6.3502520E-001	0
4.9491230E+003	5.157119890391186E+001	-6.3683140E-001	-1.286756090572750E-001	8.1944665E-005	-6.3702518E-001	0
4.9542388E+003	5.177119889885944E+001	-6.3885504E-001	-1.289511968639352E-001	8.2381121E-005	-6.3902521E-001	0
4.9574604E+003	5.197119889380701E+001	-6.4083904E-001	-1.292675999542297E-001	8.2839724E-005	-6.4102519E-001	0
4.9587729E+003	5.217119888875459E+001	-6.4289701E-001	-1.296484013776505E-001	8.3350569E-005	-6.4302516E-001	0
4.9585137E+003	5.237119888370216E+001	-6.4486724E-001	-1.300525228459125E-001	8.3866609E-005	-6.4502519E-001	0
4.9619263E+003	5.257119887864974E+001	-6.4687771E-001	-1.303682592401776E-001	8.4332321E-005	-6.4702523E-001	0
4.9603286E+003	5.277119887359731E+001	-6.4891177E-001	-1.308203146036910E-001	8.4890846E-005	-6.4902514E-001	0
4.9585566E+003	5.297119886854489E+001	-6.5084326E-001	-1.312565911179000E-001	8.5427469E-005	-6.5102518E-001	0
4.9532827E+003	5.317119886349246E+001	-6.5286541E-001	-1.318045875370135E-001	8.6050655E-005	-6.5302521E-001	0
4.9468467E+003	5.337119885844004E+001	-6.5489459E-001	-1.323862714300157E-001	8.6699052E-005	-6.5502518E-001	0
4.9428984E+003	5.357119885338761E+001	-6.5695989E-001	-1.329098468965297E-001	8.7316439E-005	-6.5702516E-001	0
4.9344668E+003	5.377119884833519E+001	-6.5886825E-001	-1.335237020301441E-001	8.7974528E-005	-6.5902519E-001	0
4.9217593E+003	5.397119884328276E+001	-6.6085052E-001	-1.342712066172198E-001	8.8733199E-005	-6.6102523E-001	0
4.9130161E+003	5.417119883823034E+001	-6.6287738E-001	-1.349227022255044E-001	8.9437206E-005	-6.6302514E-001	0
4.8973711E+003	5.437119883317791E+001	-6.6487652E-001	-1.357619197069839E-001	9.0264912E-005	-6.6502517E-001	0
4.8774839E+003	5.457119882812549E+001	-6.6685945E-001	-1.367220146309100E-001	9.1174370E-005	-6.6702521E-001	0
4.8663164E+003	5.477119882307306E+001	-6.6883659E-001	-1.374420711555251E-001	9.1926289E-005	-6.6902518E-001	0
4.8471743E+003	5.497119881802064E+001	-6.7087364E-001	-1.384050958840566E-001	9.2852330E-005	-6.7102516E-001	0
4.8229502E+003	5.517119881296821E+001	-6.7292511E-001	-1.395256197958534E-001	9.3890296E-005	-6.7302519E-001	0
4.7987905E+003	5.537119880791579E+001	-6.7483461E-001	-1.406259831292402E-001	9.4899282E-005	-6.7502522E-001	0
4.7738804E+003	5.557119880286336E+001	-6.7683554E-001	-1.417789038401651E-001	9.5960997E-005	-6.7702514E-001	0
4.7453857E+003	5.577119879781094E+001	-6.7885137E-001	-1.430550478969002E-001	9.7113116E-005	-6.7902517E-001	0
4.7146191E+003	5.597119879275851E+001	-6.8083447E-001	-1.444092234765552E-001	9.8318778E-005	-6.8102521E-001	0
4.6867056E+003	5.617119878770609E+001	-6.8281776E-001	-1.456924855926598E-001	9.9481418E-005	-6.8302512E-001	0
4.6587314E+003	5.637119878265366E+001	-6.8484038E-001	-1.470014705056588E-001	1.0067254E-004	-6.8502516E-001	0
4.6255571E+003	5.657119877760124E+001	-6.8688053E-001	-1.484968191986302E-001	1.0199958E-004	-6.8702519E-001	0
4.5920200E+003	5.677119877254881E+001	-6.8886685E-001	-1.500139100468650E-001	1.0333961E-004	-6.8902522E-001	0
4.5600464E+003	5.697119876749639E+001	-6.9083935E-001	-1.514983227742577E-001	1.0466101E-004	-6.9102514E-001	0
4.5211294E+003	5.717119876244396E+001	-6.9285750E-001	-1.532487620899454E-001	1.0617956E-004	-6.9302517E-001	0
4.4868247E+003	5.737119875739154E+001	-6.9482839E-001	-1.548597087139634E-001	1.0760092E-004	-6.9502527E-001	0
4.4502900E+003	5.757119875233911E+001	-6.9684136E-001	-1.565833651025665E-001	1.0911377E-004	-6.9702512E-001	0
4.4138730E+003	5.777119874728669E+001	-6.9883960E-001	-1.583279796164323E-001	1.1064587E-004	-6.9902521E-001	0
4.3756128E+003	5.797119874223426E+001	-7.0088315E-001	-1.601794226329488E-001	1.1226706E-004	-7.0102525E-001	0
4.3388003E+003	5.817119873718184E+001	-7.0286036E-001	-1.619941779431340E-001	1.1385929E-004	-7.0302516E-001	0
4.2996641E+003	5.837119873212941E+001	-7.0484704E-001	-1.639307258796376E-001	1.1554608E-004	-7.0502514E-001	0
4.2610615E+003	5.857119872707699E+001	-7.0685905E-001	-1.658880217687195E-001	1.1725945E-004	-7.0702523E-001	0
4.2235488E+003	5.877119872202456E+001	-7.0885402E-001	-1.678337406022834E-001	1.1896962E-004	-7.0902520E-001	0
4.1874839E+003	5.897119871697214E+001	-7.1085256E-001	-1.697564849074580E-001	1.2067183E-004	-7.1102518E-001	0
4.1492808E+003	5.917119871191971E+001	-7.1284759E-001	-1.718002825757896E-001	1.2246742E-004	-7.1302515E-001	0
4.1132822E+003	5.937119870686729E+001	-7.1484560E-001	-1.737895824000368E-001	1.2423271E-004	-7.1502525E-001	0
4.0766626E+003	5.957119870181486E+001	-7.1686631E-001	-1.758463739411162E-001	1.2605834E-004	-7.1702516E-001	0
4.0381809E+003	5.977119869676244E+001	-7.1886766E-001	-1.780177003391463E-001	1.2797117E-004	-7.1902519E-001	0
4.0007056E+003	5.997119869171001E+001	-7.2085690E-001	-1.801824490434134E-001	1.2988577E-004	-7.2102523E-001	0
3.9656658E+003	6.017119868665759E+001	-7.2286427E-001	-1.822806829164247E-001	1.3176419E-004	-7.2302520E-001	0
3.9276824E+003	6.037119868160516E+001	-7.2486258E-001	-1.845522428020128E-001	1.3377501E-004	-7.2502518E-001	0
3.8907231E+003	6.057119867655274E+001	-7.2686040E-001	-1.868188444708743E-001	1.3579123E-004	-7.2702515E-001	0
3.8551174E+003	6.077119867150032E+001	-7.2883946E-001	-1.890576555279599E-001	1.3779268E-004	-7.2902530E-001	0
3.8189241E+003	6.097119866644789E+001	-7.3086458E-001	-1.913797129843118E-001	1.3987266E-004	-7.3102522E-001	0
3.7849065E+003	6.117119866139547E+001	-7.3282814E-001	-1.936185600324754E-001	1.4188913E-004	-7.3302519E-001	0
3.7512307E+003	6.137119865634304E+001	-7.3488182E-001	-1.959041930162799E-001	1.4396643E-004	-7.3502523E-001	0
3.7197681E+003	6.157119865129062E+001	-7.3686719E-001	-1.980949304026467E-001	1.4596965E-004	-7.3702514E-001	0
3.6863210E+003	6.177119864623819E+001	-7.3887759E-001	-2.004376714288885E-001	1.4809890E-004	-7.3902524E-001	0
3.6533157E+003	6.197119864118577E+001	-7.4085975E-001	-2.027910583337889E-001	1.5023974E-004	-7.4102521E-001	0
3.6210295E+003	6.217119863613334E+001	-7.4285471E-001	-2.051501365805088E-001	1.5239675E-004	-7.4302530E-001	0
3.5874824E+003	6.237119863108092E+001	-7.4490434E-001	-2.076398567560538E-001	1.5467183E-004	-7.4502516E-001	0
3.5579517E+003	6.257119862602849E+001	-7.4687386E-001	-2.099168099644615E-001	1.5678137E-004	-7.4702513E-001	0
3.5222341E+003	6.277119862097607E+001	-7.4886543E-001	-2.126109221202581E-001	1.5921697E-004	-7.4902523E-001	0
3.4892192E+003	6.297119861592364E+001	-7.5082928E-001	-2.151854747796509E-001	1.6156756E-004	-7.5102520E-001	0
3.4642832E+003	6.317119861087122E+001	-7.5293124E-001	-2.173411327555712E-001	1.6364292E-004	-7.5302517E-001	0
3.4359678E+003	6.337119860581879E+001	-7.5488877E-001	-2.197019350915612E-001	1.6585052E-004	-7.5502521E-001	0
3.4065691E+003	6.357119860076637E+001	-7.5688672E-001	-2.221844669562381E-001	1.6816847E-004	-7.5702524E-001	0
3.3773274E+003	6.377119859571394E+001	-7.5883764E-001	-2.246858382749606E-001	1.7050008E-004	-7.5902516E-001	0
3.3487029E+003	6.397119859066152E+001	-7.6086253E-001	-2.272111228846705E-001	1.7287643E-004	-7.6102513E-001	0
3.3161094E+003	6.417119858560909E+001	-7.6288199E-001	-2.300533335339150E-001	1.7550355E-004	-7.6302528E-001	0
3.2913379E+003	6.437119858055667E+001	-7.6481420E-001	-2.323718280563138E-001	1.7772127E-004	-7.6502520E-001	0
3.2676294E+003	6.457119857550424E+001	-7.6684654E-001	-2.346797764085897E-001	1.7996338E-004	-7.6702517E-001	0
3.2414863E+003	6.477119857045182E+001	-7.6887357E-001	-2.371978505373078E-001	1.8237515E-004	-7.6902527E-001	0
3.2193857E+003	6.497119856539939E+001	-7.7086878E-001	-2.394459162165070E-001	1.8458138E-004	-7.7102524E-001	0
3.1956633E+003	6.517119856034697E+001	-7.7285957E-001	-2.418463780183568E-001	1.8691328E-004	-7.7302521E-001	0
3.1691523E+003	6.537119855529454E+001	-7.7483696E-001	-2.444934474405680E-001	1.8944257E-004	-7.7502519E-001	0
3.1428962E+003	6.557119855024212E+001	-7.7683526E-001	-2.471717910465190E-001	1.9201176E-004	-7.7702516E-001	0
3.1202480E+003	6.577119854518969E+001	-7.7884197E-001	-2.496089975364395E-001	1.9440596E-004	-7.7902526E-001	0
3.0815564E+003	6.597119854013727E+001	-7.8084964E-001	-2.533945702755496E-001	1.9786306E-004	-7.8102517E-001	0
3.0613838E+003	6.617119853508484E+001	-7.8287143E-001	-2.557246954182424E-001	2.0019956E-004	-7.8302526E-001	0
3.0347715E+003	6.637119853003242E+001	-7.8483725E-001	-2.586149307973096E-001	2.0297062E-004	-7.8502530E-001	0
3.0149746E+003	6.657119852497999E+001	-7.8687137E-001	-2.609877243549348E-001	2.0536377E-004	-7.8702515E-001	0
2.9961025E+003	6.677119851992757E+001	-7.8884453E-001	-2.632902240456674E-001	2.0769505E-004	-7.8902525E-001	0
2.9746968E+003	6.697119851487514E+001	-7.9084653E-001	-2.658578693579505E-001	2.1025278E-004	-7.9102534E-001	0
2.9524382E+003	6.717119850982272E+001	-7.9285616E-001	-2.685428541005837E-001	2.1291585E-004	-7.9302520E-001	0
2.9233376E+003	6.737119850477029E+001	-7.9482782E-001	-2.718905294673046E-001	2.1610616E-004	-7.9502517E-001	0
2.9044102E+003	6.757119849971787E+001	-7.9683048E-001	-2.743519051739627E-001	2.1861195E-004	-7.9702526E-001	0
2.8634214E+003	6.777119849466544E+001	-7.9888624E-001	-2.789970946217344E-001	2.2288694E-004	-7.9902524E-001	0
2.8419709E+003	6.797119848961302E+001	-8.0086172E-001	-2.817980056637038E-001	2.2568123E-004	-8.0102521E-001	0
2.8186226E+003	6.817119848456059E+001	-8.0287230E-001	-2.848456252298726E-001	2.2869467E-004	-8.0302525E-001	0
2.8067373E+003	6.837119847950817E+001	-8.0487281E-001	-2.867645556339467E-001	2.3080899E-004	-8.0502528E-001	0
2.7895657E+003	6.857119847445574E+001	-8.0685085E-001	-2.892388693667318E-001	2.3337263E-004	-8.0702519E-001	0
2.7767576E+003	6.877119846940332E+001	-8.0884230E-001	-2.912902006258569E-001	2.3560783E-004	-8.0902517E-001	0
2.7582087E+003	6.897119846435089E+001	-8.1085825E-001	-2.939800261382586E-001	2.3837613E-004	-8.1102526E-001	0
2.7308555E+003	6.917119845929847E+001	-8.1283307E-001	-2.976477715501444E-001	2.4193795E-004	-8.1302524E-001	0
2.6970122E+003	6.937119845424604E+001	-8.1488538E-001	-3.021437516626047E-001	2.4621253E-004	-8.1502521E-001	0
2.6501904E+003	6.957119844919362E+001	-8.1684786E-001	-3.082223175993173E-001	2.5177075E-004	-8.1702524E-001	0
2.6258591E+003	6.977119844414119E+001	-8.1888682E-001	-3.118548091023727E-001	2.5537380E-004	-8.1902528E-001	0
2.6227483E+003	6.997119843908877E+001	-8.2088906E-001	-3.129881249694257E-001	2.5692853E-004	-8.2102513E-001	0
2.6263799E+003	7.017119843403634E+001	-8.2287192E-001	-3.133103181576327E-001	2.5781427E-004	-8.2302523E-001	0
2.6238940E+003	7.037119842898392E+001	-8.2485420E-001	-3.143626072437673E-001	2.5930331E-004	-8.2502532E-001	0
2.6183213E+003	7.057119842393149E+001	-8.2686114E-001	-3.157982032560236E-001	2.6112125E-004	-8.2702518E-001	0
2.6065757E+003	7.077119841887907E+001	-8.2888502E-001	-3.179976653092265E-001	2.6358350E-004	-8.2902527E-001	0
2.5891833E+003	7.097119841382664E+001	-8.3088416E-001	-3.209058702912788E-001	2.6663562E-004	-8.3102524E-001	0
2.5716113E+003	7.117119840877422E+001	-8.3286130E-001	-3.238674998283377E-001	2.6973672E-004	-8.3302522E-001	0
2.5621587E+003	7.137119840372179E+001	-8.3486843E-001	-3.258457254352329E-001	2.7203831E-004	-8.3502519E-001	0
2.5363467E+003	7.157119839866937E+001	-8.3687985E-001	-3.299548241717414E-001	2.7613254E-004	-8.3702523E-001	0
2.5105710E+003	7.177119839361694E+001	-8.3886904E-001	-3.341347605978355E-001	2.8029529E-004	-8.3902538E-001	0
2.4788730E+003	7.197119838856452E+001	-8.4082657E-001	-3.391971208784490E-001	2.8520596E-004	-8.4102523E-001	0
2.4450159E+003	7.217119838351209E+001	-8.4280318E-001	-3.447025354081545E-001	2.9051639E-004	-8.4302515E-001	0
2.4096062E+003	7.237119837845967E+001	-8.4482706E-001	-3.506079358756207E-001	2.9620307E-004	-8.4502530E-001	0
2.3903025E+003	7.257119837340724E+001	-8.4686893E-001	-3.542936248514739E-001	3.0004026E-004	-8.4702528E-001	0
2.3636938E+003	7.277119836835482E+001	-8.4892005E-001	-3.591497578656053E-001	3.0488943E-004	-8.4902519E-001	0
2.3381145E+003	7.297119836330239E+001	-8.5087937E-001	-3.639169038207928E-001	3.0964939E-004	-8.5102528E-001	0
2.3007781E+003	7.317119835824997E+001	-8.5286629E-001	-3.706860378692927E-001	3.1614563E-004	-8.5302526E-001	0
2.2662957E+003	7.337119835319754E+001	-8.5485053E-001	-3.772016923954871E-001	3.2245106E-004	-8.5502523E-001	0
2.2067371E+003	7.357119834814512E+001	-8.5686314E-001	-3.882941798456958E-001	3.3271496E-004	-8.5702521E-001	0
2.1550679E+003	7.377119834309269E+001	-8.5878998E-001	-3.984978998084134E-001	3.4222601E-004	-8.5902530E-001	0
2.0994614E+003	7.397119833804027E+001	-8.6087418E-001	-4.100452499535923E-001	3.5299736E-004	-8.6102515E-001	0
2.0423630E+003	7.417119833298784E+001	-8.6283666E-001	-4.224697692771686E-001	3.6452239E-004	-8.6302525E-001	0
1.9838573E+003	7.437119832793542E+001	-8.6483300E-001	-4.359350936474646E-001	3.7701105E-004	-8.6502522E-001	0
1.9253491E+003	7.457119832288299E+001	-8.6687630E-001	-4.502436935420144E-001	3.9030559E-004	-8.6702520E-001	0
1.8684297E+003	7.477119831783057E+001	-8.6885458E-001	-4.650186271218757E-001	4.0403358E-004	-8.6902529E-001	0
1.8122482E+003	7.497119831277814E+001	-8.7085873E-001	-4.805405413955806E-001	4.1848293E-004	-8.7102520E-001	0
1.7593680E+003	7.517119830772572E+001	-8.7286109E-001	-4.961219267188977E-001	4.3304553E-004	-8.7302536E-001	0
1.7173401E+003	7.537119830267329E+001	-8.7483549E-001	-5.094130800576604E-001	4.4565264E-004	-8.7502521E-001	0
1.6786567E+003	7.557119829762087E+001	-8.7687546E-001	-5.223673447510411E-001	4.5805110E-004	-8.7702513E-001	0
1.6428148E+003	7.577119829256844E+001	-8.7883884E-001	-5.349591538783116E-001	4.7014287E-004	-8.7902528E-001	0
1.6143799E+003	7.597119828751602E+001	-8.8082933E-001	-5.456146599129341E-001	4.8059339E-004	-8.8102525E-001	0
1.5874823E+003	7.617119828246359E+001	-8.8284826E-001	-5.561311075932718E-001	4.9097941E-004	-8.8302523E-001	0
1.5616050E+003	7.637119827741117E+001	-8.8487285E-001	-5.666431974019890E-001	5.0140719E-004	-8.8502526E-001	0
1.5396750E+003	7.657119827235874E+001	-8.8681006E-001	-5.759722395650115E-001	5.1077799E-004	-8.8702524E-001	0
1.5174163E+003	7.677119826730632E+001	-8.8890427E-001	-5.858012269084227E-001	5.2072119E-004	-8.8902521E-001	0
1.4993000E+003	7.697119826225389E+001	-8.9083129E-001	-5.941647864928845E-001	5.2930060E-004	-8.9102519E-001	0
1.4766346E+003	7.717119825720147E+001	-8.9283562E-001	-6.046422038379387E-001	5.3984608E-004	-8.9302528E-001	0
1.4489821E+003	7.737119825214904E+001	-8.9487928E-001	-6.175916878223564E-001	5.5266998E-004	-8.9502525E-001	0
1.4211628E+003	7.757119824709662E+001	-8.9685190E-001	-6.310690663028469E-001	5.6597550E-004	-8.9702523E-001	0
1.3848062E+003	7.777119824204419E+001	-8.9884686E-001	-6.490777768785954E-001	5.8342150E-004	-8.9902526E-001	0
1.3476571E+003	7.797119823699177E+001	-9.0085357E-001	-6.684590390716529E-001	6.0218369E-004	-9.0102518E-001	0
1.3239590E+003	7.817119823193934E+001	-9.0288401E-001	-6.819577093348057E-001	6.1572873E-004	-9.0302527E-001	0
1.2749812E+003	7.837119822688692E+001	-9.0483981E-001	-7.096887305590087E-001	6.4215460E-004	-9.0502524E-001	0
1.2061553E+003	7.857119822183449E+001	-9.0684664E-001	-7.518490207742694E-001	6.8181177E-004	-9.0702534E-001	0
1.1437428E+003	7.877119821678207E+001	-9.0884852E-001	-7.946266313790904E-001	7.2219525E-004	-9.0902531E-001	0
1.0673743E+003	7.897119821172964E+001	-9.1085690E-001	-8.533622576451769E-001	7.7729090E-004	-9.1102523E-001	0
9.9992828E+002	7.917119820667722E+001	-9.1286927E-001	-9.129347427243388E-001	8.3339005E-004	-9.1302526E-001	0
9.4336511E+002	7.937119820162479E+001	-9.1486186E-001	-9.697855336089010E-001	8.8721979E-004	-9.1502523E-001	0
8.8075262E+002	7.958119819631975E+001	-9.1694570E-001	-1.041093335019384E+000	9.5462607E-004	-9.1712528E-001	0
8.1866620E+002	7.979119819101470E+001	-9.1900653E-001	-1.122565651502537E+000	1.0316451E-003	-9.1922534E-001	0
7.4869867E+002	7.999119818596228E+001	-9.2101127E-001	-1.230149489529683E+000	1.1329815E-003	-9.2122519E-001	0
6.8987427E+002	8.019119818090985E+001	-9.2303473E-001	-1.337975243997684E+000	1.2349976E-003	-9.2322528E-001	0
6.2651434E+002	8.039119817585743E+001	-9.2505938E-001	-1.476517497521751E+000	1.3658664E-003	-9.2522526E-001	0
5.7245544E+002	8.059119817080500E+001	-9.2703599E-001	-1.619402926829121E+000	1.5012448E-003	-9.2722523E-001	0
5.2115601E+002	8.079119816575258E+001	-9.2900229E-001	-1.782579957306929E+000	1.6560209E-003	-9.2922533E-001	0
4.7789014E+002	8.099119816070015E+001	-9.3104285E-001	-1.948236139470090E+000	1.8138913E-003	-9.3122524E-001	0
4.3057623E+002	8.119119815564773E+001	-9.3299317E-001	-2.166847863519671E+000	2.0216543E-003	-9.3322527E-001	0
3.8942188E+002	8.139119815059530E+001	-9.3504274E-001	-2.401104736287582E+000	2.2451356E-003	-9.3522525E-001	0
3.5155307E+002	8.159119814554288E+001	-9.3702340E-001	-2.665382458729141E+000	2.4975257E-003	-9.3722522E-001	0
3.1797781E+002	8.179119814049045E+001	-9.3904293E-001	-2.953171301894990E+000	2.7731545E-003	-9.3922526E-001	0
2.8679221E+002	8.199119813543803E+001	-9.4104046E-001	-3.281262299844208E+000	3.0878005E-003	-9.4122529E-001	0
2.5925424E+002	8.219119813038560E+001	-9.4299489E-001	-3.637336393197387E+000	3.4299896E-003	-9.4322526E-001	0
2.3466258E+002	8.239119812533318E+001	-9.4503868E-001	-4.027223559970748E+000	3.8058821E-003	-9.4522518E-001	0
2.1104594E+002	8.259119812028075E+001	-9.4704121E-001	-4.487370010406234E+000	4.2497246E-003	-9.4722527E-001	0
1.9107866E+002	8.279119811522833E+001	-9.4907629E-001	-4.966940405924293E+000	4.7140056E-003	-9.4922525E-001	0
1.7267935E+002	8.299119811017590E+001	-9.5103782E-001	-5.507536543875318E+000	5.2378755E-003	-9.5122522E-001	0
1.5660080E+002	8.319119810512348E+001	-9.5304614E-001	-6.085831978288610E+000	5.8000786E-003	-9.5322531E-001	0
1.4204947E+002	8.339119810007105E+001	-9.5506459E-001	-6.723464716386360E+000	6.4213430E-003	-9.5522517E-001	0
1.2903339E+002	8.359119809501863E+001	-9.5703089E-001	-7.416924667804437E+000	7.0982259E-003	-9.5722526E-001	0
1.1751735E+002	8.379119808996620E+001	-9.5905042E-001	-8.160925990735066E+000	7.8267399E-003	-9.5922524E-001	0
1.0710297E+002	8.399119808491378E+001	-9.6107852E-001	-8.973407041594015E+000	8.6241486E-003	-9.6122533E-001	0
9.8011375E+001	8.419119807986135E+001	-9.6307009E-001	-9.826105020484150E+000	9.4632283E-003	-9.6322531E-001	0
8.9174637E+001	8.440119807455631E+001	-9.6518373E-001	-1.082352334419073E+001	1.0446689E-002	-9.6532530E-001	0
8.1529961E+001	8.461119806925126E+001	-9.6724033E-001	-1.186361847267131E+001	1.1474971E-002	-9.6742529E-001	0
7.5297798E+001	8.481119806419883E+001	-9.6928549E-001	-1.287269334647118E+001	1.2477315E-002	-9.6942526E-001	0
6.9484634E+001	8.501119805914641E+001	-9.7126406E-001	-1.397811349719558E+001	1.3576440E-002	-9.7142518E-001	0
6.4392937E+001	8.521119805409398E+001	-9.7329617E-001	-1.511495177640393E+001	1.4711325E-002	-9.7342533E-001	0
5.9798401E+001	8.541119804904156E+001	-9.7529185E-001	-1.630966391328245E+001	1.5906682E-002	-9.7542518E-001	0
5.5522343E+001	8.561119804398913E+001	-9.7724080E-001	-1.760085640851062E+001	1.7200274E-002	-9.7742528E-001	0
5.1754868E+001	8.581119803893671E+001	-9.7921532E-001	-1.892025542840395E+001	1.8527005E-002	-9.7942525E-001	0
4.8313587E+001	8.601119803388428E+001	-9.8124909E-001	-2.031000308939119E+001	1.9929172E-002	-9.8142534E-001	0
4.5225632E+001	8.621119802883186E+001	-9.8322839E-001	-2.174051244323758E+001	2.1375889E-002	-9.8342532E-001	0
4.2370762E+001	8.641119802377943E+001	-9.8527694E-001	-2.325369975099210E+001	2.2911334E-002	-9.8542523E-001	0
3.9879433E+001	8.661119801872701E+001	-9.8726881E-001	-2.475634090213828E+001	2.4441164E-002	-9.8742521E-001	0
3.7543579E+001	8.681119801367458E+001	-9.8925275E-001	-2.634945129023664E+001	2.6066268E-002	-9.8942518E-001	0
3.5374901E+001	8.701119800862216E+001	-9.9127167E-001	-2.802189190858087E+001	2.7777309E-002	-9.9142516E-001	0
3.3429390E+001	8.721119800356973E+001	-9.9326414E-001	-2.971230226525392E+001	2.9512165E-002	-9.9342525E-001	0
3.1609482E+001	8.741119799851731E+001	-9.9525863E-001	-3.148607907462815E+001	3.1336792E-002	-9.9542528E-001	0
2.9963924E+001	8.761119799346488E+001	-9.9730349E-001	-3.328347424098428E+001	3.3193726E-002	-9.9742520E-001	0
2.8419540E+001	8.781119798841246E+001	-9.9926513E-001	-3.516120018331924E+001	3.5135362E-002	-9.9942517E-001	0
2.6998968E+001	8.801119798336003E+001	-1.0012734E+000	-3.708561729465758E+001	3.7132841E-002	-1.0014253E+000	0
2.5660595E+001	8.821119797830761E+001	-1.0032661E+000	-3.909753879938546E+001	3.9225236E-002	-1.0034252E+000	0
2.4466780E+001	8.841119797325518E+001	-1.0052450E+000	-4.108611733005154E+001	4.1301612E-002	-1.0054252E+000	0
2.3335960E+001	8.861119796820276E+001	-1.0072973E+000	-4.316502257863942E+001	4.3480009E-002	-1.0074252E+000	0
2.2288639E+001	8.881119796315033E+001	-1.0092741E+000	-4.528199796422538E+001	4.5701947E-002	-1.0094252E+000	0
2.1288403E+001	8.901119795809791E+001	-1.0113007E+000	-4.750477254769160E+001	4.8041608E-002	-1.0114253E+000	0
2.0346642E+001	8.921119795304548E+001	-1.0133415E+000	-4.980387474890475E+001	5.0468337E-002	-1.0134252E+000	0
1.9472775E+001	8.941119794799306E+001	-1.0152748E+000	-5.213816737804268E+001	5.2934565E-002	-1.0154252E+000	0
1.8656605E+001	8.961119794294063E+001	-1.0173370E+000	-5.452958528417048E+001	5.5474963E-002	-1.0174252E+000	0
1.7882870E+001	8.981119793788821E+001	-1.0193155E+000	-5.699954878391839E+001	5.8100522E-002	-1.0194253E+000	0
1.7158522E+001	9.001119793283578E+001	-1.0213335E+000	-5.952339536046220E+001	6.0793236E-002	-1.0214252E+000	0
1.6468691E+001	9.021119792778336E+001	-1.0232832E+000	-6.213506643626170E+001	6.3581772E-002	-1.0234253E+000	0
1.5813986E+001	9.041119792273093E+001	-1.0253294E+000	-6.483687046758155E+001	6.6479146E-002	-1.0254252E+000	0
1.5191904E+001	9.061119791767851E+001	-1.0273556E+000	-6.762519857294178E+001	6.9475122E-002	-1.0274253E+000	0
1.4629336E+001	9.081119791262608E+001	-1.0293186E+000	-7.035989636899149E+001	7.2422750E-002	-1.0294253E+000	0
1.4096356E+001	9.101119790757366E+001	-1.0313128E+000	-7.316166132647982E+001	7.5452559E-002	-1.0314252E+000	0
1.3597263E+001	9.121119790252123E+001	-1.0333002E+000	-7.599324568274869E+001	7.8523830E-002	-1.0334253E+000	0
1.3146338E+001	9.141119789746881E+001	-1.0353076E+000	-7.875255598665116E+001	8.1533127E-002	-1.0354253E+000	0
1.2729882E+001	9.161119789241639E+001	-1.0373378E+000	-8.148840214173538E+001	8.4531002E-002	-1.0374253E+000	0
1.2329998E+001	9.181119788736396E+001	-1.0393066E+000	-8.429090333417412E+001	8.7604098E-002	-1.0394251E+000	0
1.1959172E+001	9.201119788231154E+001	-1.0413121E+000	-8.707225208001330E+001	9.0669386E-002	-1.0414252E+000	0
1.1590303E+001	9.221119787725911E+001	-1.0433638E+000	-9.002040556012435E+001	9.3924031E-002	-1.0434253E+000	0
1.1238213E+001	9.241119787220669E+001	-1.0452651E+000	-9.300990282326855E+001	9.7220004E-002	-1.0454253E+000	0
1.0906973E+001	9.261119786715426E+001	-1.0473847E+000	-9.602891541284183E+001	1.0057922E-001	-1.0474253E+000	0
1.0596662E+001	9.281119786210184E+001	-1.0493500E+000	-9.902647505920208E+001	1.0391343E-001	-1.0494252E+000	0
1.0303294E+001	9.301119785704941E+001	-1.0513233E+000	-1.020375854639237E+002	1.0727449E-001	-1.0514253E+000	0
1.0008258E+001	9.321119785199699E+001	-1.0533297E+000	-1.052460584705377E+002	1.1085880E-001	-1.0534253E+000	0
9.7487764E+000	9.341119784694456E+001	-1.0553460E+000	-1.082541985133339E+002	1.1424564E-001	-1.0554253E+000	0
9.4552555E+000	9.362119784163951E+001	-1.0573888E+000	-1.118307999640092E+002	1.1824863E-001	-1.0575253E+000	0
9.2094030E+000	9.383119783633447E+001	-1.0595171E+000	-1.150473177557357E+002	1.2189461E-001	-1.0596253E+000	0
8.9813738E+000	9.403119783128204E+001	-1.0614917E+000	-1.181881206808721E+002	1.2545571E-001	-1.0616252E+000	0
8.7346106E+000	9.423119782622962E+001	-1.0634820E+000	-1.217549409131072E+002	1.2948419E-001	-1.0636253E+000	0
8.5334692E+000	9.443119782117719E+001	-1.0655315E+000	-1.248649833932217E+002	1.3304757E-001	-1.0656253E+000	0
8.3189650E+000	9.463119781612477E+001	-1.0674970E+000	-1.283208876250824E+002	1.3698216E-001	-1.0676252E+000	0
8.1344967E+000	9.483119781107234E+001	-1.0695277E+000	-1.314805008494656E+002	1.4062205E-001	-1.0696253E+000	0
7.9636240E+000	9.503119780601992E+001	-1.0714831E+000	-1.345471813273267E+002	1.4416504E-001	-1.0716254E+000	0
7.7756853E+000	9.523119780096749E+001	-1.0735587E+000	-1.380661185149970E+002	1.4822207E-001	-1.0736253E+000	0
7.6022482E+000	9.543119779591507E+001	-1.0755482E+000	-1.414776492767598E+002	1.5216602E-001	-1.0756253E+000	0
7.4167037E+000	9.563119779086264E+001	-1.0775020E+000	-1.452804442717115E+002	1.5653998E-001	-1.0776253E+000	0
7.2347512E+000	9.583119778581022E+001	-1.0795412E+000	-1.492160831124875E+002	1.6108491E-001	-1.0796251E+000	0
7.0732021E+000	9.603119778075779E+001	-1.0815321E+000	-1.529055903060635E+002	1.6537231E-001	-1.0816253E+000	0
6.9172926E+000	9.623119777570537E+001	-1.0835607E+000	-1.566452047668074E+002	1.6973458E-001	-1.0836253E+000	0
6.7837958E+000	9.643119777065294E+001	-1.0855247E+000	-1.600172934640295E+002	1.7370272E-001	-1.0856252E+000	0
6.6583538E+000	9.663119776560052E+001	-1.0875213E+000	-1.633318607812569E+002	1.7762688E-001	-1.0876253E+000	0
6.5133805E+000	9.683119776054809E+001	-1.0895497E+000	-1.672786696805978E+002	1.8225841E-001	-1.0896252E+000	0
6.3732195E+000	9.703119775549567E+001	-1.0915120E+000	-1.712653980579503E+002	1.8693823E-001	-1.0916253E+000	0
6.2108660E+000	9.723119775044324E+001	-1.0935049E+000	-1.760631910613879E+002	1.9252597E-001	-1.0936253E+000	0
6.0964236E+000	9.743119774539082E+001	-1.0955111E+000	-1.796973290497485E+002	1.9686042E-001	-1.0956252E+000	0
5.9463067E+000	9.763119774033839E+001	-1.0975591E+000	-1.845782889995435E+002	2.0258558E-001	-1.0976253E+000	0
5.8397861E+000	9.783119773528597E+001	-1.0994935E+000	-1.882763268996255E+002	2.0700860E-001	-1.0996252E+000	0
5.7513137E+000	9.803119773023354E+001	-1.1015388E+000	-1.915282077335169E+002	2.1097575E-001	-1.1016252E+000	0
5.6609054E+000	9.823119772518112E+001	-1.1035900E+000	-1.949493815460983E+002	2.1514419E-001	-1.1036253E+000	0
5.5707994E+000	9.843119772012869E+001	-1.1055621E+000	-1.984566416848538E+002	2.1940614E-001	-1.1056253E+000	0
5.4834146E+000	9.863119771507627E+001	-1.1075842E+000	-2.019880553805631E+002	2.2371879E-001	-1.1076252E+000	0
5.3855348E+000	9.883119771002384E+001	-1.1095895E+000	-2.060314264167737E+002	2.2861029E-001	-1.1096252E+000	0
5.2948670E+000	9.903119770497142E+001	-1.1115700E+000	-2.099335070845773E+002	2.3335579E-001	-1.1116253E+000	0
5.2107248E+000	9.923119769991899E+001	-1.1136086E+000	-2.137147146644511E+002	2.3799454E-001	-1.1136253E+000	0
5.1075702E+000	9.943119769486657E+001	-1.1155813E+000	-2.184172228534204E+002	2.4366216E-001	-1.1156253E+000	0
5.0284014E+000	9.963119768981414E+001	-1.1175815E+000	-2.222538369907543E+002	2.4838677E-001	-1.1176252E+000	0
4.9454279E+000	9.983119768476172E+001	-1.1195791E+000	-2.263867053769336E+002	2.5345781E-001	-1.1196252E+000	0
4.8549576E+000	1.000311976797093E+002	-1.1216781E+000	-2.310376837507674E+002	2.5914991E-001	-1.1216253E+000	0
4.7422853E+000	1.002311976746569E+002	-1.1235917E+000	-2.369304270041512E+002	2.6621306E-001	-1.1236253E+000	0
4.6540160E+000	1.004311976696044E+002	-1.1256148E+000	-2.418587997202967E+002	2.7223983E-001	-1.1256253E+000	0
4.5718007E+000	1.006311976645520E+002	-1.1276200E+000	-2.466467870422496E+002	2.7812386E-001	-1.1276252E+000	0
4.4754400E+000	1.008311976594996E+002	-1.1295781E+000	-2.523948736061047E+002	2.8509971E-001	-1.1296252E+000	0
4.3963661E+000	1.010311976544472E+002	-1.1315714E+000	-2.573878873362310E+002	2.9125276E-001	-1.1316253E+000	0
4.3517942E+000	1.012311976493947E+002	-1.1335592E+000	-2.604808906784397E+002	2.9527050E-001	-1.1336253E+000	0
4.2975535E+000	1.014311976443423E+002	-1.1355999E+000	-2.642433226557278E+002	3.0007467E-001	-1.1356252E+000	0
4.2585254E+000	1.016311976392899E+002	-1.1376441E+000	-2.671450543046808E+002	3.0391598E-001	-1.1376252E+000	0
4.2273355E+000	1.018311976342375E+002	-1.1396754E+000	-2.695966224281158E+002	3.0725265E-001	-1.1396253E+000	0
4.1376085E+000	1.020311976291850E+002	-1.1415993E+000	-2.759079972221734E+002	3.1497636E-001	-1.1416253E+000	0
4.0589437E+000	1.022311976241326E+002	-1.1436243E+000	-2.817541560153568E+002	3.2222089E-001	-1.1436253E+000	0
4.0197945E+000	1.024311976190802E+002	-1.1456344E+000	-2.849982603747819E+002	3.2650381E-001	-1.1456252E+000	0
3.9630797E+000	1.026311976140278E+002	-1.1476179E+000	-2.895773014059952E+002	3.3232412E-001	-1.1476252E+000	0
3.9100757E+000	1.028311976089753E+002	-1.1496503E+000	-2.940225259452181E+002	3.3802310E-001	-1.1496253E+000	0
3.8457036E+000	1.030311976039229E+002	-1.1516132E+000	-2.994544959727868E+002	3.4485576E-001	-1.1516253E+000	0
3.8046041E+000	1.032311975988705E+002	-1.1536281E+000	-3.032189642263907E+002	3.4980193E-001	-1.1536254E+000	0
3.7641678E+000	1.034311975938181E+002	-1.1556354E+000	-3.070095308697419E+002	3.5479107E-001	-1.1556252E+000	0
3.7105136E+000	1.036311975887656E+002	-1.1576421E+000	-3.119897246349983E+002	3.6117244E-001	-1.1576253E+000	0
3.6555388E+000	1.038311975837132E+002	-1.1596150E+000	-3.172213746349825E+002	3.6785468E-001	-1.1596253E+000	0
3.6314542E+000	1.040311975786608E+002	-1.1616772E+000	-3.198931347161465E+002	3.7161258E-001	-1.1616253E+000	0
3.5526085E+000	1.042311975736084E+002	-1.1636358E+000	-3.275440646688417E+002	3.8114202E-001	-1.1636252E+000	0
3.4989855E+000	1.044311975685559E+002	-1.1656319E+000	-3.331342379446751E+002	3.8831189E-001	-1.1656252E+000	0
3.4701679E+000	1.046311975635035E+002	-1.1676224E+000	-3.364743427138219E+002	3.9287499E-001	-1.1676252E+000	0
3.4616060E+000	1.048311975584511E+002	-1.1696731E+000	-3.378989631194390E+002	3.9523134E-001	-1.1696252E+000	0
3.4213960E+000	1.050311975533987E+002	-1.1716429E+000	-3.424458650883080E+002	4.0122426E-001	-1.1716253E+000	0
3.3927538E+000	1.052311975483462E+002	-1.1736355E+000	-3.459241384216448E+002	4.0598884E-001	-1.1736253E+000	0
3.3333213E+000	1.054311975432938E+002	-1.1756721E+000	-3.527028843734802E+002	4.1466293E-001	-1.1756252E+000	0
3.2892973E+000	1.056311975382414E+002	-1.1776394E+000	-3.580215565947456E+002	4.2162028E-001	-1.1776252E+000	0
3.2206728E+000	1.058311975331890E+002	-1.1796504E+000	-3.662745294506030E+002	4.3207592E-001	-1.1796253E+000	0
3.2060483E+000	1.060311975281365E+002	-1.1816312E+000	-3.685631366976272E+002	4.3550572E-001	-1.1816254E+000	0
3.1784310E+000	1.062311975230841E+002	-1.1836835E+000	-3.724112603540061E+002	4.4081706E-001	-1.1836252E+000	0
3.1535733E+000	1.064311975180317E+002	-1.1857035E+000	-3.759872949215287E+002	4.4580945E-001	-1.1856252E+000	0
3.1221607E+000	1.066311975129793E+002	-1.1876464E+000	-3.803924714151181E+002	4.5177174E-001	-1.1876253E+000	0
3.0711968E+000	1.068311975079268E+002	-1.1896921E+000	-3.873708632441048E+002	4.6085206E-001	-1.1896253E+000	0
3.0647504E+000	1.070311975028744E+002	-1.1916453E+000	-3.888229518488160E+002	4.6333903E-001	-1.1916252E+000	0
3.0313582E+000	1.072311974978220E+002	-1.1936648E+000	-3.937722585920292E+002	4.7003207E-001	-1.1936252E+000	0
2.9952774E+000	1.074311974927696E+002	-1.1956910E+000	-3.991920655827935E+002	4.7731036E-001	-1.1956253E+000	0
2.9452460E+000	1.076311974877171E+002	-1.1976812E+000	-4.066489362435532E+002	4.8703578E-001	-1.1976253E+000	0
2.9339988E+000	1.078311974826647E+002	-1.1996741E+000	-4.088870650137887E+002	4.9053124E-001	-1.1996253E+000	0
2.9019537E+000	1.080311974776123E+002	-1.2016975E+000	-4.140994761892980E+002	4.9762228E-001	-1.2016253E+000	0
2.8723340E+000	1.082311974725599E+002	-1.2037107E+000	-4.190705722583934E+002	5.0443971E-001	-1.2036253E+000	0
2.8083694E+000	1.084311974675074E+002	-1.2056683E+000	-4.293125943553694E+002	5.1760858E-001	-1.2056253E+000	0
2.7823639E+000	1.086311974624550E+002	-1.2076623E+000	-4.340418262957464E+002	5.2417594E-001	-1.2076253E+000	0
2.7692742E+000	1.088311974574026E+002	-1.2097278E+000	-4.368392787120229E+002	5.2845663E-001	-1.2096252E+000	0
2.7435243E+000	1.090311974523502E+002	-1.2117071E+000	-4.416607906488603E+002	5.3516352E-001	-1.2116253E+000	0
2.7281756E+000	1.092311974472977E+002	-1.2137191E+000	-4.448830649879783E+002	5.3996307E-001	-1.2136253E+000	0
2.6971407E+000	1.094311974422453E+002	-1.2157058E+000	-4.507387181712384E+002	5.4796565E-001	-1.2156252E+000	0
2.6720126E+000	1.096311974371929E+002	-1.2177278E+000	-4.557343002803755E+002	5.5496031E-001	-1.2176253E+000	0
2.6683593E+000	1.098311974321405E+002	-1.2197185E+000	-4.571042671722626E+002	5.5753851E-001	-1.2196252E+000	0
2.6568372E+000	1.100311974270880E+002	-1.2217674E+000	-4.598578555956988E+002	5.6183934E-001	-1.2216253E+000	0
2.6394193E+000	1.102311974220356E+002	-1.2237386E+000	-4.636392984714676E+002	5.6737328E-001	-1.2236253E+000	0
2.6171930E+000	1.104311974169832E+002	-1.2257812E+000	-4.683572180525243E+002	5.7410347E-001	-1.2256253E+000	0
2.5984986E+000	1.106311974119308E+002	-1.2277412E+000	-4.724810091351692E+002	5.8008444E-001	-1.2276253E+000	0
2.5882750E+000	1.108311974068783E+002	-1.2297096E+000	-4.751078002869126E+002	5.8424461E-001	-1.2296252E+000	0
2.5612211E+000	1.110311974018259E+002	-1.2317613E+000	-4.809273621003349E+002	5.9238774E-001	-1.2316253E+000	0
2.5022528E+000	1.112311973967735E+002	-1.2337986E+000	-4.930751276946116E+002	6.0835540E-001	-1.2336253E+000	0
2.4377992E+000	1.114311973917211E+002	-1.2357781E+000	-5.069236683315667E+002	6.2644517E-001	-1.2356253E+000	0
2.3780556E+000	1.116311973866686E+002	-1.2377595E+000	-5.204922647670810E+002	6.4424425E-001	-1.2376251E+000	0
2.3443234E+000	1.118311973816162E+002	-1.2397680E+000	-5.288383164178763E+002	6.5563685E-001	-1.2396252E+000	0
2.3167703E+000	1.120311973765638E+002	-1.2417785E+000	-5.359954937569391E+002	6.6558766E-001	-1.2416253E+000	0
2.3291330E+000	1.122311973715114E+002	-1.2438242E+000	-5.340288731884275E+002	6.6423804E-001	-1.2436252E+000	0
2.3099275E+000	1.124311973664589E+002	-1.2457703E+000	-5.393114511139520E+002	6.7185819E-001	-1.2456253E+000	0
2.2937124E+000	1.126311973614065E+002	-1.2477511E+000	-5.439875994355762E+002	6.7876112E-001	-1.2476252E+000	0
2.2877176E+000	1.128311973563541E+002	-1.2498196E+000	-5.463172730988636E+002	6.8279803E-001	-1.2496253E+000	0
2.2866538E+000	1.130311973513017E+002	-1.2518126E+000	-5.474429794536436E+002	6.8529600E-001	-1.2516253E+000	0
2.2876129E+000	1.132311973462492E+002	-1.2538009E+000	-5.480825926462803E+002	6.8718642E-001	-1.2536253E+000	0
2.2981706E+000	1.134311973411968E+002	-1.2557842E+000	-5.464277227406037E+002	6.8619525E-001	-1.2556252E+000	0
2.2659950E+000	1.136311973361444E+002	-1.2578168E+000	-5.550836582443353E+002	6.9819355E-001	-1.2576252E+000	0
2.2309561E+000	1.138311973310920E+002	-1.2598244E+000	-5.647015873785749E+002	7.1142483E-001	-1.2596252E+000	0
2.2185180E+000	1.140312973260370E+002	-1.2618622E+000	-5.687860709309673E+002	7.1772963E-001	-1.2616260E+000	0
2.2216060E+000	1.142115973214823E+002	-1.2636322E+000	-5.687921719643573E+002	7.1874410E-001	-1.2634287E+000	0
2.2091327E+000	1.143919973169250E+002	-1.2654481E+000	-5.728257320536077E+002	7.2488123E-001	-1.2652330E+000	0
2.1945863E+000	1.145322973133807E+002	-1.2668321E+000	-5.772532624433170E+002	7.3128295E-001	-1.2666354E+000	0
2.1817207E+000	1.145823973121151E+002	-1.2673755E+000	-5.809063546316975E+002	7.3622644E-001	-1.2671371E+000	1