EC-Lab ASCII FILE
Nb header lines : 61                          

Linear Sweep Voltammetry

Run on channel : 1 (SN 1340)
User : 
Electrode connection : standard
Potential control : Ewe
Ewe ctrl range : min = -5.00 V, max = 5.00 V
Ewe,I filtering : 50 kHz
Channel : Grounded
Acquisition started on : 02/26/2026 16:39:17.537
Technique started on : 02/26/2026 16:39:20.219
Loaded Setting File :  NONE
Saved on :
	File : Ni10Co10_2_26_02_LSV_C01.mpr
	Directory : C:\Users\volt\Documents\Platalytix\
	Host : 127.0.0.1
Device : SP-200 (SN 0262)
Address : USB
EC-LAB for windows v11.60 (software)
Internet server v11.60 (firmware)
Command interpretor v11.60 (firmware)
Electrode material : Ni10Co10
Initial state : 
Electrolyte : KOH (1M)
Comments : 
Cable : standard
Reference electrode : Hg/HgO (0.140 V)
Electrode surface area : 1.000 cm˛
Characteristic mass : 0.001 g
Equivalent Weight : 0.000 g/eq.
Density : 0.000 g/cm3
Volume (V) : 0.001 cmł
Cycle Definition : Charge/Discharge alternance
tR (h:m:s)          0:00:5.0000         
dER/dt (mV/h)       0.0                 
dER (mV)            0                   
dtR (s)             0.0000              
dE/dt               10.000              
dE/dt unit          mV/s                
Ei (V)              -0.200              
vs.                 Ref                 
EL (V)              -2.500              
vs.                 Ref                 
record              <I>                 
dI                  0.000               
unit dI             µA                  
tI (s)              0.0000              
step percent        50                  
N                   10                  
E range min (V)     -5.000              
E range max (V)     5.000               
I Range             Auto                
I Range min         Unset               
I Range max         Unset               
I Range init        Unset               
Bandwidth           8                   

Rwe/Ohm	time/s	Ewe/V	<I>/mA	Pwe/W	control/V	error	
0.0000000E+000	2.682400127378060E+000	-1.4259882E-001	0.000000000000000E+000	0.0000000E+000	0.0000000E+000	0
0.0000000E+000	7.682200001072488E+000	-1.4614616E-002	0.000000000000000E+000	0.0000000E+000	-1.9994169E-001	0
5.0251675E+003	7.822199997535790E+000	-2.0105153E-001	-4.000892093707178E-002	8.0438549E-006	-2.0124148E-001	0
1.3734377E+003	7.942199994504335E+000	-2.0221686E-001	-1.472341017027414E-001	2.9773219E-005	-2.0244153E-001	0
1.5075847E+003	8.152199989199289E+000	-2.0434758E-001	-1.355463295019821E-001	2.7698565E-005	-2.0454153E-001	0
1.6889805E+003	8.352199984146864E+000	-2.0634906E-001	-1.221737397946591E-001	2.5210436E-005	-2.0654148E-001	0
1.8485167E+003	8.552199979094439E+000	-2.0835353E-001	-1.127139000072148E-001	2.3484339E-005	-2.0854139E-001	0
1.9897415E+003	8.752199974042014E+000	-2.1034354E-001	-1.057140047528917E-001	2.2236258E-005	-2.1054134E-001	0
2.1176082E+003	8.952199968989589E+000	-2.1236581E-001	-1.002856968350863E-001	2.1297254E-005	-2.1254127E-001	0
2.2349495E+003	9.152199963937164E+000	-2.1434841E-001	-9.590749191004089E-002	2.0557618E-005	-2.1454118E-001	0
2.3443044E+003	9.352199958884739E+000	-2.1633352E-001	-9.228047396240058E-002	1.9963360E-005	-2.1654113E-001	0
2.4470439E+003	9.552199953832314E+000	-2.1833479E-001	-8.922389449230694E-002	1.9480680E-005	-2.1854104E-001	0
2.5466389E+003	9.752199948779889E+000	-2.2034284E-001	-8.652300390260728E-002	1.9064724E-005	-2.2054097E-001	0
2.6396382E+003	9.952199943727464E+000	-2.2234114E-001	-8.423167241361296E-002	1.8728166E-005	-2.2254092E-001	0
2.7299429E+003	1.015219993867504E+001	-2.2434515E-001	-8.217942904017828E-002	1.8436556E-005	-2.2454086E-001	0
2.8183872E+003	1.035219993362261E+001	-2.2634302E-001	-8.030941273146996E-002	1.8177476E-005	-2.2654080E-001	0
2.9044121E+003	1.055219992857019E+001	-2.2834365E-001	-7.861957920117590E-002	1.7952281E-005	-2.2854072E-001	0
2.9877969E+003	1.075219992351776E+001	-2.3034704E-001	-7.709594655733409E-002	1.7758823E-005	-2.3054065E-001	0
3.0683674E+003	1.095219991846534E+001	-2.3235635E-001	-7.572638119630026E-002	1.7595507E-005	-2.3254059E-001	0
3.1503752E+003	1.115219991341291E+001	-2.3434041E-001	-7.438492247583506E-002	1.7431394E-005	-2.3454051E-001	0
3.2273000E+003	1.135219990836049E+001	-2.3634869E-001	-7.323418759641620E-002	1.7308805E-005	-2.3654044E-001	0
3.3056038E+003	1.155219990330806E+001	-2.3835631E-001	-7.210674124469964E-002	1.7187096E-005	-2.3854037E-001	0
3.3803037E+003	1.175219989825564E+001	-2.4034950E-001	-7.110293060298267E-002	1.7089555E-005	-2.4054030E-001	0
3.4571216E+003	1.195219989320321E+001	-2.4236414E-001	-7.010576167078425E-002	1.6991122E-005	-2.4254021E-001	0
3.5347161E+003	1.215219988815079E+001	-2.4436392E-001	-6.913254499201016E-002	1.6893500E-005	-2.4454015E-001	0
3.6097739E+003	1.235219988309836E+001	-2.4635945E-001	-6.824789007665277E-002	1.6813512E-005	-2.4654010E-001	0
3.6796267E+003	1.255219987804594E+001	-2.4834290E-001	-6.749132953060466E-002	1.6760992E-005	-2.4854003E-001	0
3.7509556E+003	1.275219987299351E+001	-2.5033948E-001	-6.674018571134305E-002	1.6707703E-005	-2.5053996E-001	0
3.8257712E+003	1.295219986794109E+001	-2.5235644E-001	-6.596224147418828E-002	1.6645996E-005	-2.5253987E-001	0
3.8962600E+003	1.315219986288866E+001	-2.5433117E-001	-6.527572033014528E-002	1.6601651E-005	-2.5453985E-001	0
3.9677766E+003	1.335209985783877E+001	-2.5634491E-001	-6.460669069066971E-002	1.6561597E-005	-2.5653887E-001	0
4.0359858E+003	1.355199985278887E+001	-2.5834197E-001	-6.400963097418888E-002	1.6536374E-005	-2.5853947E-001	0
4.1040796E+003	1.375199984773644E+001	-2.6034835E-001	-6.343647970368194E-002	1.6515583E-005	-2.6053962E-001	0
4.1756982E+003	1.395199984268402E+001	-2.6232308E-001	-6.282136610037563E-002	1.6479495E-005	-2.6253957E-001	0
4.2446421E+003	1.415199983763159E+001	-2.6432836E-001	-6.227341222433180E-002	1.6460628E-005	-2.6453948E-001	0
4.3131465E+003	1.435199983257917E+001	-2.6631966E-001	-6.174602565015630E-002	1.6444181E-005	-2.6653942E-001	0
4.3806401E+003	1.455199982752674E+001	-2.6832578E-001	-6.125263830482150E-002	1.6435662E-005	-2.6853934E-001	0
4.4514160E+003	1.475199982247432E+001	-2.7032301E-001	-6.072742106707622E-002	1.6416019E-005	-2.7053928E-001	0
4.5176431E+003	1.495199981742189E+001	-2.7231154E-001	-6.027734811605701E-002	1.6414217E-005	-2.7253923E-001	0
4.5874858E+003	1.515199981236947E+001	-2.7432087E-001	-5.979765202351689E-002	1.6403745E-005	-2.7453914E-001	0
4.6541089E+003	1.535199980731704E+001	-2.7630812E-001	-5.936863845585916E-002	1.6404038E-005	-2.7653906E-001	0
4.7209834E+003	1.555199980226462E+001	-2.7830938E-001	-5.895156966091508E-002	1.6406775E-005	-2.7853900E-001	0
4.7855562E+003	1.575199979721219E+001	-2.8032044E-001	-5.857635423954966E-002	1.6420148E-005	-2.8053895E-001	0
4.8533638E+003	1.595199979215977E+001	-2.8232551E-001	-5.817109786550562E-002	1.6423184E-005	-2.8253886E-001	0
4.9183604E+003	1.615199978710734E+001	-2.8432524E-001	-5.780894881750021E-002	1.6436543E-005	-2.8453878E-001	0
4.9861563E+003	1.635199978205492E+001	-2.8634158E-001	-5.742732006708029E-002	1.6443830E-005	-2.8653875E-001	0
5.0523149E+003	1.655199977700249E+001	-2.8832927E-001	-5.706874442354382E-002	1.6454589E-005	-2.8853866E-001	0
5.1204390E+003	1.675199977195007E+001	-2.9034284E-001	-5.670272366485851E-002	1.6463229E-005	-2.9053861E-001	0
5.1822793E+003	1.695199976689764E+001	-2.9232883E-001	-5.640931436401345E-002	1.6490068E-005	-2.9253849E-001	0
5.2485161E+003	1.715199976184522E+001	-2.9431143E-001	-5.607517156591585E-002	1.6503564E-005	-2.9453844E-001	0
5.3138032E+003	1.735199975679279E+001	-2.9632920E-001	-5.576593619074410E-002	1.6525075E-005	-2.9653838E-001	0
5.3767334E+003	1.755199975174037E+001	-2.9832283E-001	-5.548402652685058E-002	1.6552152E-005	-2.9853833E-001	0
5.4437007E+003	1.775199974668794E+001	-3.0033854E-001	-5.517175659492990E-002	1.6570204E-005	-3.0053827E-001	0
5.5046641E+003	1.795199974163552E+001	-3.0233023E-001	-5.492255639162369E-002	1.6604748E-005	-3.0253819E-001	0
5.5660488E+003	1.815199973658309E+001	-3.0432302E-001	-5.467487371034563E-002	1.6638822E-005	-3.0453810E-001	0
5.6327534E+003	1.835199973153067E+001	-3.0632684E-001	-5.438314282753487E-002	1.6659016E-005	-3.0653802E-001	0
5.6953867E+003	1.855199972647824E+001	-3.0834886E-001	-5.414010855356577E-002	1.6694041E-005	-3.0853796E-001	0
5.7600122E+003	1.875199972142582E+001	-3.1032380E-001	-5.387554645840309E-002	1.6718865E-005	-3.1053790E-001	0
5.8219648E+003	1.895199971637339E+001	-3.1234121E-001	-5.364876244293187E-002	1.6756720E-005	-3.1253785E-001	0
5.8855039E+003	1.915189971132349E+001	-3.1432757E-001	-5.340708008140224E-002	1.6787317E-005	-3.1453687E-001	0
5.9469849E+003	1.935189970627107E+001	-3.1633297E-001	-5.319216053820325E-002	1.6826434E-005	-3.1653860E-001	0
6.0053374E+003	1.955179970122117E+001	-3.1834200E-001	-5.300984634751726E-002	1.6875261E-005	-3.1853765E-001	0
6.0711006E+003	1.975179969616875E+001	-3.2031783E-001	-5.276108355590836E-002	1.6900316E-005	-3.2053757E-001	0
6.1325181E+003	1.995179969111632E+001	-3.2232985E-001	-5.256076572703677E-002	1.6941904E-005	-3.2253748E-001	0
6.1920659E+003	2.015179968606390E+001	-3.2433453E-001	-5.237905027412404E-002	1.6988335E-005	-3.2453743E-001	0
6.2575908E+003	2.035179968101147E+001	-3.2632709E-001	-5.214899555038754E-002	1.7017630E-005	-3.2653734E-001	0
6.3145044E+003	2.055179967595905E+001	-3.2833153E-001	-5.199640373595893E-002	1.7072060E-005	-3.2853729E-001	0
6.3807769E+003	2.075179967090662E+001	-3.3032602E-001	-5.176893532510563E-002	1.7100627E-005	-3.3053723E-001	0
6.4412437E+003	2.095179966585420E+001	-3.3233342E-001	-5.159460584994180E-002	1.7146611E-005	-3.3253714E-001	0
6.4997871E+003	2.115179966080177E+001	-3.3434018E-001	-5.143863759309797E-002	1.7198003E-005	-3.3453709E-001	0
6.5598169E+003	2.135179965574935E+001	-3.3634827E-001	-5.127403181882551E-002	1.7245931E-005	-3.3653700E-001	0
6.6214912E+003	2.155179965069692E+001	-3.3835164E-001	-5.109900989265619E-002	1.7289434E-005	-3.3853692E-001	0
6.6787559E+003	2.175179964564450E+001	-3.4033743E-001	-5.095820629952341E-002	1.7342985E-005	-3.4053683E-001	0
6.7361133E+003	2.195179964059207E+001	-3.4235033E-001	-5.082312430880220E-002	1.7399314E-005	-3.4253681E-001	0
6.7938857E+003	2.215179963553965E+001	-3.4435034E-001	-5.068532876932230E-002	1.7453511E-005	-3.4453672E-001	0
6.8547954E+003	2.235179963048722E+001	-3.4632716E-001	-5.052333929768182E-002	1.7497605E-005	-3.4653667E-001	0
6.9172495E+003	2.255179962543480E+001	-3.4835947E-001	-5.036098060574024E-002	1.7543724E-005	-3.4853661E-001	0
6.9669282E+003	2.275179962038237E+001	-3.5036218E-001	-5.028933493944199E-002	1.7619481E-005	-3.5053653E-001	0
7.0357422E+003	2.295179961532995E+001	-3.5233563E-001	-5.007796158777578E-002	1.7644250E-005	-3.5253647E-001	0
7.0898892E+003	2.315179961027752E+001	-3.5434029E-001	-4.997825610679470E-002	1.7709310E-005	-3.5453641E-001	0
7.1495410E+003	2.335179960522510E+001	-3.5634860E-001	-4.984216600056790E-002	1.7761186E-005	-3.5653636E-001	0
7.2091211E+003	2.355179960017267E+001	-3.5833690E-001	-4.970604375473597E-002	1.7811510E-005	-3.5853630E-001	0
7.2703804E+003	2.375179959512025E+001	-3.6034307E-001	-4.956316476151401E-002	1.7859742E-005	-3.6053619E-001	0
7.3236709E+003	2.395179959006782E+001	-3.6231881E-001	-4.947229617332316E-002	1.7924744E-005	-3.6253613E-001	0
7.3910103E+003	2.415179958501540E+001	-3.6432600E-001	-4.929312682592315E-002	1.7958768E-005	-3.6453605E-001	0
7.4362930E+003	2.435179957996297E+001	-3.6632472E-001	-4.926173973304837E-002	1.8045794E-005	-3.6653599E-001	0
7.4941968E+003	2.455179957491055E+001	-3.6833745E-001	-4.914968910251166E-002	1.8103672E-005	-3.6853594E-001	0
7.5555874E+003	2.475179956985812E+001	-3.7031835E-001	-4.901251675140839E-002	1.8150235E-005	-3.7053588E-001	0
7.6070176E+003	2.495169956480822E+001	-3.7234247E-001	-4.894723304117660E-002	1.8225133E-005	-3.7253511E-001	0
7.6625767E+003	2.515169955975580E+001	-3.7433133E-001	-4.885188544933555E-002	1.8286792E-005	-3.7453657E-001	0
7.7212437E+003	2.535159955470590E+001	-3.7633485E-001	-4.874018417452786E-002	1.8342629E-005	-3.7653565E-001	0
7.7768589E+003	2.555159954965347E+001	-3.7832677E-001	-4.864776240188695E-002	1.8404751E-005	-3.7853557E-001	0
7.8367944E+003	2.575159954460105E+001	-3.8031065E-001	-4.852885361987877E-002	1.8456039E-005	-3.8053548E-001	0
7.8902993E+003	2.595159953954862E+001	-3.8231933E-001	-4.845435163027304E-002	1.8525036E-005	-3.8253543E-001	0
7.9404688E+003	2.615159953449620E+001	-3.8431484E-001	-4.839951594232411E-002	1.8600653E-005	-3.8453534E-001	0
8.0035659E+003	2.635159952944377E+001	-3.8632441E-001	-4.826903557658280E-002	1.8647506E-005	-3.8653529E-001	0
8.0574678E+003	2.655159952439135E+001	-3.8833353E-001	-4.819547987961192E-002	1.8715920E-005	-3.8853523E-001	0
8.1087295E+003	2.675159951933892E+001	-3.9032564E-001	-4.813647272261669E-002	1.8788900E-005	-3.9053518E-001	0
8.1647378E+003	2.695159951428650E+001	-3.9234155E-001	-4.805317178739180E-002	1.8853256E-005	-3.9253512E-001	0
8.2131309E+003	2.715159950923407E+001	-3.9433476E-001	-4.801271986263844E-002	1.8933084E-005	-3.9453501E-001	0
8.2782070E+003	2.735159950418165E+001	-3.9633560E-001	-4.787698539228424E-002	1.8975354E-005	-3.9653495E-001	0
8.3257520E+003	2.755159949912922E+001	-3.9832839E-001	-4.784293168714349E-002	1.9057197E-005	-3.9853489E-001	0
8.3810283E+003	2.775159949407680E+001	-4.0032879E-001	-4.776607262938892E-002	1.9122133E-005	-4.0053484E-001	0
8.4389863E+003	2.795159948902437E+001	-4.0233788E-001	-4.767609261849570E-002	1.9181898E-005	-4.0253478E-001	0
8.4947188E+003	2.815159948397195E+001	-4.0431261E-001	-4.759576086819706E-002	1.9243565E-005	-4.0453470E-001	0
8.5435586E+003	2.835159947891952E+001	-4.0633702E-001	-4.756062983692555E-002	1.9325646E-005	-4.0653464E-001	0
8.5989775E+003	2.855159947386710E+001	-4.0834188E-001	-4.748725847134164E-002	1.9391036E-005	-4.0853453E-001	0
8.6477314E+003	2.875159946881467E+001	-4.1032171E-001	-4.744847916761452E-002	1.9469142E-005	-4.1053447E-001	0
8.7035479E+003	2.895159946376225E+001	-4.1234547E-001	-4.737671329734883E-002	1.9535573E-005	-4.1253442E-001	0
8.7559697E+003	2.915159945870982E+001	-4.1439486E-001	-4.732712087788493E-002	1.9612115E-005	-4.1453436E-001	0
8.8160996E+003	2.935159945365740E+001	-4.1636431E-001	-4.722772461262914E-002	1.9663939E-005	-4.1653427E-001	0
8.8630049E+003	2.955159944860497E+001	-4.1837430E-001	-4.720456722480737E-002	1.9749177E-005	-4.1853422E-001	0
8.9223623E+003	2.975159944355255E+001	-4.2035073E-001	-4.711204334061858E-002	1.9803581E-005	-4.2053410E-001	0
8.9780674E+003	2.995159943850013E+001	-4.2235622E-001	-4.704310987994720E-002	1.9868950E-005	-4.2253405E-001	0
9.0139766E+003	3.015159943344770E+001	-4.2435834E-001	-4.707781678644279E-002	1.9977864E-005	-4.2453399E-001	0
9.0716406E+003	3.035159942839528E+001	-4.2636293E-001	-4.699953759718434E-002	2.0038860E-005	-4.2653394E-001	0
9.1314307E+003	3.055159942334285E+001	-4.2838544E-001	-4.691329016271006E-002	2.0096970E-005	-4.2853388E-001	0
9.1932793E+003	3.075159941829043E+001	-4.3036276E-001	-4.681275986703082E-002	2.0146468E-005	-4.3053377E-001	0
9.2409229E+003	3.095149941324053E+001	-4.3236762E-001	-4.678835908278212E-002	2.0229772E-005	-4.3253398E-001	0
9.2871357E+003	3.115139940819063E+001	-4.3437928E-001	-4.677214572610577E-002	2.0316851E-005	-4.3453366E-001	0
9.3371563E+003	3.135139940313820E+001	-4.3636209E-001	-4.673393741366183E-002	2.0392919E-005	-4.3653357E-001	0
9.3893691E+003	3.155139939808578E+001	-4.3836752E-001	-4.668764271952908E-002	2.0466347E-005	-4.3853351E-001	0
9.4474092E+003	3.175139939303335E+001	-4.4037372E-001	-4.661317336950632E-002	2.0527217E-005	-4.4053349E-001	0
9.5042900E+003	3.195139938798093E+001	-4.4237182E-001	-4.654443633580013E-002	2.0589947E-005	-4.4253334E-001	0
9.5545781E+003	3.215139938292850E+001	-4.4438300E-001	-4.650995489674492E-002	2.0668233E-005	-4.4453335E-001	0
9.6105371E+003	3.235139937787608E+001	-4.4638196E-001	-4.644714096796532E-002	2.0733165E-005	-4.4653323E-001	0
9.6622100E+003	3.255139937282365E+001	-4.4836178E-001	-4.640364854030588E-002	2.0805623E-005	-4.4853324E-001	0
9.7143428E+003	3.275139936777123E+001	-4.5038155E-001	-4.636253471498947E-002	2.0880831E-005	-4.5053309E-001	0
9.7684834E+003	3.295139936271880E+001	-4.5236576E-001	-4.630870048390695E-002	2.0948470E-005	-4.5253307E-001	0
9.8106641E+003	3.315139935766638E+001	-4.5436880E-001	-4.631376680638219E-002	2.1043530E-005	-4.5453292E-001	0
9.8643193E+003	3.335139935261395E+001	-4.5636556E-001	-4.626427058979454E-002	2.1113419E-005	-4.5653293E-001	0
9.9256826E+003	3.355139934756153E+001	-4.5836833E-001	-4.618003265034670E-002	2.1167465E-005	-4.5853281E-001	0
9.9749072E+003	3.375139934250910E+001	-4.6038184E-001	-4.615399870987735E-002	2.1248463E-005	-4.6053281E-001	0
1.0024466E+004	3.395139933745668E+001	-4.6237078E-001	-4.612423250897280E-002	2.1326498E-005	-4.6253267E-001	0
1.0086622E+004	3.415139933240425E+001	-4.6435979E-001	-4.603719735801062E-002	2.1377824E-005	-4.6453264E-001	0
1.0140393E+004	3.435139932735183E+001	-4.6636018E-001	-4.599034973914362E-002	2.1448068E-005	-4.6653250E-001	0
1.0193315E+004	3.455139932229940E+001	-4.6836784E-001	-4.594852919996528E-002	2.1520813E-005	-4.6853250E-001	0
1.0242102E+004	3.475139931724698E+001	-4.7034338E-001	-4.592254574731647E-002	2.1599366E-005	-4.7053242E-001	0
1.0290067E+004	3.495139931219455E+001	-4.7236139E-001	-4.590459625857574E-002	2.1683558E-005	-4.7253236E-001	0
1.0347098E+004	3.515139930714213E+001	-4.7435081E-001	-4.584384950980258E-002	2.1746067E-005	-4.7453228E-001	0
1.0401274E+004	3.535139930208970E+001	-4.7635567E-001	-4.579781927749149E-002	2.1816051E-005	-4.7653222E-001	0
1.0443319E+004	3.555139929703728E+001	-4.7836903E-001	-4.580622379585686E-002	2.1912279E-005	-4.7853211E-001	0
1.0502258E+004	3.575139929198485E+001	-4.8034948E-001	-4.573773460403552E-002	2.1970098E-005	-4.8053205E-001	0
1.0556268E+004	3.595139928693243E+001	-4.8235482E-001	-4.569368935538587E-002	2.2040571E-005	-4.8253205E-001	0
1.0607820E+004	3.615139928188000E+001	-4.8434797E-001	-4.565951830228121E-002	2.2115095E-005	-4.8453194E-001	0
1.0664581E+004	3.635139927682758E+001	-4.8635647E-001	-4.560483511813962E-002	2.2180206E-005	-4.8653188E-001	0
1.0712008E+004	3.655139927177515E+001	-4.8836684E-001	-4.559059837746460E-002	2.2264936E-005	-4.8853180E-001	0
1.0758175E+004	3.675129926672525E+001	-4.9036154E-001	-4.558036445469482E-002	2.2350858E-005	-4.9053198E-001	0
1.0822890E+004	3.695119926167536E+001	-4.9235663E-001	-4.549216068045672E-002	2.2398366E-005	-4.9253163E-001	0
1.0871210E+004	3.715119925662293E+001	-4.9436298E-001	-4.547451318467632E-002	2.2480916E-005	-4.9453163E-001	0
1.0935677E+004	3.735119925157051E+001	-4.9634728E-001	-4.538788817202055E-002	2.2528155E-005	-4.9653152E-001	0
1.0976814E+004	3.755119924651808E+001	-4.9835277E-001	-4.540049117359457E-002	2.2625460E-005	-4.9853146E-001	0
1.1026197E+004	3.775119924146566E+001	-5.0035197E-001	-4.537847044544030E-002	2.2705206E-005	-5.0053138E-001	0
1.1083122E+004	3.795119923641323E+001	-5.0236976E-001	-4.532745992949638E-002	2.2771144E-005	-5.0253135E-001	0
1.1137189E+004	3.815119923136081E+001	-5.0434262E-001	-4.528455223699157E-002	2.2838929E-005	-5.0453126E-001	0
1.1194970E+004	3.835119922630838E+001	-5.0636488E-001	-4.523146474525941E-002	2.2903625E-005	-5.0653124E-001	0
1.1236619E+004	3.855119922125596E+001	-5.0836849E-001	-4.524212253655890E-002	2.2999669E-005	-5.0853115E-001	0
1.1304256E+004	3.875119921620353E+001	-5.1036185E-001	-4.514776001042353E-002	2.3041694E-005	-5.1053107E-001	0
1.1344138E+004	3.895119921115111E+001	-5.1235592E-001	-4.516482028884222E-002	2.3140463E-005	-5.1253104E-001	0
1.1403168E+004	3.915119920609868E+001	-5.1437271E-001	-4.510787955238205E-002	2.3202261E-005	-5.1453096E-001	0
1.1450190E+004	3.935119920104626E+001	-5.1636815E-001	-4.509690627344853E-002	2.3286606E-005	-5.1653087E-001	0
1.1513245E+004	3.955119919599383E+001	-5.1837075E-001	-4.502386254519269E-002	2.3339053E-005	-5.1853079E-001	0
1.1628749E+004	3.977119919043616E+001	-5.2059281E-001	-4.476773833096503E-002	2.3305764E-005	-5.2073067E-001	0
1.1668132E+004	3.999119918487850E+001	-5.2276838E-001	-4.480309302806684E-002	2.3421640E-005	-5.2293068E-001	0
1.1726831E+004	4.019119917982607E+001	-5.2477789E-001	-4.475018647451856E-002	2.3483908E-005	-5.2493060E-001	0
1.1772140E+004	4.039119917477365E+001	-5.2677643E-001	-4.474772157225647E-002	2.3572045E-005	-5.2693051E-001	0
1.1821504E+004	4.059119916972122E+001	-5.2878422E-001	-4.473070622883246E-002	2.3652892E-005	-5.2893049E-001	0
1.1874931E+004	4.079119916466880E+001	-5.3078640E-001	-4.469806144236821E-002	2.3725122E-005	-5.3093040E-001	0
1.1929979E+004	4.099119915961637E+001	-5.3278530E-001	-4.465936605085763E-002	2.3793853E-005	-5.3293025E-001	0
1.1989277E+004	4.119119915456395E+001	-5.3477168E-001	-4.460416426971897E-002	2.3853045E-005	-5.3493029E-001	0
1.2044984E+004	4.139119914951152E+001	-5.3677827E-001	-4.456446301841442E-002	2.3921235E-005	-5.3693020E-001	0
1.2089910E+004	4.159119914445910E+001	-5.3876907E-001	-4.456352935433450E-002	2.4009450E-005	-5.3893012E-001	0
1.2153392E+004	4.179119913940667E+001	-5.4078329E-001	-4.449649098304964E-002	2.4062958E-005	-5.4093009E-001	0
1.2208727E+004	4.199119913435425E+001	-5.4278624E-001	-4.445887561871620E-002	2.4131667E-005	-5.4292995E-001	0
1.2253584E+004	4.219119912930182E+001	-5.4477209E-001	-4.445818247766709E-002	2.4219577E-005	-5.4492986E-001	0
1.2306186E+004	4.239119912424940E+001	-5.4677439E-001	-4.443085796617874E-002	2.4293655E-005	-5.4692984E-001	0
1.2363563E+004	4.259099911920202E+001	-5.4878306E-001	-4.438713065050082E-002	2.4358906E-005	-5.4892981E-001	0
1.2422921E+004	4.279099911414960E+001	-5.5077118E-001	-4.433507981679519E-002	2.4418485E-005	-5.5092967E-001	0
1.2469434E+004	4.299099910909717E+001	-5.5278641E-001	-4.433131804362445E-002	2.4505751E-005	-5.5292964E-001	0
1.2532099E+004	4.319099910404475E+001	-5.5476475E-001	-4.426750604141422E-002	2.4558052E-005	-5.5492949E-001	0
1.2575378E+004	4.339099909899232E+001	-5.5677128E-001	-4.427471501190983E-002	2.4650890E-005	-5.5692953E-001	0
1.2628895E+004	4.359099909393990E+001	-5.5879110E-001	-4.424703141696583E-002	2.4724848E-005	-5.5892944E-001	0
1.2679848E+004	4.379099908888747E+001	-5.6076813E-001	-4.422514838305913E-002	2.4800054E-005	-5.6092936E-001	0
1.2736279E+004	4.399099908383505E+001	-5.6278002E-001	-4.418716131437095E-002	2.4867652E-005	-5.6292927E-001	0
1.2789666E+004	4.419099907878262E+001	-5.6478357E-001	-4.415936829958356E-002	2.4940486E-005	-5.6492925E-001	0
1.2849778E+004	4.439099907373020E+001	-5.6676263E-001	-4.410680175796933E-002	2.4998088E-005	-5.6692916E-001	0
1.2887531E+004	4.459099906867777E+001	-5.6876212E-001	-4.413274407746837E-002	2.5101033E-005	-5.6892908E-001	0
1.2937591E+004	4.479099906362535E+001	-5.7075745E-001	-4.411620854309306E-002	2.5179655E-005	-5.7092905E-001	0
1.2994734E+004	4.499099905857292E+001	-5.7276595E-001	-4.407677233331087E-002	2.5245674E-005	-5.7292891E-001	0
1.3055515E+004	4.519099905352050E+001	-5.7475430E-001	-4.402386982420503E-002	2.5302908E-005	-5.7492888E-001	0
1.3105210E+004	4.539099904846807E+001	-5.7676405E-001	-4.401028794136164E-002	2.5383551E-005	-5.7692879E-001	0
1.3163869E+004	4.559099904341565E+001	-5.7875085E-001	-4.396510335707560E-002	2.5444841E-005	-5.7892877E-001	0
1.3203800E+004	4.579099903836322E+001	-5.8076382E-001	-4.398459651219161E-002	2.5544663E-005	-5.8092868E-001	0
1.3266838E+004	4.599099903331080E+001	-5.8274335E-001	-4.392481146854410E-002	2.5596892E-005	-5.8292860E-001	0
1.3313920E+004	4.619099902825837E+001	-5.8475417E-001	-4.392051034186734E-002	2.5682701E-005	-5.8492851E-001	0
1.3376718E+004	4.639099902320595E+001	-5.8675843E-001	-4.386415563142587E-002	2.5737663E-005	-5.8692849E-001	0
1.3416092E+004	4.659099901815353E+001	-5.8874977E-001	-4.388385054432553E-002	2.5836607E-005	-5.8892834E-001	0
1.3470235E+004	4.679099901310110E+001	-5.9074169E-001	-4.385533449192514E-002	2.5907175E-005	-5.9092838E-001	0
1.3523203E+004	4.699099900804868E+001	-5.9274822E-001	-4.383193835554877E-002	2.5981304E-005	-5.9292823E-001	0
1.3585895E+004	4.719099900299625E+001	-5.9474623E-001	-4.377674331065999E-002	2.6036054E-005	-5.9492821E-001	0
1.3620351E+004	4.739099899794383E+001	-5.9674329E-001	-4.381262327073432E-002	2.6144889E-005	-5.9692806E-001	0
1.3673352E+004	4.759099899289140E+001	-5.9874415E-001	-4.378912971822788E-002	2.6218486E-005	-5.9892803E-001	0
1.3727389E+004	4.779099898783898E+001	-6.0074264E-001	-4.376233973362975E-002	2.6289903E-005	-6.0092795E-001	0
1.3781627E+004	4.799099898278655E+001	-6.0275126E-001	-4.373585563913296E-002	2.6361842E-005	-6.0292792E-001	0
1.3831282E+004	4.819099897773413E+001	-6.0476619E-001	-4.372452246850100E-002	2.6443113E-005	-6.0492808E-001	0
1.3888212E+004	4.839079897268675E+001	-6.0675192E-001	-4.368826757561423E-002	2.6507940E-005	-6.0692781E-001	0
1.3933889E+004	4.859079896763433E+001	-6.0872775E-001	-4.368685331072053E-002	2.6593400E-005	-6.0892767E-001	0
1.3983276E+004	4.879079896258190E+001	-6.1074853E-001	-4.367707062764992E-002	2.6675707E-005	-6.1092764E-001	0
1.4028461E+004	4.899079895752948E+001	-6.1274385E-001	-4.367862225725577E-002	2.6763808E-005	-6.1292756E-001	0
1.4074409E+004	4.919079895247705E+001	-6.1475635E-001	-4.367901516477479E-002	2.6851952E-005	-6.1492753E-001	0
1.4122629E+004	4.939079894742463E+001	-6.1676675E-001	-4.367223513880736E-002	2.6935582E-005	-6.1692744E-001	0
1.4180958E+004	4.959079894237220E+001	-6.1875689E-001	-4.363294124108053E-002	2.6998183E-005	-6.1892730E-001	0
1.4221901E+004	4.979079893731978E+001	-6.2075877E-001	-4.364808700221667E-002	2.7094933E-005	-6.2092733E-001	0
1.4266047E+004	4.999079893226735E+001	-6.2277436E-001	-4.365430544489524E-002	2.7186783E-005	-6.2292719E-001	0
1.4308509E+004	5.019079892721493E+001	-6.2476367E-001	-4.366378548719801E-002	2.7279546E-005	-6.2492716E-001	0
1.4353895E+004	5.039079892216250E+001	-6.2675244E-001	-4.366427724610783E-002	2.7366692E-005	-6.2692708E-001	0
1.4405819E+004	5.059079891711008E+001	-6.2875664E-001	-4.364601651110522E-002	2.7442722E-005	-6.2892705E-001	0
1.4451110E+004	5.079079891205765E+001	-6.3075137E-001	-4.364726025808635E-002	2.7530570E-005	-6.3092691E-001	0
1.4493899E+004	5.099079890700523E+001	-6.3275534E-001	-4.365666630353726E-002	2.7623988E-005	-6.3292694E-001	0
1.4540757E+004	5.119079890195280E+001	-6.3475263E-001	-4.365334112926766E-002	2.7709073E-005	-6.3492680E-001	0
1.4592062E+004	5.139079889690038E+001	-6.3674724E-001	-4.363655071582040E-002	2.7785452E-005	-6.3692677E-001	0
1.4630170E+004	5.159079889184795E+001	-6.3875020E-001	-4.365979435657252E-002	2.7887701E-005	-6.3892668E-001	0
1.4662837E+004	5.179079888679553E+001	-6.4075428E-001	-4.369920260265503E-002	2.8000451E-005	-6.4092660E-001	0
1.4701515E+004	5.199079888174310E+001	-6.4277995E-001	-4.372202082882404E-002	2.8103637E-005	-6.4292651E-001	0
1.4745040E+004	5.219079887669068E+001	-6.4477181E-001	-4.372804836700550E-002	2.8194612E-005	-6.4492643E-001	0
1.4788196E+004	5.239079887163825E+001	-6.4674675E-001	-4.373398591878330E-002	2.8284814E-005	-6.4692646E-001	0
1.4821102E+004	5.259079886658583E+001	-6.4876461E-001	-4.377303470550187E-002	2.8398395E-005	-6.4892632E-001	0
1.4850598E+004	5.279079886153340E+001	-6.5076160E-001	-4.382056576889370E-002	2.8516743E-005	-6.5092623E-001	0
1.4894404E+004	5.299079885648098E+001	-6.5276980E-001	-4.382651244752661E-002	2.8608623E-005	-6.5292621E-001	0
1.4944084E+004	5.319079885142855E+001	-6.5475500E-001	-4.381365838852358E-002	2.8687211E-005	-6.5492612E-001	0
1.4976028E+004	5.339079884637613E+001	-6.5676272E-001	-4.385426444452389E-002	2.8801845E-005	-6.5692604E-001	0
1.5015482E+004	5.359079884132370E+001	-6.5875643E-001	-4.387181253930605E-002	2.8900839E-005	-6.5892601E-001	0
1.5037350E+004	5.379079883627128E+001	-6.6075897E-001	-4.394118594139795E-002	2.9034532E-005	-6.6092587E-001	0
1.5079514E+004	5.399079883121885E+001	-6.6276431E-001	-4.395130402116454E-002	2.9129356E-005	-6.6292608E-001	0
1.5113188E+004	5.419059882617148E+001	-6.6476661E-001	-4.398586453365927E-002	2.9240335E-005	-6.6492575E-001	0
1.5164873E+004	5.439059882111906E+001	-6.6676909E-001	-4.396799743484903E-002	2.9316501E-005	-6.6692573E-001	0
1.5192007E+004	5.459059881606663E+001	-6.6875559E-001	-4.402022721676685E-002	2.9438774E-005	-6.6892558E-001	0
1.5219395E+004	5.479059881101421E+001	-6.7074770E-001	-4.407190402141870E-002	2.9561128E-005	-6.7092562E-001	0
1.5265900E+004	5.499059880596178E+001	-6.7275023E-001	-4.406882136587109E-002	2.9647310E-005	-6.7292547E-001	0
1.5291287E+004	5.519059880090936E+001	-6.7476267E-001	-4.412726479869722E-002	2.9775430E-005	-6.7492545E-001	0
1.5321995E+004	5.539059879585693E+001	-6.7675424E-001	-4.416880626263131E-002	2.9891427E-005	-6.7692536E-001	0
1.5363953E+004	5.559059879080451E+001	-6.7873269E-001	-4.417695609119898E-002	2.9984345E-005	-6.7892534E-001	0
1.5398357E+004	5.579059878575208E+001	-6.8073273E-001	-4.420814014281749E-002	3.0093928E-005	-6.8092525E-001	0
1.5420336E+004	5.599059878069966E+001	-6.8275565E-001	-4.427631421472944E-002	3.0229903E-005	-6.8292516E-001	0
1.5454696E+004	5.619059877564723E+001	-6.8473005E-001	-4.430563012961610E-002	3.0337396E-005	-6.8492508E-001	0
1.5505428E+004	5.639059877059481E+001	-6.8674058E-001	-4.429033476581629E-002	3.0415969E-005	-6.8692499E-001	0
1.5522718E+004	5.659059876554238E+001	-6.8874645E-001	-4.437022374957672E-002	3.0559833E-005	-6.8892491E-001	0
1.5553849E+004	5.679059876048996E+001	-6.9074309E-001	-4.440978727231637E-002	3.0675754E-005	-6.9092488E-001	0
1.5585452E+004	5.699059875543753E+001	-6.9274735E-001	-4.444833256329583E-002	3.0791463E-005	-6.9292480E-001	0
1.5630268E+004	5.719059875038511E+001	-6.9474733E-001	-4.444884454547426E-002	3.0880718E-005	-6.9492471E-001	0
1.5662438E+004	5.739059874533268E+001	-6.9674540E-001	-4.448511767124025E-002	3.0994801E-005	-6.9692475E-001	0
1.5693775E+004	5.759059874028026E+001	-6.9875246E-001	-4.452417938745090E-002	3.1111380E-005	-6.9892460E-001	0
1.5730644E+004	5.779059873522783E+001	-7.0074224E-001	-4.454631852477076E-002	3.1215488E-005	-7.0092452E-001	0
1.5774613E+004	5.799059873017541E+001	-7.0274711E-001	-4.454924365164548E-002	3.1306852E-005	-7.0292449E-001	0
1.5793585E+004	5.819059872512298E+001	-7.0473981E-001	-4.462190255941928E-002	3.1446831E-005	-7.0492440E-001	0
1.5858563E+004	5.839059872007056E+001	-7.0673490E-001	-4.456487708606782E-002	3.1495554E-005	-7.0692432E-001	0
1.5879801E+004	5.859059871501813E+001	-7.0875031E-001	-4.463219010221497E-002	3.1633077E-005	-7.0892429E-001	0
1.5925694E+004	5.879059870996571E+001	-7.1074450E-001	-4.462879104170175E-002	3.1719668E-005	-7.1092421E-001	0
1.5939075E+004	5.899059870491328E+001	-7.1274704E-001	-4.471696177661172E-002	3.1871881E-005	-7.1292418E-001	0
1.6007162E+004	5.919059869986086E+001	-7.1475208E-001	-4.465201665470997E-002	3.1915122E-005	-7.1492410E-001	0
1.6052348E+004	5.939059869480843E+001	-7.1674532E-001	-4.465049825996242E-002	3.2003034E-005	-7.1692407E-001	0
1.6048752E+004	5.959059868975601E+001	-7.1875840E-001	-4.478593880221959E-002	3.2190270E-005	-7.1892387E-001	0
1.6065200E+004	5.979059868470358E+001	-7.2073722E-001	-4.486325725558984E-002	3.2334618E-005	-7.2092402E-001	0
1.6131484E+004	5.999039867965621E+001	-7.2274274E-001	-4.480323690314969E-002	3.2381213E-005	-7.2292376E-001	0
1.6178806E+004	6.019039867460378E+001	-7.2475320E-001	-4.479645853101893E-002	3.2466378E-005	-7.2492373E-001	0
1.6222713E+004	6.039039866955136E+001	-7.2673589E-001	-4.479743183385626E-002	3.2555901E-005	-7.2692364E-001	0
1.6273783E+004	6.059039866449893E+001	-7.2875625E-001	-4.478099889780846E-002	3.2634434E-005	-7.2892356E-001	0
1.6292467E+004	6.079039865944651E+001	-7.3075473E-001	-4.485230703332399E-002	3.2776035E-005	-7.3092347E-001	0
1.6323493E+004	6.099039865439408E+001	-7.3274237E-001	-4.488882205138589E-002	3.2891941E-005	-7.3292345E-001	0
1.6378412E+004	6.119039864934166E+001	-7.3476368E-001	-4.486171729902821E-002	3.2962762E-005	-7.3492342E-001	0
1.6407965E+004	6.139039864428923E+001	-7.3674834E-001	-4.490186944060115E-002	3.3081378E-005	-7.3692334E-001	0
1.6465346E+004	6.159039863923681E+001	-7.3875320E-001	-4.486715216575043E-002	3.3145752E-005	-7.3892325E-001	0
1.6487244E+004	6.179039863418438E+001	-7.4075913E-001	-4.492922639025498E-002	3.3281736E-005	-7.4092311E-001	0
1.6570361E+004	6.199039862913196E+001	-7.4275559E-001	-4.482434454844964E-002	3.3293534E-005	-7.4292314E-001	0
1.6594533E+004	6.219039862407953E+001	-7.4477077E-001	-4.488048843338288E-002	3.3425677E-005	-7.4492300E-001	0
1.6650398E+004	6.239039861902711E+001	-7.4677372E-001	-4.485019870327345E-002	3.3492950E-005	-7.4692303E-001	0
1.6701350E+004	6.259039861397468E+001	-7.4874997E-001	-4.483170297351635E-002	3.3567736E-005	-7.4892288E-001	0
1.6713111E+004	6.279039860892226E+001	-7.5077099E-001	-4.492107643840892E-002	3.3725442E-005	-7.5092292E-001	0
1.6787172E+004	6.299039860386983E+001	-7.5276095E-001	-4.484143773069516E-002	3.3754884E-005	-7.5292271E-001	0
1.6831914E+004	6.319039859881741E+001	-7.5474805E-001	-4.484030076797829E-002	3.3843131E-005	-7.5492269E-001	0
1.6902475E+004	6.339039859376499E+001	-7.5674778E-001	-4.477142148055641E-002	3.3880675E-005	-7.5692260E-001	0
1.6895557E+004	6.359039858871256E+001	-7.5875521E-001	-4.490856725544112E-002	3.4074608E-005	-7.5892258E-001	0
1.6972551E+004	6.379039858366014E+001	-7.6075089E-001	-4.482242602922537E-002	3.4098699E-005	-7.6092249E-001	0
1.7015787E+004	6.399039857860771E+001	-7.6274985E-001	-4.482601269844155E-002	3.4191035E-005	-7.6292247E-001	0
1.7025430E+004	6.419039857355529E+001	-7.6475227E-001	-4.491823693645525E-002	3.4351324E-005	-7.6492238E-001	0
1.7112652E+004	6.439039856850286E+001	-7.6676852E-001	-4.480710862623649E-002	3.4356679E-005	-7.6692230E-001	0
1.7131971E+004	6.459039856345044E+001	-7.6874900E-001	-4.487218919564961E-002	3.4495450E-005	-7.6892227E-001	0
1.7163984E+004	6.479039855839801E+001	-7.7074409E-001	-4.490472752254569E-002	3.4610053E-005	-7.7092218E-001	0
1.7245479E+004	6.499039855334559E+001	-7.7272427E-001	-4.480735475356867E-002	3.4623732E-005	-7.7292204E-001	0
1.7323088E+004	6.519039854829316E+001	-7.7473742E-001	-4.472282224402369E-002	3.4648445E-005	-7.7492195E-001	0
1.7308475E+004	6.539039854324074E+001	-7.7673817E-001	-4.487617902379615E-002	3.4857039E-005	-7.7692193E-001	0
1.7379705E+004	6.559039853818831E+001	-7.7872872E-001	-4.480678688814632E-002	3.4892331E-005	-7.7892208E-001	0
1.7450627E+004	6.579019853314094E+001	-7.8072238E-001	-4.473892790888367E-002	3.4928682E-005	-7.8092182E-001	0
1.7427393E+004	6.599019852808851E+001	-7.8272849E-001	-4.491368924925454E-002	3.5155223E-005	-7.8292173E-001	0
1.7469729E+004	6.619019852303609E+001	-7.8473347E-001	-4.491961509165643E-002	3.5249926E-005	-7.8492171E-001	0
1.7467525E+004	6.639019851798366E+001	-7.8673619E-001	-4.503993596380063E-002	3.5434547E-005	-7.8692162E-001	0
1.7621600E+004	6.659019851293124E+001	-7.8875220E-001	-4.476053558438875E-002	3.5304969E-005	-7.8892159E-001	0
1.7579889E+004	6.679019850787881E+001	-7.9072315E-001	-4.497884708544331E-002	3.5565816E-005	-7.9092151E-001	0
1.7583090E+004	6.699019850282639E+001	-7.9272485E-001	-4.508450211663542E-002	3.5739606E-005	-7.9292148E-001	0
1.7665580E+004	6.719019849777396E+001	-7.9473650E-001	-4.498785075572126E-002	3.5753488E-005	-7.9492128E-001	0
1.7667098E+004	6.739019849272154E+001	-7.9673207E-001	-4.509694017380117E-002	3.5930178E-005	-7.9692131E-001	0
1.7696701E+004	6.759019848766911E+001	-7.9871911E-001	-4.513378503474746E-002	3.6049216E-005	-7.9892117E-001	0
1.7771592E+004	6.779019848261669E+001	-8.0072546E-001	-4.505648623725356E-002	3.6077876E-005	-8.0092120E-001	0
1.7692307E+004	6.799019847756426E+001	-8.0273819E-001	-4.537216086936358E-002	3.6421967E-005	-8.0292106E-001	0
1.7713344E+004	6.819019847251184E+001	-8.0473578E-001	-4.543104978825252E-002	3.6559992E-005	-8.0492103E-001	0
1.7786736E+004	6.839019846745941E+001	-8.0671906E-001	-4.535509075239830E-002	3.6588815E-005	-8.0692089E-001	0
1.7806463E+004	6.859019846240699E+001	-8.0872411E-001	-4.541744925889502E-002	3.6730187E-005	-8.0892086E-001	0
1.7790436E+004	6.879019845735456E+001	-8.1072432E-001	-4.557079745930681E-002	3.6945352E-005	-8.1092077E-001	0
1.7722701E+004	6.899019845230214E+001	-8.1271601E-001	-4.585734292016902E-002	3.7268997E-005	-8.1292075E-001	0
1.7758063E+004	6.919019844724971E+001	-8.1472087E-001	-4.587892647288849E-002	3.7378519E-005	-8.1492072E-001	0
1.7775818E+004	6.939019844219729E+001	-8.1671941E-001	-4.594552867925476E-002	3.7524605E-005	-8.1692058E-001	0
1.7795689E+004	6.959019843714486E+001	-8.1873864E-001	-4.600769456327081E-002	3.7668276E-005	-8.1892043E-001	0
1.7810563E+004	6.979019843209244E+001	-8.2074171E-001	-4.608173994215442E-002	3.7821206E-005	-8.2092053E-001	0
1.7751158E+004	6.999019842704001E+001	-8.2274747E-001	-4.634894525168720E-002	3.8133476E-005	-8.2292044E-001	0
1.7720463E+004	7.019019842198759E+001	-8.2473081E-001	-4.654115560077021E-002	3.8383925E-005	-8.2492024E-001	0
1.7723555E+004	7.039019841693516E+001	-8.2673311E-001	-4.664601191039919E-002	3.8563801E-005	-8.2692033E-001	0
1.7662711E+004	7.059019841188274E+001	-8.2872683E-001	-4.691957116133372E-002	3.8883507E-005	-8.2892019E-001	0
1.7615570E+004	7.079019840683031E+001	-8.3072358E-001	-4.715848161734393E-002	3.9175662E-005	-8.3092010E-001	0
1.7607395E+004	7.099019840177789E+001	-8.3271170E-001	-4.729329245883007E-002	3.9381677E-005	-8.3292001E-001	0
1.7513961E+004	7.119019839672546E+001	-8.3474278E-001	-4.766156344517192E-002	3.9785147E-005	-8.3491999E-001	0
1.7425656E+004	7.139019839167304E+001	-8.3674031E-001	-4.801772031040819E-002	4.0178362E-005	-8.3691990E-001	0
1.7408908E+004	7.159009838662314E+001	-8.3871949E-001	-4.817760152241435E-002	4.0407493E-005	-8.3891922E-001	0
1.7251363E+004	7.178999838157324E+001	-8.4073371E-001	-4.873433595078702E-002	4.0972598E-005	-8.4091967E-001	0
1.7187787E+004	7.198999837652082E+001	-8.4273964E-001	-4.903130458067029E-002	4.1320625E-005	-8.4291971E-001	0
1.7050992E+004	7.218999837146839E+001	-8.4473473E-001	-4.954167309084134E-002	4.1849573E-005	-8.4491968E-001	0
1.6841107E+004	7.238999836641597E+001	-8.4672099E-001	-5.027703985692247E-002	4.2570624E-005	-8.4691960E-001	0
1.6617895E+004	7.258999836136354E+001	-8.4873575E-001	-5.107360253693377E-002	4.3347991E-005	-8.4891945E-001	0
1.6392252E+004	7.278999835631112E+001	-8.5073483E-001	-5.189859591817281E-002	4.4151944E-005	-8.5091949E-001	0
1.6065729E+004	7.298999835125869E+001	-8.5273492E-001	-5.307788374810529E-002	4.5261364E-005	-8.5291934E-001	0
1.5680356E+004	7.318999834620627E+001	-8.5472107E-001	-5.450903299547610E-002	4.6590019E-005	-8.5491925E-001	0
1.5227369E+004	7.338999834115384E+001	-8.5673255E-001	-5.626267722444589E-002	4.8202066E-005	-8.5691923E-001	0
1.4726176E+004	7.358999833610142E+001	-8.5871845E-001	-5.831238743690703E-002	5.0073922E-005	-8.5891914E-001	0
1.4129865E+004	7.378999833104899E+001	-8.6073226E-001	-6.091581490957276E-002	5.2432206E-005	-8.6091912E-001	0
1.3449021E+004	7.398999832599657E+001	-8.6272955E-001	-6.414812745720694E-002	5.5342483E-005	-8.6291903E-001	0
1.2852996E+004	7.418999832094414E+001	-8.6472613E-001	-6.727817517234325E-002	5.8177196E-005	-8.6491895E-001	0
1.2011682E+004	7.439999831563910E+001	-8.6682880E-001	-7.216548123282307E-002	6.2555118E-005	-8.6701888E-001	0
1.0897948E+004	7.460999831033405E+001	-8.6892277E-001	-7.973269123769833E-002	6.9281552E-005	-8.6911881E-001	0
1.0522289E+004	7.480999830528162E+001	-8.7093550E-001	-8.277053292207193E-002	7.2087794E-005	-8.7111872E-001	0
1.0203461E+004	7.500999830022920E+001	-8.7293386E-001	-8.555272305194206E-002	7.4681870E-005	-8.7311870E-001	0
9.9667314E+003	7.520999829517677E+001	-8.7492400E-001	-8.778444885027059E-002	7.6804725E-005	-8.7511861E-001	0
9.7770635E+003	7.540999829012435E+001	-8.7691146E-001	-8.969068092234922E-002	7.8650788E-005	-8.7711853E-001	0
9.6137783E+003	7.560999828507192E+001	-8.7892026E-001	-9.142297830922597E-002	8.0353508E-005	-8.7911844E-001	0
9.4828633E+003	7.580999828001950E+001	-8.8091469E-001	-9.289543355536342E-002	8.1832950E-005	-8.8111842E-001	0
9.3816182E+003	7.600999827496707E+001	-8.8292062E-001	-9.411176033856616E-002	8.3093211E-005	-8.8311827E-001	0
9.2524570E+003	7.620999826991465E+001	-8.8490397E-001	-9.563988850920868E-002	8.4632120E-005	-8.8511831E-001	0
9.1421719E+003	7.640999826486222E+001	-8.8691074E-001	-9.701312817907670E-002	8.6041982E-005	-8.8711816E-001	0
9.0091406E+003	7.660999825980980E+001	-8.8891780E-001	-9.866843048626661E-002	8.7708126E-005	-8.8911819E-001	0
8.8797725E+003	7.680999825475737E+001	-8.9092368E-001	-1.003318170556486E-001	8.9387991E-005	-8.9111799E-001	0
8.7494883E+003	7.700999824970495E+001	-8.9291352E-001	-1.020532312830426E-001	9.1124712E-005	-8.9311808E-001	0
8.5839023E+003	7.720999824465252E+001	-8.9490694E-001	-1.042540945406252E-001	9.3297713E-005	-8.9511788E-001	0
8.3609404E+003	7.740989823960263E+001	-8.9691526E-001	-1.072744522961986E-001	9.6216092E-005	-8.9711744E-001	0
8.0762334E+003	7.760979823455273E+001	-8.9890146E-001	-1.113020652132173E-001	1.0004959E-004	-8.9911777E-001	0
7.7034966E+003	7.780979822950030E+001	-9.0090692E-001	-1.169477895624480E-001	1.0535907E-004	-9.0111774E-001	0
7.2726772E+003	7.800979822444788E+001	-9.0292495E-001	-1.241530367910286E-001	1.1210088E-004	-9.0311766E-001	0
6.7853320E+003	7.820979821939545E+001	-9.0490705E-001	-1.333622323969996E-001	1.2068042E-004	-9.0511757E-001	0
6.2725752E+003	7.840979821434303E+001	-9.0691626E-001	-1.445843533511413E-001	1.3112590E-004	-9.0711761E-001	0
5.7704951E+003	7.860979820929060E+001	-9.0890044E-001	-1.575082204454574E-001	1.4315930E-004	-9.0911770E-001	0
5.2658013E+003	7.880979820423818E+001	-9.1091865E-001	-1.729876579159277E-001	1.5757768E-004	-9.1111761E-001	0
4.7863369E+003	7.900979819918575E+001	-9.1291606E-001	-1.907337573853212E-001	1.7412391E-004	-9.1311765E-001	0
4.3333594E+003	7.920979819413333E+001	-9.1490668E-001	-2.111310402729685E-001	1.9316519E-004	-9.1511774E-001	0
3.9040720E+003	7.940979818908090E+001	-9.1692150E-001	-2.348628529556560E-001	2.1535080E-004	-9.1711760E-001	0
3.5088794E+003	7.960979818402848E+001	-9.1892201E-001	-2.618847432210534E-001	2.4065166E-004	-9.1911763E-001	0
3.0517280E+003	7.980979817897605E+001	-9.2092377E-001	-3.017712492884348E-001	2.7790832E-004	-9.2111766E-001	0
2.7558491E+003	8.000979817392363E+001	-9.2292714E-001	-3.348975551658877E-001	3.0908606E-004	-9.2311764E-001	0
2.4686570E+003	8.020979816887120E+001	-9.2494380E-001	-3.746749014401489E-001	3.4655322E-004	-9.2511761E-001	0
2.1544094E+003	8.040979816381878E+001	-9.2692870E-001	-4.302472344593333E-001	3.9880851E-004	-9.2711765E-001	0
1.9221843E+003	8.060979815876635E+001	-9.2893118E-001	-4.832685126663270E-001	4.4892318E-004	-9.2911762E-001	0
1.6994352E+003	8.080979815371393E+001	-9.3094969E-001	-5.477994719980597E-001	5.0997373E-004	-9.3111759E-001	0
1.4992756E+003	8.100979814866150E+001	-9.3294108E-001	-6.222612122094882E-001	5.8053306E-004	-9.3311769E-001	0
1.3222603E+003	8.120979814360908E+001	-9.3494183E-001	-7.070785352871543E-001	6.6107733E-004	-9.3511766E-001	0
1.1761732E+003	8.140979813855665E+001	-9.3693393E-001	-7.965952153243706E-001	7.4635708E-004	-9.3711764E-001	0
1.0345641E+003	8.160979813350423E+001	-9.3893814E-001	-9.075688175147509E-001	8.5215096E-004	-9.3911761E-001	0
9.0307135E+002	8.181979812819918E+001	-9.4102907E-001	-1.042031791098642E+000	9.8058220E-004	-9.4121766E-001	0
8.0599561E+002	8.202979812289414E+001	-9.4307411E-001	-1.170073490353330E+000	1.1034660E-003	-9.4331765E-001	0
7.1459052E+002	8.222979811784171E+001	-9.4507700E-001	-1.322543390078340E+000	1.2499053E-003	-9.4531757E-001	0
6.3429333E+002	8.242979811278929E+001	-9.4708604E-001	-1.493135703664242E+000	1.4141280E-003	-9.4731766E-001	0
5.6571783E+002	8.262979810773686E+001	-9.4909495E-001	-1.677682555502365E+000	1.5922800E-003	-9.4931763E-001	0
5.0534201E+002	8.282979810268444E+001	-9.5110524E-001	-1.882102062727185E+000	1.7900771E-003	-9.5131761E-001	0
4.5406021E+002	8.302979809763201E+001	-9.5310915E-001	-2.099080991278687E+000	2.0006532E-003	-9.5331770E-001	0
4.0690030E+002	8.322979809257959E+001	-9.5509911E-001	-2.347255866324126E+000	2.2418620E-003	-9.5531768E-001	0
3.6640704E+002	8.342979808752716E+001	-9.5710528E-001	-2.612136603719515E+000	2.5000898E-003	-9.5731765E-001	0
3.3146420E+002	8.362979808247474E+001	-9.5912170E-001	-2.893590564072952E+000	2.7753054E-003	-9.5931762E-001	0
3.0024979E+002	8.382979807742231E+001	-9.6113217E-001	-3.201108695816687E+000	3.0766886E-003	-9.6131772E-001	0
2.7330685E+002	8.402979807236989E+001	-9.6311462E-001	-3.523931578578853E+000	3.3939499E-003	-9.6331769E-001	0
2.4906216E+002	8.422979806731746E+001	-9.6512485E-001	-3.875035868041110E+000	3.7398934E-003	-9.6531761E-001	0
2.2797511E+002	8.442979806226504E+001	-9.6713024E-001	-4.242262498963470E+000	4.1028205E-003	-9.6731764E-001	0
2.0920154E+002	8.462979805721261E+001	-9.6912539E-001	-4.632496496278151E+000	4.4894698E-003	-9.6931773E-001	0
1.9291112E+002	8.482979805216019E+001	-9.7109288E-001	-5.033887465085293E+000	4.8883725E-003	-9.7131759E-001	0
1.7773210E+002	8.502979804710776E+001	-9.7310495E-001	-5.475122309832599E+000	5.3278687E-003	-9.7331762E-001	0
1.6453334E+002	8.522979804205534E+001	-9.7511202E-001	-5.926531369757758E+000	5.7790321E-003	-9.7531766E-001	0
1.5273549E+002	8.542979803700291E+001	-9.7711325E-001	-6.397420848206568E+000	6.2510045E-003	-9.7731763E-001	0
1.4211021E+002	8.562979803195049E+001	-9.7911483E-001	-6.889827633525783E+000	6.7459326E-003	-9.7931767E-001	0
1.3263373E+002	8.582979802689806E+001	-9.8113030E-001	-7.397291030202609E+000	7.2577065E-003	-9.8131764E-001	0
1.2404344E+002	8.602979802184564E+001	-9.8312157E-001	-7.925623112254669E+000	7.7918512E-003	-9.8331761E-001	0
1.1619852E+002	8.622979801679321E+001	-9.8511791E-001	-8.477887274862127E+000	8.3517190E-003	-9.8531759E-001	0
1.0914275E+002	8.642979801174079E+001	-9.8712814E-001	-9.044377039214112E+000	8.9279590E-003	-9.8731768E-001	0
1.0274723E+002	8.662979800668836E+001	-9.8913246E-001	-9.626852755508708E+000	9.5222322E-003	-9.8931754E-001	0
9.6991432E+001	8.682979800163594E+001	-9.9113095E-001	-1.021874718547138E+001	1.0128116E-002	-9.9131763E-001	0
9.1325485E+001	8.703979799633089E+001	-9.9323320E-001	-1.087575018211294E+001	1.0802156E-002	-9.9341762E-001	0
8.6113121E+001	8.724979799102584E+001	-9.9529386E-001	-1.155798196306029E+001	1.1503588E-002	-9.9551767E-001	0
8.1754280E+001	8.744979798597342E+001	-9.9732393E-001	-1.219904200965854E+001	1.2166397E-002	-9.9751759E-001	0
7.7666458E+001	8.764979798092099E+001	-9.9933022E-001	-1.286694741857298E+001	1.2858329E-002	-9.9951756E-001	0
7.3925392E+001	8.784989797586604E+001	-1.0013183E+000	-1.354498441085656E+001	1.3562841E-002	-1.0015186E+000	0
7.0500420E+001	8.805009797080857E+001	-1.0033207E+000	-1.423141488430183E+001	1.4278673E-002	-1.0035205E+000	0
6.7266739E+001	8.825019796575361E+001	-1.0053458E+000	-1.494565995128781E+001	1.5025557E-002	-1.0055217E+000	0
6.4299225E+001	8.845019796070119E+001	-1.0073439E+000	-1.566650039700954E+001	1.5781553E-002	-1.0075216E+000	0
6.1543297E+001	8.865049795564119E+001	-1.0093417E+000	-1.640051408764350E+001	1.6553722E-002	-1.0095243E+000	0
5.8988888E+001	8.885059795058623E+001	-1.0113373E+000	-1.714453887169051E+001	1.7338911E-002	-1.0115256E+000	0
5.6555168E+001	8.905059794553381E+001	-1.0133621E+000	-1.791811542243377E+001	1.8157538E-002	-1.0135257E+000	0
5.4307213E+001	8.925069794047886E+001	-1.0153595E+000	-1.869658717631404E+001	1.8983757E-002	-1.0155265E+000	0
5.2190365E+001	8.945079793542391E+001	-1.0173670E+000	-1.949338685439011E+001	1.9831929E-002	-1.0175276E+000	0
5.0210423E+001	8.965089793036896E+001	-1.0193712E+000	-2.030198256302069E+001	2.0695256E-002	-1.0195284E+000	0
4.8356239E+001	8.985099792531400E+001	-1.0213689E+000	-2.112175998612059E+001	2.1573108E-002	-1.0215296E+000	0
4.6602531E+001	9.005119792025653E+001	-1.0233727E+000	-2.195959317624207E+001	2.2472847E-002	-1.0235312E+000	0
4.4882927E+001	9.025149791519652E+001	-1.0253594E+000	-2.284519889426662E+001	2.3424540E-002	-1.0255345E+000	0
4.3306019E+001	9.045159791014157E+001	-1.0273690E+000	-2.372346878916772E+001	2.4372756E-002	-1.0275357E+000	0
4.1799103E+001	9.065179790508410E+001	-1.0293717E+000	-2.462664699383447E+001	2.5349975E-002	-1.0295372E+000	0
4.0374264E+001	9.085219790002157E+001	-1.0313766E+000	-2.554539622751059E+001	2.6346924E-002	-1.0315411E+000	0
3.9038872E+001	9.105239789496409E+001	-1.0333790E+000	-2.647051191167765E+001	2.7354071E-002	-1.0335437E+000	0
3.7743755E+001	9.125239788991166E+001	-1.0353911E+000	-2.743211649226487E+001	2.8402969E-002	-1.0355437E+000	0
3.6523689E+001	9.145259788485419E+001	-1.0373832E+000	-2.840302434686490E+001	2.9464820E-002	-1.0375451E+000	0
3.5371296E+001	9.165279787979671E+001	-1.0393766E+000	-2.938474787254711E+001	3.0541820E-002	-1.0395477E+000	0
3.4248226E+001	9.185299787473923E+001	-1.0413661E+000	-3.040642465450662E+001	3.1664219E-002	-1.0415491E+000	0
3.3190285E+001	9.205339786967670E+001	-1.0433985E+000	-3.143686558417909E+001	3.2801177E-002	-1.0435531E+000	0
3.2205173E+001	9.225389786461164E+001	-1.0453951E+000	-3.246047132200090E+001	3.3934020E-002	-1.0455583E+000	0
3.1272305E+001	9.245439785954659E+001	-1.0474041E+000	-3.349302388723049E+001	3.5080727E-002	-1.0475631E+000	0
3.0352882E+001	9.265469785448659E+001	-1.0494032E+000	-3.457342816708234E+001	3.6281466E-002	-1.0495665E+000	0
2.9508545E+001	9.285479784943163E+001	-1.0514120E+000	-3.563076369562367E+001	3.7462611E-002	-1.0515677E+000	0
2.8673698E+001	9.305479784437921E+001	-1.0533968E+000	-3.673738960235846E+001	3.8699050E-002	-1.0535678E+000	0
2.7842497E+001	9.325479783932678E+001	-1.0554116E+000	-3.790649923959313E+001	4.0006958E-002	-1.0555676E+000	0
2.7095385E+001	9.345489783427183E+001	-1.0574085E+000	-3.902540717575050E+001	4.1265797E-002	-1.0575684E+000	0
2.6377563E+001	9.365529782920930E+001	-1.0594249E+000	-4.016386381518507E+001	4.2550597E-002	-1.0595721E+000	0
2.5682318E+001	9.385579782414425E+001	-1.0614401E+000	-4.132960791671132E+001	4.3868903E-002	-1.0615771E+000	0
2.5012278E+001	9.405619781908172E+001	-1.0634484E+000	-4.251705811061208E+001	4.5214698E-002	-1.0635812E+000	0
2.4424763E+001	9.425639781402424E+001	-1.0654327E+000	-4.362100249623487E+001	4.6475243E-002	-1.0655837E+000	0
2.3843122E+001	9.445639780897181E+001	-1.0674487E+000	-4.476967196318560E+001	4.7789332E-002	-1.0675837E+000	0
2.3290651E+001	9.465649780391686E+001	-1.0694344E+000	-4.591689428336804E+001	4.9105108E-002	-1.0695845E+000	0
2.2769148E+001	9.485659779886191E+001	-1.0714357E+000	-4.705646681055737E+001	5.0417978E-002	-1.0715857E+000	0
2.2281519E+001	9.505669779380696E+001	-1.0734285E+000	-4.817573398037302E+001	5.1713206E-002	-1.0735865E+000	0
2.1795549E+001	9.525709778874443E+001	-1.0754356E+000	-4.934198425569110E+001	5.3064127E-002	-1.0755900E+000	0
2.1238375E+001	9.545749778368190E+001	-1.0774490E+000	-5.073123384770065E+001	5.4660317E-002	-1.0775944E+000	0
2.0681026E+001	9.565769777862442E+001	-1.0794439E+000	-5.219489135744539E+001	5.6341458E-002	-1.0795964E+000	0
2.0241302E+001	9.585809777356189E+001	-1.0814611E+000	-5.342843083371247E+001	5.7780769E-002	-1.0816001E+000	0
1.9831701E+001	9.605839776850189E+001	-1.0834653E+000	-5.463300139022783E+001	5.9192963E-002	-1.0836037E+000	0
1.9430092E+001	9.625889776343683E+001	-1.0854739E+000	-5.586560614480686E+001	6.0640655E-002	-1.0856079E+000	0
1.9004639E+001	9.645939775837178E+001	-1.0874851E+000	-5.722208404731145E+001	6.2228162E-002	-1.0876131E+000	0
1.8600048E+001	9.665959775331430E+001	-1.0894730E+000	-5.857366722457289E+001	6.3814431E-002	-1.0896156E+000	0
1.8142218E+001	9.685969774825935E+001	-1.0914814E+000	-6.016251387885005E+001	6.5666266E-002	-1.0916166E+000	0
1.7763832E+001	9.705999774319935E+001	-1.0934614E+000	-6.155548705055480E+001	6.7308545E-002	-1.0936191E+000	0
1.7492300E+001	9.726019773814187E+001	-1.0954715E+000	-6.262592820948237E+001	6.8604916E-002	-1.0956217E+000	0
1.7206507E+001	9.746029773308692E+001	-1.0974728E+000	-6.378242663485344E+001	6.9999479E-002	-1.0976224E+000	0
1.6906349E+001	9.766039772803197E+001	-1.0994827E+000	-6.503371457880581E+001	7.1503438E-002	-1.0996236E+000	0
1.6575974E+001	9.786039772297954E+001	-1.1014749E+000	-6.645008652658930E+001	7.3193103E-002	-1.1016237E+000	0
1.6279690E+001	9.806059771792206E+001	-1.1034907E+000	-6.778327683128987E+001	7.4798219E-002	-1.1036254E+000	0
1.5952342E+001	9.826089771286206E+001	-1.1055050E+000	-6.930048275741223E+001	7.6612033E-002	-1.1056285E+000	0
1.5652308E+001	9.846109770780458E+001	-1.1074926E+000	-7.075586068103314E+001	7.8361593E-002	-1.1076304E+000	0
1.5416458E+001	9.866119770274963E+001	-1.1094974E+000	-7.196837436693295E+001	7.9848729E-002	-1.1096317E+000	0
1.5096005E+001	9.886119769769721E+001	-1.1114911E+000	-7.362816065239008E+001	8.1837043E-002	-1.1116316E+000	0
1.4880699E+001	9.906119769264478E+001	-1.1135176E+000	-7.482965878510433E+001	8.3324142E-002	-1.1136317E+000	0
1.4666883E+001	9.926129768758983E+001	-1.1155246E+000	-7.605737516046770E+001	8.4843874E-002	-1.1156325E+000	0
1.4383187E+001	9.946159768252983E+001	-1.1175404E+000	-7.769768576601797E+001	8.6830303E-002	-1.1176353E+000	0
1.4089113E+001	9.966179767747235E+001	-1.1195381E+000	-7.946121461213079E+001	8.8959858E-002	-1.1196377E+000	0
1.3886811E+001	9.986199767241487E+001	-1.1215556E+000	-8.076408408608107E+001	9.0581410E-002	-1.1216393E+000	0
1.3688206E+001	1.000623976673523E+002	-1.1235619E+000	-8.208248023902490E+001	9.2224747E-002	-1.1236435E+000	0
1.3453796E+001	1.002623976622999E+002	-1.1255472E+000	-8.366019229391532E+001	9.4163492E-002	-1.1256436E+000	0
1.3249254E+001	1.004625976572424E+002	-1.1275425E+000	-8.510233912314959E+001	9.5956504E-002	-1.1276451E+000	0
1.3077176E+001	1.006627976521850E+002	-1.1295562E+000	-8.637615712645834E+001	9.7566724E-002	-1.1296476E+000	0
1.2843433E+001	1.008630976471250E+002	-1.1315641E+000	-8.810449142124344E+001	9.9695884E-002	-1.1316503E+000	0
1.2631320E+001	1.010631976420700E+002	-1.1335584E+000	-8.974187760180121E+001	1.0172766E-001	-1.1336516E+000	0
1.2443368E+001	1.012631976370176E+002	-1.1355735E+000	-9.125933756958051E+001	1.0363168E-001	-1.1356516E+000	0
1.2229625E+001	1.014633976319601E+002	-1.1375719E+000	-9.301773033473270E+001	1.0581436E-001	-1.1376532E+000	0
1.2007446E+001	1.016636976269001E+002	-1.1395915E+000	-9.490706351779681E+001	1.0815528E-001	-1.1396565E+000	0
1.1765453E+001	1.018638976218426E+002	-1.1415498E+000	-9.702556914493471E+001	1.1075952E-001	-1.1416585E+000	0
1.1570409E+001	1.020639976167877E+002	-1.1435679E+000	-9.883556543888687E+001	1.1302518E-001	-1.1436597E+000	0
1.1391579E+001	1.022639976117352E+002	-1.1455793E+000	-1.005637046647449E+002	1.1520370E-001	-1.1456596E+000	0
1.1214186E+001	1.024639976066828E+002	-1.1475433E+000	-1.023296165423058E+002	1.1742767E-001	-1.1476597E+000	0
1.1012521E+001	1.026640976016279E+002	-1.1495762E+000	-1.043881030739985E+002	1.2000208E-001	-1.1496605E+000	0
1.0826085E+001	1.028641975965729E+002	-1.1515714E+000	-1.063700672450250E+002	1.2249272E-001	-1.1516616E+000	0
1.0666820E+001	1.030641975915205E+002	-1.1535754E+000	-1.081461501359398E+002	1.2475474E-001	-1.1536616E+000	0
1.0514260E+001	1.032741975862155E+002	-1.1556450E+000	-1.099121589232459E+002	1.2701944E-001	-1.1557616E+000	0
1.0300535E+001	1.034843975809054E+002	-1.1577456E+000	-1.123966461507455E+002	1.3012673E-001	-1.1578631E+000	0
1.0117270E+001	1.036845975758479E+002	-1.1597546E+000	-1.146311867383059E+002	1.3294405E-001	-1.1598656E+000	0
1.0010026E+001	1.038846975707929E+002	-1.1617410E+000	-1.160577465234956E+002	1.3482904E-001	-1.1618664E+000	0
9.9064093E+000	1.040847975657380E+002	-1.1637443E+000	-1.174738805137249E+002	1.3670956E-001	-1.1638676E+000	0
9.8019056E+000	1.042847975606855E+002	-1.1657529E+000	-1.189312551048606E+002	1.3864446E-001	-1.1658677E+000	0
9.6737127E+000	1.044849975556281E+002	-1.1677518E+000	-1.207139233690177E+002	1.4096390E-001	-1.1678691E+000	0
9.5750561E+000	1.046852975505681E+002	-1.1697576E+000	-1.221671750904942E+002	1.4290598E-001	-1.1698724E+000	0
9.4612064E+000	1.048854975455106E+002	-1.1717423E+000	-1.238470269517252E+002	1.4511681E-001	-1.1718744E+000	0
9.3824968E+000	1.050856975404531E+002	-1.1737657E+000	-1.251016366334970E+002	1.4684001E-001	-1.1738765E+000	0
9.2358274E+000	1.052857975353982E+002	-1.1757597E+000	-1.273042090647350E+002	1.4967915E-001	-1.1758777E+000	0
9.0446568E+000	1.054857975303457E+002	-1.1777695E+000	-1.302171580299496E+002	1.5336581E-001	-1.1778777E+000	0
8.8258810E+000	1.056857975252933E+002	-1.1797709E+000	-1.336717547981108E+002	1.5770206E-001	-1.1798776E+000	0
8.7077665E+000	1.058860975202333E+002	-1.1817833E+000	-1.357160017458218E+002	1.6038691E-001	-1.1818804E+000	0
8.5499668E+000	1.060861975151784E+002	-1.1837642E+000	-1.384524887100101E+002	1.6389510E-001	-1.1838816E+000	0
8.4787493E+000	1.062861975101259E+002	-1.1857687E+000	-1.398518474129050E+002	1.6583195E-001	-1.1858816E+000	0
8.3946981E+000	1.064864975050659E+002	-1.1877600E+000	-1.414893060550462E+002	1.6805534E-001	-1.1878843E+000	0
8.2616482E+000	1.066865975000110E+002	-1.1897802E+000	-1.440124490688181E+002	1.7134316E-001	-1.1898856E+000	0
8.1343822E+000	1.068865974949586E+002	-1.1917648E+000	-1.465095688199241E+002	1.7460495E-001	-1.1918856E+000	0
8.0766506E+000	1.070865974899061E+002	-1.1937783E+000	-1.478061086704399E+002	1.7644772E-001	-1.1938857E+000	0
7.9545093E+000	1.072866974848512E+002	-1.1957741E+000	-1.503265648680654E+002	1.7975661E-001	-1.1958865E+000	0
7.8195009E+000	1.074868974797937E+002	-1.1977727E+000	-1.531776414894263E+002	1.8347201E-001	-1.1978884E+000	0
7.7424560E+000	1.076869974747387E+002	-1.1997781E+000	-1.549609186406044E+002	1.8591872E-001	-1.1998897E+000	0
7.6250138E+000	1.078869974696863E+002	-1.2017709E+000	-1.576090106499171E+002	1.8940993E-001	-1.2018896E+000	0
7.4872661E+000	1.080869974646339E+002	-1.2037742E+000	-1.607761996792560E+002	1.9353825E-001	-1.2038896E+000	0
7.4085636E+000	1.082869974595815E+002	-1.2057822E+000	-1.627551886802897E+002	1.9624731E-001	-1.2058897E+000	0
7.3702593E+000	1.084870974545265E+002	-1.2077881E+000	-1.638732150100020E+002	1.9792412E-001	-1.2078905E+000	0
7.3240590E+000	1.086871974494716E+002	-1.2097933E+000	-1.651807218852223E+002	1.9983454E-001	-1.2098917E+000	0
7.2134809E+000	1.088872974444166E+002	-1.2117928E+000	-1.679900217468382E+002	2.0356910E-001	-1.2118925E+000	0
7.0885096E+000	1.090874974393591E+002	-1.2138045E+000	-1.712355039300542E+002	2.0784642E-001	-1.2138944E+000	0
7.0088706E+000	1.092875974343042E+002	-1.2158200E+000	-1.734687450283509E+002	2.1090676E-001	-1.2158957E+000	0
6.9030108E+000	1.094875974292518E+002	-1.2178072E+000	-1.764168074460795E+002	2.1484165E-001	-1.2178957E+000	0
6.7831998E+000	1.096875974241993E+002	-1.2198012E+000	-1.798268147185281E+002	2.1935296E-001	-1.2198957E+000	0
6.6684585E+000	1.098876974191444E+002	-1.2217847E+000	-1.832184627382651E+002	2.2385351E-001	-1.2218964E+000	0
6.5643735E+000	1.100877974140894E+002	-1.2237983E+000	-1.864303182452727E+002	2.2815309E-001	-1.2238976E+000	0
6.4551277E+000	1.102878974090345E+002	-1.2257861E+000	-1.898933945008353E+002	2.3276868E-001	-1.2258985E+000	0
6.3936586E+000	1.104880974039770E+002	-1.2278155E+000	-1.920364451412643E+002	2.3578532E-001	-1.2279005E+000	0
6.3280935E+000	1.106883973989170E+002	-1.2298094E+000	-1.943412248893910E+002	2.3900266E-001	-1.2299031E+000	0
6.2990818E+000	1.108885973938595E+002	-1.2318168E+000	-1.955549794627427E+002	2.4088791E-001	-1.2319057E+000	0
6.2411704E+000	1.110885973888071E+002	-1.2338126E+000	-1.976892920989294E+002	2.4391153E-001	-1.2339057E+000	0
6.1251411E+000	1.112887973837496E+002	-1.2358054E+000	-2.017594989822019E+002	2.4933548E-001	-1.2359072E+000	0
6.0750656E+000	1.114890973786896E+002	-1.2378238E+000	-2.037548148072510E+002	2.5221255E-001	-1.2379106E+000	0
6.0634837E+000	1.116891973736347E+002	-1.2398394E+000	-2.044764154006029E+002	2.5351793E-001	-1.2399117E+000	0
6.0059285E+000	1.118891973685822E+002	-1.2418292E+000	-2.067672298046466E+002	2.5676957E-001	-1.2419118E+000	0
5.8647509E+000	1.120892973635273E+002	-1.2438265E+000	-2.120851453346479E+002	2.6379713E-001	-1.2439125E+000	0
5.7694278E+000	1.122893973584723E+002	-1.2458392E+000	-2.159380973764014E+002	2.6902416E-001	-1.2459136E+000	0
5.6951079E+000	1.124893973534199E+002	-1.2478259E+000	-2.191048717715032E+002	2.7340472E-001	-1.2479136E+000	0
5.6476989E+000	1.126893973483675E+002	-1.2498281E+000	-2.212986418341295E+002	2.7658525E-001	-1.2499137E+000	0
5.6270795E+000	1.128894973433125E+002	-1.2518427E+000	-2.224675705942727E+002	2.7849442E-001	-1.2519146E+000	0
5.5920959E+000	1.130896973382551E+002	-1.2538549E+000	-2.242191396667376E+002	2.8113827E-001	-1.2539165E+000	0
5.5580716E+000	1.132897973332001E+002	-1.2558589E+000	-2.259522631963100E+002	2.8376415E-001	-1.2559177E+000	0
5.5400739E+000	1.134897973281477E+002	-1.2578449E+000	-2.270447986780110E+002	2.8558716E-001	-1.2579175E+000	0
5.4380054E+000	1.136897973230953E+002	-1.2598428E+000	-2.316736913343683E+002	2.9187241E-001	-1.2599176E+000	0
5.3604908E+000	1.138899973180378E+002	-1.2618492E+000	-2.353980664988062E+002	2.9703686E-001	-1.2619196E+000	0
5.2805128E+000	1.140899973129854E+002	-1.2638490E+000	-2.393421095352851E+002	3.0249229E-001	-1.2639197E+000	0
5.1513176E+000	1.142900973079304E+002	-1.2658556E+000	-2.457343161593344E+002	3.1106415E-001	-1.2659205E+000	0
5.1086845E+000	1.144902973028729E+002	-1.2678642E+000	-2.481782148709085E+002	3.1465629E-001	-1.2679225E+000	0
5.0609469E+000	1.146804972980681E+002	-1.2697718E+000	-2.508960932796699E+002	3.1858078E-001	-1.2698247E+000	0
5.0376229E+000	1.148604972935209E+002	-1.2715626E+000	-2.524132066256719E+002	3.2095918E-001	-1.2716243E+000	0
4.9960642E+000	1.150209972894663E+002	-1.2731589E+000	-2.548323716861346E+002	3.2444212E-001	-1.2732285E+000	0
4.9700513E+000	1.151513972861721E+002	-1.2744542E+000	-2.564267756331446E+002	3.2680419E-001	-1.2745326E+000	0
4.9438081E+000	1.153116972821226E+002	-1.2760843E+000	-2.581176936482598E+002	3.2937995E-001	-1.2761360E+000	0
4.8963432E+000	1.154522972785708E+002	-1.2774879E+000	-2.609065286612358E+002	3.3330491E-001	-1.2775419E+000	0
4.7888923E+000	1.155926972750240E+002	-1.2788792E+000	-2.670511421463821E+002	3.4152615E-001	-1.2789462E+000	0
4.7441096E+000	1.157431972712220E+002	-1.2804145E+000	-2.698956332946971E+002	3.4557828E-001	-1.2804509E+000	0
4.7622981E+000	1.159232972666723E+002	-1.2822136E+000	-2.692426041881599E+002	3.4522653E-001	-1.2822521E+000	0
4.7708693E+000	1.160935972623702E+002	-1.2839227E+000	-2.691171480329504E+002	3.4552562E-001	-1.2839549E+000	0
4.7511501E+000	1.162439972585707E+002	-1.2854078E+000	-2.705466692721729E+002	3.4776279E-001	-1.2854590E+000	0
4.7018104E+000	1.163945972547663E+002	-1.2869179E+000	-2.737069002687804E+002	3.5223833E-001	-1.2869648E+000	0
4.6587381E+000	1.165650972504591E+002	-1.2885944E+000	-2.765972935058921E+002	3.5642171E-001	-1.2886698E+000	0
4.6269288E+000	1.167054972469123E+002	-1.2899879E+000	-2.788000232129707E+002	3.5964867E-001	-1.2900732E+000	0
4.5833306E+000	1.168458972433655E+002	-1.2914157E+000	-2.817635780140924E+002	3.6387390E-001	-1.2914777E+000	0
4.5523605E+000	1.170264972388031E+002	-1.2932113E+000	-2.840748918527955E+002	3.6736888E-001	-1.2932837E+000	0
4.4761610E+000	1.172069972342433E+002	-1.2950338E+000	-2.893179713655354E+002	3.7467656E-001	-1.2950890E+000	0
4.4134502E+000	1.173775972299336E+002	-1.2967334E+000	-2.938139817812180E+002	3.8099840E-001	-1.2967950E+000	0
4.4239383E+000	1.175277972261392E+002	-1.2982510E+000	-2.934604845326726E+002	3.8098538E-001	-1.2982967E+000	0
4.4236302E+000	1.176879972220922E+002	-1.2998648E+000	-2.938457072524002E+002	3.8195968E-001	-1.2998995E+000	0
4.4289870E+000	1.178482972180427E+002	-1.3014538E+000	-2.938491082033952E+002	3.8243106E-001	-1.3015020E+000	0
4.3695173E+000	1.180085972139932E+002	-1.3030556E+000	-2.982150232604417E+002	3.8859078E-001	-1.3031050E+000	0
4.2883234E+000	1.181391972106940E+002	-1.3043361E+000	-3.041599093864056E+002	3.9672673E-001	-1.3044105E+000	0
4.2793069E+000	1.182894972068971E+002	-1.3058578E+000	-3.051563788110857E+002	3.9849082E-001	-1.3059142E+000	0
4.2888007E+000	1.184397972031002E+002	-1.3073667E+000	-3.048327055488994E+002	3.9852813E-001	-1.3074162E+000	0
4.3075471E+000	1.185700971998085E+002	-1.3086760E+000	-3.038100153962678E+002	3.9758888E-001	-1.3087200E+000	0
4.2914119E+000	1.187304971957565E+002	-1.3102803E+000	-3.053261513580983E+002	4.0006286E-001	-1.3103238E+000	0
4.2758946E+000	1.189111971911916E+002	-1.3120844E+000	-3.068561116300862E+002	4.0262112E-001	-1.3121312E+000	0
4.2617908E+000	1.190815971868869E+002	-1.3138000E+000	-3.082741802013625E+002	4.0501061E-001	-1.3138348E+000	0
4.2102251E+000	1.192523971825722E+002	-1.3154925E+000	-3.124518136308711E+002	4.1102803E-001	-1.3155428E+000	0
4.2166805E+000	1.194228971782650E+002	-1.3172053E+000	-3.123796706141375E+002	4.1146815E-001	-1.3172479E+000	0
4.2157335E+000	1.195733971744630E+002	-1.3187186E+000	-3.128088077449389E+002	4.1250679E-001	-1.3187526E+000	0
4.0839543E+000	1.197238971706611E+002	-1.3201925E+000	-3.232632893278915E+002	4.2676976E-001	-1.3202578E+000	0
4.0564699E+000	1.198642971671143E+002	-1.3216293E+000	-3.258077456373599E+002	4.3059707E-001	-1.3216621E+000	0
4.0711589E+000	1.200147971633123E+002	-1.3231311E+000	-3.250010756427878E+002	4.3001902E-001	-1.3231668E+000	0
4.0352373E+000	1.202051971585024E+002	-1.3250337E+000	-3.283657312231599E+002	4.3509564E-001	-1.3250711E+000	0
3.9944754E+000	1.203857971539401E+002	-1.3268439E+000	-3.321697369603908E+002	4.4073737E-001	-1.3268770E+000	0
3.9828863E+000	1.205365971501305E+002	-1.3283482E+000	-3.335139480885504E+002	4.4302264E-001	-1.3283848E+000	0
3.9969723E+000	1.206670971468338E+002	-1.3296570E+000	-3.326660317032738E+002	4.4233170E-001	-1.3296896E+000	0
3.9598556E+000	1.208172971430395E+002	-1.3311629E+000	-3.361645192602018E+002	4.4748974E-001	-1.3311921E+000	0
3.9235644E+000	1.209976971384822E+002	-1.3329756E+000	-3.397358814397767E+002	4.5285964E-001	-1.3329960E+000	0
3.9275239E+000	1.211581971344276E+002	-1.3345613E+000	-3.397971299080200E+002	4.5348012E-001	-1.3346009E+000	0
3.9264536E+000	1.213184971303781E+002	-1.3361608E+000	-3.402970922786878E+002	4.5469162E-001	-1.3362042E+000	0
3.9037251E+000	1.214587971268338E+002	-1.3375533E+000	-3.426351000778311E+002	4.5829269E-001	-1.3376064E+000	0
3.8756342E+000	1.216092971230319E+002	-1.3390784E+000	-3.455120714234026E+002	4.6266776E-001	-1.3391118E+000	0
3.8640749E+000	1.217898971184695E+002	-1.3409005E+000	-3.470172096959122E+002	4.6531555E-001	-1.3409179E+000	0
3.8397961E+000	1.219905971133994E+002	-1.3429126E+000	-3.497353926220421E+002	4.6966404E-001	-1.3429250E+000	0
3.8138320E+000	1.221608971090973E+002	-1.3446275E+000	-3.525660031205211E+002	4.7406995E-001	-1.3446282E+000	0
3.8274882E+000	1.223309971048002E+002	-1.3463237E+000	-3.517512512878488E+002	4.7357106E-001	-1.3463292E+000	0
3.8183899E+000	1.224912971007507E+002	-1.3479222E+000	-3.530080159746913E+002	4.7582734E-001	-1.3479317E+000	0
3.7908297E+000	1.226416970969512E+002	-1.3494312E+000	-3.559725072539525E+002	4.8036039E-001	-1.3494357E+000	0
3.7281053E+000	1.228222970923889E+002	-1.3512580E+000	-3.624516874664012E+002	4.8976576E-001	-1.3512421E+000	0
3.6939068E+000	1.229929970880767E+002	-1.3529667E+000	-3.662698550259238E+002	4.9555090E-001	-1.3529490E+000	0
3.6697686E+000	1.231333970845299E+002	-1.3543565E+000	-3.690577571533750E+002	4.9983579E-001	-1.3543530E+000	0
3.5950594E+000	1.233035970802302E+002	-1.3560549E+000	-3.771995746642651E+002	5.1150334E-001	-1.3560551E+000	0
3.5655577E+000	1.234740970759231E+002	-1.3577805E+000	-3.808045052320689E+002	5.1704890E-001	-1.3577603E+000	0
3.5552106E+000	1.236746970708555E+002	-1.3597724E+000	-3.824730963041502E+002	5.2007639E-001	-1.3597660E+000	0
3.5408409E+000	1.238450970665508E+002	-1.3614590E+000	-3.845016033162265E+002	5.2348316E-001	-1.3614700E+000	0
3.4851182E+000	1.239954970627514E+002	-1.3629811E+000	-3.910860472453105E+002	5.3304291E-001	-1.3629736E+000	0
3.4929283E+000	1.241362970591945E+002	-1.3643906E+000	-3.906151336262119E+002	5.3295159E-001	-1.3643818E+000	0
3.4951587E+000	1.242968970551374E+002	-1.3660116E+000	-3.908296567089760E+002	5.3387785E-001	-1.3659879E+000	0
3.4711595E+000	1.244774970505750E+002	-1.3678230E+000	-3.940536308270021E+002	5.3899562E-001	-1.3677939E+000	0
3.4331868E+000	1.246381970465154E+002	-1.3693973E+000	-3.988705971743138E+002	5.4621232E-001	-1.3694007E+000	0
3.3918843E+000	1.247886970427135E+002	-1.3709024E+000	-4.041713262508719E+002	5.5407947E-001	-1.3709059E+000	0
3.3901472E+000	1.249590970384088E+002	-1.3725998E+000	-4.048791141249008E+002	5.5573702E-001	-1.3726101E+000	0
3.2660291E+000	1.251393970338540E+002	-1.3744260E+000	-4.208247733965832E+002	5.7839251E-001	-1.3744131E+000	0
3.2916701E+000	1.253398970287890E+002	-1.3764434E+000	-4.181595698038982E+002	5.7557297E-001	-1.3764184E+000	0
3.3166745E+000	1.255302970239791E+002	-1.3783395E+000	-4.155787840435678E+002	5.7280868E-001	-1.3783219E+000	0
3.2790940E+000	1.257205970191717E+002	-1.3802317E+000	-4.209186135333148E+002	5.8096522E-001	-1.3802254E+000	0
3.2769413E+000	1.259205970141193E+002	-1.3822331E+000	-4.218058885371065E+002	5.8303410E-001	-1.3822254E+000	0
3.2900419E+000	1.261205970090668E+002	-1.3842199E+000	-4.207301797542459E+002	5.8238310E-001	-1.3842255E+000	0
3.2767682E+000	1.263205970040144E+002	-1.3862206E+000	-4.230450474096810E+002	5.8643377E-001	-1.3862255E+000	0
3.2719753E+000	1.265205969989620E+002	-1.3882061E+000	-4.242715867360421E+002	5.8897644E-001	-1.3882253E+000	0
3.2815554E+000	1.267205969939096E+002	-1.3902272E+000	-4.236488508583443E+002	5.8896816E-001	-1.3902255E+000	0
3.2756052E+000	1.269205969888571E+002	-1.3922173E+000	-4.250259832351931E+002	5.9172851E-001	-1.3922254E+000	0
3.1944194E+000	1.271205969838047E+002	-1.3942354E+000	-4.364597260049131E+002	6.0852760E-001	-1.3942255E+000	0
3.1313329E+000	1.273205969787523E+002	-1.3962504E+000	-4.458965045037967E+002	6.2258315E-001	-1.3962256E+000	0
3.1427524E+000	1.275205969736999E+002	-1.3982838E+000	-4.449233090839678E+002	6.2212908E-001	-1.3982254E+000	0
3.0842118E+000	1.277205969686474E+002	-1.4002682E+000	-4.540116874366115E+002	6.3573813E-001	-1.4002255E+000	0
3.0694532E+000	1.279205969635950E+002	-1.4022815E+000	-4.568505858682988E+002	6.4063311E-001	-1.4022254E+000	0
3.0739472E+000	1.281205969585426E+002	-1.4042990E+000	-4.568390290915559E+002	6.4153862E-001	-1.4042255E+000	0
3.0692163E+000	1.283205969534902E+002	-1.4062811E+000	-4.581889826067436E+002	6.4434254E-001	-1.4062256E+000	0
3.0256312E+000	1.285205969484377E+002	-1.4082816E+000	-4.654504935595451E+002	6.5548533E-001	-1.4082254E+000	0
3.0271471E+000	1.287205969433853E+002	-1.4102827E+000	-4.658785180721152E+002	6.5702045E-001	-1.4102255E+000	0
3.0149236E+000	1.289205969383329E+002	-1.4122772E+000	-4.684288493565164E+002	6.6155142E-001	-1.4122254E+000	0
3.0055397E+000	1.291205969332805E+002	-1.4142681E+000	-4.705538107683869E+002	6.6548926E-001	-1.4142255E+000	0
3.0149164E+000	1.293205969282280E+002	-1.4162759E+000	-4.697562531624776E+002	6.6530442E-001	-1.4162256E+000	0
2.9610763E+000	1.295205969231756E+002	-1.4182816E+000	-4.789750288619443E+002	6.7932147E-001	-1.4182254E+000	0
2.9551857E+000	1.297205969181232E+002	-1.4202709E+000	-4.806029398435917E+002	6.8258637E-001	-1.4202255E+000	0
2.9688673E+000	1.299205969130708E+002	-1.4222882E+000	-4.790676069281271E+002	6.8137217E-001	-1.4222254E+000	0
2.9924934E+000	1.301205969080183E+002	-1.4242723E+000	-4.759483352626528E+002	6.7788005E-001	-1.4242254E+000	0
2.9815438E+000	1.303205969029659E+002	-1.4262724E+000	-4.783670761947469E+002	6.8228173E-001	-1.4262255E+000	0
2.9532795E+000	1.305205968979135E+002	-1.4282663E+000	-4.836204433960156E+002	6.9073880E-001	-1.4282256E+000	0
2.9053886E+000	1.307205968928611E+002	-1.4302939E+000	-4.922900454333044E+002	7.0411944E-001	-1.4302254E+000	0
2.8313990E+000	1.309205968878086E+002	-1.4322814E+000	-5.058564118928114E+002	7.2452873E-001	-1.4322253E+000	0
2.8383982E+000	1.311205968827562E+002	-1.4342996E+000	-5.053200870219844E+002	7.2478038E-001	-1.4342254E+000	0
2.8108714E+000	1.313205968777038E+002	-1.4362872E+000	-5.109757799507506E+002	7.3390794E-001	-1.4362254E+000	0
2.7662072E+000	1.315205968726514E+002	-1.4388362E+000	-5.201476600067417E+002	7.4840730E-001	-1.4382254E+000	0
2.7820966E+000	1.317205968675989E+002	-1.4408718E+000	-5.179086331002009E+002	7.4623996E-001	-1.4402254E+000	0
2.7554238E+000	1.319205968625465E+002	-1.4428600E+000	-5.236436057793590E+002	7.5554442E-001	-1.4422255E+000	0
2.7547562E+000	1.321205968574941E+002	-1.4448609E+000	-5.244968290480354E+002	7.5782496E-001	-1.4442254E+000	0
2.7489851E+000	1.323205968524417E+002	-1.4468653E+000	-5.263271067958849E+002	7.6152444E-001	-1.4462254E+000	0
2.7084546E+000	1.325205968473892E+002	-1.4488885E+000	-5.349502719957018E+002	7.7508330E-001	-1.4482256E+000	0
2.7241936E+000	1.327205968423368E+002	-1.4508713E+000	-5.325874803806946E+002	7.7271593E-001	-1.4502255E+000	0
2.6998734E+000	1.329205968372844E+002	-1.4528747E+000	-5.381269635829831E+002	7.8183103E-001	-1.4522254E+000	0
2.7203238E+000	1.331205968322320E+002	-1.4548852E+000	-5.348205995970548E+002	7.7810258E-001	-1.4542254E+000	0
2.7279675E+000	1.333205968271795E+002	-1.4568616E+000	-5.340465578438198E+002	7.7803195E-001	-1.4562255E+000	0
2.7050331E+000	1.335205968221271E+002	-1.4588839E+000	-5.393220029212443E+002	7.8680819E-001	-1.4582255E+000	0
2.6633718E+000	1.337205968170747E+002	-1.4609023E+000	-5.485161140727347E+002	8.0132848E-001	-1.4602255E+000	0
2.6732972E+000	1.339205968120223E+002	-1.4629077E+000	-5.472297353895858E+002	8.0054659E-001	-1.4622254E+000	0
2.7102211E+000	1.341205968069698E+002	-1.4648936E+000	-5.405070700656252E+002	7.9178536E-001	-1.4642253E+000	0
2.6910243E+000	1.343205968019174E+002	-1.4669001E+000	-5.451084802891382E+002	7.9961967E-001	-1.4662254E+000	0
2.6201432E+000	1.345205967968650E+002	-1.4689111E+000	-5.606224155469281E+002	8.2350445E-001	-1.4682255E+000	0
2.6104047E+000	1.347205967918126E+002	-1.4709159E+000	-5.634819532338170E+002	8.2883459E-001	-1.4702253E+000	0
2.6006782E+000	1.349205967867601E+002	-1.4729125E+000	-5.663570955367322E+002	8.3419448E-001	-1.4722254E+000	0
2.5938849E+000	1.351205967817077E+002	-1.4748933E+000	-5.686040018907745E+002	8.3863026E-001	-1.4742255E+000	0
2.6070399E+000	1.353205967766553E+002	-1.4768972E+000	-5.665034997209114E+002	8.3666748E-001	-1.4762255E+000	0
2.5934007E+000	1.354305967738765E+002	-1.4780102E+000	-5.699119997608423E+002	8.4233576E-001	-1.4773252E+000	0
2.5806975E+000	1.354483967734268E+002	-1.4782242E+000	-5.728002431769128E+002	8.4672713E-001	-1.4775251E+000	1