EC-Lab ASCII FILE
Nb header lines : 61                          

Linear Sweep Voltammetry

Run on channel : 1 (SN 1340)
User : 
Electrode connection : standard
Potential control : Ewe
Ewe ctrl range : min = -5.00 V, max = 5.00 V
Ewe,I filtering : 50 kHz
Channel : Grounded
Acquisition started on : 02/26/2026 16:50:56.389
Technique started on : 02/26/2026 16:50:59.755
Loaded Setting File :  NONE
Saved on :
	File : Ni25Co25_2_26_02_LSV_C01.mpr
	Directory : C:\Users\volt\Documents\Platalytix\
	Host : 127.0.0.1
Device : SP-200 (SN 0262)
Address : USB
EC-LAB for windows v11.60 (software)
Internet server v11.60 (firmware)
Command interpretor v11.60 (firmware)
Electrode material : Ni25Co25
Initial state : 
Electrolyte : KOH (1M)
Comments : 
Cable : standard
Reference electrode : Hg/HgO (0.140 V)
Electrode surface area : 1.000 cm˛
Characteristic mass : 0.001 g
Equivalent Weight : 0.000 g/eq.
Density : 0.000 g/cm3
Volume (V) : 0.001 cmł
Cycle Definition : Charge/Discharge alternance
tR (h:m:s)          0:00:5.0000         
dER/dt (mV/h)       0.0                 
dER (mV)            0                   
dtR (s)             0.0000              
dE/dt               10.000              
dE/dt unit          mV/s                
Ei (V)              -0.200              
vs.                 Ref                 
EL (V)              -2.500              
vs.                 Ref                 
record              <I>                 
dI                  0.000               
unit dI             µA                  
tI (s)              0.0000              
step percent        50                  
N                   10                  
E range min (V)     -5.000              
E range max (V)     5.000               
I Range             Auto                
I Range min         Unset               
I Range max         Unset               
I Range init        Unset               
Bandwidth           8                   

Rwe/Ohm	time/s	Ewe/V	<I>/mA	Pwe/W	control/V	error	
0.0000000E+000	3.366400159866316E+000	-1.5236953E-001	0.000000000000000E+000	0.0000000E+000	0.0000000E+000	0
0.0000000E+000	8.366200033560744E+000	-7.2666742E-002	0.000000000000000E+000	0.0000000E+000	-1.9984813E-001	0
1.1497894E+003	8.506200030024047E+000	-2.0098871E-001	1.748047978491396E-001	-3.5133791E-005	-2.0114791E-001	0
6.4387939E+003	8.626200026992592E+000	-2.0214877E-001	-3.139543969100705E-002	6.3465495E-006	-2.0234796E-001	0
3.0760261E+003	8.836200021687546E+000	-2.0424891E-001	-6.640025141993183E-002	1.3562179E-005	-2.0444797E-001	0
2.9340146E+003	9.036200016635121E+000	-2.0625342E-001	-7.029734008951860E-002	1.4499067E-005	-2.0644794E-001	0
2.9441609E+003	9.236200011582696E+000	-2.0825540E-001	-7.073505987759549E-002	1.4730957E-005	-2.0844798E-001	0
2.9878748E+003	9.436200006530271E+000	-2.1025778E-001	-7.037034588538596E-002	1.4795913E-005	-2.1044795E-001	0
3.0442061E+003	9.636200001477846E+000	-2.1226801E-001	-6.972852984312350E-002	1.4801136E-005	-2.1244794E-001	0
3.1037939E+003	9.836199996425421E+000	-2.1425684E-001	-6.903062677464911E-002	1.4790284E-005	-2.1444798E-001	0
3.1641130E+003	1.003619999137300E+001	-2.1624801E-001	-6.834395957504563E-002	1.4779245E-005	-2.1644795E-001	0
3.2215183E+003	1.023619998632057E+001	-2.1825778E-001	-6.774997459238818E-002	1.4786960E-005	-2.1844795E-001	0
3.2803013E+003	1.043619998126815E+001	-2.2024556E-001	-6.714186686737345E-002	1.4787698E-005	-2.2044796E-001	0
3.3358354E+003	1.063619997621572E+001	-2.2227764E-001	-6.663327507754935E-002	1.4811088E-005	-2.2244796E-001	0
3.3936292E+003	1.083619997116330E+001	-2.2425266E-001	-6.608048271675027E-002	1.4818724E-005	-2.2444795E-001	0
3.4503179E+003	1.103619996611087E+001	-2.2627439E-001	-6.558073834355604E-002	1.4839241E-005	-2.2644795E-001	0
3.5022375E+003	1.123619996105845E+001	-2.2826697E-001	-6.517746813844494E-002	1.4877863E-005	-2.2844796E-001	0
3.5566106E+003	1.143619995600602E+001	-2.3025009E-001	-6.473862973058708E-002	1.4906075E-005	-2.3044795E-001	0
3.6069421E+003	1.163619995095360E+001	-2.3225588E-001	-6.439135202033500E-002	1.4955270E-005	-2.3244797E-001	0
3.6592400E+003	1.183619994590117E+001	-2.3426886E-001	-6.402117930259787E-002	1.4998169E-005	-2.3444796E-001	0
3.7100618E+003	1.203619994084875E+001	-2.3627043E-001	-6.368368923719020E-002	1.5046572E-005	-2.3644795E-001	0
3.7627097E+003	1.223619993579632E+001	-2.3825796E-001	-6.332084487082495E-002	1.5086695E-005	-2.3844796E-001	0
3.8118372E+003	1.243619993074390E+001	-2.4028666E-001	-6.303696981219398E-002	1.5146943E-005	-2.4044797E-001	0
3.8581360E+003	1.263619992569147E+001	-2.4226590E-001	-6.279350663302952E-002	1.5212725E-005	-2.4244796E-001	0
3.9070818E+003	1.283619992063905E+001	-2.4424855E-001	-6.251431874352209E-002	1.5269032E-005	-2.4444796E-001	0
3.9574019E+003	1.303619991558662E+001	-2.4627683E-001	-6.223194620808536E-002	1.5326286E-005	-2.4644798E-001	0
4.0025076E+003	1.323619991053420E+001	-2.4827011E-001	-6.202864147566445E-002	1.5399857E-005	-2.4844795E-001	0
4.0512468E+003	1.343619990548177E+001	-2.5025553E-001	-6.177247017928217E-002	1.5458902E-005	-2.5044796E-001	0
4.0981567E+003	1.363619990042935E+001	-2.5225729E-001	-6.155383779272428E-002	1.5527405E-005	-2.5244796E-001	0
4.1457192E+003	1.383619989537692E+001	-2.5425816E-001	-6.133028758740433E-002	1.5593725E-005	-2.5444794E-001	0
4.1923843E+003	1.403619989032450E+001	-2.5627714E-001	-6.112921428328155E-002	1.5666021E-005	-2.5644794E-001	0
4.2398535E+003	1.423619988527207E+001	-2.5826761E-001	-6.091427409761654E-002	1.5732185E-005	-2.5844797E-001	0
4.2836367E+003	1.443619988021965E+001	-2.6024795E-001	-6.075397433233676E-002	1.5811098E-005	-2.6044795E-001	0
4.3312808E+003	1.463619987516722E+001	-2.6223615E-001	-6.054471024679534E-002	1.5877011E-005	-2.6244795E-001	0
4.3765029E+003	1.483619987011480E+001	-2.6424932E-001	-6.037910152839121E-002	1.5955136E-005	-2.6444796E-001	0
4.4242017E+003	1.503619986506237E+001	-2.6624918E-001	-6.018016421840078E-002	1.6022919E-005	-2.6644796E-001	0
4.4695181E+003	1.523619986000995E+001	-2.6823503E-001	-6.001430615896763E-002	1.6097940E-005	-2.6844797E-001	0
4.5153047E+003	1.543619985495752E+001	-2.7023527E-001	-5.984873207425379E-002	1.6173239E-005	-2.7044794E-001	0
4.5599492E+003	1.563619984990510E+001	-2.7225974E-001	-5.970674786978558E-002	1.6255744E-005	-2.7244794E-001	0
4.6052563E+003	1.583619984485267E+001	-2.7425724E-001	-5.955308658871249E-002	1.6332866E-005	-2.7444795E-001	0
4.6480347E+003	1.603619983980025E+001	-2.7624524E-001	-5.943269464039469E-002	1.6417998E-005	-2.7644795E-001	0
4.6950718E+003	1.623619983474782E+001	-2.7823424E-001	-5.926091105164000E-002	1.6488415E-005	-2.7844796E-001	0
4.7414468E+003	1.643619982969540E+001	-2.8023833E-001	-5.910397109115206E-002	1.6563197E-005	-2.8044796E-001	0
4.7873740E+003	1.663619982464297E+001	-2.8223476E-001	-5.895398170296570E-002	1.6638864E-005	-2.8244793E-001	0
4.8285459E+003	1.683619981959055E+001	-2.8423885E-001	-5.886634465839186E-002	1.6732101E-005	-2.8444797E-001	0
4.8758662E+003	1.703619981453812E+001	-2.8622875E-001	-5.870315653605629E-002	1.6802531E-005	-2.8644797E-001	0
4.9210571E+003	1.723619980948570E+001	-2.8823051E-001	-5.857085385423183E-002	1.6881908E-005	-2.8844798E-001	0
4.9654385E+003	1.743619980443327E+001	-2.9024327E-001	-5.845269624274790E-002	1.6965501E-005	-2.9044795E-001	0
5.0107939E+003	1.763619979938085E+001	-2.9224014E-001	-5.832212224133859E-002	1.7044065E-005	-2.9244795E-001	0
5.0526685E+003	1.783619979432842E+001	-2.9424042E-001	-5.823465889106483E-002	1.7134989E-005	-2.9444796E-001	0
5.1007832E+003	1.803619978927600E+001	-2.9624748E-001	-5.807882335085579E-002	1.7205704E-005	-2.9644796E-001	0
5.1442378E+003	1.823619978422357E+001	-2.9824477E-001	-5.797647476848833E-002	1.7291180E-005	-2.9844797E-001	0
5.1892817E+003	1.843619977917115E+001	-3.0025059E-001	-5.785975715118041E-002	1.7372426E-005	-3.0044797E-001	0
5.2330151E+003	1.863619977411872E+001	-3.0225766E-001	-5.775974962021946E-002	1.7458327E-005	-3.0244794E-001	0
5.2804609E+003	1.883619976906630E+001	-3.0424216E-001	-5.761659274705588E-002	1.7529397E-005	-3.0444798E-001	0
5.3241069E+003	1.903619976401387E+001	-3.0626771E-001	-5.752471270875947E-002	1.7617962E-005	-3.0644795E-001	0
5.3685229E+003	1.923619975896145E+001	-3.0824634E-001	-5.741734647872088E-002	1.7698687E-005	-3.0844796E-001	0
5.4165610E+003	1.943619975390902E+001	-3.1025660E-001	-5.727925779859722E-002	1.7771268E-005	-3.1044796E-001	0
5.4583457E+003	1.963619974885660E+001	-3.1225091E-001	-5.720614397195090E-002	1.7862671E-005	-3.1244794E-001	0
5.5053799E+003	1.983619974380417E+001	-3.1424418E-001	-5.707947366138122E-002	1.7936893E-005	-3.1444797E-001	0
5.5486880E+003	2.003619973875175E+001	-3.1626120E-001	-5.699747638848729E-002	1.8026090E-005	-3.1644797E-001	0
5.5945049E+003	2.023619973369932E+001	-3.1824511E-001	-5.688530589768528E-002	1.8103470E-005	-3.1844798E-001	0
5.6412393E+003	2.043619972864690E+001	-3.2024157E-001	-5.676794476709984E-002	1.8179457E-005	-3.2044798E-001	0
5.6880176E+003	2.063619972359447E+001	-3.2224011E-001	-5.665244911786761E-002	1.8255692E-005	-3.2244799E-001	0
5.7307466E+003	2.083619971854205E+001	-3.2426524E-001	-5.658342105404057E-002	1.8348037E-005	-3.2444796E-001	0
5.7778711E+003	2.103619971348962E+001	-3.2624492E-001	-5.646455546739626E-002	1.8421275E-005	-3.2644796E-001	0
5.8246904E+003	2.123619970843720E+001	-3.2823288E-001	-5.635198693333865E-002	1.8496576E-005	-3.2844794E-001	0
5.8682197E+003	2.143619970338477E+001	-3.3024696E-001	-5.627719852112500E-002	1.8585373E-005	-3.3044797E-001	0
5.9130166E+003	2.163619969833235E+001	-3.3223554E-001	-5.618715014355158E-002	1.8667368E-005	-3.3244795E-001	0
5.9580229E+003	2.183619969327992E+001	-3.3425933E-001	-5.610238875013218E-002	1.8752748E-005	-3.3444795E-001	0
6.0067441E+003	2.203619968822750E+001	-3.3625624E-001	-5.597978256074754E-002	1.8823552E-005	-3.3644795E-001	0
6.0514814E+003	2.223619968317507E+001	-3.3824524E-001	-5.589461990034461E-002	1.8906090E-005	-3.3844796E-001	0
6.0988145E+003	2.243619967812265E+001	-3.4026825E-001	-5.579252409919810E-002	1.8984425E-005	-3.4044799E-001	0
6.1446709E+003	2.263619967307022E+001	-3.4222904E-001	-5.569525945101739E-002	1.9060535E-005	-3.4244797E-001	0
6.1875137E+003	2.283619966801780E+001	-3.4424013E-001	-5.563464542574215E-002	1.9151677E-005	-3.4444797E-001	0
6.2337422E+003	2.303619966296537E+001	-3.4622806E-001	-5.554096646503470E-002	1.9229841E-005	-3.4644794E-001	0
6.2788955E+003	2.323619965791295E+001	-3.4826377E-001	-5.546577111923523E-002	1.9316718E-005	-3.4844795E-001	0
6.3260347E+003	2.343619965286052E+001	-3.5024285E-001	-5.536530755804492E-002	1.9391304E-005	-3.5044798E-001	0
6.3759390E+003	2.363619964780810E+001	-3.5223591E-001	-5.524455361826400E-002	1.9459116E-005	-3.5244796E-001	0
6.4216240E+003	2.383619964275567E+001	-3.5423979E-001	-5.516358330801463E-002	1.9541136E-005	-3.5444796E-001	0
6.4644800E+003	2.403619963770325E+001	-3.5624918E-001	-5.510871676419815E-002	1.9632434E-005	-3.5644796E-001	0
6.5133916E+003	2.423619963265082E+001	-3.5825011E-001	-5.500208449448585E-002	1.9704503E-005	-3.5844797E-001	0
6.5573320E+003	2.443619962759840E+001	-3.6026037E-001	-5.494008280438217E-002	1.9792735E-005	-3.6044797E-001	0
6.6039468E+003	2.463619962254597E+001	-3.6223683E-001	-5.485156554804767E-002	1.9869258E-005	-3.6244798E-001	0
6.6484941E+003	2.483619961749355E+001	-3.6425596E-001	-5.478773795885550E-002	1.9956760E-005	-3.6444795E-001	0
6.6992568E+003	2.503619961244112E+001	-3.6623970E-001	-5.466870480278274E-002	2.0021849E-005	-3.6644799E-001	0
6.7472197E+003	2.523619960738870E+001	-3.6824548E-001	-5.457736669708047E-002	2.0097868E-005	-3.6844796E-001	0
6.7933213E+003	2.543619960233627E+001	-3.7024108E-001	-5.450074607770372E-002	2.0178415E-005	-3.7044799E-001	0
6.8371318E+003	2.563619959728385E+001	-3.7223455E-001	-5.444308442260032E-002	2.0265597E-005	-3.7244797E-001	0
6.8893760E+003	2.583619959223142E+001	-3.7423587E-001	-5.432072133058141E-002	2.0328762E-005	-3.7444797E-001	0
6.9350933E+003	2.603619958717900E+001	-3.7623191E-001	-5.425044768141474E-002	2.0410749E-005	-3.7644798E-001	0
6.9812935E+003	2.623619958212657E+001	-3.7823728E-001	-5.417868004934401E-002	2.0492396E-005	-3.7844798E-001	0
7.0278687E+003	2.643619957707415E+001	-3.8023478E-001	-5.410385344181712E-002	2.0572166E-005	-3.8044795E-001	0
7.0774575E+003	2.663619957202172E+001	-3.8222590E-001	-5.400610500693226E-002	2.0642532E-005	-3.8244799E-001	0
7.1228950E+003	2.683619956696930E+001	-3.8423488E-001	-5.394364021034259E-002	2.0727028E-005	-3.8444796E-001	0
7.1699243E+003	2.703619956191687E+001	-3.8623878E-001	-5.386929537007018E-002	2.0806410E-005	-3.8644794E-001	0
7.2180254E+003	2.723619955686445E+001	-3.8825327E-001	-5.378940193269777E-002	2.0883912E-005	-3.8844797E-001	0
7.2632993E+003	2.743619955181202E+001	-3.9025310E-001	-5.372945340762070E-002	2.0968086E-005	-3.9044794E-001	0
7.3093486E+003	2.763619954675960E+001	-3.9224255E-001	-5.366313185166904E-002	2.1048963E-005	-3.9244798E-001	0
7.3570713E+003	2.783619954170717E+001	-3.9423963E-001	-5.358649229962387E-002	2.1125919E-005	-3.9444801E-001	0
7.4020229E+003	2.803619953665475E+001	-3.9624074E-001	-5.353141063613098E-002	2.1211326E-005	-3.9644799E-001	0
7.4510122E+003	2.823619953160232E+001	-3.9823976E-001	-5.344774026071009E-002	2.1285015E-005	-3.9844799E-001	0
7.4981392E+003	2.843619952654990E+001	-4.0023050E-001	-5.337731008599533E-002	2.1363227E-005	-4.0044799E-001	0
7.5480708E+003	2.863619952149747E+001	-4.0223816E-001	-5.329019586447942E-002	2.1435349E-005	-4.0244800E-001	0
7.5864380E+003	2.883619951644505E+001	-4.0424567E-001	-5.328530506199225E-002	2.1540354E-005	-4.0444797E-001	0
7.6370117E+003	2.903619951139262E+001	-4.0624568E-001	-5.319432389147383E-002	2.1609963E-005	-4.0644801E-001	0
7.6866011E+003	2.923619950634020E+001	-4.0823746E-001	-5.311026850392170E-002	2.1681601E-005	-4.0844798E-001	0
7.7364609E+003	2.943619950128777E+001	-4.1023716E-001	-5.302646305452186E-002	2.1753425E-005	-4.1044801E-001	0
7.7783770E+003	2.963619949623535E+001	-4.1226414E-001	-5.300130534340619E-002	2.1850537E-005	-4.1244799E-001	0
7.8276865E+003	2.983619949118292E+001	-4.1428480E-001	-5.292557476747300E-002	2.1926260E-005	-4.1444796E-001	0
7.8788931E+003	3.003619948613050E+001	-4.1627952E-001	-5.283477349690413E-002	2.1994034E-005	-4.1644800E-001	0
7.9173892E+003	3.023619948107807E+001	-4.1829488E-001	-5.283242696157053E-002	2.2099533E-005	-4.1844794E-001	0
7.9724390E+003	3.043619947602565E+001	-4.2026585E-001	-5.271484137115712E-002	2.2154249E-005	-4.2044801E-001	0
8.0231504E+003	3.063619947097322E+001	-4.2225954E-001	-5.263014074706379E-002	2.2223579E-005	-4.2244801E-001	0
8.0640752E+003	3.083619946592080E+001	-4.2428443E-001	-5.261414647028451E-002	2.2323364E-005	-4.2444801E-001	0
8.1161108E+003	3.103619946086837E+001	-4.2628488E-001	-5.252329398066968E-002	2.2389886E-005	-4.2644796E-001	0
8.1597109E+003	3.123619945581595E+001	-4.2829239E-001	-5.248867339389108E-002	2.2480499E-005	-4.2844799E-001	0
8.2108223E+003	3.143619945076352E+001	-4.3027931E-001	-5.240392690427301E-002	2.2548325E-005	-4.3044803E-001	0
8.2592881E+003	3.163619944571110E+001	-4.3228123E-001	-5.233879869406766E-002	2.2625080E-005	-4.3244800E-001	0
8.3113770E+003	3.183619944065867E+001	-4.3426964E-001	-5.225002030364739E-002	2.2690598E-005	-4.3444797E-001	0
8.3522539E+003	3.203619943560625E+001	-4.3629643E-001	-5.223696966879404E-002	2.2790804E-005	-4.3644801E-001	0
8.4038174E+003	3.223619943055382E+001	-4.3828371E-001	-5.215293326776238E-002	2.2857781E-005	-4.3844795E-001	0
8.4502139E+003	3.243619942550140E+001	-4.4028378E-001	-5.210327158646133E-002	2.2940225E-005	-4.4044799E-001	0
8.5050146E+003	3.263619942044897E+001	-4.4227752E-001	-5.200196918925859E-002	2.2999302E-005	-4.4244799E-001	0
8.5516162E+003	3.283619941539655E+001	-4.4428775E-001	-5.195365828364786E-002	2.3082373E-005	-4.4444799E-001	0
8.5991631E+003	3.303619941034412E+001	-4.4628465E-001	-5.189861219836678E-002	2.3161554E-005	-4.4644797E-001	0
8.6536885E+003	3.323619940529170E+001	-4.4827217E-001	-5.180128360992875E-002	2.3221073E-005	-4.4844800E-001	0
8.6934160E+003	3.343619940023927E+001	-4.5029086E-001	-5.179676905700992E-002	2.3323611E-005	-4.5044804E-001	0
8.7439053E+003	3.363619939518685E+001	-4.5229942E-001	-5.172738933232535E-002	2.3396267E-005	-4.5244798E-001	0
8.7918799E+003	3.383619939013442E+001	-4.5427722E-001	-5.167009091995201E-002	2.3472545E-005	-4.5444798E-001	0
8.8446328E+003	3.403619938508200E+001	-4.5626494E-001	-5.158664822333447E-002	2.3537179E-005	-4.5644802E-001	0
8.8938584E+003	3.423619938002958E+001	-4.5828387E-001	-5.152812853292943E-002	2.3614510E-005	-4.5844799E-001	0
8.9405957E+003	3.443619937497715E+001	-4.6028545E-001	-5.148263703113054E-002	2.3696710E-005	-4.6044800E-001	0
8.9981318E+003	3.463619936992473E+001	-4.6228948E-001	-5.137616430109371E-002	2.3750661E-005	-4.6244800E-001	0
9.0354473E+003	3.483619936487230E+001	-4.6427473E-001	-5.138370363820999E-002	2.3856155E-005	-4.6444800E-001	0
9.0901738E+003	3.503619935981988E+001	-4.6627855E-001	-5.129478714120506E-002	2.3917659E-005	-4.6644798E-001	0
9.1434463E+003	3.523619935476745E+001	-4.6826130E-001	-5.121277891787901E-002	2.3980963E-005	-4.6844795E-001	0
9.1896182E+003	3.543619934971503E+001	-4.7029123E-001	-5.117636054697217E-002	2.4067793E-005	-4.7044799E-001	0
9.2378994E+003	3.563619934466260E+001	-4.7225583E-001	-5.112156190786937E-002	2.4142455E-005	-4.7244802E-001	0
9.2831387E+003	3.583619933961018E+001	-4.7425297E-001	-5.108756738579734E-002	2.4228431E-005	-4.7444797E-001	0
9.3343369E+003	3.603619933455775E+001	-4.7627613E-001	-5.102410044071282E-002	2.4301560E-005	-4.7644800E-001	0
9.3823154E+003	3.623619932950533E+001	-4.7826430E-001	-5.097508164547182E-002	2.4379562E-005	-4.7844800E-001	0
9.4303945E+003	3.643619932445290E+001	-4.8025206E-001	-5.092597974816948E-002	2.4457306E-005	-4.8044795E-001	0
9.4749902E+003	3.663619931940048E+001	-4.8227522E-001	-5.089981246279252E-002	2.4547719E-005	-4.8244798E-001	0
9.5264727E+003	3.683619931434805E+001	-4.8426488E-001	-5.083359841757851E-002	2.4616926E-005	-4.8444802E-001	0
9.5772705E+003	3.703619930929563E+001	-4.8625842E-001	-5.077212962718969E-002	2.4688376E-005	-4.8644802E-001	0
9.6295781E+003	3.723619930424320E+001	-4.8826271E-001	-5.070447600805700E-002	2.4757104E-005	-4.8844796E-001	0
9.6691055E+003	3.743619929919078E+001	-4.9026489E-001	-5.070426687651041E-002	2.4858522E-005	-4.9044800E-001	0
9.7150742E+003	3.763619929413835E+001	-4.9227762E-001	-5.067152206895803E-002	2.4944457E-005	-4.9244803E-001	0
9.7640371E+003	3.783619928908593E+001	-4.9426836E-001	-5.062131170139056E-002	2.5020512E-005	-4.9444798E-001	0
9.8180547E+003	3.803619928403350E+001	-4.9627754E-001	-5.054744030718539E-002	2.5085559E-005	-4.9644798E-001	0
9.8602197E+003	3.823619927898108E+001	-4.9827418E-001	-5.053377931603917E-002	2.5179677E-005	-4.9844801E-001	0
9.9181719E+003	3.843619927392865E+001	-5.0028425E-001	-5.044117542416654E-002	2.5234925E-005	-5.0044805E-001	0
9.9638154E+003	3.863619926887623E+001	-5.0228494E-001	-5.041090528060432E-002	2.5320638E-005	-5.0244796E-001	0
1.0005422E+004	3.883619926382380E+001	-5.0426781E-001	-5.039945308619581E-002	2.5414822E-005	-5.0444806E-001	0
1.0059347E+004	3.903619925877138E+001	-5.0626326E-001	-5.032764973864357E-002	2.5479039E-005	-5.0644797E-001	0
1.0102836E+004	3.923619925371895E+001	-5.0826198E-001	-5.030884369289157E-002	2.5570072E-005	-5.0844795E-001	0
1.0150809E+004	3.943619924866653E+001	-5.1027501E-001	-5.026939386066887E-002	2.5651216E-005	-5.1044804E-001	0
1.0202571E+004	3.963619924361410E+001	-5.1226938E-001	-5.020983299069393E-002	2.5720959E-005	-5.1244801E-001	0
1.0243027E+004	3.983619923856168E+001	-5.1426953E-001	-5.020679195217206E-002	2.5819823E-005	-5.1444799E-001	0
1.0293915E+004	4.003619923350925E+001	-5.1627767E-001	-5.015367503772106E-002	2.5893223E-005	-5.1644796E-001	0
1.0335473E+004	4.023619922845683E+001	-5.1826316E-001	-5.014411862749513E-002	2.5987849E-005	-5.1844800E-001	0
1.0393187E+004	4.043619922340440E+001	-5.2028292E-001	-5.005999876433354E-002	2.6045362E-005	-5.2044803E-001	0
1.0435636E+004	4.063619921835198E+001	-5.2226752E-001	-5.004654572421341E-002	2.6137684E-005	-5.2244794E-001	0
1.0484354E+004	4.083619921329955E+001	-5.2428108E-001	-5.000604914138085E-002	2.6217225E-005	-5.2444798E-001	0
1.0529225E+004	4.103619920824713E+001	-5.2627355E-001	-4.998217357265555E-002	2.6304297E-005	-5.2644801E-001	0
1.0574965E+004	4.123619920319470E+001	-5.2827591E-001	-4.995533286027909E-002	2.6390198E-005	-5.2844799E-001	0
1.0623222E+004	4.143619919814228E+001	-5.3028125E-001	-4.991717896711434E-002	2.6470143E-005	-5.3044802E-001	0
1.0674368E+004	4.163619919308985E+001	-5.3229046E-001	-4.986622801067431E-002	2.6543317E-005	-5.3244799E-001	0
1.0716505E+004	4.183619918803743E+001	-5.3427273E-001	-4.985512965496064E-002	2.6636237E-005	-5.3444809E-001	0
1.0765072E+004	4.203619918298500E+001	-5.3625470E-001	-4.981431640661349E-002	2.6713162E-005	-5.3644800E-001	0
1.0813223E+004	4.223619917793258E+001	-5.3828722E-001	-4.978046055868379E-002	2.6796186E-005	-5.3844798E-001	0
1.0858025E+004	4.243619917288015E+001	-5.4028642E-001	-4.975917903271398E-002	2.6884209E-005	-5.4044807E-001	0
1.0907515E+004	4.263619916782773E+001	-5.4228222E-001	-4.971638789544086E-002	2.6960313E-005	-5.4244792E-001	0
1.0950699E+004	4.283619916277530E+001	-5.4428041E-001	-4.970279748312931E-002	2.7052260E-005	-5.4444802E-001	0
1.1001230E+004	4.303619915772288E+001	-5.4628706E-001	-4.965690639326148E-002	2.7126925E-005	-5.4644805E-001	0
1.1046400E+004	4.323619915267045E+001	-5.4826927E-001	-4.963329777727621E-002	2.7212413E-005	-5.4844803E-001	0
1.1085014E+004	4.343619914761803E+001	-5.5027634E-001	-4.964146516528722E-002	2.7316524E-005	-5.5044800E-001	0
1.1137569E+004	4.363619914256560E+001	-5.5228782E-001	-4.958782416911989E-002	2.7386752E-005	-5.5244797E-001	0
1.1180793E+004	4.383619913751318E+001	-5.5428660E-001	-4.957489187347686E-002	2.7478698E-005	-5.5444807E-001	0
1.1222243E+004	4.403619913246075E+001	-5.5628413E-001	-4.956978113420057E-002	2.7574883E-005	-5.5644792E-001	0
1.1269873E+004	4.423619912740833E+001	-5.5828506E-001	-4.953782884889812E-002	2.7656230E-005	-5.5844796E-001	0
1.1315315E+004	4.443619912235590E+001	-5.6027174E-001	-4.951446264868198E-002	2.7741555E-005	-5.6044805E-001	0
1.1351739E+004	4.463619911730348E+001	-5.6227773E-001	-4.953230035337142E-002	2.7850909E-005	-5.6244797E-001	0
1.1391755E+004	4.483619911225105E+001	-5.6427670E-001	-4.953378194926183E-002	2.7950759E-005	-5.6444800E-001	0
1.1438554E+004	4.503619910719863E+001	-5.6627673E-001	-4.950597102948093E-002	2.8034079E-005	-5.6644797E-001	0
1.1475284E+004	4.523619910214620E+001	-5.6827664E-001	-4.952179156866798E-002	2.8142078E-005	-5.6844807E-001	0
1.1517346E+004	4.543619909709378E+001	-5.7026416E-001	-4.951350579815439E-002	2.8235778E-005	-5.7044798E-001	0
1.1544951E+004	4.563619909204135E+001	-5.7228357E-001	-4.957002948477529E-002	2.8368113E-005	-5.7244802E-001	0
1.1601377E+004	4.583619908698893E+001	-5.7425177E-001	-4.949858536850882E-002	2.8424651E-005	-5.7444805E-001	0
1.1632753E+004	4.603619908193650E+001	-5.7625943E-001	-4.953766620956578E-002	2.8546547E-005	-5.7644796E-001	0
1.1672400E+004	4.623619907688408E+001	-5.7824975E-001	-4.953991816708581E-002	2.8646446E-005	-5.7844800E-001	0
1.1710854E+004	4.643619907183165E+001	-5.8026809E-001	-4.954959269953019E-002	2.8752047E-005	-5.8044803E-001	0
1.1751571E+004	4.663619906677923E+001	-5.8226550E-001	-4.954788239003305E-002	2.8850023E-005	-5.8244801E-001	0
1.1794066E+004	4.683619906172680E+001	-5.8426070E-001	-4.953852977525536E-002	2.8943416E-005	-5.8444798E-001	0
1.1826925E+004	4.703619905667438E+001	-5.8626378E-001	-4.957026310841595E-002	2.9061250E-005	-5.8644801E-001	0
1.1862532E+004	4.723619905162195E+001	-5.8826637E-001	-4.959028790485287E-002	2.9172299E-005	-5.8844805E-001	0
1.1902398E+004	4.743619904656953E+001	-5.9026939E-001	-4.959247498498487E-002	2.9272920E-005	-5.9044796E-001	0
1.1945521E+004	4.763619904151710E+001	-5.9224999E-001	-4.957925285953968E-002	2.9363311E-005	-5.9244794E-001	0
1.1984550E+004	4.783619903646468E+001	-5.9428120E-001	-4.958727681806596E-002	2.9468787E-005	-5.9444803E-001	0
1.2021017E+004	4.803619903141225E+001	-5.9626782E-001	-4.960211389222921E-002	2.9576144E-005	-5.9644800E-001	0
1.2063399E+004	4.823619902635983E+001	-5.9824783E-001	-4.959197598562315E-002	2.9668292E-005	-5.9844798E-001	0
1.2095234E+004	4.843619902130740E+001	-6.0024732E-001	-4.962676186262382E-002	2.9788331E-005	-6.0044801E-001	0
1.2136301E+004	4.863619901625498E+001	-6.0225207E-001	-4.962402202459274E-002	2.9886171E-005	-6.0244805E-001	0
1.2169519E+004	4.883619901120255E+001	-6.0427612E-001	-4.965489305283394E-002	3.0005267E-005	-6.0444796E-001	0
1.2206214E+004	4.903619900615013E+001	-6.0624439E-001	-4.966686596743392E-002	3.0110259E-005	-6.0644799E-001	0
1.2240540E+004	4.923619900109770E+001	-6.0827607E-001	-4.969356407341707E-002	3.0227406E-005	-6.0844803E-001	0
1.2271327E+004	4.943619899604528E+001	-6.1024833E-001	-4.972961177529940E-002	3.0347412E-005	-6.1044800E-001	0
1.2307440E+004	4.963619899099285E+001	-6.1226285E-001	-4.974737411994233E-002	3.0458468E-005	-6.1244798E-001	0
1.2340416E+004	4.983619898594043E+001	-6.1427855E-001	-4.977778255698723E-002	3.0577423E-005	-6.1444801E-001	0
1.2366683E+004	5.003619898088800E+001	-6.1625850E-001	-4.983216034915794E-002	3.0709492E-005	-6.1644804E-001	0
1.2407258E+004	5.023619897583558E+001	-6.1827826E-001	-4.983198527635313E-002	3.0810032E-005	-6.1844802E-001	0
1.2432499E+004	5.043619897078315E+001	-6.2027240E-001	-4.989120746379848E-002	3.0946139E-005	-6.2044799E-001	0
1.2464957E+004	5.063619896573073E+001	-6.2228113E-001	-4.992244402717456E-002	3.1065796E-005	-6.2244803E-001	0
1.2485245E+004	5.083619896067830E+001	-6.2427968E-001	-5.000139442230253E-002	3.1214855E-005	-6.2444806E-001	0
1.2518105E+004	5.103619895562588E+001	-6.2628442E-001	-5.003028736363183E-002	3.1333191E-005	-6.2644798E-001	0
1.2542625E+004	5.123619895057345E+001	-6.2827533E-001	-5.009121445636948E-002	3.1471074E-005	-6.2844801E-001	0
1.2562065E+004	5.143619894552103E+001	-6.3027668E-001	-5.017301530256241E-002	3.1622880E-005	-6.3044804E-001	0
1.2588999E+004	5.163619894046860E+001	-6.3228840E-001	-5.022547200328487E-002	3.1756983E-005	-6.3244796E-001	0
1.2608752E+004	5.183619893541618E+001	-6.3428122E-001	-5.030483933104390E-002	3.1907413E-005	-6.3444799E-001	0
1.2645818E+004	5.203619893036375E+001	-6.3627881E-001	-5.031535347402011E-002	3.2014592E-005	-6.3644809E-001	0
1.2668561E+004	5.223619892531133E+001	-6.3829172E-001	-5.038391750531868E-002	3.2159638E-005	-6.3844806E-001	0
1.2681978E+004	5.243619892025890E+001	-6.4028651E-001	-5.048790657808361E-002	3.2326727E-005	-6.4044797E-001	0
1.2703616E+004	5.263619891520648E+001	-6.4229655E-001	-5.056013429987227E-002	3.2474600E-005	-6.4244801E-001	0
1.2725399E+004	5.283619891015405E+001	-6.4429390E-001	-5.063054560421820E-002	3.2620952E-005	-6.4444804E-001	0
1.2744297E+004	5.303619890510163E+001	-6.4629543E-001	-5.071252238537580E-002	3.2775271E-005	-6.4644796E-001	0
1.2763187E+004	5.323619890004920E+001	-6.4829290E-001	-5.079396938073066E-002	3.2929369E-005	-6.4844799E-001	0
1.2778751E+004	5.343619889499678E+001	-6.5029734E-001	-5.088895780420866E-002	3.3092954E-005	-6.5044808E-001	0
1.2791726E+004	5.363619888994435E+001	-6.5229124E-001	-5.099321601969414E-002	3.3262429E-005	-6.5244794E-001	0
1.2816234E+004	5.383619888489193E+001	-6.5428752E-001	-5.105146272276917E-002	3.3402335E-005	-6.5444803E-001	0
1.2823171E+004	5.403619887983950E+001	-6.5629327E-001	-5.118026575517073E-002	3.3589266E-005	-6.5644801E-001	0
1.2835569E+004	5.423619887478708E+001	-6.5829736E-001	-5.128696304693148E-002	3.3762073E-005	-6.5844804E-001	0
1.2849521E+004	5.443619886973465E+001	-6.6030109E-001	-5.138721497720966E-002	3.3931035E-005	-6.6044796E-001	0
1.2864171E+004	5.463619886468223E+001	-6.6229731E-001	-5.148387115074937E-002	3.4097629E-005	-6.6244799E-001	0
1.2860388E+004	5.483619885962980E+001	-6.6429162E-001	-5.165409045600122E-002	3.4313380E-005	-6.6444808E-001	0
1.2873271E+004	5.503619885457738E+001	-6.6629189E-001	-5.175777628242773E-002	3.4485787E-005	-6.6644794E-001	0
1.2882547E+004	5.523619884952495E+001	-6.6829008E-001	-5.187561847174504E-002	3.4667963E-005	-6.6844797E-001	0
1.2891990E+004	5.543619884447253E+001	-6.7027968E-001	-5.199194940064733E-002	3.4849149E-005	-6.7044806E-001	0
1.2901839E+004	5.563619883942010E+001	-6.7226046E-001	-5.210578741395866E-002	3.5028661E-005	-6.7244798E-001	0
1.2899461E+004	5.583619883436768E+001	-6.7426604E-001	-5.227086836337014E-002	3.5244473E-005	-6.7444795E-001	0
1.2904930E+004	5.603619882931525E+001	-6.7628282E-001	-5.240499901864049E-002	3.5440600E-005	-6.7644799E-001	0
1.2905321E+004	5.623619882426283E+001	-6.7827588E-001	-5.255784450390300E-002	3.5648718E-005	-6.7844808E-001	0
1.2900003E+004	5.643619881921040E+001	-6.8028677E-001	-5.273539598296281E-002	3.5875193E-005	-6.8044800E-001	0
1.2903830E+004	5.663619881415798E+001	-6.8228573E-001	-5.287466880331099E-002	3.6075631E-005	-6.8244797E-001	0
1.2903524E+004	5.683619880910555E+001	-6.8428242E-001	-5.303066193026873E-002	3.6287951E-005	-6.8444806E-001	0
1.2906178E+004	5.703619880405313E+001	-6.8628228E-001	-5.317470973490579E-002	3.6492860E-005	-6.8644798E-001	0
1.2902247E+004	5.723619879900070E+001	-6.8826813E-001	-5.334482574201860E-002	3.6715544E-005	-6.8844801E-001	0
1.2889711E+004	5.743619879394828E+001	-6.9026607E-001	-5.355171068590517E-002	3.6964928E-005	-6.9044799E-001	0
1.2891336E+004	5.763619878889585E+001	-6.9226104E-001	-5.369971130653584E-002	3.7174217E-005	-6.9244802E-001	0
1.2885534E+004	5.783619878384343E+001	-6.9427741E-001	-5.388037636221454E-002	3.7407928E-005	-6.9444799E-001	0
1.2883179E+004	5.803619877879100E+001	-6.9626600E-001	-5.404457985793099E-002	3.7629405E-005	-6.9644797E-001	0
1.2873799E+004	5.823619877373858E+001	-6.9828022E-001	-5.424041746610819E-002	3.7875012E-005	-6.9844812E-001	0
1.2864847E+004	5.843619876868615E+001	-7.0027685E-001	-5.443336121535214E-002	3.8118422E-005	-7.0044804E-001	0
1.2860083E+004	5.863619876363373E+001	-7.0227861E-001	-5.460918101095613E-002	3.8350860E-005	-7.0244801E-001	0
1.2851726E+004	5.883619875858130E+001	-7.0426452E-001	-5.479922072060156E-002	3.8593145E-005	-7.0444804E-001	0
1.2834848E+004	5.903619875352888E+001	-7.0627981E-001	-5.502829745057100E-002	3.8865375E-005	-7.0644796E-001	0
1.2826799E+004	5.923619874847645E+001	-7.0828909E-001	-5.521947576753078E-002	3.9111354E-005	-7.0844805E-001	0
1.2822047E+004	5.943619874342403E+001	-7.1026093E-001	-5.539372374405005E-002	3.9343999E-005	-7.1044803E-001	0
1.2799960E+004	5.963619873837160E+001	-7.1229619E-001	-5.564831248421187E-002	3.9638082E-005	-7.1244812E-001	0
1.2796615E+004	5.983619873331918E+001	-7.1427035E-001	-5.581712934120975E-002	3.9868522E-005	-7.1444809E-001	0
1.2785763E+004	6.003619872826675E+001	-7.1627200E-001	-5.602105970804894E-002	4.0126317E-005	-7.1644795E-001	0
1.2778610E+004	6.023619872321433E+001	-7.1828949E-001	-5.621029671636379E-002	4.0375267E-005	-7.1844804E-001	0
1.2769090E+004	6.043619871816190E+001	-7.2028875E-001	-5.640877911804132E-002	4.0630610E-005	-7.2044802E-001	0
1.2754170E+004	6.063619871310948E+001	-7.2230190E-001	-5.663260730044700E-002	4.0905841E-005	-7.2244799E-001	0
1.2745959E+004	6.083619870805705E+001	-7.2427887E-001	-5.682419355834101E-002	4.1156563E-005	-7.2444803E-001	0
1.2736607E+004	6.103619870300463E+001	-7.2627217E-001	-5.702241976975631E-002	4.1413798E-005	-7.2644806E-001	0
1.2715904E+004	6.123619869795220E+001	-7.2828817E-001	-5.727380189765874E-002	4.1711832E-005	-7.2844803E-001	0
1.2710491E+004	6.143619869289978E+001	-7.3026377E-001	-5.745362480701098E-002	4.1956300E-005	-7.3044801E-001	0
1.2701648E+004	6.163619868784735E+001	-7.3226506E-001	-5.765118455839532E-002	4.2215946E-005	-7.3244810E-001	0
1.2690067E+004	6.183619868279493E+001	-7.3427922E-001	-5.786251492033845E-002	4.2487241E-005	-7.3444802E-001	0
1.2677174E+004	6.203619867774250E+001	-7.3627168E-001	-5.807853332676371E-002	4.2761578E-005	-7.3644799E-001	0
1.2665717E+004	6.223619867269008E+001	-7.3827481E-001	-5.828922384369983E-002	4.3033466E-005	-7.3844802E-001	0
1.2653278E+004	6.243619866763765E+001	-7.4027789E-001	-5.850482949841329E-002	4.3309832E-005	-7.4044806E-001	0
1.2634725E+004	6.263619866258523E+001	-7.4227518E-001	-5.874882307792709E-002	4.3607793E-005	-7.4244803E-001	0
1.2626467E+004	6.283619865753280E+001	-7.4428540E-001	-5.894645210513899E-002	4.3872984E-005	-7.4444801E-001	0
1.2620541E+004	6.303619865248038E+001	-7.4628270E-001	-5.913238424032752E-002	4.4129476E-005	-7.4644810E-001	0
1.2610894E+004	6.323619864742795E+001	-7.4828768E-001	-5.933660951647862E-002	4.4400855E-005	-7.4844807E-001	0
1.2596707E+004	6.343619864237553E+001	-7.5027955E-001	-5.956156294034720E-002	4.4687822E-005	-7.5044793E-001	0
1.2588105E+004	6.363619863732310E+001	-7.5227076E-001	-5.976044267306224E-002	4.4956032E-005	-7.5244802E-001	0
1.2573093E+004	6.383619863227068E+001	-7.5427574E-001	-5.999126454525916E-002	4.5249955E-005	-7.5444812E-001	0
1.2570730E+004	6.403619862721825E+001	-7.5627619E-001	-6.016167429119568E-002	4.5498840E-005	-7.5644797E-001	0
1.2555391E+004	6.423619862216583E+001	-7.5828755E-001	-6.039537897052616E-002	4.5797064E-005	-7.5844806E-001	0
1.2541948E+004	6.443619861711340E+001	-7.6028371E-001	-6.061926627554870E-002	4.6087840E-005	-7.6044804E-001	0
1.2535764E+004	6.463619861206098E+001	-7.6228464E-001	-6.080879117499483E-002	4.6353609E-005	-7.6244801E-001	0
1.2518510E+004	6.483619860700856E+001	-7.6426542E-001	-6.105083191203467E-002	4.6659039E-005	-7.6444799E-001	0
1.2514096E+004	6.503619860195613E+001	-7.6627624E-001	-6.123304872693347E-002	4.6921432E-005	-7.6644808E-001	0
1.2499518E+004	6.523619859690371E+001	-7.6828796E-001	-6.146541048873955E-002	4.7223133E-005	-7.6844805E-001	0
1.2490990E+004	6.543619859185128E+001	-7.7027047E-001	-6.166608436371024E-002	4.7499565E-005	-7.7044797E-001	0
1.2473164E+004	6.563619858679886E+001	-7.7226853E-001	-6.191440395506143E-002	4.7814545E-005	-7.7244806E-001	0
1.2466111E+004	6.583619858174643E+001	-7.7425784E-001	-6.210901260496354E-002	4.8088390E-005	-7.7444804E-001	0
1.2458707E+004	6.603619857669401E+001	-7.7627057E-001	-6.230747582583074E-002	4.8367459E-005	-7.7644789E-001	0
1.2446322E+004	6.623619857164158E+001	-7.7826786E-001	-6.252994479151130E-002	4.8665046E-005	-7.7844799E-001	0
1.2429039E+004	6.643619856658916E+001	-7.8025740E-001	-6.277696718039422E-002	4.8982194E-005	-7.8044808E-001	0
1.2425296E+004	6.663619856153673E+001	-7.8224987E-001	-6.295623670463049E-002	4.9247508E-005	-7.8244811E-001	0
1.2417374E+004	6.683619855648431E+001	-7.8427070E-001	-6.315914440906401E-002	4.9533868E-005	-7.8444803E-001	0
1.2410296E+004	6.703619855143188E+001	-7.8625613E-001	-6.335514652344232E-002	4.9813374E-005	-7.8644806E-001	0
1.2401032E+004	6.723619854637946E+001	-7.8825760E-001	-6.356387028825439E-002	5.0104703E-005	-7.8844810E-001	0
1.2388029E+004	6.743619854132703E+001	-7.9025590E-001	-6.379189598902069E-002	5.0411923E-005	-7.9044795E-001	0
1.2392036E+004	6.763619853627461E+001	-7.9226321E-001	-6.393325294456650E-002	5.0651965E-005	-7.9244804E-001	0
1.2376258E+004	6.783619853122218E+001	-7.9424733E-001	-6.417508189916998E-002	5.0970888E-005	-7.9444814E-001	0
1.2362800E+004	6.803619852616976E+001	-7.9626679E-001	-6.440828886472316E-002	5.1286181E-005	-7.9644799E-001	0
1.2365266E+004	6.823619852111733E+001	-7.9827732E-001	-6.455804202219895E-002	5.1535222E-005	-7.9844809E-001	0
1.2367289E+004	6.843619851606491E+001	-8.0025774E-001	-6.470761222388921E-002	5.1782768E-005	-8.0044806E-001	0
1.2365736E+004	6.863619851101248E+001	-8.0226147E-001	-6.487777841471715E-002	5.2048941E-005	-8.0244803E-001	0
1.2359355E+004	6.883619850596006E+001	-8.0425727E-001	-6.507275160982795E-002	5.2335236E-005	-8.0444813E-001	0
1.2345144E+004	6.903619850090763E+001	-8.0625618E-001	-6.530958160920641E-002	5.2656254E-005	-8.0644804E-001	0
1.2346931E+004	6.923619849585521E+001	-8.0827135E-001	-6.546334080850014E-002	5.2912143E-005	-8.0844814E-001	0
1.2345814E+004	6.943619849080278E+001	-8.1024873E-001	-6.562942769716318E-002	5.3176162E-005	-8.1044805E-001	0
1.2350135E+004	6.963619848575036E+001	-8.1224895E-001	-6.576842767273011E-002	5.3420335E-005	-8.1244797E-001	0
1.2335520E+004	6.983619848069793E+001	-8.1426913E-001	-6.601011794104822E-002	5.3750002E-005	-8.1444812E-001	0
1.2337210E+004	7.003619847564551E+001	-8.1626415E-001	-6.616278133532472E-002	5.4006308E-005	-8.1644809E-001	0
1.2331986E+004	7.023619847059308E+001	-8.1824553E-001	-6.635148003285568E-002	5.4291802E-005	-8.1844807E-001	0
1.2330077E+004	7.043619846554066E+001	-8.2027209E-001	-6.652611256112473E-002	5.4569515E-005	-8.2044804E-001	0
1.2330604E+004	7.063619846048823E+001	-8.2228398E-001	-6.668643467445046E-002	5.4835185E-005	-8.2244807E-001	0
1.2311367E+004	7.083619845543581E+001	-8.2427943E-001	-6.695271275310324E-002	5.5187742E-005	-8.2444805E-001	0
1.2304152E+004	7.103619845038338E+001	-8.2627815E-001	-6.715441474431263E-002	5.5488224E-005	-8.2644802E-001	0
1.2295962E+004	7.123619844533096E+001	-8.2828027E-001	-6.736197370387481E-002	5.5794593E-005	-8.2844812E-001	0
1.2269130E+004	7.143619844027853E+001	-8.3027297E-001	-6.767170828114571E-002	5.6185989E-005	-8.3044809E-001	0
1.2250073E+004	7.163619843522611E+001	-8.3226967E-001	-6.793997628728365E-002	5.6544381E-005	-8.3244807E-001	0
1.2226648E+004	7.183619843017368E+001	-8.3427054E-001	-6.823378910792077E-002	5.6925441E-005	-8.3444804E-001	0
1.2167898E+004	7.203619842512126E+001	-8.3626807E-001	-6.872740313474107E-002	5.7474532E-005	-8.3644801E-001	0
1.2106586E+004	7.223619842006883E+001	-8.3825821E-001	-6.923985259360332E-002	5.8040874E-005	-8.3844811E-001	0
1.2060096E+004	7.243619841501641E+001	-8.4025848E-001	-6.967262083098547E-002	5.8543010E-005	-8.4044802E-001	0
1.1981312E+004	7.263619840996398E+001	-8.4227246E-001	-7.029885058703059E-002	5.9210786E-005	-8.4244817E-001	0
1.1906392E+004	7.283619840491156E+001	-8.4427214E-001	-7.090915228575989E-002	5.9866623E-005	-8.4444815E-001	0
1.1840298E+004	7.303619839985913E+001	-8.4627068E-001	-7.147376451170406E-002	6.0486153E-005	-8.4644794E-001	0
1.1787604E+004	7.323619839480671E+001	-8.4827542E-001	-7.196334635684698E-002	6.1044739E-005	-8.4844810E-001	0
1.1801492E+004	7.343619838975428E+001	-8.5025704E-001	-7.204657114826812E-002	6.1258106E-005	-8.5044807E-001	0
1.1808751E+004	7.363619838470186E+001	-8.5227150E-001	-7.217287159284125E-002	6.1510880E-005	-8.5244805E-001	0
1.1796831E+004	7.383619837964943E+001	-8.5427630E-001	-7.241574508431559E-002	6.1863058E-005	-8.5444808E-001	0
1.1774632E+004	7.403619837459701E+001	-8.5627013E-001	-7.272160740393957E-002	6.2269341E-005	-8.5644811E-001	0
1.1768177E+004	7.423619836954458E+001	-8.5828584E-001	-7.293277831701661E-002	6.2597173E-005	-8.5844809E-001	0
1.1766922E+004	7.443619836449216E+001	-8.6025006E-001	-7.310748635263287E-002	6.2890722E-005	-8.6044800E-001	0
1.1745933E+004	7.463619835943973E+001	-8.6226046E-001	-7.340928015316017E-002	6.3297921E-005	-8.6244810E-001	0
1.1708540E+004	7.483619835438731E+001	-8.6426336E-001	-7.381478463702917E-002	6.3795414E-005	-8.6444807E-001	0
1.1655680E+004	7.503619834933488E+001	-8.6625433E-001	-7.432036320341018E-002	6.4380336E-005	-8.6644804E-001	0
1.1584553E+004	7.523619834428246E+001	-8.6825389E-001	-7.494927942383273E-002	6.5075001E-005	-8.6844802E-001	0
1.1488565E+004	7.543619833923003E+001	-8.7027687E-001	-7.575157231412621E-002	6.5924840E-005	-8.7044811E-001	0
1.1382993E+004	7.563619833417761E+001	-8.7225592E-001	-7.662799153234107E-002	6.6839217E-005	-8.7244809E-001	0
1.1292513E+004	7.583619832912518E+001	-8.7426603E-001	-7.741997512838827E-002	6.7685651E-005	-8.7444800E-001	0
1.1167608E+004	7.603619832407276E+001	-8.7625265E-001	-7.846377288781170E-002	6.8754089E-005	-8.7644815E-001	0
1.1023475E+004	7.623619831902033E+001	-8.7824404E-001	-7.967034888415769E-002	6.9970010E-005	-8.7844813E-001	0
1.0897762E+004	7.643619831396791E+001	-8.8026100E-001	-8.077447873628904E-002	7.1102622E-005	-8.8044798E-001	0
1.0736270E+004	7.663619830891548E+001	-8.8224751E-001	-8.217448983848330E-002	7.2498238E-005	-8.8244808E-001	0
1.0525265E+004	7.683619830386306E+001	-8.8424331E-001	-8.401150251802070E-002	7.4286610E-005	-8.8444817E-001	0
1.0339222E+004	7.703619829881063E+001	-8.8627100E-001	-8.571931808952504E-002	7.5970544E-005	-8.8644803E-001	0
1.0101160E+004	7.723619829375821E+001	-8.8826483E-001	-8.793691040994478E-002	7.8111269E-005	-8.8844806E-001	0
9.8301094E+003	7.743619828870578E+001	-8.9025456E-001	-9.056405589520866E-002	8.0625061E-005	-8.9044809E-001	0
9.5649912E+003	7.763619828365336E+001	-8.9226305E-001	-9.328425514549754E-002	8.3234096E-005	-8.9244807E-001	0
9.2591855E+003	7.783619827860093E+001	-8.9423794E-001	-9.657847023909050E-002	8.6364133E-005	-8.9444804E-001	0
8.9180107E+003	7.803619827354851E+001	-8.9625961E-001	-1.004999517779924E-001	9.0074049E-005	-8.9644808E-001	0
8.5680977E+003	7.823619826849608E+001	-8.9826286E-001	-1.048380712579400E-001	9.4172145E-005	-8.9844811E-001	0
8.1953301E+003	7.843619826344366E+001	-9.0026605E-001	-1.098511022823925E-001	9.8895216E-005	-9.0044802E-001	0
7.8107314E+003	7.863619825839123E+001	-9.0226871E-001	-1.155165441739720E-001	1.0422697E-004	-9.0244806E-001	0
7.3991318E+003	7.883619825333881E+001	-9.0425342E-001	-1.222107485105659E-001	1.1050949E-004	-9.0444809E-001	0
6.9902852E+003	7.903619824828638E+001	-9.0625119E-001	-1.296443767463384E-001	1.1749037E-004	-9.0644807E-001	0
6.5608174E+003	7.923619824323396E+001	-9.0825117E-001	-1.384356716962412E-001	1.2573435E-004	-9.0844810E-001	0
6.0553228E+003	7.943619823818153E+001	-9.1027528E-001	-1.503264649460716E-001	1.3683847E-004	-9.1044813E-001	0
5.6611899E+003	7.963619823312911E+001	-9.1226673E-001	-1.611439850405192E-001	1.4700630E-004	-9.1244817E-001	0
5.2544570E+003	7.983619822807668E+001	-9.1427189E-001	-1.739993154782962E-001	1.5908269E-004	-9.1444808E-001	0
4.8624448E+003	8.003619822302426E+001	-9.1625518E-001	-1.884350737286495E-001	1.7265462E-004	-9.1644806E-001	0
4.4815327E+003	8.023619821797183E+001	-9.1825092E-001	-2.048966285673364E-001	1.8814651E-004	-9.1844815E-001	0
4.1234609E+003	8.043619821291941E+001	-9.2027038E-001	-2.231791148346571E-001	2.0538513E-004	-9.2044801E-001	0
3.7856682E+003	8.063619820786698E+001	-9.2225718E-001	-2.436180690328789E-001	2.2467852E-004	-9.2244804E-001	0
3.4689839E+003	8.083619820281456E+001	-9.2425966E-001	-2.664352728818433E-001	2.4625537E-004	-9.2444807E-001	0
3.1759778E+003	8.103619819776213E+001	-9.2627490E-001	-2.916503006638851E-001	2.7014836E-004	-9.2644805E-001	0
2.8609387E+003	8.123619819270971E+001	-9.2825705E-001	-3.244589067142369E-001	3.0118128E-004	-9.2844802E-001	0
2.6208213E+003	8.143619818765728E+001	-9.3027270E-001	-3.549546551174765E-001	3.3020464E-004	-9.3044806E-001	0
2.3969326E+003	8.163619818260486E+001	-9.3226385E-001	-3.889403689585103E-001	3.6259505E-004	-9.3244803E-001	0
2.1886204E+003	8.183619817755243E+001	-9.3427193E-001	-4.268771069686075E-001	3.9881931E-004	-9.3444806E-001	0
1.9795736E+003	8.203619817250001E+001	-9.3626505E-001	-4.729629912267939E-001	4.4281871E-004	-9.3644810E-001	0
1.7891261E+003	8.223619816744758E+001	-9.3827975E-001	-5.244346751478766E-001	4.9206644E-004	-9.3844813E-001	0
1.6300073E+003	8.243619816239516E+001	-9.4025928E-001	-5.768435739504509E-001	5.4238254E-004	-9.4044805E-001	0
1.4681971E+003	8.263619815734273E+001	-9.4226754E-001	-6.417854290725886E-001	6.0473359E-004	-9.4244808E-001	0
1.3261339E+003	8.283619815229031E+001	-9.4427621E-001	-7.120519554550810E-001	6.7237375E-004	-9.4444811E-001	0
1.1992848E+003	8.303619814723788E+001	-9.4627541E-001	-7.890331286455510E-001	7.4664265E-004	-9.4644815E-001	0
1.0781772E+003	8.323619814218546E+001	-9.4824260E-001	-8.794867540382327E-001	8.3396683E-004	-9.4844806E-001	0
9.7158051E+002	8.343619813713303E+001	-9.5026779E-001	-9.780638936374864E-001	9.2942262E-004	-9.5044804E-001	0
8.7481738E+002	8.364619813182799E+001	-9.5234281E-001	-1.088618977597985E+000	1.0367385E-003	-9.5254815E-001	0
7.8552881E+002	8.385619812652294E+001	-9.5442021E-001	-1.215003452916335E+000	1.1596238E-003	-9.5464802E-001	0
7.0857324E+002	8.405619812147052E+001	-9.5642048E-001	-1.349783458111308E+000	1.2909606E-003	-9.5664811E-001	0
6.4247681E+002	8.425619811641809E+001	-9.5843095E-001	-1.491775105303986E+000	1.4297634E-003	-9.5864815E-001	0
5.8188898E+002	8.445619811136567E+001	-9.6040845E-001	-1.650501148906153E+000	1.5851553E-003	-9.6064806E-001	0
5.2858917E+002	8.465619810631324E+001	-9.6243477E-001	-1.820761422839970E+000	1.7523641E-003	-9.6264809E-001	0
4.8089545E+002	8.485619810126082E+001	-9.6441340E-001	-2.005453418205384E+000	1.9340862E-003	-9.6464813E-001	0
4.3765366E+002	8.505619809620839E+001	-9.6643078E-001	-2.208209083227622E+000	2.1340812E-003	-9.6664816E-001	0
3.9935095E+002	8.525619809115597E+001	-9.6842200E-001	-2.424989750207544E+000	2.3484135E-003	-9.6864808E-001	0
3.6474185E+002	8.545619808610354E+001	-9.7043055E-001	-2.660595478688514E+000	2.5819230E-003	-9.7064805E-001	0
3.3423755E+002	8.565619808105112E+001	-9.7242785E-001	-2.909391291726749E+000	2.8291731E-003	-9.7264814E-001	0
3.0672601E+002	8.585619807599869E+001	-9.7441608E-001	-3.176828821888730E+000	3.0955530E-003	-9.7464800E-001	0
2.8192841E+002	8.605619807094627E+001	-9.7643387E-001	-3.463410706814742E+000	3.3817915E-003	-9.7664803E-001	0
2.5955447E+002	8.625619806589384E+001	-9.7841793E-001	-3.769605425513786E+000	3.6882495E-003	-9.7864807E-001	0
2.3945718E+002	8.645619806084142E+001	-9.8043078E-001	-4.094388558548339E+000	4.0142648E-003	-9.8064804E-001	0
2.2129007E+002	8.665619805578899E+001	-9.8241448E-001	-4.439487299208167E+000	4.3614167E-003	-9.8264807E-001	0
2.0496213E+002	8.685619805073657E+001	-9.8443145E-001	-4.802991844054775E+000	4.7282162E-003	-9.8464811E-001	0
1.9019400E+002	8.705619804568414E+001	-9.8641127E-001	-5.186342798933694E+000	5.1158671E-003	-9.8664808E-001	0
1.7662213E+002	8.725619804063172E+001	-9.8841363E-001	-5.596204937686991E+000	5.5313651E-003	-9.8864806E-001	0
1.6463292E+002	8.745619803557929E+001	-9.9043298E-001	-6.016008320781907E+000	5.9584528E-003	-9.9064809E-001	0
1.5355148E+002	8.765619803052687E+001	-9.9243665E-001	-6.463217537284180E+000	6.4143338E-003	-9.9264807E-001	0
1.4359329E+002	8.785619802547444E+001	-9.9443960E-001	-6.925390352873059E+000	6.8868822E-003	-9.9464804E-001	0
1.3450151E+002	8.805619802042202E+001	-9.9642557E-001	-7.408285386640756E+000	7.3818048E-003	-9.9664801E-001	0
1.2622156E+002	8.825619801536959E+001	-9.9844003E-001	-7.910217849643345E+000	7.8978781E-003	-9.9864811E-001	0
1.1857001E+002	8.845629801031464E+001	-1.0004361E+000	-8.437513662034604E+000	8.4411930E-003	-1.0006489E+000	0
1.1162280E+002	8.865639800525969E+001	-1.0024474E+000	-8.980668097126241E+000	9.0026474E-003	-1.0026501E+000	0
1.0535072E+002	8.885639800020726E+001	-1.0044504E+000	-9.534348620511523E+000	9.5767807E-003	-1.0046500E+000	0
9.9481163E+001	8.905659799514979E+001	-1.0064605E+000	-1.011709694604948E+001	1.0182459E-002	-1.0066516E+000	0
9.3798248E+001	8.926709798983211E+001	-1.0085436E+000	-1.075226529241917E+001	1.0844128E-002	-1.0087564E+000	0
8.8370941E+001	8.947749798451696E+001	-1.0106337E+000	-1.143626747866637E+001	1.1557877E-002	-1.0108610E+000	0
8.3861435E+001	8.967759797946201E+001	-1.0126402E+000	-1.207515968892577E+001	1.2227792E-002	-1.0128620E+000	0
7.9645714E+001	8.987759797440958E+001	-1.0146563E+000	-1.273962253386205E+001	1.2926338E-002	-1.0148621E+000	0
7.5808014E+001	9.007769796935463E+001	-1.0166578E+000	-1.341095499547129E+001	1.3634352E-002	-1.0168629E+000	0
7.2261078E+001	9.027779796429968E+001	-1.0186344E+000	-1.409658547391159E+001	1.4359267E-002	-1.0188642E+000	0
6.8899475E+001	9.047789795924473E+001	-1.0206410E+000	-1.481348026360700E+001	1.5119245E-002	-1.0208648E+000	0
6.5789238E+001	9.067829795418220E+001	-1.0226463E+000	-1.554427993624070E+001	1.5896300E-002	-1.0228683E+000	0
6.2918388E+001	9.087869794911967E+001	-1.0246729E+000	-1.628574571355185E+001	1.6687561E-002	-1.0248729E+000	0
6.0255394E+001	9.107889794406219E+001	-1.0266637E+000	-1.703853561681083E+001	1.7492846E-002	-1.0268749E+000	0
5.7707142E+001	9.127909793900471E+001	-1.0286686E+000	-1.782567270901416E+001	1.8336711E-002	-1.0288769E+000	0
5.5324520E+001	9.147929793394724E+001	-1.0307022E+000	-1.863011599428609E+001	1.9202102E-002	-1.0308789E+000	0
5.3119511E+001	9.167949792888976E+001	-1.0327101E+000	-1.944125772613731E+001	2.0077182E-002	-1.0328809E+000	0
5.1045067E+001	9.187979792382976E+001	-1.0346916E+000	-2.027015829827204E+001	2.0973362E-002	-1.0348836E+000	0
4.9072937E+001	9.208009791876975E+001	-1.0366794E+000	-2.112527666452290E+001	2.1900140E-002	-1.0368867E+000	0
4.7224358E+001	9.228029791371227E+001	-1.0386941E+000	-2.199488122547029E+001	2.2845954E-002	-1.0388888E+000	0
4.5508949E+001	9.248039790865732E+001	-1.0407130E+000	-2.286831368664764E+001	2.3799350E-002	-1.0408901E+000	0
4.3874332E+001	9.268049790360237E+001	-1.0427072E+000	-2.376576848177305E+001	2.4780737E-002	-1.0428909E+000	0
4.2339024E+001	9.288059789854742E+001	-1.0447214E+000	-2.467513983468621E+001	2.5778646E-002	-1.0448921E+000	0
4.0897808E+001	9.308069789349247E+001	-1.0467182E+000	-2.559350435366483E+001	2.6789188E-002	-1.0468929E+000	0
3.9523903E+001	9.328079788843752E+001	-1.0487020E+000	-2.653336193285821E+001	2.7825590E-002	-1.0488940E+000	0
3.8212242E+001	9.348099788338004E+001	-1.0507057E+000	-2.749657166438851E+001	2.8890803E-002	-1.0508956E+000	0
3.6978733E+001	9.368129787832004E+001	-1.0527130E+000	-2.846806777968720E+001	2.9968707E-002	-1.0528990E+000	0
3.5788387E+001	9.388169787325751E+001	-1.0547171E+000	-2.947092902897617E+001	3.1083493E-002	-1.0549028E+000	0
3.4660484E+001	9.408179786820256E+001	-1.0567123E+000	-3.048752314217245E+001	3.2216541E-002	-1.0569041E+000	0
3.3587566E+001	9.428179786315013E+001	-1.0587194E+000	-3.152117127328771E+001	3.3372074E-002	-1.0589041E+000	0
3.2588234E+001	9.448179785809771E+001	-1.0607228E+000	-3.254925629530362E+001	3.4525741E-002	-1.0609040E+000	0
3.1641108E+001	9.468189785304276E+001	-1.0627240E+000	-3.358681500764666E+001	3.5693515E-002	-1.0629050E+000	0
3.0714441E+001	9.488219784798275E+001	-1.0647357E+000	-3.466563710065935E+001	3.6909740E-002	-1.0649077E+000	0
2.9830648E+001	9.508279784291517E+001	-1.0667256E+000	-3.575938376352988E+001	3.8145449E-002	-1.0669135E+000	0
2.8993519E+001	9.528309783785517E+001	-1.0687327E+000	-3.686109133395843E+001	3.9394654E-002	-1.0689169E+000	0
2.8196573E+001	9.548319783280022E+001	-1.0707345E+000	-3.797392220616075E+001	4.0659990E-002	-1.0709181E+000	0
2.7474089E+001	9.568339782774274E+001	-1.0727448E+000	-3.904569242350357E+001	4.1886065E-002	-1.0729197E+000	0
2.6759836E+001	9.588379782268021E+001	-1.0747488E+000	-4.016275458199721E+001	4.3164872E-002	-1.0749238E+000	0
2.6054560E+001	9.608419781761768E+001	-1.0767430E+000	-4.132646999377903E+001	4.4497989E-002	-1.0769277E+000	0
2.5359171E+001	9.628469781255262E+001	-1.0787594E+000	-4.253922318004402E+001	4.5889590E-002	-1.0789324E+000	0
2.4718100E+001	9.648519780748757E+001	-1.0807749E+000	-4.372402986757086E+001	4.7255833E-002	-1.0809376E+000	0
2.4097973E+001	9.668549780242756E+001	-1.0827504E+000	-4.493118290681209E+001	4.8649259E-002	-1.0829408E+000	0
2.3456144E+001	9.688569779737009E+001	-1.0847805E+000	-4.624717798150351E+001	5.0168034E-002	-1.0849429E+000	0
2.2881657E+001	9.708599779231008E+001	-1.0867550E+000	-4.749459546448043E+001	5.1614992E-002	-1.0869457E+000	0
2.2308779E+001	9.728629778725008E+001	-1.0887814E+000	-4.880506477493719E+001	5.3138044E-002	-1.0889487E+000	0
2.1799370E+001	9.748649778219260E+001	-1.0907652E+000	-5.003654984853256E+001	5.4578129E-002	-1.0909508E+000	0
2.1303759E+001	9.768669777713512E+001	-1.0928069E+000	-5.129643600708994E+001	5.6057099E-002	-1.0929528E+000	0
2.0795506E+001	9.788689777207765E+001	-1.0948002E+000	-5.264600372290243E+001	5.7636857E-002	-1.0949548E+000	0
2.0259096E+001	9.808719776701764E+001	-1.0968043E+000	-5.413885563053719E+001	5.9379727E-002	-1.0969576E+000	0
1.9778606E+001	9.828749776195764E+001	-1.0988081E+000	-5.555538383656949E+001	6.1044704E-002	-1.0989609E+000	0
1.9276333E+001	9.848799775689258E+001	-1.1008042E+000	-5.710651783223449E+001	6.2863097E-002	-1.1009656E+000	0
1.8816114E+001	9.868849775182753E+001	-1.1027974E+000	-5.860920016197429E+001	6.4634070E-002	-1.1029702E+000	0
1.8390734E+001	9.888889774676500E+001	-1.1048104E+000	-6.007429541090940E+001	6.6370703E-002	-1.1049749E+000	0
1.8001135E+001	9.908919774170499E+001	-1.1067935E+000	-6.148464986054655E+001	6.8050809E-002	-1.1069777E+000	0
1.7653109E+001	9.928949773664499E+001	-1.1088145E+000	-6.281128738020692E+001	6.9646068E-002	-1.1089809E+000	0
1.7272778E+001	9.948979773158499E+001	-1.1107959E+000	-6.430904973550673E+001	7.1434230E-002	-1.1109838E+000	0
1.6887787E+001	9.969029772651993E+001	-1.1128190E+000	-6.589489615755110E+001	7.3329091E-002	-1.1129884E+000	0
1.6518988E+001	9.989089772145235E+001	-1.1148273E+000	-6.748762338239806E+001	7.5237043E-002	-1.1149948E+000	0
1.6140099E+001	1.000911977163923E+002	-1.1168327E+000	-6.919615719604917E+001	7.7280536E-002	-1.1169978E+000	0
1.5830148E+001	1.002913977113349E+002	-1.1188397E+000	-7.067778217469254E+001	7.9077110E-002	-1.1190000E+000	0
1.5498280E+001	1.004914977062799E+002	-1.1208526E+000	-7.232109627302520E+001	8.1061289E-002	-1.1210009E+000	0
1.5138603E+001	1.006915977012250E+002	-1.1228379E+000	-7.417050814736683E+001	8.3281457E-002	-1.1230022E+000	0
1.4859410E+001	1.008920976961599E+002	-1.1248411E+000	-7.569890441352004E+001	8.5149236E-002	-1.1250064E+000	0
1.4580675E+001	1.010924976910974E+002	-1.1268592E+000	-7.728443047616270E+001	8.7088667E-002	-1.1270109E+000	0
1.4310294E+001	1.012927976860374E+002	-1.1288704E+000	-7.888519910605055E+001	8.9051165E-002	-1.1290137E+000	0
1.4017863E+001	1.014930976809774E+002	-1.1308823E+000	-8.067436927914599E+001	9.1233216E-002	-1.1310169E+000	0
1.3766488E+001	1.016933976759174E+002	-1.1329174E+000	-8.229531163131708E+001	9.3233794E-002	-1.1330194E+000	0
1.3480992E+001	1.018935976708599E+002	-1.1349136E+000	-8.418620118424417E+001	9.5544063E-002	-1.1350222E+000	0
1.3120281E+001	1.020937976658024E+002	-1.1369146E+000	-8.665322037311779E+001	9.8517314E-002	-1.1370237E+000	0
1.2796681E+001	1.022939976607449E+002	-1.1389239E+000	-8.900150563116790E+001	1.0136594E-001	-1.1390260E+000	0
1.2582227E+001	1.024941976556875E+002	-1.1409246E+000	-9.067748005961744E+001	1.0345616E-001	-1.1410277E+000	0
1.2367683E+001	1.026948976506173E+002	-1.1429228E+000	-9.241203453448475E+001	1.0561982E-001	-1.1430342E+000	0
1.2130460E+001	1.028955976455472E+002	-1.1449375E+000	-9.438533214046538E+001	1.0806531E-001	-1.1450413E+000	0
1.1879097E+001	1.030960976404822E+002	-1.1469330E+000	-9.655051746736763E+001	1.1073697E-001	-1.1470468E+000	0
1.1654037E+001	1.032961976354272E+002	-1.1489424E+000	-9.858749138633175E+001	1.1327134E-001	-1.1490481E+000	0
1.1480509E+001	1.034963976303698E+002	-1.1509531E+000	-1.002527884366998E+002	1.1538626E-001	-1.1510496E+000	0
1.1292410E+001	1.036967976253072E+002	-1.1529435E+000	-1.020989757931772E+002	1.1771435E-001	-1.1530538E+000	0
1.1038145E+001	1.038970976202472E+002	-1.1549499E+000	-1.046326048380320E+002	1.2084541E-001	-1.1550570E+000	0
1.0849419E+001	1.040972976151897E+002	-1.1569502E+000	-1.066370734148290E+002	1.2337378E-001	-1.1570590E+000	0
1.0716685E+001	1.042974976101323E+002	-1.1589452E+000	-1.081440003030846E+002	1.2533297E-001	-1.1590608E+000	0
1.0501500E+001	1.045076976048222E+002	-1.1610284E+000	-1.105583365737916E+002	1.2836137E-001	-1.1611629E+000	0
1.0283281E+001	1.047178975995121E+002	-1.1631176E+000	-1.131076314913041E+002	1.3155748E-001	-1.1632649E+000	0
1.0046938E+001	1.049180975944546E+002	-1.1651404E+000	-1.159697015055456E+002	1.3512099E-001	-1.1652669E+000	0
9.8632479E+000	1.051182975893971E+002	-1.1671226E+000	-1.183304547661087E+002	1.3810615E-001	-1.1672689E+000	0
9.6890383E+000	1.053184975843396E+002	-1.1691355E+000	-1.206657902713382E+002	1.4107466E-001	-1.1692709E+000	0
9.5484257E+000	1.055189975792746E+002	-1.1711476E+000	-1.226534695039359E+002	1.4364532E-001	-1.1712755E+000	0
9.4028454E+000	1.057193975742121E+002	-1.1731457E+000	-1.247649628472412E+002	1.4636748E-001	-1.1732795E+000	0
9.2170897E+000	1.059198975691470E+002	-1.1751565E+000	-1.274975673730193E+002	1.4982960E-001	-1.1752844E+000	0
9.0788260E+000	1.061202975640845E+002	-1.1771663E+000	-1.296606399388706E+002	1.5263215E-001	-1.1772889E+000	0
8.9749317E+000	1.063205975590245E+002	-1.1791618E+000	-1.313839302099732E+002	1.5492290E-001	-1.1792917E+000	0
8.8496027E+000	1.065210975539594E+002	-1.1811693E+000	-1.334714490278327E+002	1.5765238E-001	-1.1812965E+000	0
8.7295084E+000	1.067214975488969E+002	-1.1831763E+000	-1.355375559864010E+002	1.6036482E-001	-1.1833010E+000	0
8.5289459E+000	1.069217975438369E+002	-1.1851875E+000	-1.389606069747397E+002	1.6469437E-001	-1.1853036E+000	0
8.4233751E+000	1.071219975387794E+002	-1.1871918E+000	-1.409401561711110E+002	1.6732301E-001	-1.1873060E+000	0
8.2444630E+000	1.073223975337169E+002	-1.1891870E+000	-1.442406969784342E+002	1.7152917E-001	-1.1893094E+000	0
8.1274977E+000	1.075227975286543E+002	-1.1912072E+000	-1.465650600266672E+002	1.7458935E-001	-1.1913135E+000	0
8.1042089E+000	1.077227975236019E+002	-1.1932237E+000	-1.472350567971221E+002	1.7568436E-001	-1.1933141E+000	0
7.9783349E+000	1.079227975185495E+002	-1.1952192E+000	-1.498080937089294E+002	1.7905350E-001	-1.1953140E+000	0
7.9136605E+000	1.081228975134945E+002	-1.1972003E+000	-1.512827478667793E+002	1.8111575E-001	-1.1973149E+000	0
7.7338018E+000	1.083234975084270E+002	-1.1992004E+000	-1.550596208351412E+002	1.8594755E-001	-1.1993203E+000	0
7.5306621E+000	1.085237975033670E+002	-1.2012147E+000	-1.595098313971721E+002	1.9160555E-001	-1.2013241E+000	0
7.4061561E+000	1.087240974983069E+002	-1.2032096E+000	-1.624607415544360E+002	1.9547433E-001	-1.2033263E+000	0
7.2665505E+000	1.089245974932419E+002	-1.2052326E+000	-1.658603469974159E+002	1.9990030E-001	-1.2053316E+000	0
7.1429410E+000	1.091247974881844E+002	-1.2072053E+000	-1.690067594262205E+002	2.0402585E-001	-1.2073340E+000	0
7.0661030E+000	1.093251974831219E+002	-1.2092433E+000	-1.711329815377318E+002	2.0694141E-001	-1.2093374E+000	0
6.9009233E+000	1.095257974780543E+002	-1.2112203E+000	-1.755156877722274E+002	2.1258816E-001	-1.2113435E+000	0
6.7555628E+000	1.097260974729943E+002	-1.2132472E+000	-1.795923199613439E+002	2.1788988E-001	-1.2133468E+000	0
6.6503587E+000	1.099261974679393E+002	-1.2152603E+000	-1.827360471046431E+002	2.2207186E-001	-1.2153480E+000	0
6.6139860E+000	1.101263974628819E+002	-1.2172449E+000	-1.840410381167303E+002	2.2402301E-001	-1.2173495E+000	0
6.4425650E+000	1.103265974578244E+002	-1.2192556E+000	-1.892500177521827E+002	2.3074414E-001	-1.2193521E+000	0
6.3043985E+000	1.105265974527720E+002	-1.2212647E+000	-1.937162874236942E+002	2.3657887E-001	-1.2213521E+000	0
6.2329755E+000	1.107265974477195E+002	-1.2232702E+000	-1.962578219469979E+002	2.4007635E-001	-1.2233521E+000	0
6.1893773E+000	1.109267974426621E+002	-1.2252792E+000	-1.979648538150636E+002	2.4256222E-001	-1.2253536E+000	0
6.0982809E+000	1.111272974375970E+002	-1.2272750E+000	-2.012493439759616E+002	2.4698830E-001	-1.2273585E+000	0
6.0104556E+000	1.113277974325320E+002	-1.2292870E+000	-2.045247732529278E+002	2.5141966E-001	-1.2293636E+000	0
5.9660888E+000	1.115280974274719E+002	-1.2312889E+000	-2.063812523106787E+002	2.5411496E-001	-1.2313669E+000	0
5.9404993E+000	1.117281974224170E+002	-1.2332740E+000	-2.076044384638471E+002	2.5603315E-001	-1.2333682E+000	0
5.8412876E+000	1.119285974173545E+002	-1.2352844E+000	-2.114746806858220E+002	2.6123139E-001	-1.2353715E+000	0
5.8064923E+000	1.121292974122844E+002	-1.2372848E+000	-2.130864368642897E+002	2.6364860E-001	-1.2373785E+000	0
5.6940169E+000	1.123297974072193E+002	-1.2392924E+000	-2.176481802808455E+002	2.6972973E-001	-1.2393841E+000	0
5.6637616E+000	1.125298974021644E+002	-1.2412999E+000	-2.191652765263425E+002	2.7204981E-001	-1.2413849E+000	0
5.5641594E+000	1.127303973970993E+002	-1.2433034E+000	-2.234485716726531E+002	2.7781436E-001	-1.2433895E+000	0
5.4804711E+000	1.129307973920368E+002	-1.2453103E+000	-2.272268699599765E+002	2.8296795E-001	-1.2453936E+000	0
5.3997579E+000	1.131309973869793E+002	-1.2473052E+000	-2.309927885202596E+002	2.8811848E-001	-1.2473961E+000	0
5.2949853E+000	1.133312973819193E+002	-1.2493300E+000	-2.359458994033766E+002	2.9477429E-001	-1.2493985E+000	0
5.2084413E+000	1.135316973768568E+002	-1.2513263E+000	-2.402496813605923E+002	3.0063075E-001	-1.2514030E+000	0
5.1793566E+000	1.137319973717968E+002	-1.2533259E+000	-2.419848715369567E+002	3.0328593E-001	-1.2534057E+000	0
5.1795230E+000	1.139321973667393E+002	-1.2553136E+000	-2.423608597930602E+002	3.0423889E-001	-1.2554082E+000	0
5.1204901E+000	1.141324973616793E+002	-1.2573400E+000	-2.455507104698345E+002	3.0874071E-001	-1.2574108E+000	0
5.1015573E+000	1.143326973566218E+002	-1.2593534E+000	-2.468566622453559E+002	3.1087977E-001	-1.2594129E+000	0
5.0139494E+000	1.145327973515668E+002	-1.2613561E+000	-2.515693796702794E+002	3.1731859E-001	-1.2614142E+000	0
4.9355316E+000	1.147328973465119E+002	-1.2633605E+000	-2.559725342422998E+002	3.2338560E-001	-1.2634150E+000	0
4.8331742E+000	1.149331973414519E+002	-1.2653604E+000	-2.618073143304644E+002	3.3128059E-001	-1.2654179E+000	0
4.7646680E+000	1.151333973363944E+002	-1.2673409E+000	-2.659872538717545E+002	3.3709651E-001	-1.2674199E+000	0
4.7256260E+000	1.153336973313344E+002	-1.2693633E+000	-2.686127384171996E+002	3.4096715E-001	-1.2694228E+000	0
4.7153563E+000	1.155338973262769E+002	-1.2713641E+000	-2.696220491760178E+002	3.4278780E-001	-1.2714249E+000	0
4.6807051E+000	1.157339973212220E+002	-1.2733799E+000	-2.720487376297415E+002	3.4642139E-001	-1.2734261E+000	0
4.6172123E+000	1.159340973161670E+002	-1.2753736E+000	-2.762215647828216E+002	3.5228568E-001	-1.2754269E+000	0
4.5629811E+000	1.161344973111045E+002	-1.2773763E+000	-2.799433614215750E+002	3.5759300E-001	-1.2774304E+000	0
4.5180039E+000	1.163348973060420E+002	-1.2793813E+000	-2.831740175575305E+002	3.6228752E-001	-1.2794347E+000	0
4.5022955E+000	1.165351973009820E+002	-1.2814050E+000	-2.846114826909100E+002	3.6470258E-001	-1.2814376E+000	0
4.4342594E+000	1.167055972966773E+002	-1.2830995E+000	-2.893605145933980E+002	3.7127835E-001	-1.2831413E+000	0
4.4577498E+000	1.168560972928753E+002	-1.2846202E+000	-2.881768113796825E+002	3.7019774E-001	-1.2846464E+000	0
4.4361277E+000	1.170265972885682E+002	-1.2863084E+000	-2.899619943141643E+002	3.7298056E-001	-1.2863510E+000	0
4.4054513E+000	1.171672972850138E+002	-1.2877285E+000	-2.923034263266809E+002	3.7640747E-001	-1.2877578E+000	0
4.3928804E+000	1.172783972822072E+002	-1.2888073E+000	-2.933854742956210E+002	3.7811732E-001	-1.2888685E+000	0
4.3746381E+000	1.174190972786528E+002	-1.2902317E+000	-2.949345140006326E+002	3.8053387E-001	-1.2902765E+000	0
4.3644977E+000	1.175599972750933E+002	-1.2916534E+000	-2.959454866218402E+002	3.8225898E-001	-1.2916850E+000	0
4.2740846E+000	1.176808972720391E+002	-1.2928355E+000	-3.024824162894311E+002	3.9105999E-001	-1.2928933E+000	0
4.2268677E+000	1.178014972689925E+002	-1.2940432E+000	-3.061470714960269E+002	3.9616752E-001	-1.2940999E+000	0
4.1272788E+000	1.179119972662011E+002	-1.2951227E+000	-3.137958043792016E+002	4.0640408E-001	-1.2952044E+000	0
4.0658984E+000	1.180125972636597E+002	-1.2961459E+000	-3.187846293128032E+002	4.1319141E-001	-1.2962103E+000	0
4.0340033E+000	1.181429972603655E+002	-1.2974803E+000	-3.216359246359098E+002	4.1731629E-001	-1.2975152E+000	0
4.0515299E+000	1.182637972573139E+002	-1.2986875E+000	-3.205424799341131E+002	4.1628450E-001	-1.2987227E+000	0
4.0305963E+000	1.183946972540070E+002	-1.2999806E+000	-3.225281201754278E+002	4.1928032E-001	-1.3000315E+000	0
4.0165739E+000	1.185356972504451E+002	-1.3014103E+000	-3.240100596997054E+002	4.2167005E-001	-1.3014421E+000	0
3.9913352E+000	1.186562972473985E+002	-1.3025856E+000	-3.263533411363132E+002	4.2510316E-001	-1.3026477E+000	0
3.9815011E+000	1.187469972451072E+002	-1.3035202E+000	-3.273941531424298E+002	4.2676491E-001	-1.3035548E+000	0
3.9897788E+000	1.188675972420606E+002	-1.3047262E+000	-3.270171843074631E+002	4.2666790E-001	-1.3047606E+000	0
3.9979773E+000	1.189190972407596E+002	-1.3052263E+000	-3.264716723561287E+002	4.2611942E-001	-1.3052753E+000	0
3.9978762E+000	1.189210972407091E+002	-1.3052510E+000	-3.264860988921610E+002	4.2614630E-001	-1.3052951E+000	0
3.9961922E+000	1.190019972386654E+002	-1.3060565E+000	-3.268252497252224E+002	4.2685226E-001	-1.3061047E+000	0
3.9936652E+000	1.191423972351186E+002	-1.3074889E+000	-3.273907170437398E+002	4.2805973E-001	-1.3075088E+000	0
3.9526374E+000	1.192729972318193E+002	-1.3087801E+000	-3.311156438041207E+002	4.3335757E-001	-1.3088143E+000	0
3.9424996E+000	1.193933972287778E+002	-1.3099822E+000	-3.322719915815478E+002	4.3527040E-001	-1.3100184E+000	0
3.9257362E+000	1.194940972262339E+002	-1.3109901E+000	-3.339475856442605E+002	4.3780199E-001	-1.3110257E+000	0
3.9254777E+000	1.196148972231822E+002	-1.3122090E+000	-3.342800880235611E+002	4.3864533E-001	-1.3122342E+000	0
3.9010918E+000	1.197358972201255E+002	-1.3134104E+000	-3.366776463905560E+002	4.4219592E-001	-1.3134433E+000	0
3.8386078E+000	1.198367972175765E+002	-1.3143780E+000	-3.424100961597852E+002	4.5005631E-001	-1.3144526E+000	0
3.7718406E+000	1.199575972145249E+002	-1.3156106E+000	-3.487980514899900E+002	4.5888242E-001	-1.3156606E+000	0
3.7651215E+000	1.200585972119734E+002	-1.3166356E+000	-3.496927213479360E+002	4.6041790E-001	-1.3166720E+000	0
3.7577088E+000	1.201297972101747E+002	-1.3173536E+000	-3.505736310694911E+002	4.6182942E-001	-1.3173823E+000	0
3.7540238E+000	1.202503972071281E+002	-1.3185710E+000	-3.512420499379268E+002	4.6313757E-001	-1.3185887E+000	0
3.7606850E+000	1.203808972038314E+002	-1.3198578E+000	-3.509620896686488E+002	4.6322006E-001	-1.3198932E+000	0
3.7466369E+000	1.205013972007873E+002	-1.3210760E+000	-3.526031724298673E+002	4.6581560E-001	-1.3210983E+000	0
3.7299614E+000	1.206022971982384E+002	-1.3220838E+000	-3.544497373565194E+002	4.6861225E-001	-1.3221074E+000	0
3.7583766E+000	1.207128971954444E+002	-1.3232206E+000	-3.520723848550931E+002	4.6586943E-001	-1.3232138E+000	0
3.7683735E+000	1.208334971923978E+002	-1.3243983E+000	-3.514509073691961E+002	4.6546099E-001	-1.3244205E+000	0
3.7685618E+000	1.209641971890960E+002	-1.3256961E+000	-3.517777170063778E+002	4.6635035E-001	-1.3257269E+000	0
3.7049124E+000	1.210849971860443E+002	-1.3268970E+000	-3.581453252835900E+002	4.7522196E-001	-1.3269346E+000	0
3.6510093E+000	1.212055971829977E+002	-1.3281212E+000	-3.637682323998461E+002	4.8312831E-001	-1.3281413E+000	0
3.6182919E+000	1.213461971794459E+002	-1.3295088E+000	-3.674409944437402E+002	4.8851603E-001	-1.3295469E+000	0
3.5618806E+000	1.214671971763892E+002	-1.3307619E+000	-3.736121667085172E+002	4.9718884E-001	-1.3307565E+000	0
3.5672517E+000	1.215781971735851E+002	-1.3318567E+000	-3.733565445111353E+002	4.9725741E-001	-1.3318664E+000	0
3.5808756E+000	1.216889971707860E+002	-1.3329762E+000	-3.722486753822795E+002	4.9619862E-001	-1.3329746E+000	0
3.5483828E+000	1.218097971677344E+002	-1.3341312E+000	-3.759828946775915E+002	5.0161052E-001	-1.3341823E+000	0
3.4732323E+000	1.219306971646802E+002	-1.3353583E+000	-3.844713513910201E+002	5.1340699E-001	-1.3353920E+000	0
3.4650180E+000	1.220514971616285E+002	-1.3365706E+000	-3.857326528415633E+002	5.1555896E-001	-1.3365999E+000	0
3.4912450E+000	1.221921971580741E+002	-1.3379884E+000	-3.832410274966345E+002	5.1277202E-001	-1.3380070E+000	0
3.4024463E+000	1.223230971547673E+002	-1.3392533E+000	-3.936148280443094E+002	5.2714998E-001	-1.3393157E+000	0
3.3263416E+000	1.224338971519683E+002	-1.3403815E+000	-4.029596677128939E+002	5.4011971E-001	-1.3404232E+000	0
3.3240244E+000	1.225348971494168E+002	-1.3414397E+000	-4.035589119888864E+002	5.4134995E-001	-1.3414333E+000	0
3.3824446E+000	1.226454971466228E+002	-1.3425862E+000	-3.969277663967982E+002	5.3290975E-001	-1.3425397E+000	0
3.3877182E+000	1.227559971438313E+002	-1.3436308E+000	-3.966182284019053E+002	5.3290844E-001	-1.3436446E+000	0
3.3759220E+000	1.228468971415350E+002	-1.3445352E+000	-3.982720205461383E+002	5.3549075E-001	-1.3445530E+000	0
3.3673677E+000	1.229377971392387E+002	-1.3454231E+000	-3.995474335672125E+002	5.3756034E-001	-1.3454627E+000	0
3.3625720E+000	1.230585971361870E+002	-1.3466610E+000	-4.004854033816182E+002	5.3931808E-001	-1.3466710E+000	0
3.3959675E+000	1.231894971328802E+002	-1.3479958E+000	-3.969401141279013E+002	5.3507358E-001	-1.3479794E+000	0
3.4207332E+000	1.232707971308264E+002	-1.3487761E+000	-3.942944481495524E+002	5.3181493E-001	-1.3487923E+000	0
3.4124730E+000	1.233420971290252E+002	-1.3494948E+000	-3.954594918203702E+002	5.3367054E-001	-1.3495064E+000	0
3.4233434E+000	1.234031971274817E+002	-1.3501019E+000	-3.943810881532245E+002	5.3245467E-001	-1.3501166E+000	0
3.4339657E+000	1.234841971254355E+002	-1.3509492E+000	-3.934078912457344E+002	5.3147405E-001	-1.3509262E+000	0
3.4281192E+000	1.235357971241319E+002	-1.3514273E+000	-3.942182932611838E+002	5.3275734E-001	-1.3514422E+000	0
3.3779211E+000	1.236268971218306E+002	-1.3523461E+000	-4.003486325136615E+002	5.4140991E-001	-1.3523535E+000	0
3.3458521E+000	1.237675971182762E+002	-1.3537592E+000	-4.046081895698735E+002	5.4774207E-001	-1.3537611E+000	0
3.3320880E+000	1.238884971152220E+002	-1.3549742E+000	-4.066441727262854E+002	5.5099237E-001	-1.3549694E+000	0
3.3264196E+000	1.239791971129307E+002	-1.3558904E+000	-4.076125446200726E+002	5.5267793E-001	-1.3558767E+000	0
3.3473382E+000	1.240799971103843E+002	-1.3569175E+000	-4.053721091193511E+002	5.5005652E-001	-1.3568841E+000	0
3.2951834E+000	1.241908971075827E+002	-1.3579742E+000	-4.121088172035288E+002	5.5963314E-001	-1.3579941E+000	0
3.2847972E+000	1.242915971050388E+002	-1.3590152E+000	-4.137288061784529E+002	5.6226373E-001	-1.3590007E+000	0
3.2929862E+000	1.244218971017472E+002	-1.3603545E+000	-4.131066665111725E+002	5.6197155E-001	-1.3603040E+000	0
3.3119781E+000	1.245327970989456E+002	-1.3614308E+000	-4.110627208856040E+002	5.5963343E-001	-1.3614123E+000	0
3.2698736E+000	1.246436970961440E+002	-1.3625287E+000	-4.166915450635370E+002	5.6775421E-001	-1.3625215E+000	0
3.2156196E+000	1.247445970935951E+002	-1.3635273E+000	-4.240325303950524E+002	5.7817996E-001	-1.3635305E+000	0
3.1904006E+000	1.248551970908011E+002	-1.3646601E+000	-4.277394462885532E+002	5.8371896E-001	-1.3646370E+000	0
3.1894145E+000	1.249757970877545E+002	-1.3658665E+000	-4.282499376191068E+002	5.8493227E-001	-1.3658426E+000	0
3.1868670E+000	1.251065970844502E+002	-1.3671716E+000	-4.290017866608860E+002	5.8651906E-001	-1.3671504E+000	0
3.2103696E+000	1.252373970811459E+002	-1.3685181E+000	-4.262805639675025E+002	5.8337265E-001	-1.3684587E+000	0
3.2055290E+000	1.253382970785970E+002	-1.3694903E+000	-4.272275435617394E+002	5.8508396E-001	-1.3694681E+000	0
3.1534524E+000	1.254588970755503E+002	-1.3706497E+000	-4.346505068504257E+002	5.9575361E-001	-1.3706735E+000	0
3.1616991E+000	1.255696970727513E+002	-1.3718171E+000	-4.338860628495095E+002	5.9521234E-001	-1.3717823E+000	0
3.1659946E+000	1.257200970689519E+002	-1.3733149E+000	-4.337704358118281E+002	5.9570336E-001	-1.3732857E+000	0
3.2235403E+000	1.258507970656501E+002	-1.3746526E+000	-4.264419021234517E+002	5.8620948E-001	-1.3745924E+000	0
3.2066982E+000	1.259514970631062E+002	-1.3755791E+000	-4.289705660242507E+002	5.9008294E-001	-1.3755995E+000	0
3.1761656E+000	1.260619970603148E+002	-1.3767011E+000	-4.334475383112908E+002	5.9672773E-001	-1.3767043E+000	0
3.1402993E+000	1.261628970577658E+002	-1.3776853E+000	-4.387114606368609E+002	6.0440636E-001	-1.3777137E+000	0
3.1457088E+000	1.262538970554670E+002	-1.3786278E+000	-4.382566566648934E+002	6.0419279E-001	-1.3786234E+000	0
3.1395414E+000	1.263546970529205E+002	-1.3796595E+000	-4.394462084516799E+002	6.0628617E-001	-1.3796318E+000	0
3.0398920E+000	1.264453970506293E+002	-1.3804277E+000	-4.541042178473741E+002	6.2685806E-001	-1.3805387E+000	0
3.0115137E+000	1.265362970483329E+002	-1.3814996E+000	-4.587392725505251E+002	6.3374811E-001	-1.3814478E+000	0
3.0359674E+000	1.265976970467818E+002	-1.3821124E+000	-4.552461293903984E+002	6.2920129E-001	-1.3820609E+000	0
3.0564501E+000	1.266390970457360E+002	-1.3825237E+000	-4.523298497824198E+002	6.2535673E-001	-1.3824759E+000	0
3.0655999E+000	1.267199970436923E+002	-1.3832873E+000	-4.512288949100575E+002	6.2417918E-001	-1.3832850E+000	0
3.0488622E+000	1.268207970411459E+002	-1.3843175E+000	-4.540439694630791E+002	6.2854099E-001	-1.3842921E+000	0
3.0761468E+000	1.269116970388495E+002	-1.3852720E+000	-4.503270280804414E+002	6.2382543E-001	-1.3852016E+000	0
3.0556624E+000	1.270125970363006E+002	-1.3862190E+000	-4.536558288862634E+002	6.2886631E-001	-1.3862100E+000	0
3.0526717E+000	1.271233970335015E+002	-1.3873552E+000	-4.544724587281935E+002	6.3051474E-001	-1.3873187E+000	0
3.0738971E+000	1.272341970307025E+002	-1.3884734E+000	-4.516980742866072E+002	6.2717074E-001	-1.3884263E+000	0
3.1081791E+000	1.273053970289038E+002	-1.3891914E+000	-4.469470051405133E+002	6.2089491E-001	-1.3891386E+000	0
3.1137393E+000	1.273865970268525E+002	-1.3899729E+000	-4.463999143878618E+002	6.2048382E-001	-1.3899509E+000	0
3.0785484E+000	1.274974970240510E+002	-1.3910369E+000	-4.518483091095259E+002	6.2853765E-001	-1.3910594E+000	0
3.0160813E+000	1.276081970212545E+002	-1.3921587E+000	-4.615786447223496E+002	6.4259076E-001	-1.3921669E+000	0
2.8540606E+000	1.277484970177102E+002	-1.3935497E+000	-4.882691103389971E+002	6.8042725E-001	-1.3935699E+000	0
2.8289933E+000	1.278690970146636E+002	-1.3947903E+000	-4.930341484511808E+002	6.8767923E-001	-1.3947760E+000	0
2.8442247E+000	1.280093970111193E+002	-1.3961936E+000	-4.908872539267113E+002	6.8537366E-001	-1.3961792E+000	0
2.8406305E+000	1.281693970070774E+002	-1.3978133E+000	-4.920785511757919E+002	6.8783396E-001	-1.3977790E+000	0
2.8366928E+000	1.283095970035356E+002	-1.3991992E+000	-4.932501749319108E+002	6.9015527E-001	-1.3991814E+000	0
2.8741693E+000	1.284698969994861E+002	-1.4008253E+000	-4.873844031588710E+002	6.8274039E-001	-1.4007844E+000	0
2.9311836E+000	1.286005969961843E+002	-1.4021151E+000	-4.783443391990249E+002	6.7069381E-001	-1.4020904E+000	0
2.9062183E+000	1.287215969931276E+002	-1.4033054E+000	-4.828630547359444E+002	6.7760432E-001	-1.4033012E+000	0
2.9068599E+000	1.288918969888255E+002	-1.4050167E+000	-4.833451746689225E+002	6.7910802E-001	-1.4050049E+000	0
2.7949967E+000	1.290620969845259E+002	-1.4067075E+000	-5.032948750071610E+002	7.0798868E-001	-1.4067063E+000	0
2.7433722E+000	1.292025969809765E+002	-1.4081583E+000	-5.132946607783360E+002	7.2280014E-001	-1.4081111E+000	0
2.8272741E+000	1.293330969776798E+002	-1.4094859E+000	-4.985317627473478E+002	7.0267349E-001	-1.4094155E+000	0
2.8558531E+000	1.294637969743781E+002	-1.4107385E+000	-4.939814442686660E+002	6.9687861E-001	-1.4107234E+000	0
2.8783731E+000	1.295845969713264E+002	-1.4119396E+000	-4.905338975530831E+002	6.9260424E-001	-1.4119315E+000	0
2.8849845E+000	1.296558969695252E+002	-1.4126601E+000	-4.896595180233323E+002	6.9172245E-001	-1.4126431E+000	0
2.8958964E+000	1.297171969679766E+002	-1.4132875E+000	-4.880311130001501E+002	6.8972826E-001	-1.4132574E+000	0
2.8573291E+000	1.298675969641772E+002	-1.4147853E+000	-4.951425545397456E+002	7.0052040E-001	-1.4147617E+000	0
2.8785377E+000	1.300279969601252E+002	-1.4163988E+000	-4.920549645153453E+002	6.9694602E-001	-1.4163656E+000	0
2.8581686E+000	1.301981969558256E+002	-1.4181091E+000	-4.961600237173516E+002	7.0360905E-001	-1.4180677E+000	0
2.8315434E+000	1.303781969512784E+002	-1.4198987E+000	-5.014575241743919E+002	7.1201891E-001	-1.4198676E+000	0
2.8159287E+000	1.305284969474815E+002	-1.4214299E+000	-5.047819036103156E+002	7.1751207E-001	-1.4213706E+000	0
2.7914109E+000	1.306193969451851E+002	-1.4222981E+000	-5.095265679231643E+002	7.2469866E-001	-1.4222786E+000	0
2.7594593E+000	1.307499969418859E+002	-1.4236485E+000	-5.159157616089824E+002	7.3448271E-001	-1.4235851E+000	0
2.8235509E+000	1.309003969380865E+002	-1.4251670E+000	-5.047428043095510E+002	7.1934277E-001	-1.4250891E+000	0
2.8224781E+000	1.310507969342871E+002	-1.4266685E+000	-5.054666353286921E+002	7.2113335E-001	-1.4265928E+000	0
2.8261852E+000	1.311813969309878E+002	-1.4279478E+000	-5.052562354300453E+002	7.2147954E-001	-1.4278988E+000	0
2.8061404E+000	1.313316969271909E+002	-1.4294809E+000	-5.094117623216716E+002	7.2819442E-001	-1.4294022E+000	0
2.7599993E+000	1.314919969231414E+002	-1.4310639E+000	-5.185015359364761E+002	7.4200881E-001	-1.4310051E+000	0
2.6373162E+000	1.316522969190919E+002	-1.4326673E+000	-5.432292453594519E+002	7.7826673E-001	-1.4326088E+000	0
2.5490918E+000	1.318125969150424E+002	-1.4342675E+000	-5.626582192751703E+002	8.0700243E-001	-1.4342110E+000	0
2.5935311E+000	1.319629969112430E+002	-1.4357915E+000	-5.536048681457996E+002	7.9486114E-001	-1.4357153E+000	0
2.5536897E+000	1.321229969072010E+002	-1.4373851E+000	-5.628659746568910E+002	8.0905515E-001	-1.4373156E+000	0
2.5306175E+000	1.322533969039068E+002	-1.4386849E+000	-5.685114114666546E+002	8.1790882E-001	-1.4386185E+000	0
2.5758908E+000	1.323838969006101E+002	-1.4400072E+000	-5.590327078739251E+002	8.0501115E-001	-1.4399241E+000	0
2.5964069E+000	1.325340968968158E+002	-1.4415013E+000	-5.551907903091414E+002	8.0030823E-001	-1.4414266E+000	0
2.5980396E+000	1.326243968945346E+002	-1.4423878E+000	-5.551831280286751E+002	8.0078936E-001	-1.4423292E+000	0
2.5853636E+000	1.326629968935595E+002	-1.4427946E+000	-5.580625392368875E+002	8.0516958E-001	-1.4427276E+000	1