EC-Lab ASCII FILE
Nb header lines : 61                          

Linear Sweep Voltammetry

Run on channel : 1 (SN 1340)
User : 
Electrode connection : standard
Potential control : Ewe
Ewe ctrl range : min = -5.00 V, max = 5.00 V
Ewe,I filtering : 50 kHz
Channel : Grounded
Acquisition started on : 02/26/2026 17:07:47.001
Technique started on : 02/26/2026 17:07:49.683
Loaded Setting File :  NONE
Saved on :
	File : PtPdCoNiCr_2_26_02_LSV_C01.mpr
	Directory : C:\Users\volt\Documents\Platalytix\
	Host : 127.0.0.1
Device : SP-200 (SN 0262)
Address : USB
EC-LAB for windows v11.60 (software)
Internet server v11.60 (firmware)
Command interpretor v11.60 (firmware)
Electrode material : PtPdCoNiCr
Initial state : 
Electrolyte : KOH (1M)
Comments : 
Cable : standard
Reference electrode : Hg/HgO (0.140 V)
Electrode surface area : 1.000 cm˛
Characteristic mass : 0.001 g
Equivalent Weight : 0.000 g/eq.
Density : 0.000 g/cm3
Volume (V) : 0.001 cmł
Cycle Definition : Charge/Discharge alternance
tR (h:m:s)          0:00:5.0000         
dER/dt (mV/h)       0.0                 
dER (mV)            0                   
dtR (s)             0.0000              
dE/dt               10.000              
dE/dt unit          mV/s                
Ei (V)              -0.200              
vs.                 Ref                 
EL (V)              -2.500              
vs.                 Ref                 
record              <I>                 
dI                  0.000               
unit dI             µA                  
tI (s)              0.0000              
step percent        50                  
N                   10                  
E range min (V)     -5.000              
E range max (V)     5.000               
I Range             Auto                
I Range min         Unset               
I Range max         Unset               
I Range init        Unset               
Bandwidth           8                   

Rwe/Ohm	time/s	Ewe/V	<I>/mA	Pwe/W	control/V	error	
0.0000000E+000	2.682400127378060E+000	-1.3607790E-001	0.000000000000000E+000	0.0000000E+000	0.0000000E+000	0
0.0000000E+000	7.682200001072488E+000	-6.6220849E-003	0.000000000000000E+000	0.0000000E+000	-1.9983859E-001	0
1.0273868E+003	7.822199997535790E+000	-2.0092396E-001	-1.955679691321144E-001	3.9294293E-005	-2.0113838E-001	0
7.1531738E+002	7.942199994504335E+000	-2.0212370E-001	-2.825650567064902E-001	5.7113095E-005	-2.0233843E-001	0
7.8564789E+002	8.152199989199289E+000	-2.0423587E-001	-2.599585251375833E-001	5.3092856E-005	-2.0443845E-001	0
8.5382959E+002	8.352199984146864E+000	-2.0623554E-001	-2.415418127053286E-001	4.9814505E-005	-2.0643841E-001	0
9.1072778E+002	8.552199979094439E+000	-2.0824370E-001	-2.286563621572055E-001	4.7616246E-005	-2.0843841E-001	0
9.5977313E+002	8.752199974042014E+000	-2.1024954E-001	-2.190617102023014E-001	4.6057623E-005	-2.1043845E-001	0
1.0030438E+003	8.952199968989589E+000	-2.1224348E-001	-2.115994295392549E-001	4.4910601E-005	-2.1243842E-001	0
1.0420469E+003	9.152199963937164E+000	-2.1424699E-001	-2.056020544651824E-001	4.4049622E-005	-2.1443842E-001	0
1.0778955E+003	9.352199958884739E+000	-2.1623753E-001	-2.006108371135413E-001	4.3379590E-005	-2.1643843E-001	0
1.1111022E+003	9.552199953832314E+000	-2.1824294E-001	-1.964202285121255E-001	4.2867330E-005	-2.1843842E-001	0
1.1424653E+003	9.752199948779889E+000	-2.2024769E-001	-1.927828214336142E-001	4.2459971E-005	-2.2043842E-001	0
1.1720774E+003	9.952199943727464E+000	-2.2224908E-001	-1.896197940824795E-001	4.2142823E-005	-2.2243842E-001	0
1.2006158E+003	1.015219993867504E+001	-2.2424938E-001	-1.867786257922681E-001	4.1884992E-005	-2.2443843E-001	0
1.2273984E+003	1.035219993362261E+001	-2.2623843E-001	-1.843235366692653E-001	4.1701067E-005	-2.2643842E-001	0
1.2540571E+003	1.055219992857019E+001	-2.2826019E-001	-1.820173793136570E-001	4.1547322E-005	-2.2843844E-001	0
1.2796874E+003	1.075219992351776E+001	-2.3025647E-001	-1.799318131361405E-001	4.1430463E-005	-2.3043843E-001	0
1.3045006E+003	1.095219991846534E+001	-2.3226275E-001	-1.780472447590955E-001	4.1353742E-005	-2.3243842E-001	0
1.3290533E+003	1.115219991341291E+001	-2.3425348E-001	-1.762558900267566E-001	4.1288557E-005	-2.3443843E-001	0
1.3531273E+003	1.135219990836049E+001	-2.3624934E-001	-1.745950508453036E-001	4.1247968E-005	-2.3643839E-001	0
1.3773531E+003	1.155219990330806E+001	-2.3825176E-001	-1.729779804184566E-001	4.1212308E-005	-2.3843843E-001	0
1.4005614E+003	1.175219989825564E+001	-2.4025674E-001	-1.715431654912389E-001	4.1214404E-005	-2.4043843E-001	0
1.4240098E+003	1.195219989320321E+001	-2.4224477E-001	-1.701145436648537E-001	4.1209358E-005	-2.4243842E-001	0
1.4474194E+003	1.215219988815079E+001	-2.4426334E-001	-1.687578130830207E-001	4.1221345E-005	-2.4443842E-001	0
1.4709309E+003	1.235219988309836E+001	-2.4624474E-001	-1.674074099299897E-001	4.1223193E-005	-2.4643843E-001	0
1.4930948E+003	1.255219987804594E+001	-2.4825461E-001	-1.662684846986213E-001	4.1276919E-005	-2.4843843E-001	0
1.5168312E+003	1.275219987299351E+001	-2.5025746E-001	-1.649870291001710E-001	4.1289237E-005	-2.5043842E-001	0
1.5396427E+003	1.295219986794109E+001	-2.5224546E-001	-1.638337649603512E-001	4.1326322E-005	-2.5243846E-001	0
1.5632345E+003	1.315219986288866E+001	-2.5424537E-001	-1.626405874193302E-001	4.1350617E-005	-2.5443840E-001	0
1.5864250E+003	1.335219985783624E+001	-2.5624096E-001	-1.615210068010873E-001	4.1388299E-005	-2.5643840E-001	0
1.6096605E+003	1.355219985278382E+001	-2.5822687E-001	-1.604231861747307E-001	4.1425577E-005	-2.5843844E-001	0
1.6329197E+003	1.375219984773139E+001	-2.6023591E-001	-1.593684667949469E-001	4.1473399E-005	-2.6043841E-001	0
1.6569880E+003	1.395219984267897E+001	-2.6222876E-001	-1.582562819328119E-001	4.1499348E-005	-2.6243842E-001	0
1.6800660E+003	1.415219983762654E+001	-2.6422974E-001	-1.572734272506619E-001	4.1556319E-005	-2.6443842E-001	0
1.7042792E+003	1.435219983257412E+001	-2.6622751E-001	-1.562112078467663E-001	4.1587722E-005	-2.6643842E-001	0
1.7290017E+003	1.455219982752169E+001	-2.6820615E-001	-1.551219661394871E-001	4.1604664E-005	-2.6843843E-001	0
1.7530940E+003	1.475219982246927E+001	-2.7023831E-001	-1.541493578144517E-001	4.1657062E-005	-2.7043846E-001	0
1.7781251E+003	1.495219981741684E+001	-2.7222714E-001	-1.530978538511987E-001	4.1677391E-005	-2.7243841E-001	0
1.8035845E+003	1.515219981236442E+001	-2.7421489E-001	-1.520388417733650E-001	4.1691314E-005	-2.7443838E-001	0
1.8292238E+003	1.535219980731199E+001	-2.7622572E-001	-1.510070694141651E-001	4.1712035E-005	-2.7643827E-001	0
1.8547306E+003	1.555219980225957E+001	-2.7821001E-001	-1.500002336941759E-001	4.1731568E-005	-2.7843815E-001	0
1.8807688E+003	1.575219979720714E+001	-2.8022972E-001	-1.489974266074405E-001	4.1753508E-005	-2.8043807E-001	0
1.9072371E+003	1.595219979215472E+001	-2.8222948E-001	-1.479781873074367E-001	4.1763808E-005	-2.8243795E-001	0
1.9341290E+003	1.615219978710229E+001	-2.8424263E-001	-1.469615665908541E-001	4.1772742E-005	-2.8443784E-001	0
1.9612213E+003	1.635219978204987E+001	-2.8623456E-001	-1.459470956550395E-001	4.1775103E-005	-2.8643772E-001	0
1.9883130E+003	1.655219977699744E+001	-2.8824431E-001	-1.449692854731683E-001	4.1786570E-005	-2.8843760E-001	0
2.0152052E+003	1.675219977194502E+001	-2.9022777E-001	-1.440189660636626E-001	4.1798303E-005	-2.9043752E-001	0
2.0430089E+003	1.695219976689259E+001	-2.9223239E-001	-1.430401998010300E-001	4.1800980E-005	-2.9243737E-001	0
2.0720447E+003	1.715219976184017E+001	-2.9422280E-001	-1.419963561718578E-001	4.1778567E-005	-2.9443726E-001	0
2.1009063E+003	1.735219975678774E+001	-2.9622856E-001	-1.410003704992446E-001	4.1768337E-005	-2.9643714E-001	0
2.1311472E+003	1.755219975173532E+001	-2.9825506E-001	-1.399504729977421E-001	4.1740936E-005	-2.9843703E-001	0
2.1616882E+003	1.775219974668289E+001	-3.0023533E-001	-1.388892796938039E-001	4.1699470E-005	-3.0043694E-001	0
2.1918394E+003	1.795219974163047E+001	-3.0224106E-001	-1.378937968646353E-001	4.1677165E-005	-3.0243680E-001	0
2.2229438E+003	1.815219973657804E+001	-3.0423787E-001	-1.368625956606500E-001	4.1638785E-005	-3.0443671E-001	0
2.2554255E+003	1.835209973152814E+001	-3.0624741E-001	-1.357825357363778E-001	4.1583051E-005	-3.0643660E-001	0
2.2870244E+003	1.855199972647824E+001	-3.0822828E-001	-1.347726258552726E-001	4.1540734E-005	-3.0843648E-001	0
2.3215193E+003	1.875199972142582E+001	-3.1023294E-001	-1.336335811970961E-001	4.1457537E-005	-3.1043637E-001	0
2.3546560E+003	1.895199971637339E+001	-3.1223249E-001	-1.326021682661103E-001	4.1402705E-005	-3.1243625E-001	0
2.3871912E+003	1.915199971132097E+001	-3.1422827E-001	-1.316309601887893E-001	4.1362167E-005	-3.1443617E-001	0
2.4219617E+003	1.935199970626854E+001	-3.1623819E-001	-1.305711011681079E-001	4.1291569E-005	-3.1643602E-001	0
2.4580144E+003	1.955199970121612E+001	-3.1822756E-001	-1.294653000090433E-001	4.1199426E-005	-3.1843594E-001	0
2.4944180E+003	1.975199969616369E+001	-3.2021016E-001	-1.283706897740882E-001	4.1105599E-005	-3.2043579E-001	0
2.5289287E+003	1.995199969111127E+001	-3.2221800E-001	-1.274128444450577E-001	4.1054711E-005	-3.2243571E-001	0
2.5667905E+003	2.015199968605884E+001	-3.2421222E-001	-1.263103596095312E-001	4.0951363E-005	-3.2443559E-001	0
2.6044185E+003	2.035199968100642E+001	-3.2623047E-001	-1.252603849127907E-001	4.0863753E-005	-3.2643548E-001	0
2.6420635E+003	2.055199967595399E+001	-3.2822219E-001	-1.242294856758956E-001	4.0774874E-005	-3.2843536E-001	0
2.6799834E+003	2.075199967090157E+001	-3.3021772E-001	-1.232163260908390E-001	4.0688214E-005	-3.3043525E-001	0
2.7185889E+003	2.095199966584914E+001	-3.3223465E-001	-1.222084970646402E-001	4.0601899E-005	-3.3243513E-001	0
2.7573860E+003	2.115199966079672E+001	-3.3422300E-001	-1.212100885310070E-001	4.0511200E-005	-3.3443502E-001	0
2.7990708E+003	2.135199965574429E+001	-3.3624464E-001	-1.201272336660528E-001	4.0392140E-005	-3.3643493E-001	0
2.8386433E+003	2.155199965069187E+001	-3.3824378E-001	-1.191568425127938E-001	4.0304061E-005	-3.3843482E-001	0
2.8806653E+003	2.175199964563944E+001	-3.4025753E-001	-1.181176858901336E-001	4.0190433E-005	-3.4043470E-001	0
2.9202366E+003	2.195189964058955E+001	-3.4223381E-001	-1.171938595488524E-001	4.0107701E-005	-3.4243503E-001	0
2.9631780E+003	2.215179963553965E+001	-3.4423077E-001	-1.161694596701059E-001	3.9989103E-005	-3.4443447E-001	0
3.0061453E+003	2.235179963048722E+001	-3.4623653E-001	-1.151762487833510E-001	3.9878225E-005	-3.4643435E-001	0
3.0493096E+003	2.255179962543480E+001	-3.4824497E-001	-1.142045262189425E-001	3.9771152E-005	-3.4843427E-001	0
3.0911287E+003	2.275179962038237E+001	-3.5023987E-001	-1.133048487468173E-001	3.9683877E-005	-3.5043415E-001	0
3.1352002E+003	2.295179961532995E+001	-3.5222864E-001	-1.123464600459729E-001	3.9571642E-005	-3.5243401E-001	0
3.1777747E+003	2.315179961027752E+001	-3.5423627E-001	-1.114730636204877E-001	3.9487804E-005	-3.5443392E-001	0
3.2237151E+003	2.335179960522510E+001	-3.5623205E-001	-1.105035765354187E-001	3.9364917E-005	-3.5643381E-001	0
3.2673889E+003	2.355179960017267E+001	-3.5825193E-001	-1.096447132920635E-001	3.9280429E-005	-3.5843372E-001	0
3.3136470E+003	2.375179959512025E+001	-3.6023515E-001	-1.087125904779972E-001	3.9162096E-005	-3.6043358E-001	0
3.3597542E+003	2.395179959006782E+001	-3.6223429E-001	-1.078157138486991E-001	3.9054550E-005	-3.6243349E-001	0
3.4038755E+003	2.415179958501540E+001	-3.6420885E-001	-1.069982894263362E-001	3.8969723E-005	-3.6443335E-001	0
3.4473660E+003	2.435179957996297E+001	-3.6625463E-001	-1.062418777028906E-001	3.8911578E-005	-3.6643323E-001	0
3.4933491E+003	2.455179957491055E+001	-3.6821622E-001	-1.054049308460348E-001	3.8811806E-005	-3.6843315E-001	0
3.5379397E+003	2.475179956985812E+001	-3.7022170E-001	-1.046433041100294E-001	3.8741222E-005	-3.7043300E-001	0
3.5840823E+003	2.495179956480570E+001	-3.7222892E-001	-1.038561348323956E-001	3.8658258E-005	-3.7243292E-001	0
3.6339199E+003	2.515179955975327E+001	-3.7423697E-001	-1.029843761418814E-001	3.8540562E-005	-3.7443277E-001	0
3.6822744E+003	2.535179955470085E+001	-3.7621465E-001	-1.021691001898901E-001	3.8437513E-005	-3.7643272E-001	0
3.7327871E+003	2.555169954965095E+001	-3.7822297E-001	-1.013245512760236E-001	3.8323273E-005	-3.7843326E-001	0
3.7811958E+003	2.575159954460105E+001	-3.8022611E-001	-1.005571068976236E-001	3.8234437E-005	-3.8043249E-001	0
3.8306663E+003	2.595159953954862E+001	-3.8222098E-001	-9.977924566749730E-002	3.8137721E-005	-3.8243234E-001	0
3.8806174E+003	2.615159953449620E+001	-3.8422820E-001	-9.901213285760302E-002	3.8043254E-005	-3.8443223E-001	0
3.9308701E+003	2.635159952944377E+001	-3.8622501E-001	-9.825433344979362E-002	3.7948281E-005	-3.8643214E-001	0
3.9814915E+003	2.655159952439135E+001	-3.8822752E-001	-9.750806496324452E-002	3.7855316E-005	-3.8843200E-001	0
4.0322466E+003	2.675159951933892E+001	-3.9021525E-001	-9.677365965309170E-002	3.7762558E-005	-3.9043191E-001	0
4.0811353E+003	2.695159951428650E+001	-3.9221951E-001	-9.610549501215193E-002	3.7694452E-005	-3.9243180E-001	0
4.1331855E+003	2.715159950923407E+001	-3.9423835E-001	-9.538365501378321E-002	3.7603895E-005	-3.9443171E-001	0
4.1838706E+003	2.735159950418165E+001	-3.9623895E-001	-9.470631494218518E-002	3.7526330E-005	-3.9643157E-001	0
4.2334609E+003	2.755159949912922E+001	-3.9821622E-001	-9.406398940681482E-002	3.7457805E-005	-3.9843145E-001	0
4.2852256E+003	2.775159949407680E+001	-4.0021327E-001	-9.339374210527129E-002	3.7377416E-005	-4.0043133E-001	0
4.3367026E+003	2.795159948902437E+001	-4.0222132E-001	-9.274818997169154E-002	3.7305301E-005	-4.0243128E-001	0
4.3858120E+003	2.815159948397195E+001	-4.0421236E-001	-9.216362853743598E-002	3.7253678E-005	-4.0443113E-001	0
4.4372563E+003	2.835159947891952E+001	-4.0624845E-001	-9.155397412743116E-002	3.7193658E-005	-4.0643099E-001	0
4.4887891E+003	2.855159947386710E+001	-4.0821958E-001	-9.094202485993561E-002	3.7124315E-005	-4.0843093E-001	0
4.5383398E+003	2.875159946881467E+001	-4.1021448E-001	-9.038866165911341E-002	3.7078738E-005	-4.1043079E-001	0
4.5894385E+003	2.895159946376225E+001	-4.1225010E-001	-8.982582968847652E-002	3.7030706E-005	-4.1243070E-001	0
4.6420015E+003	2.915149945871235E+001	-4.1424233E-001	-8.923786948920387E-002	3.6966103E-005	-4.1443124E-001	0
4.6938662E+003	2.935139945366245E+001	-4.1624817E-001	-8.867916926084884E-002	3.6912541E-005	-4.1643044E-001	0
4.7445767E+003	2.955139944861003E+001	-4.1824669E-001	-8.815258098639478E-002	3.6869526E-005	-4.1843036E-001	0
4.7947817E+003	2.975139944355760E+001	-4.2024583E-001	-8.764649631641386E-002	3.6833073E-005	-4.2043021E-001	0
4.8455977E+003	2.995139943850518E+001	-4.2223921E-001	-8.713872776347747E-002	3.6793386E-005	-4.2243016E-001	0
4.8995327E+003	3.015139943345275E+001	-4.2426255E-001	-8.659244946873579E-002	3.6737933E-005	-4.2443001E-001	0
4.9462622E+003	3.035139942840033E+001	-4.2625004E-001	-8.617619276173449E-002	3.6732607E-005	-4.2642993E-001	0
4.9994780E+003	3.055139942334790E+001	-4.2825088E-001	-8.565911515869296E-002	3.6683592E-005	-4.2842978E-001	0
5.0493823E+003	3.075139941829548E+001	-4.3024191E-001	-8.520684349023308E-002	3.6659556E-005	-4.3042967E-001	0
5.1029478E+003	3.095139941324305E+001	-4.3224746E-001	-8.470544771369437E-002	3.6613714E-005	-4.3242958E-001	0
5.1525381E+003	3.115139940819063E+001	-4.3424425E-001	-8.427773355590806E-002	3.6597121E-005	-4.3442944E-001	0
5.2023335E+003	3.135139940313820E+001	-4.3624783E-001	-8.385617934619305E-002	3.6582074E-005	-4.3642935E-001	0
5.2502183E+003	3.155139939808578E+001	-4.3825033E-001	-8.347278250256729E-002	3.6581976E-005	-4.3842924E-001	0
5.3004341E+003	3.175139939303335E+001	-4.4024503E-001	-8.305829508090690E-002	3.6566002E-005	-4.4042909E-001	0
5.3496748E+003	3.195139938798093E+001	-4.4225076E-001	-8.266871487098826E-002	3.6560301E-005	-4.4242901E-001	0
5.4012642E+003	3.215139938292850E+001	-4.4423804E-001	-8.224705004507094E-002	3.6537269E-005	-4.4442886E-001	0
5.4468857E+003	3.235139937787608E+001	-4.4625372E-001	-8.192822858247695E-002	3.6560778E-005	-4.4642881E-001	0
5.4949897E+003	3.255139937282365E+001	-4.4825098E-001	-8.157448555910923E-002	3.6565842E-005	-4.4842866E-001	0
5.5449570E+003	3.275119936777628E+001	-4.5024243E-001	-8.119854281176703E-002	3.6559028E-005	-4.5042831E-001	0
5.5960278E+003	3.295119936272386E+001	-4.5225281E-001	-8.081675280316342E-002	3.6549602E-005	-4.5242846E-001	0
5.6394429E+003	3.315119935767143E+001	-4.5425138E-001	-8.054898466171512E-002	3.6589488E-005	-4.5442829E-001	0
5.6870884E+003	3.335119935261901E+001	-4.5623496E-001	-8.022294098314897E-002	3.6600512E-005	-4.5642823E-001	0
5.7365005E+003	3.355119934756658E+001	-4.5824772E-001	-7.988279806439391E-002	3.6606110E-005	-4.5842808E-001	0
5.7831509E+003	3.375119934251416E+001	-4.6026954E-001	-7.958802071668214E-002	3.6631940E-005	-4.6042800E-001	0
5.8286157E+003	3.395119933746173E+001	-4.6224660E-001	-7.930641377961423E-002	3.6659119E-005	-4.6242788E-001	0
5.8732676E+003	3.415119933240931E+001	-4.6424171E-001	-7.904317260027133E-002	3.6695139E-005	-4.6442777E-001	0
5.9212505E+003	3.435119932735688E+001	-4.6624050E-001	-7.874020677093663E-002	3.6711874E-005	-4.6642771E-001	0
5.9653657E+003	3.455119932230446E+001	-4.6822238E-001	-7.849013948255557E-002	3.6750840E-005	-4.6842751E-001	0
6.0097310E+003	3.475119931725203E+001	-4.7023001E-001	-7.824476896637395E-002	3.6793037E-005	-4.7042745E-001	0
6.0506240E+003	3.495119931219961E+001	-4.7222576E-001	-7.804579164330194E-002	3.6855232E-005	-4.7242731E-001	0
6.0969297E+003	3.515119930714718E+001	-4.7422850E-001	-7.778152878356087E-002	3.6886217E-005	-4.7442722E-001	0
6.1398442E+003	3.535119930209476E+001	-4.7622046E-001	-7.756230299299799E-002	3.6936755E-005	-4.7642714E-001	0
6.1765288E+003	3.555119929704233E+001	-4.7822019E-001	-7.742539737025128E-002	3.7026388E-005	-4.7842699E-001	0
6.2212578E+003	3.575119929198991E+001	-4.8022228E-001	-7.719054718738372E-002	3.7068621E-005	-4.8042694E-001	0
6.2613931E+003	3.595119928693748E+001	-4.8224393E-001	-7.701863172567536E-002	3.7141766E-005	-4.8242673E-001	0
6.3026240E+003	3.615119928188506E+001	-4.8423162E-001	-7.683016225862449E-002	3.7203594E-005	-4.8442668E-001	0
6.3437334E+003	3.635099927683768E+001	-4.8622188E-001	-7.664601661871007E-002	3.7266971E-005	-4.8642656E-001	0
6.3818530E+003	3.655099927178526E+001	-4.8823392E-001	-7.650347111552375E-002	3.7351590E-005	-4.8842642E-001	0
6.4231060E+003	3.675099926673283E+001	-4.9023902E-001	-7.632429297652321E-002	3.7417147E-005	-4.9042636E-001	0
6.4597295E+003	3.695099926168041E+001	-4.9222922E-001	-7.619966779172405E-002	3.7507703E-005	-4.9242616E-001	0
6.4992090E+003	3.715099925662798E+001	-4.9424875E-001	-7.604752312405894E-002	3.7586393E-005	-4.9442610E-001	0
6.5397617E+003	3.735099925157556E+001	-4.9624851E-001	-7.588174315370078E-002	3.7656202E-005	-4.9642599E-001	0
6.5745571E+003	3.755099924652313E+001	-4.9824214E-001	-7.578337856129119E-002	3.7758473E-005	-4.9842587E-001	0
6.6129448E+003	3.775099924147071E+001	-5.0023723E-001	-7.564515464457633E-002	3.7840524E-005	-5.0042582E-001	0
6.6480420E+003	3.795099923641828E+001	-5.0224215E-001	-7.554738144516998E-002	3.7943078E-005	-5.0242567E-001	0
6.6846636E+003	3.815099923136586E+001	-5.0423974E-001	-7.543233099611069E-002	3.8035978E-005	-5.0442559E-001	0
6.7213804E+003	3.835099922631343E+001	-5.0623739E-001	-7.531747139162481E-002	3.8128521E-005	-5.0642544E-001	0
6.7545903E+003	3.855099922126101E+001	-5.0824654E-001	-7.524461322094475E-002	3.8242815E-005	-5.0842535E-001	0
6.7889824E+003	3.875099921620858E+001	-5.1024103E-001	-7.515721792268593E-002	3.8348295E-005	-5.1042527E-001	0
6.8225088E+003	3.895099921115616E+001	-5.1223820E-001	-7.508062341307520E-002	3.8459162E-005	-5.1242512E-001	0
6.8539639E+003	3.915099920610373E+001	-5.1424581E-001	-7.502896197155018E-002	3.8583330E-005	-5.1442504E-001	0
6.8886855E+003	3.935099920105131E+001	-5.1623762E-001	-7.493992955339418E-002	3.8686812E-005	-5.1642489E-001	0
6.9256899E+003	3.955099919599888E+001	-5.1823056E-001	-7.482728465616550E-002	3.8777784E-005	-5.1842475E-001	0
6.9573906E+003	3.975089919094899E+001	-5.2023244E-001	-7.477407344450815E-002	3.8899900E-005	-5.2042425E-001	0
6.9911626E+003	3.995079918589909E+001	-5.2222735E-001	-7.469821206236982E-002	3.9009450E-005	-5.2242452E-001	0
7.0255679E+003	4.015079918084666E+001	-5.2422631E-001	-7.461693085035287E-002	3.9116159E-005	-5.2442443E-001	0
7.0549482E+003	4.035079917579424E+001	-5.2621847E-001	-7.458856527254287E-002	3.9249881E-005	-5.2642429E-001	0
7.0851821E+003	4.055079917074181E+001	-5.2822286E-001	-7.455317922836158E-002	3.9380695E-005	-5.2842420E-001	0
7.1210171E+003	4.075079916568939E+001	-5.3021866E-001	-7.445827838616292E-002	3.9479168E-005	-5.3042412E-001	0
7.1521338E+003	4.095079916063696E+001	-5.3222561E-001	-7.441493844330457E-002	3.9605537E-005	-5.3242397E-001	0
7.1811929E+003	4.115079915558454E+001	-5.3422922E-001	-7.439282506835265E-002	3.9742819E-005	-5.3442389E-001	0
7.2085220E+003	4.135079915053211E+001	-5.3621799E-001	-7.438667714352909E-002	3.9887473E-005	-5.3642374E-001	0
7.2438516E+003	4.155079914547969E+001	-5.3822196E-001	-7.430051997369407E-002	3.9990173E-005	-5.3842366E-001	0
7.2675713E+003	4.175079914042726E+001	-5.4025036E-001	-7.433712693372696E-002	4.0160659E-005	-5.4042351E-001	0
7.2993711E+003	4.195079913537484E+001	-5.4225934E-001	-7.428850019625188E-002	4.0283634E-005	-5.4242343E-001	0
7.3297451E+003	4.215079913032241E+001	-5.4423660E-001	-7.425041348343919E-002	4.0409792E-005	-5.4442334E-001	0
7.3589229E+003	4.235079912526999E+001	-5.4623407E-001	-7.422744663740577E-002	4.0545561E-005	-5.4642320E-001	0
7.3886079E+003	4.255079912021756E+001	-5.4825246E-001	-7.420240352014773E-002	4.0681651E-005	-5.4842311E-001	0
7.4245825E+003	4.275079911516514E+001	-5.5023903E-001	-7.411043248308269E-002	4.0778454E-005	-5.5042303E-001	0
7.4463423E+003	4.295079911011271E+001	-5.5224496E-001	-7.416325060823879E-002	4.0956282E-005	-5.5242288E-001	0
7.4730151E+003	4.315079910506029E+001	-5.5424339E-001	-7.416596831574329E-002	4.1105999E-005	-5.5442280E-001	0
7.5017573E+003	4.335069910001039E+001	-5.5623412E-001	-7.414717418164418E-002	4.1243187E-005	-5.5642241E-001	0
7.5299185E+003	4.355059909496049E+001	-5.5824327E-001	-7.413669675958165E-002	4.1386313E-005	-5.5842257E-001	0
7.5596831E+003	4.375059908990806E+001	-5.6024259E-001	-7.410926996812628E-002	4.1519168E-005	-5.6042242E-001	0
7.5905859E+003	4.395059908485564E+001	-5.6225127E-001	-7.407218142932065E-002	4.1647178E-005	-5.6242234E-001	0
7.6152246E+003	4.415059907980321E+001	-5.6426281E-001	-7.409667244440785E-002	4.1809995E-005	-5.6442225E-001	0
7.6476914E+003	4.435059907475079E+001	-5.6623113E-001	-7.403948263617888E-002	4.1923460E-005	-5.6642205E-001	0
7.6753452E+003	4.455059906969836E+001	-5.6823194E-001	-7.403340401674940E-002	4.2068146E-005	-5.6842202E-001	0
7.7049180E+003	4.475059906464594E+001	-5.7021958E-001	-7.400722045170512E-002	4.2200365E-005	-5.7042187E-001	0
7.7259077E+003	4.495059905959351E+001	-5.7222152E-001	-7.406527802555085E-002	4.2381747E-005	-5.7242173E-001	0
7.7516187E+003	4.515059905454109E+001	-5.7422787E-001	-7.407844803124936E-002	4.2537908E-005	-5.7442164E-001	0
7.7783066E+003	4.535059904948866E+001	-5.7620919E-001	-7.407900068566842E-002	4.2685002E-005	-5.7642150E-001	0
7.8046333E+003	4.555059904443624E+001	-5.7821816E-001	-7.408652376054109E-002	4.2838172E-005	-5.7842147E-001	0
7.8314185E+003	4.575059903938381E+001	-5.8021653E-001	-7.408830620266083E-002	4.2987260E-005	-5.8042127E-001	0
7.8576646E+003	4.595059903433139E+001	-5.8222336E-001	-7.409623477506599E-002	4.3140557E-005	-5.8242124E-001	0
7.8852764E+003	4.615059902927896E+001	-5.8423656E-001	-7.409208514907184E-002	4.3287306E-005	-5.8442110E-001	0
7.9105186E+003	4.635059902422654E+001	-5.8622140E-001	-7.410656835391793E-002	4.3442855E-005	-5.8642095E-001	0
7.9358267E+003	4.655059901917411E+001	-5.8824199E-001	-7.412485560178417E-002	4.3603352E-005	-5.8842087E-001	0
7.9613784E+003	4.675059901412169E+001	-5.9023267E-001	-7.413699431450457E-002	4.3758075E-005	-5.9042072E-001	0
7.9884868E+003	4.695049900907179E+001	-5.9225386E-001	-7.413843073747017E-002	4.3908771E-005	-5.9242064E-001	0
8.0113809E+003	4.715039900402189E+001	-5.9424472E-001	-7.417506759705389E-002	4.4078140E-005	-5.9442055E-001	0
8.0346396E+003	4.735039899896947E+001	-5.9624135E-001	-7.420884962763885E-002	4.4246386E-005	-5.9642041E-001	0
8.0623413E+003	4.755039899391704E+001	-5.9822673E-001	-7.420012457169534E-002	4.4388496E-005	-5.9842032E-001	0
8.0834966E+003	4.775039898886462E+001	-6.0022539E-001	-7.425318575462059E-002	4.4568646E-005	-6.0042018E-001	0
8.1117979E+003	4.795039898381219E+001	-6.0224366E-001	-7.424293315595609E-002	4.4712335E-005	-6.0242009E-001	0
8.1307920E+003	4.815039897875977E+001	-6.0423040E-001	-7.431384197239881E-002	4.4902681E-005	-6.0441995E-001	0
8.1550220E+003	4.835039897370734E+001	-6.0623145E-001	-7.433842106399137E-002	4.5066288E-005	-6.0641980E-001	0
8.1784009E+003	4.855039896865492E+001	-6.0821748E-001	-7.436875286860525E-002	4.5232377E-005	-6.0841978E-001	0
8.1992646E+003	4.875039896360249E+001	-6.1023533E-001	-7.442561461845748E-002	4.5417139E-005	-6.1041957E-001	0
8.2223281E+003	4.895039895855007E+001	-6.1222845E-001	-7.445925992254643E-002	4.5586079E-005	-6.1241955E-001	0
8.2425156E+003	4.915039895349764E+001	-6.1422849E-001	-7.451953901698094E-002	4.5772023E-005	-6.1441940E-001	0
8.2599531E+003	4.935039894844522E+001	-6.1625248E-001	-7.460725848729832E-002	4.5976907E-005	-6.1641932E-001	0
8.2860879E+003	4.955039894339279E+001	-6.1824840E-001	-7.461282016779147E-002	4.6129258E-005	-6.1841917E-001	0
8.3012363E+003	4.975039893834037E+001	-6.2023991E-001	-7.471656888594558E-002	4.6342197E-005	-6.2041903E-001	0
8.3216299E+003	4.995039893328794E+001	-6.2224096E-001	-7.477392446536935E-002	4.6527399E-005	-6.2241894E-001	0
8.3372266E+003	5.015039892823552E+001	-6.2423754E-001	-7.487352060517316E-002	4.6738864E-005	-6.2441880E-001	0
8.3495820E+003	5.035039892318309E+001	-6.2623727E-001	-7.500223051798832E-002	4.6969191E-005	-6.2641877E-001	0
8.3639170E+003	5.055029891813319E+001	-6.2823939E-001	-7.511305685270486E-002	4.7188980E-005	-6.2841910E-001	0
8.3720049E+003	5.075019891308330E+001	-6.3022292E-001	-7.527741897205020E-002	4.7441554E-005	-6.3041848E-001	0
8.3856270E+003	5.095019890803087E+001	-6.3223177E-001	-7.539468989791978E-002	4.7666919E-005	-6.3241839E-001	0
8.3971260E+003	5.115019890297845E+001	-6.3421863E-001	-7.552806106649423E-002	4.7901303E-005	-6.3441825E-001	0
8.4012891E+003	5.135019889792602E+001	-6.3621646E-001	-7.572843682901542E-002	4.8179678E-005	-6.3641816E-001	0
8.3986807E+003	5.155019889287360E+001	-6.3820672E-001	-7.598892440428084E-002	4.8496644E-005	-6.3841802E-001	0
8.3973779E+003	5.175019888782117E+001	-6.4022213E-001	-7.624071957374545E-002	4.8810994E-005	-6.4041793E-001	0
8.3832266E+003	5.195019888276875E+001	-6.4222234E-001	-7.660801530353156E-002	4.9199378E-005	-6.4241785E-001	0
8.3746699E+003	5.215019887771632E+001	-6.4424157E-001	-7.692739582153840E-002	4.9559825E-005	-6.4441776E-001	0
8.3614170E+003	5.235019887266390E+001	-6.4623314E-001	-7.728751761946508E-002	4.9945756E-005	-6.4641768E-001	0
8.3379033E+003	5.255019886761147E+001	-6.4824837E-001	-7.774717112646234E-002	5.0399478E-005	-6.4841753E-001	0
8.3091641E+003	5.275019886255905E+001	-6.5022743E-001	-7.825425383898865E-002	5.0883064E-005	-6.5041739E-001	0
8.2805879E+003	5.295019885750662E+001	-6.5223670E-001	-7.876695581773030E-002	5.1374700E-005	-6.5241730E-001	0
8.2363398E+003	5.315019885245420E+001	-6.5423930E-001	-7.943325505334280E-002	5.1968356E-005	-6.5441716E-001	0
8.1933242E+003	5.335019884740177E+001	-6.5623087E-001	-8.009336312890658E-002	5.2559739E-005	-6.5641707E-001	0
8.1485376E+003	5.355019884234935E+001	-6.5823197E-001	-8.077915542275393E-002	5.3171421E-005	-6.5841693E-001	0
8.0914131E+003	5.375019883729692E+001	-6.6023117E-001	-8.159652336758244E-002	5.3872569E-005	-6.6041684E-001	0
8.0286743E+003	5.395019883224450E+001	-6.6223663E-001	-8.248393425703182E-002	5.4623884E-005	-6.6241676E-001	0
7.9563345E+003	5.415009882719460E+001	-6.6424048E-001	-8.348573965755990E-002	5.5454610E-005	-6.6441727E-001	0
7.8865063E+003	5.434999882214470E+001	-6.6623509E-001	-8.447784938545436E-002	5.6282108E-005	-6.6641653E-001	0
7.8068335E+003	5.454999881709227E+001	-6.6820949E-001	-8.559289413172710E-002	5.7193985E-005	-6.6841638E-001	0
7.7156475E+003	5.474999881203985E+001	-6.7019868E-001	-8.686227220387255E-002	5.8214981E-005	-6.7041636E-001	0
7.6247080E+003	5.494999880698742E+001	-6.7221308E-001	-8.816246731922681E-002	5.9263963E-005	-6.7241615E-001	0
7.5246978E+003	5.514999880193500E+001	-6.7421508E-001	-8.960028757581956E-002	6.0409864E-005	-6.7441607E-001	0
7.4253618E+003	5.534999879688257E+001	-6.7620009E-001	-9.106628055517452E-002	6.1579027E-005	-6.7641592E-001	0
7.3189170E+003	5.554999879183015E+001	-6.7821002E-001	-9.266535395200970E-002	6.2846571E-005	-6.7841578E-001	0
7.2084741E+003	5.574999878677772E+001	-6.8021381E-001	-9.436307831080250E-002	6.4187072E-005	-6.8041575E-001	0
7.0966484E+003	5.594999878172530E+001	-6.8223691E-001	-9.613508674898968E-002	6.5586908E-005	-6.8241560E-001	0
6.9859858E+003	5.614999877667287E+001	-6.8421847E-001	-9.794157737910365E-002	6.7013432E-005	-6.8441546E-001	0
6.8689404E+003	5.634999877162045E+001	-6.8621421E-001	-9.990103059192812E-002	6.8553505E-005	-6.8641537E-001	0
6.7558765E+003	5.654999876656802E+001	-6.8820500E-001	-1.018676118800612E-001	7.0105802E-005	-6.8841523E-001	0
6.6370068E+003	5.674999876151560E+001	-6.9022095E-001	-1.039958175339324E-001	7.1780094E-005	-6.9041520E-001	0
6.5180981E+003	5.694999875646317E+001	-6.9222206E-001	-1.062000025467114E-001	7.3513984E-005	-6.9241500E-001	0
6.3968032E+003	5.714999875141075E+001	-6.9423008E-001	-1.085276559994148E-001	7.5343167E-005	-6.9441497E-001	0
6.2818281E+003	5.734999874635832E+001	-6.9622439E-001	-1.108314900093054E-001	7.7163590E-005	-6.9641483E-001	0
6.1665649E+003	5.754999874130590E+001	-6.9821882E-001	-1.132265442017204E-001	7.9056903E-005	-6.9841474E-001	0
6.0492710E+003	5.774979873625853E+001	-7.0024008E-001	-1.157561132067695E-001	8.1057071E-005	-7.0041466E-001	0
5.9324531E+003	5.794979873120610E+001	-7.0222813E-001	-1.183706194113792E-001	8.3123181E-005	-7.0241445E-001	0
5.8215078E+003	5.814979872615368E+001	-7.0423216E-001	-1.209707444147243E-001	8.5191488E-005	-7.0441437E-001	0
5.7106641E+003	5.834979872110125E+001	-7.0623147E-001	-1.236688900620688E-001	8.7338864E-005	-7.0641428E-001	0
5.5979404E+003	5.854979871604883E+001	-7.0822430E-001	-1.265151499413679E-001	8.9601104E-005	-7.0841420E-001	0
5.4875308E+003	5.874979871099640E+001	-7.1022981E-001	-1.294261185165126E-001	9.1922288E-005	-7.1041411E-001	0
5.3810493E+003	5.894979870594398E+001	-7.1224695E-001	-1.323620949971089E-001	9.4274495E-005	-7.1241391E-001	0
5.2773506E+003	5.914979870089155E+001	-7.1422893E-001	-1.353385437305282E-001	9.6662705E-005	-7.1441388E-001	0
5.1743027E+003	5.934979869583913E+001	-7.1622801E-001	-1.384201985234803E-001	9.9140423E-005	-7.1641368E-001	0
5.0749707E+003	5.954979869078670E+001	-7.1822417E-001	-1.415228271147329E-001	1.0164511E-004	-7.1841359E-001	0
4.9784009E+003	5.974979868573428E+001	-7.2023058E-001	-1.446710722626539E-001	1.0419653E-004	-7.2041351E-001	0
4.8823496E+003	5.994979868068185E+001	-7.2224122E-001	-1.479290326816494E-001	1.0684045E-004	-7.2241330E-001	0
4.7903438E+003	6.014979867562943E+001	-7.2423923E-001	-1.511873171808386E-001	1.0949578E-004	-7.2441334E-001	0
4.6985894E+003	6.034979867057700E+001	-7.2623199E-001	-1.545638305456073E-001	1.1224920E-004	-7.2641456E-001	0
4.6105054E+003	6.054979866552458E+001	-7.2822624E-001	-1.579493245251404E-001	1.1502284E-004	-7.2841442E-001	0
4.5268438E+003	6.074979866047215E+001	-7.3022401E-001	-1.613097503937595E-001	1.1779225E-004	-7.3041451E-001	0
4.4440010E+003	6.094979865541973E+001	-7.3222870E-001	-1.647678953215332E-001	1.2064778E-004	-7.3241454E-001	0
4.3635981E+003	6.114979865036730E+001	-7.3424733E-001	-1.682664948967525E-001	1.2354922E-004	-7.3441446E-001	0
4.2866426E+003	6.134979864531488E+001	-7.3623145E-001	-1.717501405928532E-001	1.2644785E-004	-7.3641443E-001	0
4.2062515E+003	6.154979864026245E+001	-7.3822546E-001	-1.755067345437054E-001	1.2956354E-004	-7.3841453E-001	0
4.1328994E+003	6.174979863521003E+001	-7.4024868E-001	-1.791112289569700E-001	1.3258685E-004	-7.4041450E-001	0
4.0630681E+003	6.194979863015760E+001	-7.4222946E-001	-1.826770881818116E-001	1.3558831E-004	-7.4241441E-001	0
3.9924250E+003	6.214979862510518E+001	-7.4423039E-001	-1.864106153378731E-001	1.3873244E-004	-7.4441445E-001	0
3.9250955E+003	6.234979862005275E+001	-7.4622756E-001	-1.901170476392555E-001	1.4187058E-004	-7.4641454E-001	0
3.8625500E+003	6.254979861500033E+001	-7.4822587E-001	-1.937129291106019E-001	1.4494102E-004	-7.4841446E-001	0
3.7985010E+003	6.274979860994790E+001	-7.5023240E-001	-1.975074938356944E-001	1.4817652E-004	-7.5041449E-001	0
3.7420671E+003	6.294979860489548E+001	-7.5221831E-001	-2.010167862337231E-001	1.5120850E-004	-7.5241452E-001	0
3.6932439E+003	6.314979859984305E+001	-7.5423056E-001	-2.042189932421969E-001	1.5402821E-004	-7.5441450E-001	0
3.6465720E+003	6.334979859479063E+001	-7.5622356E-001	-2.073792950894319E-001	1.5682510E-004	-7.5641447E-001	0
3.5959766E+003	6.354979858973820E+001	-7.5823408E-001	-2.108562366927123E-001	1.5987839E-004	-7.5841445E-001	0
3.5428909E+003	6.374979858468578E+001	-7.6024306E-001	-2.145826895520635E-001	1.6313500E-004	-7.6041460E-001	0
3.5100237E+003	6.394979857963335E+001	-7.6222956E-001	-2.171579512942770E-001	1.6552421E-004	-7.6241440E-001	0
3.4610774E+003	6.414979857458093E+001	-7.6424229E-001	-2.208105172294600E-001	1.6875274E-004	-7.6441449E-001	0
3.3950396E+003	6.434979856952850E+001	-7.6623493E-001	-2.256924839808587E-001	1.7293346E-004	-7.6641458E-001	0
3.3240544E+003	6.454979856447608E+001	-7.6823848E-001	-2.311148880125615E-001	1.7755135E-004	-7.6841444E-001	0
3.2778374E+003	6.474979855942365E+001	-7.7023381E-001	-2.349823037766399E-001	1.8099131E-004	-7.7041453E-001	0
3.2207524E+003	6.494979855437123E+001	-7.7222586E-001	-2.397656584171207E-001	1.8515324E-004	-7.7241451E-001	0
3.1668359E+003	6.514979854931880E+001	-7.7421409E-001	-2.444755895561672E-001	1.8927644E-004	-7.7441448E-001	0
3.1105046E+003	6.534979854426638E+001	-7.7624303E-001	-2.495553390990919E-001	1.9371559E-004	-7.7641445E-001	0
3.0702581E+003	6.554979853921395E+001	-7.7823061E-001	-2.534739957117135E-001	1.9726122E-004	-7.7841449E-001	0
3.0323237E+003	6.574979853416153E+001	-7.8023809E-001	-2.573069996388462E-001	2.0076073E-004	-7.8041452E-001	0
2.9783896E+003	6.594979852910910E+001	-7.8222752E-001	-2.626343738021593E-001	2.0543984E-004	-7.8241462E-001	0
2.9281221E+003	6.614979852405668E+001	-7.8423667E-001	-2.678292317425743E-001	2.1004150E-004	-7.8441441E-001	0
2.8966470E+003	6.634979851900425E+001	-7.8623420E-001	-2.714290681301437E-001	2.1340682E-004	-7.8641456E-001	0
2.8581016E+003	6.654979851395183E+001	-7.8821206E-001	-2.757816936656028E-001	2.1737446E-004	-7.8841454E-001	0
2.8237214E+003	6.674979850889940E+001	-7.9022849E-001	-2.798535541827681E-001	2.2114825E-004	-7.9041451E-001	0
2.7900200E+003	6.694979850384698E+001	-7.9223627E-001	-2.839536078933146E-001	2.2495835E-004	-7.9241449E-001	0
2.7523220E+003	6.714979849879455E+001	-7.9423434E-001	-2.885688182215738E-001	2.2919127E-004	-7.9441452E-001	0
2.7115928E+003	6.734979849374213E+001	-7.9623938E-001	-2.936426793666502E-001	2.3380986E-004	-7.9641455E-001	0
2.6758000E+003	6.754979848868970E+001	-7.9823965E-001	-2.983181118867986E-001	2.3812935E-004	-7.9841447E-001	0
2.6529895E+003	6.774979848363728E+001	-8.0023605E-001	-3.016355911105051E-001	2.4137968E-004	-8.0041456E-001	0
2.6137952E+003	6.794979847858485E+001	-8.0223018E-001	-3.069216025118927E-001	2.4622178E-004	-8.0241454E-001	0
2.5970103E+003	6.814979847353243E+001	-8.0422187E-001	-3.096721977831756E-001	2.4904514E-004	-8.0441451E-001	0
2.5830916E+003	6.834979846848000E+001	-8.0621862E-001	-3.121138486352302E-001	2.5163201E-004	-8.0641448E-001	0
2.5552615E+003	6.854979846342758E+001	-8.0824584E-001	-3.163064949282037E-001	2.5565340E-004	-8.0841458E-001	0
2.5318245E+003	6.874979845837515E+001	-8.1023467E-001	-3.200200820793639E-001	2.5929135E-004	-8.1041455E-001	0
2.5012122E+003	6.894979845332273E+001	-8.1224281E-001	-3.247396673314491E-001	2.6376746E-004	-8.1241447E-001	0
2.4763301E+003	6.914979844827030E+001	-8.1424469E-001	-3.288110411935010E-001	2.6773266E-004	-8.1441456E-001	0
2.4528811E+003	6.934979844321788E+001	-8.1624180E-001	-3.327685820335793E-001	2.7161962E-004	-8.1641459E-001	0
2.4229705E+003	6.954979843816545E+001	-8.1824678E-001	-3.377039956178116E-001	2.7632521E-004	-8.1841445E-001	0
2.3933621E+003	6.974979843311303E+001	-8.2025069E-001	-3.427190211139073E-001	2.8111550E-004	-8.2041454E-001	0
2.3752937E+003	6.994979842806060E+001	-8.2225269E-001	-3.461688451823732E-001	2.8463826E-004	-8.2241464E-001	0
2.3441279E+003	7.014979842300818E+001	-8.2424241E-001	-3.516200577835988E-001	2.8982016E-004	-8.2441449E-001	0
2.3270007E+003	7.034979841795575E+001	-8.2625055E-001	-3.550710383604146E-001	2.9337764E-004	-8.2641447E-001	0
2.3117285E+003	7.054979841290333E+001	-8.2824236E-001	-3.582783693008458E-001	2.9674132E-004	-8.2841456E-001	0
2.2981746E+003	7.074979840785090E+001	-8.3022779E-001	-3.612553354546977E-001	2.9992423E-004	-8.3041453E-001	0
2.2843118E+003	7.094979840279848E+001	-8.3223623E-001	-3.643269110154224E-001	3.0320606E-004	-8.3241451E-001	0
2.2607095E+003	7.114979839774605E+001	-8.3424574E-001	-3.690194292352995E-001	3.0785290E-004	-8.3441454E-001	0
2.2469312E+003	7.134979839269363E+001	-8.3625704E-001	-3.721774129868569E-001	3.1123598E-004	-8.3641458E-001	0
2.2309319E+003	7.154979838764120E+001	-8.3824950E-001	-3.757396029654780E-001	3.1496354E-004	-8.3841449E-001	0
2.2413364E+003	7.174979838258878E+001	-8.4024590E-001	-3.748861257844271E-001	3.1499652E-004	-8.4041446E-001	0
2.2328184E+003	7.194979837753635E+001	-8.4224451E-001	-3.772113746614991E-001	3.1770419E-004	-8.4241456E-001	0
2.2171609E+003	7.214979837248393E+001	-8.4425443E-001	-3.807817696173441E-001	3.2147669E-004	-8.4441453E-001	0
2.2096897E+003	7.234979836743150E+001	-8.4623414E-001	-3.829651283387445E-001	3.2407817E-004	-8.4641451E-001	0
2.1799956E+003	7.254979836237908E+001	-8.4826928E-001	-3.891151391113370E-001	3.3007443E-004	-8.4841460E-001	0
2.1711235E+003	7.274979835732665E+001	-8.5024452E-001	-3.916149855445630E-001	3.3296848E-004	-8.5041457E-001	0
2.1463782E+003	7.294979835227423E+001	-8.5227537E-001	-3.970760538743274E-001	3.3841815E-004	-8.5241443E-001	0
2.1192371E+003	7.314979834722180E+001	-8.5425508E-001	-4.030955629106474E-001	3.4434642E-004	-8.5441452E-001	0
2.0952268E+003	7.334979834216938E+001	-8.5626304E-001	-4.086731791648344E-001	3.4993174E-004	-8.5641462E-001	0
2.0810583E+003	7.354979833711695E+001	-8.5826558E-001	-4.124178187942755E-001	3.5396402E-004	-8.5841447E-001	0
2.0647307E+003	7.374979833206453E+001	-8.6026317E-001	-4.166466755087130E-001	3.5842578E-004	-8.6041456E-001	0
2.0504539E+003	7.394979832701210E+001	-8.6225039E-001	-4.205168600736915E-001	3.6259083E-004	-8.6241454E-001	0
2.0416589E+003	7.414979832195968E+001	-8.6424017E-001	-4.233029195172988E-001	3.6583538E-004	-8.6441451E-001	0
2.0272629E+003	7.434979831690725E+001	-8.6626375E-001	-4.273070564531540E-001	3.7016062E-004	-8.6641449E-001	0
2.0093893E+003	7.454979831185483E+001	-8.6824453E-001	-4.320937305511467E-001	3.7516301E-004	-8.6841452E-001	0
1.9862144E+003	7.474979830680240E+001	-8.7024361E-001	-4.381418507926332E-001	3.8129016E-004	-8.7041456E-001	0
1.9594130E+003	7.494979830174998E+001	-8.7225008E-001	-4.451588738980012E-001	3.8828986E-004	-8.7241453E-001	0
1.9414894E+003	7.514979829669755E+001	-8.7423790E-001	-4.502923841083462E-001	3.9366266E-004	-8.7441444E-001	0
1.9148928E+003	7.534979829164513E+001	-8.7622964E-001	-4.575867792528099E-001	4.0095110E-004	-8.7641460E-001	0
1.8910510E+003	7.554979828659270E+001	-8.7822044E-001	-4.644086512730645E-001	4.0785316E-004	-8.7841457E-001	0
1.9070991E+003	7.574979828154028E+001	-8.8024080E-001	-4.615600808373639E-001	4.0628400E-004	-8.8041449E-001	0
1.8523850E+003	7.594979827648785E+001	-8.8223737E-001	-4.762710465198534E-001	4.2018411E-004	-8.8241458E-001	0
1.8194199E+003	7.614979827143543E+001	-8.8423848E-001	-4.860002229416800E-001	4.2974009E-004	-8.8441455E-001	0
1.7922096E+003	7.634979826638300E+001	-8.8623470E-001	-4.944927645403725E-001	4.3823666E-004	-8.8641453E-001	0
1.7615679E+003	7.654979826133058E+001	-8.8822019E-001	-5.042213708702938E-001	4.4785961E-004	-8.8841450E-001	0
1.7224752E+003	7.674979825627815E+001	-8.9022791E-001	-5.168306130721581E-001	4.6009704E-004	-8.9041460E-001	0
1.7062584E+003	7.694979825122573E+001	-8.9223659E-001	-5.229199531397299E-001	4.6656831E-004	-8.9241445E-001	0
1.6802528E+003	7.714979824617330E+001	-8.9423150E-001	-5.322005714199007E-001	4.7591052E-004	-8.9441454E-001	0
1.6556678E+003	7.734979824112088E+001	-8.9624614E-001	-5.413200088064958E-001	4.8515596E-004	-8.9641452E-001	0
1.6216554E+003	7.754979823606845E+001	-8.9824891E-001	-5.539086327852178E-001	4.9754785E-004	-8.9841449E-001	0
1.5951949E+003	7.774979823101603E+001	-9.0023148E-001	-5.643394785867724E-001	5.0803617E-004	-9.0041459E-001	0
1.5730442E+003	7.794979822596360E+001	-9.0223449E-001	-5.735595388350667E-001	5.1748520E-004	-9.0241456E-001	0
1.5465295E+003	7.814979822091118E+001	-9.0423363E-001	-5.846856427875267E-001	5.2869244E-004	-9.0441453E-001	0
1.5165034E+003	7.834979821585875E+001	-9.0623516E-001	-5.975819865617527E-001	5.4154982E-004	-9.0641451E-001	0
1.4861874E+003	7.854979821080633E+001	-9.0823501E-001	-6.111174202070067E-001	5.5503822E-004	-9.0841454E-001	0
1.4424642E+003	7.874979820575390E+001	-9.1023248E-001	-6.310260322899510E-001	5.7438039E-004	-9.1041458E-001	0
1.4070032E+003	7.894979820070148E+001	-9.1221863E-001	-6.483415843509217E-001	5.9142930E-004	-9.1241455E-001	0
1.3597760E+003	7.914979819564905E+001	-9.1423416E-001	-6.723417180660034E-001	6.1467779E-004	-9.1441453E-001	0
1.3026166E+003	7.934979819059663E+001	-9.1623664E-001	-7.033816936706749E-001	6.4446410E-004	-9.1641456E-001	0
1.2381279E+003	7.954979818554420E+001	-9.1821730E-001	-7.416174723059275E-001	6.8096601E-004	-9.1841459E-001	0
1.1648896E+003	7.974979818049178E+001	-9.2020351E-001	-7.899490871810944E-001	7.2691392E-004	-9.2041457E-001	0
1.1098718E+003	7.994979817543936E+001	-9.2222631E-001	-8.309305042467710E-001	7.6630595E-004	-9.2241448E-001	0
1.0612340E+003	8.014979817038693E+001	-9.2423427E-001	-8.709052691654291E-001	8.0492051E-004	-9.2441458E-001	0
1.0178552E+003	8.034979816533451E+001	-9.2620867E-001	-9.099611354539832E-001	8.4281393E-004	-9.2641455E-001	0
9.4563324E+002	8.054979816028208E+001	-9.2820215E-001	-9.815667569299400E-001	9.1109239E-004	-9.2841446E-001	0
8.8511145E+002	8.075979815497703E+001	-9.3029428E-001	-1.051047597078956E+000	9.7778358E-004	-9.3051457E-001	0
8.2522882E+002	8.096979814967199E+001	-9.3235624E-001	-1.129815419210871E+000	1.0533904E-003	-9.3261451E-001	0
7.7565967E+002	8.116979814461956E+001	-9.3439060E-001	-1.204639904758555E+000	1.1256043E-003	-9.3461454E-001	0
7.1513458E+002	8.136979813956714E+001	-9.3636155E-001	-1.309350161612574E+000	1.2260252E-003	-9.3661457E-001	0
6.6762030E+002	8.156979813451471E+001	-9.3836957E-001	-1.405543764905339E+000	1.3189195E-003	-9.3861461E-001	0
6.1386603E+002	8.176979812946229E+001	-9.4036776E-001	-1.531877830041715E+000	1.4405285E-003	-9.4061452E-001	0
5.6246619E+002	8.196979812440986E+001	-9.4236964E-001	-1.675424487175853E+000	1.5788692E-003	-9.4261450E-001	0
5.1337244E+002	8.216979811935744E+001	-9.4437879E-001	-1.839558890566671E+000	1.7372404E-003	-9.4461459E-001	0
4.6714474E+002	8.236979811430501E+001	-9.4636577E-001	-2.025851256959552E+000	1.9171963E-003	-9.4661456E-001	0
4.2598111E+002	8.256979810925259E+001	-9.4838268E-001	-2.226349088846963E+000	2.1114310E-003	-9.4861448E-001	0
3.8874841E+002	8.276979810420016E+001	-9.5037484E-001	-2.444704126946789E+000	2.3233853E-003	-9.5061463E-001	0
3.5381451E+002	8.296979809914774E+001	-9.5239586E-001	-2.691794082235177E+000	2.5636535E-003	-9.5261449E-001	0
3.2181375E+002	8.316979809409531E+001	-9.5438218E-001	-2.965635106440576E+000	2.8303494E-003	-9.5461458E-001	0
2.9362354E+002	8.336979808904289E+001	-9.5638275E-001	-3.257173503844108E+000	3.1151045E-003	-9.5661455E-001	0
2.6641629E+002	8.356979808399046E+001	-9.5838648E-001	-3.597326708725248E+000	3.4476293E-003	-9.5861453E-001	0
2.4256691E+002	8.376979807893804E+001	-9.6041882E-001	-3.959397544395904E+000	3.8026799E-003	-9.6061450E-001	0
2.2126056E+002	8.396979807388561E+001	-9.6239090E-001	-4.349581784773562E+000	4.1859979E-003	-9.6261454E-001	0
2.0231532E+002	8.416979806883319E+001	-9.6439296E-001	-4.766781665165112E+000	4.5970506E-003	-9.6461457E-001	0
1.8488919E+002	8.436979806378076E+001	-9.6639830E-001	-5.226905207988082E+000	5.0512725E-003	-9.6661454E-001	0
1.6959467E+002	8.456979805872834E+001	-9.6840537E-001	-5.710116904879364E+000	5.5297078E-003	-9.6861452E-001	0
1.5554826E+002	8.476979805367591E+001	-9.7039300E-001	-6.238533187885679E+000	6.0538291E-003	-9.7061455E-001	0
1.4309061E+002	8.496979804862349E+001	-9.7239536E-001	-6.795661736237491E+000	6.6080699E-003	-9.7261459E-001	0
1.3192395E+002	8.516979804357106E+001	-9.7438550E-001	-7.385963614835759E+000	7.1967756E-003	-9.7461450E-001	0
1.2143349E+002	8.536979803851864E+001	-9.7639269E-001	-8.040555227573236E+000	7.8507392E-003	-9.7661448E-001	0
1.1205444E+002	8.556979803346621E+001	-9.7839874E-001	-8.731458943649756E+000	8.5428488E-003	-9.7861457E-001	0
1.0367442E+002	8.576979802841379E+001	-9.8039740E-001	-9.456502717503611E+000	9.2711309E-003	-9.8061454E-001	0
9.6212303E+001	8.596979802336136E+001	-9.8240924E-001	-1.021084799193471E+001	1.0031232E-002	-9.8261452E-001	0
8.9062820E+001	8.617979801805632E+001	-9.8449862E-001	-1.105397961997252E+001	1.0882627E-002	-9.8471463E-001	0
8.2477623E+001	8.638979801275127E+001	-9.8660392E-001	-1.196208042223981E+001	1.1801835E-002	-9.8681450E-001	0
7.7214798E+001	8.658979800769885E+001	-9.8859388E-001	-1.280316609015804E+001	1.2657132E-002	-9.8881447E-001	0
7.2122322E+001	8.678979800264642E+001	-9.9059385E-001	-1.373491336888469E+001	1.3605720E-002	-9.9081457E-001	0
6.7652420E+001	8.698979799759400E+001	-9.9258083E-001	-1.467177176394426E+001	1.4562920E-002	-9.9281454E-001	0
6.3542362E+001	8.718979799254157E+001	-9.9460435E-001	-1.565261867662682E+001	1.5568162E-002	-9.9481446E-001	0
5.9855762E+001	8.738979798748915E+001	-9.9657905E-001	-1.664967565404049E+001	1.6592719E-002	-9.9681449E-001	0
5.6446629E+001	8.758979798243672E+001	-9.9859458E-001	-1.769095182256638E+001	1.7666088E-002	-9.9881458E-001	0
5.3362885E+001	8.778979797738430E+001	-1.0006112E+000	-1.875107034939487E+001	1.8762531E-002	-1.0008146E+000	0
5.0481895E+001	8.798979797233187E+001	-1.0026220E+000	-1.986102128866858E+001	1.9913098E-002	-1.0028145E+000	0
4.7846638E+001	8.818979796727945E+001	-1.0046200E+000	-2.099666735347432E+001	2.1093670E-002	-1.0048145E+000	0
4.5484921E+001	8.838979796222702E+001	-1.0066177E+000	-2.213079975792061E+001	2.2277255E-002	-1.0068145E+000	0
4.3265518E+001	8.858989795717207E+001	-1.0086297E+000	-2.331255212235732E+001	2.3513732E-002	-1.0088155E+000	0
4.1230206E+001	8.878999795211712E+001	-1.0106173E+000	-2.451157490993575E+001	2.4771821E-002	-1.0108166E+000	0
3.9340225E+001	8.898999794706469E+001	-1.0126352E+000	-2.574045271559896E+001	2.6065689E-002	-1.0128164E+000	0
3.7594387E+001	8.919009794200974E+001	-1.0146250E+000	-2.698873394064981E+001	2.7383443E-002	-1.0148174E+000	0
3.5991169E+001	8.939019793695479E+001	-1.0166395E+000	-2.824691473951145E+001	2.8716929E-002	-1.0168185E+000	0
3.4490593E+001	8.959019793190237E+001	-1.0186466E+000	-2.953404222864687E+001	3.0084752E-002	-1.0188186E+000	0
3.3100597E+001	8.979029792684742E+001	-1.0206566E+000	-3.083499150093613E+001	3.1471938E-002	-1.0208194E+000	0
3.1792645E+001	8.999039792179246E+001	-1.0226510E+000	-3.216627541204704E+001	3.2894872E-002	-1.0228205E+000	0
3.0544935E+001	9.019039791674004E+001	-1.0246537E+000	-3.354577986994025E+001	3.4372807E-002	-1.0248206E+000	0
2.9369534E+001	9.039039791168761E+001	-1.0266564E+000	-3.495650964475271E+001	3.5888325E-002	-1.0268205E+000	0
2.8245546E+001	9.059039790663519E+001	-1.0286610E+000	-3.641852109718747E+001	3.7462313E-002	-1.0288205E+000	0
2.7205185E+001	9.079039790158276E+001	-1.0306642E+000	-3.788484596476265E+001	3.9046556E-002	-1.0308206E+000	0
2.6209719E+001	9.099039789653034E+001	-1.0326469E+000	-3.939938805027623E+001	4.0685657E-002	-1.0328206E+000	0
2.5310730E+001	9.119039789147791E+001	-1.0346363E+000	-4.087737736383008E+001	4.2293217E-002	-1.0348206E+000	0
2.4443665E+001	9.139039788642549E+001	-1.0366322E+000	-4.240903449545091E+001	4.3962568E-002	-1.0368204E+000	0
2.3618254E+001	9.159039788137306E+001	-1.0386325E+000	-4.397583680060967E+001	4.5674734E-002	-1.0388205E+000	0
2.2835989E+001	9.179039787632064E+001	-1.0406584E+000	-4.557097809628317E+001	4.7423821E-002	-1.0408206E+000	0
2.2096930E+001	9.199039787126821E+001	-1.0426542E+000	-4.718547689968773E+001	4.9198132E-002	-1.0428206E+000	0
2.1357100E+001	9.219039786621579E+001	-1.0446761E+000	-4.891469773278504E+001	5.1100016E-002	-1.0448205E+000	0
2.0677376E+001	9.239039786116336E+001	-1.0466598E+000	-5.061859832950705E+001	5.2980453E-002	-1.0468205E+000	0
2.0040903E+001	9.259059785610589E+001	-1.0486741E+000	-5.232668866468930E+001	5.4873645E-002	-1.0488225E+000	0
1.9426678E+001	9.279059785105346E+001	-1.0506670E+000	-5.408372374024248E+001	5.6823988E-002	-1.0508226E+000	0
1.8833155E+001	9.299069784599851E+001	-1.0526699E+000	-5.589450741097198E+001	5.8838464E-002	-1.0528234E+000	0
1.8296000E+001	9.319079784094356E+001	-1.0546845E+000	-5.764563461928680E+001	6.0797960E-002	-1.0548245E+000	0
1.7778944E+001	9.339079783589114E+001	-1.0566711E+000	-5.943385413174190E+001	6.2802039E-002	-1.0568246E+000	0
1.7273350E+001	9.359079783083871E+001	-1.0586787E+000	-6.128971922965286E+001	6.4886123E-002	-1.0588245E+000	0
1.6812801E+001	9.379079782578629E+001	-1.0606825E+000	-6.308779001776611E+001	6.6916116E-002	-1.0608246E+000	0
1.6416103E+001	9.399079782073386E+001	-1.0626857E+000	-6.473434989252337E+001	6.8792269E-002	-1.0628246E+000	0
1.6004461E+001	9.419079781568144E+001	-1.0646771E+000	-6.652377296737536E+001	7.0826337E-002	-1.0648245E+000	0
1.5584168E+001	9.439089781062648E+001	-1.0666785E+000	-6.844629101691885E+001	7.3010191E-002	-1.0668253E+000	0
1.5210083E+001	9.459099780557153E+001	-1.0686866E+000	-7.026171978044374E+001	7.5087756E-002	-1.0688266E+000	0
1.4824577E+001	9.479099780051911E+001	-1.0707006E+000	-7.222469880359245E+001	7.7331029E-002	-1.0708266E+000	0
1.4475750E+001	9.499099779546668E+001	-1.0726857E+000	-7.410225725822716E+001	7.9488434E-002	-1.0728266E+000	0
1.4135844E+001	9.519109779041173E+001	-1.0747054E+000	-7.602696729369131E+001	8.1706591E-002	-1.0748273E+000	0
1.3801385E+001	9.539119778535678E+001	-1.0766991E+000	-7.801384875455426E+001	8.3997443E-002	-1.0768286E+000	0
1.3518576E+001	9.559119778030436E+001	-1.0786994E+000	-7.979386209846882E+001	8.6073585E-002	-1.0788286E+000	0
1.3204204E+001	9.579129777524940E+001	-1.0806960E+000	-8.184484290471664E+001	8.8449396E-002	-1.0808295E+000	0
1.2910579E+001	9.599149777019193E+001	-1.0826824E+000	-8.386009474948355E+001	9.0793848E-002	-1.0828315E+000	0
1.2648247E+001	9.619159776513698E+001	-1.0846847E+000	-8.575771151162041E+001	9.3020082E-002	-1.0848327E+000	0
1.2379074E+001	9.639159776008455E+001	-1.0866739E+000	-8.778312689268651E+001	9.5391631E-002	-1.0868325E+000	0
1.2128745E+001	9.659169775502960E+001	-1.0886787E+000	-8.976021233206075E+001	9.7720034E-002	-1.0888333E+000	0
1.1857496E+001	9.679189774997212E+001	-1.0906951E+000	-9.198359342980211E+001	1.0032606E-001	-1.0908353E+000	0
1.1628805E+001	9.699199774491717E+001	-1.0926952E+000	-9.396453382747268E+001	1.0267460E-001	-1.0928365E+000	0
1.1400279E+001	9.719199773986475E+001	-1.0946808E+000	-9.602227841753574E+001	1.0511374E-001	-1.0948366E+000	0
1.1168951E+001	9.739199773481232E+001	-1.0966753E+000	-9.818963686084481E+001	1.0768215E-001	-1.0968366E+000	0
1.0964244E+001	9.759199772975990E+001	-1.0986961E+000	-1.002071950592426E+002	1.1009726E-001	-1.0988365E+000	0
1.0698489E+001	9.779199772470747E+001	-1.1007091E+000	-1.028845314957925E+002	1.1324594E-001	-1.1008365E+000	0
1.0456518E+001	9.799199771965505E+001	-1.1027129E+000	-1.054569879691880E+002	1.1628878E-001	-1.1028366E+000	0
1.0241615E+001	9.819199771460262E+001	-1.1047208E+000	-1.078658776423831E+002	1.1916168E-001	-1.1048366E+000	0
1.0046756E+001	9.840199770929758E+001	-1.1068193E+000	-1.101668346502347E+002	1.2193478E-001	-1.1069366E+000	0
9.7894707E+000	9.861209770399000E+001	-1.1089015E+000	-1.132749204567526E+002	1.2561072E-001	-1.1090373E+000	0
9.6183376E+000	9.881229769893253E+001	-1.1109134E+000	-1.154995162567373E+002	1.2830997E-001	-1.1110393E+000	0
9.4720993E+000	9.901239769387757E+001	-1.1129158E+000	-1.174940983908518E+002	1.3076103E-001	-1.1130406E+000	0
9.3233795E+000	9.921239768882515E+001	-1.1149147E+000	-1.195826695305957E+002	1.3332447E-001	-1.1150405E+000	0
9.1402378E+000	9.941249768377020E+001	-1.1169152E+000	-1.221976065205940E+002	1.3648437E-001	-1.1170413E+000	0
8.9615498E+000	9.961259767871525E+001	-1.1189182E+000	-1.248576651581829E+002	1.3970551E-001	-1.1190425E+000	0
8.7833891E+000	9.981259767366282E+001	-1.1209019E+000	-1.276161080044674E+002	1.4304514E-001	-1.1210425E+000	0
8.6178665E+000	1.000125976686104E+002	-1.1229060E+000	-1.302997587013676E+002	1.4631438E-001	-1.1230426E+000	0
8.4894114E+000	1.002126976635554E+002	-1.1249094E+000	-1.325073437314977E+002	1.4905876E-001	-1.1250434E+000	0
8.3421564E+000	1.004127976585005E+002	-1.1268977E+000	-1.350846990446926E+002	1.5222664E-001	-1.1270446E+000	0
8.2342176E+000	1.006128976534455E+002	-1.1289216E+000	-1.371012602745886E+002	1.5477657E-001	-1.1290452E+000	0
8.0963364E+000	1.008130976483881E+002	-1.1309187E+000	-1.396827729397228E+002	1.5796986E-001	-1.1310472E+000	0
7.9769001E+000	1.010132976433306E+002	-1.1329178E+000	-1.420248153012049E+002	1.6090244E-001	-1.1330494E+000	0
7.8715944E+000	1.012133976382756E+002	-1.1349272E+000	-1.441800890498689E+002	1.6363390E-001	-1.1350505E+000	0
7.7485142E+000	1.014133976332232E+002	-1.1369399E+000	-1.467300520624426E+002	1.6682325E-001	-1.1370505E+000	0
7.6149788E+000	1.016133976281708E+002	-1.1389393E+000	-1.495656557104755E+002	1.7034620E-001	-1.1390506E+000	0
7.5387311E+000	1.018135976231133E+002	-1.1409472E+000	-1.513447314067271E+002	1.7267635E-001	-1.1410521E+000	0
7.4590421E+000	1.020137976180558E+002	-1.1429343E+000	-1.532280306675536E+002	1.7512958E-001	-1.1430545E+000	0
7.3173118E+000	1.022137976130034E+002	-1.1449407E+000	-1.564701337630518E+002	1.7914903E-001	-1.1450546E+000	0
7.2214875E+000	1.024138976079485E+002	-1.1469383E+000	-1.588230031388580E+002	1.8216018E-001	-1.1470556E+000	0
7.1572938E+000	1.026140976028910E+002	-1.1489332E+000	-1.605261980521150E+002	1.8443388E-001	-1.1490576E+000	0
7.0167141E+000	1.028141975978360E+002	-1.1509440E+000	-1.640289162702838E+002	1.8878810E-001	-1.1510586E+000	0
6.9511395E+000	1.030141975927836E+002	-1.1529534E+000	-1.658653823913096E+002	1.9123505E-001	-1.1530585E+000	0
6.8683753E+000	1.032141975877312E+002	-1.1549410E+000	-1.681534404084248E+002	1.9420730E-001	-1.1550585E+000	0
6.8063755E+000	1.034142975826762E+002	-1.1569444E+000	-1.699795183438509E+002	1.9665685E-001	-1.1570593E+000	0
6.7411408E+000	1.036143975776213E+002	-1.1589621E+000	-1.719237414552508E+002	1.9925311E-001	-1.1590606E+000	0
6.6387663E+000	1.038143975725689E+002	-1.1609645E+000	-1.748765409549608E+002	2.0302546E-001	-1.1610606E+000	0
6.5523520E+000	1.040143975675164E+002	-1.1629440E+000	-1.774849657828577E+002	2.0640507E-001	-1.1630605E+000	0
6.4515324E+000	1.042143975624640E+002	-1.1649611E+000	-1.805712262529906E+002	2.1035846E-001	-1.1650605E+000	0
6.2925854E+000	1.044143975574116E+002	-1.1669513E+000	-1.854486280558062E+002	2.1640952E-001	-1.1670606E+000	0
6.2502680E+000	1.046144975523566E+002	-1.1689532E+000	-1.870244937105899E+002	2.1862288E-001	-1.1690614E+000	0
6.1871881E+000	1.048146975472991E+002	-1.1709776E+000	-1.892584429315484E+002	2.2161740E-001	-1.1710633E+000	0
6.1037827E+000	1.050149975422391E+002	-1.1729697E+000	-1.921709408068537E+002	2.2541068E-001	-1.1730660E+000	0
6.0167489E+000	1.052151975371817E+002	-1.1749725E+000	-1.952836247398745E+002	2.2945289E-001	-1.1750685E+000	0
5.9809813E+000	1.054151975321292E+002	-1.1769619E+000	-1.967840736890869E+002	2.3160736E-001	-1.1770686E+000	0
5.9430132E+000	1.056151975270768E+002	-1.1789751E+000	-1.983800257382200E+002	2.3388511E-001	-1.1790686E+000	0
5.8816643E+000	1.058151975220244E+002	-1.1809735E+000	-2.007890103658046E+002	2.3712650E-001	-1.1810684E+000	0
5.7782564E+000	1.060151975169720E+002	-1.1829871E+000	-2.047308094193340E+002	2.4219391E-001	-1.1830685E+000	0
5.6933298E+000	1.062151975119195E+002	-1.1849872E+000	-2.081360547612858E+002	2.4663855E-001	-1.1850685E+000	0
5.6169462E+000	1.064151975068671E+002	-1.1869723E+000	-2.113198498857796E+002	2.5083080E-001	-1.1870685E+000	0
5.5799351E+000	1.066152975018122E+002	-1.1889932E+000	-2.130837036881285E+002	2.5335509E-001	-1.1890695E+000	0
5.5374694E+000	1.068153974967572E+002	-1.1909953E+000	-2.150793579646511E+002	2.5615850E-001	-1.1910706E+000	0
5.5132794E+000	1.070153974917048E+002	-1.1930027E+000	-2.163871349801834E+002	2.5815043E-001	-1.1930705E+000	0
5.4128575E+000	1.072153974866524E+002	-1.1950135E+000	-2.207731268660018E+002	2.6382688E-001	-1.1950704E+000	0
5.3212700E+000	1.074154974815974E+002	-1.1970054E+000	-2.249473065008906E+002	2.6926315E-001	-1.1970713E+000	0
5.2458296E+000	1.076156974765399E+002	-1.1989895E+000	-2.285605075952158E+002	2.7404165E-001	-1.1990734E+000	0
5.1873860E+000	1.078158974714825E+002	-1.2009958E+000	-2.315223467898481E+002	2.7805737E-001	-1.2010754E+000	0
5.1665282E+000	1.080160974664250E+002	-1.2029983E+000	-2.328446136693592E+002	2.8011167E-001	-1.2030773E+000	0
5.1109571E+000	1.082162974613675E+002	-1.2050002E+000	-2.357679969669425E+002	2.8410047E-001	-1.2050793E+000	0
5.0551829E+000	1.084165974563075E+002	-1.2069978E+000	-2.387644134060911E+002	2.8818810E-001	-1.2070820E+000	0
4.9595475E+000	1.086167974512500E+002	-1.2089901E+000	-2.437702302629984E+002	2.9471579E-001	-1.2090845E+000	0
4.8961258E+000	1.088167974461976E+002	-1.2109936E+000	-2.473371194765959E+002	2.9952368E-001	-1.2110846E+000	0
4.8434110E+000	1.090167974411452E+002	-1.2130249E+000	-2.504484584423431E+002	3.0380020E-001	-1.2130846E+000	0
4.8027911E+000	1.092167974360927E+002	-1.2150100E+000	-2.529799779580551E+002	3.0737323E-001	-1.2150846E+000	0
4.7304764E+000	1.094168974310378E+002	-1.2170061E+000	-2.572692570314085E+002	3.1309825E-001	-1.2170854E+000	0
4.7414675E+000	1.096169974259828E+002	-1.2190223E+000	-2.570981070741241E+002	3.1340832E-001	-1.2190865E+000	0
4.6999278E+000	1.098169974209304E+002	-1.2210129E+000	-2.597939800707923E+002	3.1721181E-001	-1.2210866E+000	0
4.6509151E+000	1.100169974158780E+002	-1.2230184E+000	-2.629629531328375E+002	3.2160854E-001	-1.2230866E+000	0
4.5831156E+000	1.102170974108230E+002	-1.2250315E+000	-2.672922979943558E+002	3.2744148E-001	-1.2250874E+000	0
4.5458941E+000	1.104172974057656E+002	-1.2270308E+000	-2.699206565631901E+002	3.3120096E-001	-1.2270894E+000	0
4.5044422E+000	1.106173974007106E+002	-1.2290412E+000	-2.728509197775732E+002	3.3534503E-001	-1.2290905E+000	0
4.4957323E+000	1.108174973956557E+002	-1.2310343E+000	-2.738228712280679E+002	3.3708534E-001	-1.2310915E+000	0
4.4871826E+000	1.110175973906007E+002	-1.2330351E+000	-2.747904974641168E+002	3.3882633E-001	-1.2330925E+000	0
4.4186006E+000	1.112176973855458E+002	-1.2350454E+000	-2.795105305472632E+002	3.4520820E-001	-1.2350934E+000	0
4.3691263E+000	1.114177973804908E+002	-1.2370356E+000	-2.831311293664266E+002	3.5024330E-001	-1.2370944E+000	0
4.3571224E+000	1.116178973754359E+002	-1.2390405E+000	-2.843712839523391E+002	3.5234752E-001	-1.2390953E+000	0
4.3114352E+000	1.118179973703809E+002	-1.2410412E+000	-2.878487295444861E+002	3.5723212E-001	-1.2410965E+000	0
4.2524915E+000	1.120180973653260E+002	-1.2430696E+000	-2.923156231593903E+002	3.6336869E-001	-1.2430974E+000	0
4.1373839E+000	1.122182973602685E+002	-1.2450606E+000	-3.009294091614688E+002	3.7467533E-001	-1.2450994E+000	0
4.0777912E+000	1.124183973552135E+002	-1.2470611E+000	-3.058178008462282E+002	3.8137349E-001	-1.2471006E+000	0
4.0308084E+000	1.125986973506588E+002	-1.2488614E+000	-3.098290199926751E+002	3.8693351E-001	-1.2489027E+000	0
4.0372887E+000	1.127492973468543E+002	-1.2503759E+000	-3.097068256588627E+002	3.8724995E-001	-1.2504088E+000	0
4.0376616E+000	1.128995973430574E+002	-1.2518883E+000	-3.100527989813834E+002	3.8815147E-001	-1.2519116E+000	0
4.0193448E+000	1.130298973397657E+002	-1.2531822E+000	-3.117876569125542E+002	3.9072675E-001	-1.2532150E+000	0
3.9895928E+000	1.131602973364716E+002	-1.2544771E+000	-3.144373827618765E+002	3.9445451E-001	-1.2545187E+000	0
3.9859941E+000	1.133005973329273E+002	-1.2558858E+000	-3.150746810398068E+002	3.9569783E-001	-1.2559214E+000	0
3.9563704E+000	1.134211973298807E+002	-1.2570840E+000	-3.177366899479625E+002	3.9942172E-001	-1.2571278E+000	0
3.9363828E+000	1.135515973265865E+002	-1.2584041E+000	-3.196854111986077E+002	4.0229344E-001	-1.2584320E+000	0
3.9319623E+000	1.137016973227946E+002	-1.2599072E+000	-3.204270892456502E+002	4.0370840E-001	-1.2599329E+000	0
3.9045651E+000	1.138221973197506E+002	-1.2610984E+000	-3.229804909005388E+002	4.0731019E-001	-1.2611372E+000	0
3.8907020E+000	1.139326973169591E+002	-1.2622037E+000	-3.244154189481387E+002	4.0947834E-001	-1.2622426E+000	0
3.8707886E+000	1.140631973136624E+002	-1.2635134E+000	-3.264227398150224E+002	4.1243953E-001	-1.2635477E+000	0
3.8453438E+000	1.142234973096129E+002	-1.2651322E+000	-3.290036666461197E+002	4.1623312E-001	-1.2651508E+000	0
3.7782972E+000	1.143640973060610E+002	-1.2665316E+000	-3.352122662406055E+002	4.2455691E-001	-1.2665561E+000	0
3.7711036E+000	1.144945973027643E+002	-1.2678231E+000	-3.361941728858064E+002	4.2623475E-001	-1.2678618E+000	0
3.7720766E+000	1.146550972987097E+002	-1.2694415E+000	-3.365365069946765E+002	4.2721340E-001	-1.2694670E+000	0
3.7524319E+000	1.147954972951629E+002	-1.2708179E+000	-3.386651387759766E+002	4.3038172E-001	-1.2708707E+000	0
3.7260044E+000	1.149259972918662E+002	-1.2721303E+000	-3.414194252640918E+002	4.3432999E-001	-1.2721756E+000	0
3.7073941E+000	1.150664972883169E+002	-1.2735283E+000	-3.435103662454339E+002	4.3747020E-001	-1.2735806E+000	0
3.6548479E+000	1.152169972845149E+002	-1.2750529E+000	-3.488662114325791E+002	4.4482288E-001	-1.2750858E+000	0
3.6483262E+000	1.153974972799551E+002	-1.2768435E+000	-3.499806441651181E+002	4.4687054E-001	-1.2768906E+000	0
3.6468728E+000	1.155675972756580E+002	-1.2785621E+000	-3.505913651602555E+002	4.4825283E-001	-1.2785918E+000	0
3.5925195E+000	1.157081972721062E+002	-1.2799618E+000	-3.562852780272871E+002	4.5603156E-001	-1.2799979E+000	0
3.5520973E+000	1.158684972680567E+002	-1.2815615E+000	-3.607900890806213E+002	4.6237469E-001	-1.2816007E+000	0
3.4620948E+000	1.160390972637470E+002	-1.2832903E+000	-3.706687246698557E+002	4.7567555E-001	-1.2833066E+000	0
3.4639561E+000	1.161895972599450E+002	-1.2848092E+000	-3.709080579015936E+002	4.7654611E-001	-1.2848117E+000	0
3.4551392E+000	1.163699972553877E+002	-1.2865973E+000	-3.723720584617795E+002	4.7909287E-001	-1.2866155E+000	0
3.4522653E+000	1.165303972513357E+002	-1.2882050E+000	-3.731477542506600E+002	4.8069081E-001	-1.2882193E+000	0
3.4397469E+000	1.166606972480440E+002	-1.2895184E+000	-3.748875856987870E+002	4.8342443E-001	-1.2895226E+000	0
3.4415779E+000	1.168012972444922E+002	-1.2909099E+000	-3.750924506988649E+002	4.8421055E-001	-1.2909285E+000	0
3.4402249E+000	1.169420972409353E+002	-1.2923175E+000	-3.756491446987538E+002	4.8545796E-001	-1.2923367E+000	0
3.4100316E+000	1.170625972378912E+002	-1.2935255E+000	-3.793294710137870E+002	4.9067232E-001	-1.2935412E+000	0
3.4057736E+000	1.171829972348496E+002	-1.2947280E+000	-3.801568087380856E+002	4.9219969E-001	-1.2947458E+000	0
3.4067264E+000	1.173134972315529E+002	-1.2960627E+000	-3.804422820324571E+002	4.9307704E-001	-1.2960509E+000	0
3.3931773E+000	1.174838972272482E+002	-1.2977356E+000	-3.824544066786420E+002	4.9632469E-001	-1.2977550E+000	0
3.3245885E+000	1.176144972239490E+002	-1.2990444E+000	-3.907383859521278E+002	5.0758648E-001	-1.2990607E+000	0
3.3048918E+000	1.177450972206498E+002	-1.3003399E+000	-3.934591576168441E+002	5.1163065E-001	-1.3003666E+000	0
3.3309233E+000	1.178957972168428E+002	-1.3018746E+000	-3.908449663154024E+002	5.0883114E-001	-1.3018737E+000	0
3.3304248E+000	1.180463972130383E+002	-1.3033605E+000	-3.913496148802428E+002	5.1006961E-001	-1.3033795E+000	0
3.3091354E+000	1.182067972089862E+002	-1.3049605E+000	-3.943508866193015E+002	5.1461232E-001	-1.3049836E+000	0
3.2955375E+000	1.183771972046816E+002	-1.3066664E+000	-3.964956777478255E+002	5.1808757E-001	-1.3066882E+000	0
3.2955816E+000	1.185475972003769E+002	-1.3083779E+000	-3.970096932820634E+002	5.1943868E-001	-1.3083918E+000	0
3.2930939E+000	1.186880971968276E+002	-1.3097571E+000	-3.977284475149218E+002	5.2092767E-001	-1.3097970E+000	0
3.2314119E+000	1.187987971940311E+002	-1.3108609E+000	-4.056619394656109E+002	5.3176636E-001	-1.3109034E+000	0
3.2149081E+000	1.189291971907369E+002	-1.3121874E+000	-4.081570648914094E+002	5.3557855E-001	-1.3122073E+000	0
3.2111709E+000	1.190895971866848E+002	-1.3138205E+000	-4.091406159717735E+002	5.3753734E-001	-1.3138117E+000	0
3.1601000E+000	1.192600971823776E+002	-1.3155043E+000	-4.162856508106997E+002	5.4762554E-001	-1.3155165E+000	0
3.1066861E+000	1.194006971788258E+002	-1.3169261E+000	-4.239005981599025E+002	5.5824578E-001	-1.3169223E+000	0
3.0895057E+000	1.195511971750238E+002	-1.3184453E+000	-4.267495954292481E+002	5.6264603E-001	-1.3184273E+000	0
3.0955465E+000	1.196916971714745E+002	-1.3198690E+000	-4.263767318706623E+002	5.6276143E-001	-1.3198327E+000	0
3.0888107E+000	1.198421971676726E+002	-1.3213508E+000	-4.277862644129609E+002	5.6525570E-001	-1.3213378E+000	0
3.0644510E+000	1.199926971638706E+002	-1.3228561E+000	-4.316779851760352E+002	5.7104784E-001	-1.3228427E+000	0
3.0641036E+000	1.201328971603289E+002	-1.3242978E+000	-4.321974682880327E+002	5.7235813E-001	-1.3242447E+000	0
3.0475159E+000	1.202832971565294E+002	-1.3257746E+000	-4.350344931445852E+002	5.7675767E-001	-1.3257487E+000	0
3.0186672E+000	1.204437971524749E+002	-1.3273680E+000	-4.397199007707704E+002	5.8367014E-001	-1.3273540E+000	0
3.0325580E+000	1.205844971489205E+002	-1.3288000E+000	-4.381779403937235E+002	5.8225083E-001	-1.3287604E+000	0
3.0322673E+000	1.207350971451160E+002	-1.3302976E+000	-4.387138131687325E+002	5.8361995E-001	-1.3302666E+000	0
2.9882026E+000	1.208557971420669E+002	-1.3314728E+000	-4.455764791525844E+002	5.9327292E-001	-1.3314734E+000	0
2.9748297E+000	1.209861971387727E+002	-1.3328030E+000	-4.480266539156382E+002	5.9713125E-001	-1.3327780E+000	0
2.9846811E+000	1.211465971347207E+002	-1.3343954E+000	-4.470813808959456E+002	5.9658337E-001	-1.3343817E+000	0
2.9734776E+000	1.212972971309136E+002	-1.3359047E+000	-4.492735103222631E+002	6.0018659E-001	-1.3358886E+000	0
2.9710965E+000	1.214575971268641E+002	-1.3375167E+000	-4.501761139966295E+002	6.0211807E-001	-1.3374920E+000	0
2.9720011E+000	1.216378971223094E+002	-1.3393242E+000	-4.506472793226330E+002	6.0356283E-001	-1.3392953E+000	0
2.9449725E+000	1.218185971177445E+002	-1.3411231E+000	-4.553941052598885E+002	6.1073953E-001	-1.3411016E+000	0
2.9337649E+000	1.219495971144352E+002	-1.3424311E+000	-4.575796186497580E+002	6.1426908E-001	-1.3424109E+000	0
2.9262342E+000	1.220601971116412E+002	-1.3435301E+000	-4.591327719536421E+002	6.1685866E-001	-1.3435173E+000	0
2.9200442E+000	1.221904971083495E+002	-1.3448570E+000	-4.605604749984577E+002	6.1938798E-001	-1.3448209E+000	0
2.9027925E+000	1.223508971042975E+002	-1.3464459E+000	-4.638450696662799E+002	6.2454230E-001	-1.3464247E+000	0
2.9006510E+000	1.225213970999903E+002	-1.3481789E+000	-4.647849401984261E+002	6.2661326E-001	-1.3481299E+000	0
2.8888211E+000	1.226619970964384E+002	-1.3495791E+000	-4.671729379593589E+002	6.3048685E-001	-1.3495355E+000	0
2.8995681E+000	1.227727970936394E+002	-1.3506864E+000	-4.658233027835521E+002	6.2918121E-001	-1.3506432E+000	0
2.9049203E+000	1.228934970905902E+002	-1.3518846E+000	-4.653775177236566E+002	6.2913668E-001	-1.3518506E+000	0
2.8875263E+000	1.230439970867883E+002	-1.3533955E+000	-4.687041140942583E+002	6.3434201E-001	-1.3533559E+000	0
2.8777978E+000	1.231846970832339E+002	-1.3547773E+000	-4.707687795774682E+002	6.3778687E-001	-1.3547624E+000	0
2.8558950E+000	1.233351970794320E+002	-1.3562961E+000	-4.749110273950482E+002	6.4411998E-001	-1.3562675E+000	0
2.8660371E+000	1.234658970761302E+002	-1.3576294E+000	-4.736956831303705E+002	6.4310318E-001	-1.3575742E+000	0
2.8874176E+000	1.236164970723257E+002	-1.3591195E+000	-4.707041843417574E+002	6.3974327E-001	-1.3590806E+000	0
2.8709540E+000	1.237470970690265E+002	-1.3604020E+000	-4.738501507237670E+002	6.4462668E-001	-1.3603866E+000	0
2.8480034E+000	1.238675970659824E+002	-1.3616092E+000	-4.780925390502562E+002	6.5097523E-001	-1.3615917E+000	0
2.8337986E+000	1.240176970621906E+002	-1.3631428E+000	-4.810302592799671E+002	6.5571296E-001	-1.3630933E+000	0
2.8112292E+000	1.241879970578884E+002	-1.3648486E+000	-4.854988494491008E+002	6.6263241E-001	-1.3647958E+000	0
2.7949877E+000	1.243382970540915E+002	-1.3663327E+000	-4.888510392933135E+002	6.6793311E-001	-1.3662984E+000	0
2.7617674E+000	1.244887970502896E+002	-1.3678464E+000	-4.952793354938785E+002	6.7746603E-001	-1.3678037E+000	0
2.7404492E+000	1.246789970454847E+002	-1.3697464E+000	-4.998255350281602E+002	6.8463427E-001	-1.3697064E+000	0
2.7460551E+000	1.248789970404323E+002	-1.3717390E+000	-4.995307763677083E+002	6.8522584E-001	-1.3717064E+000	0
2.6887310E+000	1.250789970353799E+002	-1.3737532E+000	-5.109299790648338E+002	7.0189166E-001	-1.3737063E+000	0
2.6921713E+000	1.252789970303274E+002	-1.3757597E+000	-5.110223519202000E+002	7.0304400E-001	-1.3757063E+000	0
2.6272914E+000	1.254789970252750E+002	-1.3777713E+000	-5.244074734798101E+002	7.2251356E-001	-1.3777064E+000	0
2.6451714E+000	1.256789970202226E+002	-1.3797449E+000	-5.216088661487938E+002	7.1968716E-001	-1.3797064E+000	0
2.6038666E+000	1.258789970151702E+002	-1.3817955E+000	-5.306706558971456E+002	7.3327833E-001	-1.3817064E+000	0
2.5759335E+000	1.260789970101177E+002	-1.3837895E+000	-5.371992393805049E+002	7.4337071E-001	-1.3837063E+000	0
2.5421503E+000	1.262789970050653E+002	-1.3858098E+000	-5.451329188746931E+002	7.5545055E-001	-1.3857063E+000	0
2.5290780E+000	1.264789970000129E+002	-1.3877875E+000	-5.487325604324160E+002	7.6152414E-001	-1.3877063E+000	0
2.5318437E+000	1.266789969949605E+002	-1.3898122E+000	-5.489328676946025E+002	7.6291358E-001	-1.3897064E+000	0
2.5292413E+000	1.268789969899080E+002	-1.3917931E+000	-5.502808918250130E+002	7.6587719E-001	-1.3917063E+000	0
2.5225177E+000	1.270789969848556E+002	-1.3938167E+000	-5.525498209972757E+002	7.7015316E-001	-1.3937064E+000	0
2.5235322E+000	1.272789969798032E+002	-1.3957909E+000	-5.531100275381341E+002	7.7202594E-001	-1.3957064E+000	0
2.5268092E+000	1.274789969747508E+002	-1.3977989E+000	-5.531873614512351E+002	7.7324468E-001	-1.3977064E+000	0
2.5044780E+000	1.276789969696983E+002	-1.3997858E+000	-5.589131565612979E+002	7.8235865E-001	-1.3997065E+000	0
2.4918091E+000	1.278789969646459E+002	-1.4017637E+000	-5.625485837464976E+002	7.8856015E-001	-1.4017063E+000	0
2.5022461E+000	1.280789969595935E+002	-1.4037726E+000	-5.610050198777753E+002	7.8752345E-001	-1.4037064E+000	0
2.5121934E+000	1.282789969545411E+002	-1.4057782E+000	-5.595819784583955E+002	7.8664815E-001	-1.4057063E+000	0
2.4969018E+000	1.284089969512570E+002	-1.4070737E+000	-5.635278766982428E+002	7.9292530E-001	-1.4070060E+000	0
2.4830847E+000	1.284443969503627E+002	-1.4074981E+000	-5.668345219538760E+002	7.9781854E-001	-1.4074061E+000	1