EC-Lab ASCII FILE
Nb header lines : 61                          

Linear Sweep Voltammetry

Run on channel : 1 (SN 1340)
User : 
Electrode connection : standard
Potential control : Ewe
Ewe ctrl range : min = -5.00 V, max = 5.00 V
Ewe,I filtering : 50 kHz
Channel : Grounded
Acquisition started on : 02/26/2026 18:00:23.237
Technique started on : 02/26/2026 18:00:25.921
Loaded Setting File :  NONE
Saved on :
	File : PtPdCoNi_sqmagnet_2_26_02_LSV_C01.mpr
	Directory : C:\Users\volt\Documents\Platalytix\
	Host : 127.0.0.1
Device : SP-200 (SN 0262)
Address : USB
EC-LAB for windows v11.60 (software)
Internet server v11.60 (firmware)
Command interpretor v11.60 (firmware)
Electrode material : PtPdCoNi_mag
Initial state : 
Electrolyte : KOH (1M)
Comments : 
Cable : standard
Reference electrode : Hg/HgO (0.140 V)
Electrode surface area : 1.000 cm˛
Characteristic mass : 0.001 g
Equivalent Weight : 0.000 g/eq.
Density : 0.000 g/cm3
Volume (V) : 0.001 cmł
Cycle Definition : Charge/Discharge alternance
tR (h:m:s)          0:00:5.0000         
dER/dt (mV/h)       0.0                 
dER (mV)            0                   
dtR (s)             0.0000              
dE/dt               10.000              
dE/dt unit          mV/s                
Ei (V)              -0.200              
vs.                 Ref                 
EL (V)              -2.500              
vs.                 Ref                 
record              <I>                 
dI                  0.000               
unit dI             µA                  
tI (s)              0.0000              
step percent        50                  
N                   10                  
E range min (V)     -5.000              
E range max (V)     5.000               
I Range             Auto                
I Range min         Unset               
I Range max         Unset               
I Range init        Unset               
Bandwidth           8                   

Rwe/Ohm	time/s	Ewe/V	<I>/mA	Pwe/W	control/V	error	
0.0000000E+000	2.684400127473054E+000	-1.6319545E-001	0.000000000000000E+000	0.0000000E+000	0.0000000E+000	0
0.0000000E+000	7.684200001167483E+000	-2.0600844E-002	0.000000000000000E+000	0.0000000E+000	-1.9994761E-001	0
1.3152842E+003	7.824199997630785E+000	-2.0111705E-001	-1.529076747797635E-001	3.0752341E-005	-2.0124739E-001	0
1.0575918E+003	7.944199994599330E+000	-2.0231993E-001	-1.913024876364640E-001	3.8704307E-005	-2.0244744E-001	0
1.2613480E+003	8.154199989294284E+000	-2.0443764E-001	-1.620787037673774E-001	3.3134987E-005	-2.0454745E-001	0
1.4208154E+003	8.354199984241859E+000	-2.0643725E-001	-1.452949088713043E-001	2.9994280E-005	-2.0654744E-001	0
1.5496512E+003	8.554199979189434E+000	-2.0845343E-001	-1.345163568022266E-001	2.8040397E-005	-2.0854744E-001	0
1.6588265E+003	8.754199974137009E+000	-2.1045133E-001	-1.268675972891304E-001	2.6699456E-005	-2.1054745E-001	0
1.7546055E+003	8.954199969084584E+000	-2.1244481E-001	-1.210783903630630E-001	2.5722476E-005	-2.1254745E-001	0
1.8403540E+003	9.154199964032159E+000	-2.1444847E-001	-1.165256605118237E-001	2.4988749E-005	-2.1454744E-001	0
1.9193433E+003	9.354199958979734E+000	-2.1646103E-001	-1.127786986728339E-001	2.4412193E-005	-2.1654741E-001	0
1.9923075E+003	9.554199953927309E+000	-2.1844700E-001	-1.096452201596227E-001	2.3951668E-005	-2.1854736E-001	0
2.0616213E+003	9.754199948874884E+000	-2.2046079E-001	-1.069356291882210E-001	2.3575112E-005	-2.2054729E-001	0
2.1274724E+003	9.954199943822459E+000	-2.2246332E-001	-1.045669604793971E-001	2.3262313E-005	-2.2254722E-001	0
2.1902356E+003	1.015419993877003E+001	-2.2445822E-001	-1.024813155692215E-001	2.3002773E-005	-2.2454716E-001	0
2.2507017E+003	1.035419993371761E+001	-2.2645524E-001	-1.006153994387691E-001	2.2784885E-005	-2.2654711E-001	0
2.3100894E+003	1.055419992866518E+001	-2.2845331E-001	-9.889370659704100E-002	2.2592594E-005	-2.2854705E-001	0
2.3649751E+003	1.075419992361276E+001	-2.3045796E-001	-9.744625220913683E-002	2.2457265E-005	-2.3054698E-001	0
2.4225562E+003	1.095419991856033E+001	-2.3244438E-001	-9.595004705629862E-002	2.2303049E-005	-2.3254693E-001	0
2.4763699E+003	1.115419991350791E+001	-2.3445775E-001	-9.467799862996684E-002	2.2197990E-005	-2.3454686E-001	0
2.5296106E+003	1.135419990845548E+001	-2.3645876E-001	-9.347634641252978E-002	2.2103301E-005	-2.3654678E-001	0
2.5835867E+003	1.155419990340306E+001	-2.3847064E-001	-9.230216708384875E-002	2.2011358E-005	-2.3854673E-001	0
2.6337791E+003	1.175419989835063E+001	-2.4046150E-001	-9.129903704992337E-002	2.1953903E-005	-2.4054664E-001	0
2.6863018E+003	1.195419989329821E+001	-2.4246915E-001	-9.026131912159974E-002	2.1885586E-005	-2.4254659E-001	0
2.7391687E+003	1.215419988824578E+001	-2.4446404E-001	-8.924752683537163E-002	2.1817810E-005	-2.4454656E-001	0
2.7894976E+003	1.235419988319336E+001	-2.4647254E-001	-8.835732460638646E-002	2.1777654E-005	-2.4654648E-001	0
2.8403352E+003	1.255419987814093E+001	-2.4846445E-001	-8.747716007918949E-002	2.1734964E-005	-2.4854642E-001	0
2.8897388E+003	1.275419987308851E+001	-2.5047991E-001	-8.667908059200813E-002	2.1711368E-005	-2.5054634E-001	0
2.9382932E+003	1.295419986803608E+001	-2.5248054E-001	-8.592761847530550E-002	2.1695052E-005	-2.5254628E-001	0
2.9886694E+003	1.315419986298366E+001	-2.5446823E-001	-8.514432057098409E-002	2.1666525E-005	-2.5454623E-001	0
3.0399709E+003	1.335419985793123E+001	-2.5647774E-001	-8.436848435819155E-002	2.1638638E-005	-2.5654617E-001	0
3.0869697E+003	1.355419985287881E+001	-2.5847667E-001	-8.373152214744461E-002	2.1642645E-005	-2.5854611E-001	0
3.1372668E+003	1.375419984782638E+001	-2.6044697E-001	-8.301715407406474E-002	2.1621567E-005	-2.6054606E-001	0
3.1877534E+003	1.395419984277396E+001	-2.6244313E-001	-8.232855228886671E-002	2.1606562E-005	-2.6254597E-001	0
3.2372805E+003	1.415419983772154E+001	-2.6441702E-001	-8.167874594081748E-002	2.1597250E-005	-2.6454592E-001	0
3.2859575E+003	1.435419983266911E+001	-2.6643929E-001	-8.108421408702246E-002	2.1604021E-005	-2.6654586E-001	0
3.3323926E+003	1.455419982761669E+001	-2.6845351E-001	-8.055879132950963E-002	2.1626291E-005	-2.6854581E-001	0
3.3825347E+003	1.475419982256426E+001	-2.7045265E-001	-7.995561520461339E-002	2.1624208E-005	-2.7054575E-001	0
3.4300254E+003	1.495419981751184E+001	-2.7244052E-001	-7.942813665758103E-002	2.1639444E-005	-2.7254570E-001	0
3.4777131E+003	1.515399981246446E+001	-2.7444559E-001	-7.891553585492883E-002	2.1658021E-005	-2.7454561E-001	0
3.5286611E+003	1.535399980741204E+001	-2.7645069E-001	-7.834436091469776E-002	2.1658352E-005	-2.7654555E-001	0
3.5773535E+003	1.555399980235961E+001	-2.7845067E-001	-7.783705811280234E-002	2.1673781E-005	-2.7854547E-001	0
3.6221584E+003	1.575399979730719E+001	-2.8045535E-001	-7.742768534155062E-002	2.1715008E-005	-2.8054544E-001	0
3.6706838E+003	1.595399979225476E+001	-2.8243688E-001	-7.694393979985259E-002	2.1731807E-005	-2.8254536E-001	0
3.7210588E+003	1.615399978720234E+001	-2.8443748E-001	-7.643993248711101E-002	2.1742382E-005	-2.8454527E-001	0
3.7713567E+003	1.635399978214991E+001	-2.8644851E-001	-7.595370590312978E-002	2.1756825E-005	-2.8654522E-001	0
3.8183062E+003	1.655399977709749E+001	-2.8844932E-001	-7.554379065865308E-002	2.1790554E-005	-2.8854519E-001	0
3.8679736E+003	1.675399977204506E+001	-2.9044783E-001	-7.509043853774330E-002	2.1809856E-005	-2.9054511E-001	0
3.9147168E+003	1.695399976699264E+001	-2.9243997E-001	-7.470271507723703E-002	2.1846059E-005	-2.9254505E-001	0
3.9641235E+003	1.715399976194021E+001	-2.9445037E-001	-7.427880851353386E-002	2.1871423E-005	-2.9454499E-001	0
4.0119761E+003	1.735399975688779E+001	-2.9645014E-001	-7.389130380718417E-002	2.1905087E-005	-2.9654488E-001	0
4.0591995E+003	1.755399975183536E+001	-2.9844168E-001	-7.352230014477984E-002	2.1942118E-005	-2.9854485E-001	0
4.1070649E+003	1.775399974678294E+001	-3.0043802E-001	-7.315151573078571E-002	2.1977496E-005	-3.0054477E-001	0
4.1553506E+003	1.795399974173051E+001	-3.0244735E-001	-7.278504121632567E-002	2.2013643E-005	-3.0254471E-001	0
4.2033574E+003	1.815399973667809E+001	-3.0444816E-001	-7.242975987508760E-002	2.2051106E-005	-3.0454469E-001	0
4.2527246E+003	1.835399973162566E+001	-3.0645368E-001	-7.206054928220473E-002	2.2083221E-005	-3.0654460E-001	0
4.2995513E+003	1.855399972657324E+001	-3.0845067E-001	-7.174020293147598E-002	2.2128314E-005	-3.0854452E-001	0
4.3495195E+003	1.875399972152081E+001	-3.1045705E-001	-7.137731969823258E-002	2.2159593E-005	-3.1054446E-001	0
4.3981768E+003	1.895399971646839E+001	-3.1244877E-001	-7.104052458213983E-002	2.2196524E-005	-3.1254441E-001	0
4.4442979E+003	1.915399971141596E+001	-3.1444302E-001	-7.075201570375267E-002	2.2247477E-005	-3.1454435E-001	0
4.4905186E+003	1.935399970636354E+001	-3.1643835E-001	-7.046810653041680E-002	2.2298811E-005	-3.1654429E-001	0
4.5382271E+003	1.955399970131111E+001	-3.1845275E-001	-7.017117630122249E-002	2.2346203E-005	-3.1854421E-001	0
4.5830425E+003	1.975399969625869E+001	-3.2043958E-001	-6.991852630962470E-002	2.2404663E-005	-3.2054415E-001	0
4.6332041E+003	1.995399969120626E+001	-3.2245272E-001	-6.959605279120940E-002	2.2441436E-005	-3.2254410E-001	0
4.6755029E+003	2.015399968615384E+001	-3.2445315E-001	-6.939427700482903E-002	2.2515191E-005	-3.2454404E-001	0
4.7205205E+003	2.035399968110141E+001	-3.2645461E-001	-6.915648432782151E-002	2.2576452E-005	-3.2654399E-001	0
4.7672783E+003	2.055399967604899E+001	-3.2847559E-001	-6.890212036215199E-002	2.2632665E-005	-3.2854390E-001	0
4.8147139E+003	2.075399967099656E+001	-3.3046582E-001	-6.863664952845927E-002	2.2682067E-005	-3.3054385E-001	0
4.8580107E+003	2.095399966594414E+001	-3.3246601E-001	-6.843665839688184E-002	2.2752862E-005	-3.3254379E-001	0
4.8978477E+003	2.115399966089171E+001	-3.3445984E-001	-6.828710372515351E-002	2.2839295E-005	-3.3454373E-001	0
4.9425313E+003	2.135389965584181E+001	-3.3645195E-001	-6.807279801885802E-002	2.2903225E-005	-3.3654299E-001	0
4.9915391E+003	2.155379965079192E+001	-3.3846748E-001	-6.780824203375735E-002	2.2950884E-005	-3.3854359E-001	0
5.0301343E+003	2.175379964573949E+001	-3.4045556E-001	-6.768319569633630E-002	2.3043120E-005	-3.4054354E-001	0
5.0765366E+003	2.195379964068707E+001	-3.4244922E-001	-6.745725320419860E-002	2.3100683E-005	-3.4254348E-001	0
5.1158110E+003	2.215379963563464E+001	-3.4446532E-001	-6.733347247238508E-002	2.3194047E-005	-3.4454340E-001	0
5.1564888E+003	2.235379963058222E+001	-3.4645763E-001	-6.718867127213379E-002	2.3278028E-005	-3.4654331E-001	0
5.2035498E+003	2.255379962552979E+001	-3.4847015E-001	-6.696777690525113E-002	2.3336272E-005	-3.4854329E-001	0
5.2410923E+003	2.275379962047737E+001	-3.5047126E-001	-6.686989078034222E-002	2.3435974E-005	-3.5054323E-001	0
5.2841484E+003	2.295379961542494E+001	-3.5245296E-001	-6.670004833075771E-002	2.3508630E-005	-3.5254318E-001	0
5.3246201E+003	2.315379961037252E+001	-3.5445976E-001	-6.656996219507627E-002	2.3596373E-005	-3.5454312E-001	0
5.3599224E+003	2.335379960532009E+001	-3.5644892E-001	-6.650262839813403E-002	2.3704790E-005	-3.5654306E-001	0
5.4057188E+003	2.355379960026767E+001	-3.5846248E-001	-6.631171815424686E-002	2.3770262E-005	-3.5854301E-001	0
5.4413867E+003	2.375379959521524E+001	-3.6046100E-001	-6.624432531388169E-002	2.3878496E-005	-3.6054289E-001	0
5.4789116E+003	2.395379959016282E+001	-3.6245161E-001	-6.615394467642099E-002	2.3977604E-005	-3.6254284E-001	0
5.5177520E+003	2.415379958511039E+001	-3.6444697E-001	-6.604990282395862E-002	2.4071687E-005	-3.6454278E-001	0
5.5592046E+003	2.435379958005797E+001	-3.6644500E-001	-6.591680727037419E-002	2.4154884E-005	-3.6654273E-001	0
5.5950908E+003	2.455379957500554E+001	-3.6842802E-001	-6.584844226439968E-002	2.4260411E-005	-3.6854267E-001	0
5.6251226E+003	2.475379956995312E+001	-3.7042317E-001	-6.585157434920652E-002	2.4392948E-005	-3.7054259E-001	0
5.6623398E+003	2.495379956490069E+001	-3.7242422E-001	-6.577214033368262E-002	2.4495137E-005	-3.7254256E-001	0
5.6978506E+003	2.515379955984827E+001	-3.7442797E-001	-6.571389833684838E-002	2.4605122E-005	-3.7454244E-001	0
5.7328398E+003	2.535379955479584E+001	-3.7642711E-001	-6.566154436195659E-002	2.4716786E-005	-3.7654239E-001	0
5.7648101E+003	2.555379954974342E+001	-3.7845066E-001	-6.564841630748286E-002	2.4844687E-005	-3.7854233E-001	0
5.7939712E+003	2.575379954469099E+001	-3.8043815E-001	-6.566103524897984E-002	2.4979963E-005	-3.8054228E-001	0
5.8250874E+003	2.595379953963857E+001	-3.8245234E-001	-6.565607106260285E-002	2.5110317E-005	-3.8254222E-001	0
5.8587881E+003	2.615379953458614E+001	-3.8444552E-001	-6.561860607466052E-002	2.5226778E-005	-3.8454217E-001	0
5.8917104E+003	2.635379952953372E+001	-3.8646632E-001	-6.559492647647865E-002	2.5350229E-005	-3.8654208E-001	0
5.9195122E+003	2.655379952448129E+001	-3.8845825E-001	-6.562335692428467E-002	2.5491934E-005	-3.8854203E-001	0
5.9575020E+003	2.675379951942887E+001	-3.9042768E-001	-6.553546946533761E-002	2.5586862E-005	-3.9054197E-001	0
5.9852139E+003	2.695379951437644E+001	-3.9243111E-001	-6.556676481185209E-002	2.5730438E-005	-3.9254192E-001	0
6.0147432E+003	2.715379950932402E+001	-3.9443150E-001	-6.557744589756709E-002	2.5865811E-005	-3.9454186E-001	0
6.0428633E+003	2.735379950427159E+001	-3.9643952E-001	-6.560458233601130E-002	2.6008249E-005	-3.9654177E-001	0
6.0688848E+003	2.755379949921917E+001	-3.9845055E-001	-6.565465889248123E-002	2.6160134E-005	-3.9854172E-001	0
6.0981558E+003	2.775369949416927E+001	-4.0044069E-001	-6.566586960879361E-002	2.6295287E-005	-4.0054122E-001	0
6.1315166E+003	2.795359948911937E+001	-4.0244505E-001	-6.563547984675794E-002	2.6414675E-005	-4.0254161E-001	0
6.1516157E+003	2.815359948406694E+001	-4.0443948E-001	-6.574524291146910E-002	2.6589973E-005	-4.0454155E-001	0
6.1839897E+003	2.835359947901452E+001	-4.0643886E-001	-6.572437322331065E-002	2.6712940E-005	-4.0654147E-001	0
6.2167603E+003	2.855359947396209E+001	-4.0845010E-001	-6.570143986582035E-002	2.6835760E-005	-4.0854144E-001	0
6.2419238E+003	2.875359946890967E+001	-4.1043475E-001	-6.575452536714098E-002	2.6987942E-005	-4.1054136E-001	0
6.2658550E+003	2.895359946385724E+001	-4.1247568E-001	-6.582911211106079E-002	2.7152908E-005	-4.1254130E-001	0
6.2946445E+003	2.915359945880482E+001	-4.1446868E-001	-6.584465267799811E-002	2.7290545E-005	-4.1454118E-001	0
6.3222935E+003	2.935359945375239E+001	-4.1647440E-001	-6.587394513348199E-002	2.7434811E-005	-4.1654119E-001	0
6.3566797E+003	2.955359944869997E+001	-4.1847482E-001	-6.583229536106150E-002	2.7549158E-005	-4.1854107E-001	0
6.3805820E+003	2.975359944364754E+001	-4.2048079E-001	-6.590006658078829E-002	2.7709712E-005	-4.2054102E-001	0
6.4086353E+003	2.995359943859512E+001	-4.2246121E-001	-6.592062142700841E-002	2.7848906E-005	-4.2254096E-001	0
6.4365283E+003	3.015359943354269E+001	-4.2446694E-001	-6.594656482275557E-002	2.7992137E-005	-4.2454091E-001	0
6.4665991E+003	3.035359942849027E+001	-4.2647350E-001	-6.595019917236095E-002	2.8126013E-005	-4.2654085E-001	0
6.4950845E+003	3.055359942343785E+001	-4.2848310E-001	-6.597036626897435E-002	2.8267186E-005	-4.2854080E-001	0
6.5228174E+003	3.075359941838542E+001	-4.3046626E-001	-6.599391391289655E-002	2.8408154E-005	-4.3054068E-001	0
6.5541196E+003	3.095359941333300E+001	-4.3248087E-001	-6.598611256739134E-002	2.8537732E-005	-4.3254063E-001	0
6.5761509E+003	3.115359940828057E+001	-4.3447071E-001	-6.606763075612676E-002	2.8704451E-005	-4.3454063E-001	0
6.6021538E+003	3.135359940322815E+001	-4.3646514E-001	-6.610950679188832E-002	2.8854496E-005	-4.3654051E-001	0
6.6391099E+003	3.155359939817572E+001	-4.3847850E-001	-6.604477144934062E-002	2.8959212E-005	-4.3854046E-001	0
6.6706157E+003	3.175359939312330E+001	-4.4045940E-001	-6.602979544814169E-002	2.9083443E-005	-4.4054040E-001	0
6.7025327E+003	3.195359938807087E+001	-4.4246829E-001	-6.601508895026065E-002	2.9209583E-005	-4.4254035E-001	0
6.7365122E+003	3.215359938301845E+001	-4.4447598E-001	-6.598013634751208E-002	2.9326586E-005	-4.4454026E-001	0
6.7677402E+003	3.235359937796602E+001	-4.4648248E-001	-6.597216660579219E-002	2.9455416E-005	-4.4654024E-001	0
6.7988145E+003	3.255359937291360E+001	-4.4847825E-001	-6.596418514545763E-002	2.9583502E-005	-4.4854018E-001	0
6.8345977E+003	3.275359936786117E+001	-4.5046744E-001	-6.590987137168247E-002	2.9690251E-005	-4.5054007E-001	0
6.8653223E+003	3.295359936280875E+001	-4.5248038E-001	-6.590810591405649E-002	2.9822124E-005	-4.5254001E-001	0
6.9001147E+003	3.315359935775632E+001	-4.5447528E-001	-6.586488874210983E-002	2.9933964E-005	-4.5453995E-001	0
6.9365996E+003	3.335359935270390E+001	-4.5646864E-001	-6.580582144775771E-002	3.0038294E-005	-4.5653996E-001	0
6.9697686E+003	3.355359934765147E+001	-4.5846358E-001	-6.577888353413108E-002	3.0157222E-005	-4.5853984E-001	0
7.0080288E+003	3.375359934259905E+001	-4.6047816E-001	-6.570722758157532E-002	3.0256742E-005	-4.6053985E-001	0
7.0422935E+003	3.395359933754662E+001	-4.6248668E-001	-6.567273854358247E-002	3.0372767E-005	-4.6253970E-001	0
7.0869722E+003	3.415349933249672E+001	-4.6446374E-001	-6.553768308360264E-002	3.0439878E-005	-4.6453902E-001	0
7.1157749E+003	3.435339932744682E+001	-4.6646628E-001	-6.555382879514274E-002	3.0578649E-005	-4.6653959E-001	0
7.1653022E+003	3.455339932239440E+001	-4.6847472E-001	-6.538101291978757E-002	3.0629351E-005	-4.6853957E-001	0
7.2113994E+003	3.475339931734197E+001	-4.7047022E-001	-6.523979707175465E-002	3.0693383E-005	-4.7053942E-001	0
7.2447705E+003	3.495339931228955E+001	-4.7248340E-001	-6.521716682650075E-002	3.0814030E-005	-4.7253942E-001	0
7.2945693E+003	3.515339930723712E+001	-4.7446308E-001	-6.504332823066394E-002	3.0860658E-005	-4.7453934E-001	0
7.3384888E+003	3.535339930218470E+001	-4.7647741E-001	-6.492854676276953E-002	3.0936986E-005	-4.7653928E-001	0
7.3827476E+003	3.555339929713227E+001	-4.7845575E-001	-6.480727456784607E-002	3.1007414E-005	-4.7853929E-001	0
7.4297227E+003	3.575339929207985E+001	-4.8045281E-001	-6.466631731651973E-002	3.1069114E-005	-4.8053914E-001	0
7.4729233E+003	3.595339928702742E+001	-4.8245448E-001	-6.456033989962418E-002	3.1147425E-005	-4.8253912E-001	0
7.5235361E+003	3.615339928197500E+001	-4.8446000E-001	-6.439259153940746E-002	3.1195636E-005	-4.8453903E-001	0
7.5722373E+003	3.635339927692257E+001	-4.8645914E-001	-6.424245911401150E-002	3.1251329E-005	-4.8653901E-001	0
7.6209829E+003	3.655339927187015E+001	-4.8845786E-001	-6.409381551334348E-002	3.1307129E-005	-4.8853886E-001	0
7.6770615E+003	3.675339926681772E+001	-4.9048054E-001	-6.388909973958046E-002	3.1336360E-005	-4.9053887E-001	0
7.7264600E+003	3.695339926176530E+001	-4.9246463E-001	-6.373742130181642E-002	3.1388427E-005	-4.9253875E-001	0
7.7816416E+003	3.715339925671287E+001	-4.9445632E-001	-6.354139152810823E-002	3.1418444E-005	-4.9453875E-001	0
7.8318408E+003	3.735339925166045E+001	-4.9646351E-001	-6.339039772330801E-002	3.1471020E-005	-4.9653870E-001	0
7.8901748E+003	3.755339924660802E+001	-4.9848026E-001	-6.317733873480114E-002	3.1492655E-005	-4.9853858E-001	0
7.9454634E+003	3.775339924155560E+001	-5.0047600E-001	-6.298889876966296E-002	3.1524432E-005	-5.0053853E-001	0
7.9964067E+003	3.795339923650317E+001	-5.0247961E-001	-6.283817421264799E-002	3.1574902E-005	-5.0253850E-001	0
8.0593125E+003	3.815339923145075E+001	-5.0448155E-001	-6.259610256667991E-002	3.1578580E-005	-5.0453842E-001	0
8.1198330E+003	3.835339922639832E+001	-5.0648707E-001	-6.237653973132207E-002	3.1592910E-005	-5.0653833E-001	0
8.1849253E+003	3.855339922134590E+001	-5.0847173E-001	-6.212295331335449E-002	3.1587766E-005	-5.0853831E-001	0
8.2366260E+003	3.875339921629347E+001	-5.1047111E-001	-6.197575318137116E-002	3.1636831E-005	-5.1053822E-001	0
8.2964639E+003	3.895339921124105E+001	-5.1246750E-001	-6.176938861608475E-002	3.1654803E-005	-5.1253819E-001	0
8.3533926E+003	3.915339920618862E+001	-5.1448655E-001	-6.159013417198866E-002	3.1687297E-005	-5.1453811E-001	0
8.4220605E+003	3.935339920113620E+001	-5.1647907E-001	-6.132454963774781E-002	3.1672847E-005	-5.1653802E-001	0
8.4829355E+003	3.955339919608377E+001	-5.1847529E-001	-6.111979814005530E-002	3.1689106E-005	-5.1853794E-001	0
8.5437393E+003	3.975339919103135E+001	-5.2047396E-001	-6.091875613766312E-002	3.1706626E-005	-5.2053791E-001	0
8.6072197E+003	3.995339918597892E+001	-5.2249604E-001	-6.070438907386677E-002	3.1717802E-005	-5.2253789E-001	0
8.6839248E+003	4.015339918092650E+001	-5.2447033E-001	-6.039554232524505E-002	3.1675670E-005	-5.2453780E-001	0
8.7341973E+003	4.035339917587407E+001	-5.2647078E-001	-6.027695290055834E-002	3.1734053E-005	-5.2653772E-001	0
8.8091943E+003	4.055339917082165E+001	-5.2847719E-001	-5.999154340687940E-002	3.1704163E-005	-5.2853811E-001	0
8.8720801E+003	4.075319916577428E+001	-5.3045779E-001	-5.978956654851220E-002	3.1715841E-005	-5.3053761E-001	0
8.9438896E+003	4.095319916072185E+001	-5.3246182E-001	-5.953358442368434E-002	3.1699361E-005	-5.3253752E-001	0
9.0087500E+003	4.115319915566943E+001	-5.3447008E-001	-5.932788784159571E-002	3.1708980E-005	-5.3453749E-001	0
9.0745557E+003	4.135319915061700E+001	-5.3647685E-001	-5.911880177276729E-002	3.1715870E-005	-5.3653741E-001	0
9.1502510E+003	4.155319914556458E+001	-5.3846222E-001	-5.884671882333437E-002	3.1686734E-005	-5.3853738E-001	0
9.2064805E+003	4.175319914051215E+001	-5.4045522E-001	-5.870377896839329E-002	3.1726762E-005	-5.4053730E-001	0
9.2803301E+003	4.195319913545973E+001	-5.4246604E-001	-5.845331543182253E-002	3.1708940E-005	-5.4253721E-001	0
9.3516064E+003	4.215319913040730E+001	-5.4447466E-001	-5.822257888598403E-002	3.1700718E-005	-5.4453707E-001	0
9.4095898E+003	4.235319912535488E+001	-5.4645836E-001	-5.807461874567960E-002	3.1735362E-005	-5.4653710E-001	0
9.4891680E+003	4.255319912030245E+001	-5.4845792E-001	-5.779831342361108E-002	3.1699943E-005	-5.4853708E-001	0
9.5598330E+003	4.275319911525003E+001	-5.5046511E-001	-5.758103629407330E-002	3.1696352E-005	-5.5053693E-001	0
9.6257666E+003	4.295319911019760E+001	-5.5246168E-001	-5.739404288249414E-002	3.1708008E-005	-5.5253690E-001	0
9.7080352E+003	4.315319910514518E+001	-5.5445492E-001	-5.711298898895134E-002	3.1666579E-005	-5.5453682E-001	0
9.7651641E+003	4.335319910009275E+001	-5.5647057E-001	-5.698527398681821E-002	3.1710628E-005	-5.5653679E-001	0
9.8319424E+003	4.355319909504033E+001	-5.5845279E-001	-5.679984465125293E-002	3.1720032E-005	-5.5853671E-001	0
9.8997813E+003	4.375319908998790E+001	-5.6044930E-001	-5.661229245351995E-002	3.1728319E-005	-5.6053668E-001	0
9.9763701E+003	4.395319908493548E+001	-5.6246310E-001	-5.637953248690142E-002	3.1711406E-005	-5.6253654E-001	0
1.0044336E+004	4.415319907988305E+001	-5.6447941E-001	-5.619877795720485E-002	3.1723052E-005	-5.6453657E-001	0
1.0116208E+004	4.435319907483063E+001	-5.6645870E-001	-5.599515964150392E-002	3.1718944E-005	-5.6653649E-001	0
1.0185379E+004	4.455319906977820E+001	-5.6845671E-001	-5.581105364773764E-002	3.1726169E-005	-5.6853640E-001	0
1.0262037E+004	4.475319906472578E+001	-5.7044327E-001	-5.558772503066822E-002	3.1709646E-005	-5.7053632E-001	0
1.0333233E+004	4.495319905967335E+001	-5.7245266E-001	-5.539918140732092E-002	3.1713407E-005	-5.7253629E-001	0
1.0396278E+004	4.515319905462093E+001	-5.7444328E-001	-5.525470464574822E-002	3.1740692E-005	-5.7453620E-001	0
1.0477834E+004	4.535319904956850E+001	-5.7643676E-001	-5.501488016447376E-002	3.1712600E-005	-5.7653618E-001	0
1.0540878E+004	4.555319904451608E+001	-5.7843989E-001	-5.487587329532415E-002	3.1742395E-005	-5.7853609E-001	0
1.0612455E+004	4.575319903946365E+001	-5.8044648E-001	-5.469483382315676E-002	3.1747422E-005	-5.8053601E-001	0
1.0676575E+004	4.595319903441123E+001	-5.8244938E-001	-5.455395387477191E-002	3.1774918E-005	-5.8253598E-001	0
1.0749982E+004	4.615319902935880E+001	-5.8444834E-001	-5.436737677758174E-002	3.1774922E-005	-5.8453590E-001	0
1.0812813E+004	4.635319902430638E+001	-5.8645320E-001	-5.423687158369961E-002	3.1807387E-005	-5.8653587E-001	0
1.0875388E+004	4.655319901925395E+001	-5.8844322E-001	-5.410779151714962E-002	3.1839361E-005	-5.8853573E-001	0
1.0950879E+004	4.675319901420153E+001	-5.9045744E-001	-5.391872579510615E-002	3.1836713E-005	-5.9053570E-001	0
1.1014059E+004	4.695309900915163E+001	-5.9247571E-001	-5.379267892498074E-002	3.1870855E-005	-5.9253520E-001	0
1.1085014E+004	4.715299900410173E+001	-5.9447438E-001	-5.362865512730264E-002	3.1880860E-005	-5.9453559E-001	0
1.1154687E+004	4.735299899904931E+001	-5.9644759E-001	-5.347058293304041E-002	3.1892399E-005	-5.9653556E-001	0
1.1219869E+004	4.755299899399688E+001	-5.9844720E-001	-5.333816111742484E-002	3.1920074E-005	-5.9853548E-001	0
1.1263396E+004	4.775299898894446E+001	-6.0045207E-001	-5.331004100963627E-002	3.2010124E-005	-6.0053533E-001	0
1.1352211E+004	4.795299898389203E+001	-6.0245544E-001	-5.306943743267944E-002	3.1971973E-005	-6.0253537E-001	0
1.1402712E+004	4.815299897883961E+001	-6.0445058E-001	-5.300937032605824E-002	3.2041546E-005	-6.0453528E-001	0
1.1468778E+004	4.835299897378718E+001	-6.0645437E-001	-5.287872628222251E-002	3.2068536E-005	-6.0653520E-001	0
1.1532174E+004	4.855299896873476E+001	-6.0844821E-001	-5.276092722517800E-002	3.2102293E-005	-6.0853517E-001	0
1.1589037E+004	4.875299896368233E+001	-6.1045516E-001	-5.267522635008060E-002	3.2155862E-005	-6.1053509E-001	0
1.1650816E+004	4.895299895862991E+001	-6.1247426E-001	-5.256921335022074E-002	3.2197291E-005	-6.1253506E-001	0
1.1713230E+004	4.915299895357748E+001	-6.1445898E-001	-5.245853996468197E-002	3.2233620E-005	-6.1453497E-001	0
1.1767619E+004	4.935299894852506E+001	-6.1646914E-001	-5.238690380378697E-002	3.2294909E-005	-6.1653489E-001	0
1.1825695E+004	4.955299894347263E+001	-6.1847699E-001	-5.229941754213302E-002	3.2345986E-005	-6.1853474E-001	0
1.1886072E+004	4.975299893842021E+001	-6.2047231E-001	-5.220162677008422E-002	3.2389664E-005	-6.2053478E-001	0
1.1954055E+004	4.995299893336778E+001	-6.2246716E-001	-5.207163313680363E-002	3.2412881E-005	-6.2253469E-001	0
1.1993087E+004	5.015299892831536E+001	-6.2449414E-001	-5.207117678663040E-002	3.2518146E-005	-6.2453461E-001	0
1.2058113E+004	5.035299892326293E+001	-6.2647688E-001	-5.195479959834470E-002	3.2548480E-005	-6.2653464E-001	0
1.2116300E+004	5.055299891821051E+001	-6.2846297E-001	-5.186921769970612E-002	3.2597884E-005	-6.2853450E-001	0
1.2141326E+004	5.075299891315808E+001	-6.3046712E-001	-5.192736838627493E-002	3.2738499E-005	-6.3053453E-001	0
1.2222416E+004	5.095299890810566E+001	-6.3247883E-001	-5.174744893245541E-002	3.2729167E-005	-6.3253438E-001	0
1.2265941E+004	5.115299890305323E+001	-6.3446581E-001	-5.172581424041223E-002	3.2818261E-005	-6.3453436E-001	0
1.2308176E+004	5.135299889800081E+001	-6.3647556E-001	-5.171160897569493E-002	3.2913176E-005	-6.3653421E-001	0
1.2359926E+004	5.155299889294838E+001	-6.3847512E-001	-5.165687139154457E-002	3.2981628E-005	-6.3853425E-001	0
1.2415331E+004	5.175299888789596E+001	-6.4047509E-001	-5.158743492006634E-002	3.3040465E-005	-6.4053410E-001	0
1.2455319E+004	5.195299888284353E+001	-6.4247870E-001	-5.158267575664582E-002	3.3140772E-005	-6.4253408E-001	0
1.2503515E+004	5.215299887779111E+001	-6.4447510E-001	-5.154351697751069E-002	3.3218512E-005	-6.4453399E-001	0
1.2553759E+004	5.235299887273868E+001	-6.4647955E-001	-5.149689128109236E-002	3.3291686E-005	-6.4653397E-001	0
1.2608807E+004	5.255299886768626E+001	-6.4846039E-001	-5.142916504414052E-002	3.3349777E-005	-6.4853388E-001	0
1.2650982E+004	5.275299886263383E+001	-6.5047264E-001	-5.141676704519660E-002	3.3445202E-005	-6.5053380E-001	0
1.2691799E+004	5.295299885758141E+001	-6.5248698E-001	-5.141012565931802E-002	3.3544438E-005	-6.5253377E-001	0
1.2736511E+004	5.315299885252898E+001	-6.5448648E-001	-5.138663733283022E-002	3.3631859E-005	-6.5453368E-001	0
1.2776990E+004	5.335289884747908E+001	-6.5647316E-001	-5.137932718133723E-002	3.3729149E-005	-6.5653348E-001	0
1.2814876E+004	5.355279884242918E+001	-6.5847307E-001	-5.138349223062549E-002	3.3834647E-005	-6.5853357E-001	0
1.2873484E+004	5.375279883737676E+001	-6.6048813E-001	-5.130608790435839E-002	3.3887063E-005	-6.6053355E-001	0
1.2905949E+004	5.395279883232433E+001	-6.6246837E-001	-5.133046401725894E-002	3.4004810E-005	-6.6253340E-001	0
1.2936153E+004	5.415279882727191E+001	-6.6446096E-001	-5.136464831372833E-002	3.4129804E-005	-6.6453338E-001	0
1.2961837E+004	5.435279882221948E+001	-6.6646671E-001	-5.141761383599264E-002	3.4268127E-005	-6.6653329E-001	0
1.3011652E+004	5.455279881716706E+001	-6.6848028E-001	-5.137551084420577E-002	3.4343517E-005	-6.6853327E-001	0
1.3047779E+004	5.475279881211463E+001	-6.7044842E-001	-5.138410061287346E-002	3.4450390E-005	-6.7053318E-001	0
1.3092362E+004	5.495279880706221E+001	-6.7244905E-001	-5.136193387482790E-002	3.4538283E-005	-6.7253315E-001	0
1.3101282E+004	5.515279880200978E+001	-6.7444646E-001	-5.147942549722211E-002	3.4720117E-005	-6.7453307E-001	0
1.3143307E+004	5.535279879695736E+001	-6.7647493E-001	-5.146915635491056E-002	3.4817593E-005	-6.7653304E-001	0
1.3181783E+004	5.555279879190493E+001	-6.7845982E-001	-5.146950277311901E-002	3.4919991E-005	-6.7853296E-001	0
1.3206585E+004	5.575279878685251E+001	-6.8046451E-001	-5.152463864391504E-002	3.5060686E-005	-6.8053287E-001	0
1.3234428E+004	5.595279878180008E+001	-6.8247223E-001	-5.156794581572852E-002	3.5193691E-005	-6.8253285E-001	0
1.3251828E+004	5.615279877674766E+001	-6.8446189E-001	-5.165037333008660E-002	3.5352714E-005	-6.8453270E-001	0
1.3278564E+004	5.635279877169523E+001	-6.8645978E-001	-5.169683717225003E-002	3.5487799E-005	-6.8653274E-001	0
1.3313363E+004	5.655279876664281E+001	-6.8846464E-001	-5.171230130474141E-002	3.5602090E-005	-6.8853259E-001	0
1.3348801E+004	5.675279876159038E+001	-6.9047308E-001	-5.172547502992275E-002	3.5715049E-005	-6.9053257E-001	0
1.3352516E+004	5.695279875653796E+001	-6.9246244E-001	-5.186007538854726E-002	3.5911155E-005	-6.9253248E-001	0
1.3380510E+004	5.715279875148553E+001	-6.9448066E-001	-5.190240694452797E-002	3.6045218E-005	-6.9453251E-001	0
1.3413678E+004	5.735279874643311E+001	-6.9647115E-001	-5.192246088808794E-002	3.6162495E-005	-6.9653243E-001	0
1.3413487E+004	5.755279874138068E+001	-6.9844979E-001	-5.207070864815155E-002	3.6368776E-005	-6.9853228E-001	0
1.3451644E+004	5.775279873632826E+001	-7.0047176E-001	-5.207332081051641E-002	3.6475889E-005	-7.0053232E-001	0
1.3461535E+004	5.795279873127583E+001	-7.0247036E-001	-5.218352541452076E-002	3.6657380E-005	-7.0253217E-001	0
1.3478563E+004	5.815279872622341E+001	-7.0445865E-001	-5.226511661229372E-002	3.6818612E-005	-7.0453221E-001	0
1.3506806E+004	5.835279872117098E+001	-7.0646584E-001	-5.230443437885768E-002	3.6951296E-005	-7.0653206E-001	0
1.3529497E+004	5.855279871611856E+001	-7.0845729E-001	-5.236390607680731E-002	3.7097590E-005	-7.0853209E-001	0
1.3544891E+004	5.875279871106613E+001	-7.1045190E-001	-5.245165337434665E-002	3.7264377E-005	-7.1053189E-001	0
1.3541251E+004	5.895279870601371E+001	-7.1246952E-001	-5.261474732011806E-002	3.7486403E-005	-7.1253192E-001	0
1.3548855E+004	5.915279870096128E+001	-7.1445620E-001	-5.273184738472492E-002	3.7674596E-005	-7.1453178E-001	0
1.3553620E+004	5.935279869590886E+001	-7.1644473E-001	-5.286002699855952E-002	3.7871287E-005	-7.1653175E-001	0
1.3572098E+004	5.955279869085643E+001	-7.1846145E-001	-5.293665431828454E-002	3.8032944E-005	-7.1853167E-001	0
1.3587225E+004	5.975269868580654E+001	-7.2045743E-001	-5.302462163295085E-002	3.8201983E-005	-7.2053188E-001	0
1.3589772E+004	5.995259868075664E+001	-7.2245640E-001	-5.316177229903851E-002	3.8407063E-005	-7.2253162E-001	0
1.3594288E+004	6.015259867570421E+001	-7.2444898E-001	-5.329068930177627E-002	3.8606384E-005	-7.2453153E-001	0
1.3612526E+004	6.035259867065179E+001	-7.2645187E-001	-5.336642716884560E-002	3.8768139E-005	-7.2653151E-001	0
1.3621077E+004	6.055259866559936E+001	-7.2844166E-001	-5.347900359485869E-002	3.8956336E-005	-7.2853130E-001	0
1.3595117E+004	6.075259866054694E+001	-7.3045820E-001	-5.372945401160756E-002	3.9247119E-005	-7.3053139E-001	0
1.3626205E+004	6.095259865549451E+001	-7.3245126E-001	-5.375313554159755E-002	3.9371553E-005	-7.3253119E-001	0
1.3610907E+004	6.115259865044209E+001	-7.3445487E-001	-5.396075775876419E-002	3.9631741E-005	-7.3453128E-001	0
1.3621041E+004	6.135259864538966E+001	-7.3646200E-001	-5.406796766493616E-002	3.9819002E-005	-7.3653108E-001	0
1.3616981E+004	6.155259864033724E+001	-7.3844904E-001	-5.423001144524831E-002	4.0046099E-005	-7.3853111E-001	0
1.3587530E+004	6.175259863528481E+001	-7.4045110E-001	-5.449490142192126E-002	4.0350809E-005	-7.4053097E-001	0
1.3592095E+004	6.195259863023239E+001	-7.4246746E-001	-5.462494615228874E-002	4.0557246E-005	-7.4253094E-001	0
1.3587604E+004	6.215259862517996E+001	-7.4445581E-001	-5.478933580851164E-002	4.0788240E-005	-7.4453086E-001	0
1.3559430E+004	6.235259862012754E+001	-7.4645942E-001	-5.505094724567927E-002	4.1093299E-005	-7.4653077E-001	0
1.3561396E+004	6.255259861507511E+001	-7.4845856E-001	-5.519037382928521E-002	4.1307707E-005	-7.4853075E-001	0
1.3548519E+004	6.275259861002269E+001	-7.5046128E-001	-5.539065125016096E-002	4.1568539E-005	-7.5053072E-001	0
1.3534136E+004	6.295259860497026E+001	-7.5247633E-001	-5.559840467716254E-002	4.1836483E-005	-7.5253063E-001	0
1.3513533E+004	6.315259859991784E+001	-7.5445837E-001	-5.582983889870441E-002	4.2121290E-005	-7.5453055E-001	0
1.3481704E+004	6.335259859486541E+001	-7.5647497E-001	-5.611122880751884E-002	4.2446740E-005	-7.5653052E-001	0
1.3493399E+004	6.355259858981299E+001	-7.5847143E-001	-5.621055073459580E-002	4.2634096E-005	-7.5853044E-001	0
1.3463136E+004	6.375259858476056E+001	-7.6047033E-001	-5.648537844529300E-002	4.2955453E-005	-7.6053041E-001	0
1.3421878E+004	6.395259857970814E+001	-7.6245421E-001	-5.680681941365562E-002	4.3312597E-005	-7.6253033E-001	0
1.3416598E+004	6.415259857465571E+001	-7.6447242E-001	-5.697960473751235E-002	4.3559336E-005	-7.6453030E-001	0
1.3379131E+004	6.435259856960329E+001	-7.6646143E-001	-5.728783413225069E-002	4.3908916E-005	-7.6653022E-001	0
1.3337024E+004	6.455259856455086E+001	-7.6846504E-001	-5.761892938840696E-002	4.4278135E-005	-7.6853019E-001	0
1.3297284E+004	6.475259855949844E+001	-7.7047771E-001	-5.794248795939316E-002	4.4643395E-005	-7.7053010E-001	0
1.3282558E+004	6.495259855444601E+001	-7.7247107E-001	-5.815680106508370E-002	4.4924447E-005	-7.7253002E-001	0
1.3242601E+004	6.515259854939359E+001	-7.7445531E-001	-5.848211628836819E-002	4.5291785E-005	-7.7452999E-001	0
1.3194225E+004	6.535259854434116E+001	-7.7645916E-001	-5.884841271853503E-002	4.5693389E-005	-7.7652985E-001	0
1.3154807E+004	6.555259853928874E+001	-7.7845645E-001	-5.917657960772243E-002	4.6066390E-005	-7.7852988E-001	0
1.3112944E+004	6.575259853423631E+001	-7.8046173E-001	-5.951842081642256E-002	4.6451849E-005	-7.8052968E-001	0
1.3040478E+004	6.595259852918389E+001	-7.8245622E-001	-6.000211608183004E-002	4.6949030E-005	-7.8253001E-001	0
1.3015425E+004	6.615249852413399E+001	-7.8445810E-001	-6.027141593281367E-002	4.7280402E-005	-7.8453040E-001	0
1.2967113E+004	6.635239851908409E+001	-7.8645593E-001	-6.065004045732958E-002	4.7698584E-005	-7.8652966E-001	0
1.2890582E+004	6.655239851403167E+001	-7.8845322E-001	-6.116505990136434E-002	4.8225789E-005	-7.8852952E-001	0
1.2849963E+004	6.675239850897924E+001	-7.9043901E-001	-6.151293912879235E-002	4.8622227E-005	-7.9052949E-001	0
1.2786863E+004	6.695239850392682E+001	-7.9244256E-001	-6.197317893133258E-002	4.9110186E-005	-7.9252940E-001	0
1.2722910E+004	6.715239849887439E+001	-7.9444718E-001	-6.244225470220363E-002	4.9607075E-005	-7.9452932E-001	0
1.2630094E+004	6.735239849382197E+001	-7.9645842E-001	-6.306037132980902E-002	5.0224964E-005	-7.9652929E-001	0
1.2582123E+004	6.755239848876954E+001	-7.9845637E-001	-6.345959119403721E-002	5.0669714E-005	-7.9852921E-001	0
1.2511656E+004	6.775239848371712E+001	-8.0044383E-001	-6.397584957269198E-002	5.1209074E-005	-8.0052918E-001	0
1.2448492E+004	6.795239847866469E+001	-8.0244476E-001	-6.446120184012064E-002	5.1726554E-005	-8.0252910E-001	0
1.2372017E+004	6.815239847361227E+001	-8.0444288E-001	-6.502116297777127E-002	5.2305812E-005	-8.0452907E-001	0
1.2271804E+004	6.835239846855984E+001	-8.0645680E-001	-6.571624258030495E-002	5.2997311E-005	-8.0652899E-001	0
1.2217489E+004	6.855239846350742E+001	-8.0845809E-001	-6.617219584187284E-002	5.3497446E-005	-8.0852896E-001	0
1.2134809E+004	6.875239845845499E+001	-8.1045485E-001	-6.678760842401107E-002	5.4128341E-005	-8.1052876E-001	0
1.2037084E+004	6.895239845340257E+001	-8.1244695E-001	-6.749533066872399E-002	5.4836375E-005	-8.1252885E-001	0
1.1946597E+004	6.915239844835014E+001	-8.1444877E-001	-6.817412529406819E-002	5.5524331E-005	-8.1452876E-001	0
1.1848415E+004	6.935239844329772E+001	-8.1644315E-001	-6.890737315663092E-002	5.6258952E-005	-8.1652868E-001	0
1.1738315E+004	6.955239843824529E+001	-8.1844032E-001	-6.972382994434143E-002	5.7064794E-005	-8.1852853E-001	0
1.1614663E+004	6.975239843319287E+001	-8.2044739E-001	-7.063892990817444E-002	5.7955527E-005	-8.2052851E-001	0
1.1530015E+004	6.995239842814044E+001	-8.2247311E-001	-7.133322204315337E-002	5.8669655E-005	-8.2252854E-001	0
1.1412861E+004	7.015239842308802E+001	-8.2445824E-001	-7.223939936546800E-002	5.9558370E-005	-8.2452834E-001	0
1.1279488E+004	7.035239841803559E+001	-8.2646251E-001	-7.327127459674422E-002	6.0555962E-005	-8.2652831E-001	0
1.1165432E+004	7.055239841298317E+001	-8.2846409E-001	-7.419902183983429E-002	6.1471226E-005	-8.2852829E-001	0
1.1012379E+004	7.075239840793074E+001	-8.3044702E-001	-7.541032154545972E-002	6.2624276E-005	-8.3052832E-001	0
1.0873148E+004	7.095239840287832E+001	-8.3245665E-001	-7.656077081242518E-002	6.3733525E-005	-8.3252811E-001	0
1.0703354E+004	7.115239839782589E+001	-8.3444524E-001	-7.796109420069969E-002	6.5054264E-005	-8.3452821E-001	0
1.0544423E+004	7.135239839277347E+001	-8.3645308E-001	-7.932658559883499E-002	6.6352964E-005	-8.3652800E-001	0
1.0342164E+004	7.155239838772104E+001	-8.3844543E-001	-8.107060054422688E-002	6.7973277E-005	-8.3852798E-001	0
1.0131540E+004	7.175239838266862E+001	-8.4045422E-001	-8.295424329011319E-002	6.9719244E-005	-8.4052789E-001	0
9.8885342E+003	7.195239837761619E+001	-8.4244847E-001	-8.519447552169018E-002	7.1771952E-005	-8.4252787E-001	0
9.6102822E+003	7.215239837256377E+001	-8.4443909E-001	-8.786829447325140E-002	7.4199423E-005	-8.4452784E-001	0
9.3162236E+003	7.235239836751134E+001	-8.4645641E-001	-9.085831835933542E-002	7.6907607E-005	-8.4652770E-001	0
8.9949053E+003	7.255229836246144E+001	-8.4846199E-001	-9.432694674254716E-002	8.0032827E-005	-8.4852707E-001	0
8.6685332E+003	7.275219835741154E+001	-8.5045099E-001	-9.810783212334995E-002	8.3435902E-005	-8.5052758E-001	0
8.3262539E+003	7.295219835235912E+001	-8.5246360E-001	-1.023826055680643E-001	8.7277447E-005	-8.5252756E-001	0
7.9927300E+003	7.315219834730669E+001	-8.5446346E-001	-1.069050850473394E-001	9.1346490E-005	-8.5452741E-001	0
7.6875220E+003	7.335219834225427E+001	-8.5646486E-001	-1.114097427019258E-001	9.5418531E-005	-8.5652745E-001	0
7.3836719E+003	7.355219833720184E+001	-8.5845917E-001	-1.162645371552651E-001	9.9808356E-005	-8.5852748E-001	0
7.1299478E+003	7.375219833214942E+001	-8.6047399E-001	-1.206844775544695E-001	1.0384585E-004	-8.6052758E-001	0
6.9058369E+003	7.395219832709699E+001	-8.6246431E-001	-1.248891793884117E-001	1.0771246E-004	-8.6252755E-001	0
6.7188252E+003	7.415219832204457E+001	-8.6446029E-001	-1.286624176997915E-001	1.1122355E-004	-8.6452752E-001	0
6.5614976E+003	7.435219831699214E+001	-8.6644125E-001	-1.320493180714459E-001	1.1441298E-004	-8.6652750E-001	0
6.4286963E+003	7.455219831193972E+001	-8.6845869E-001	-1.350909448007032E-001	1.1732090E-004	-8.6852759E-001	0
6.3298511E+003	7.475219830688729E+001	-8.7046623E-001	-1.375176463457771E-001	1.1970447E-004	-8.7052751E-001	0
6.2343262E+003	7.495219830183487E+001	-8.7247688E-001	-1.399472602632508E-001	1.2210076E-004	-8.7252766E-001	0
6.1582109E+003	7.515219829678244E+001	-8.7445325E-001	-1.419979358902894E-001	1.2417056E-004	-8.7452763E-001	0
6.0874233E+003	7.535219829173002E+001	-8.7643713E-001	-1.439750531040001E-001	1.2618508E-004	-8.7652743E-001	0
6.0158457E+003	7.555219828667759E+001	-8.7844861E-001	-1.460224636408025E-001	1.2827323E-004	-8.7852758E-001	0
5.9432861E+003	7.575219828162517E+001	-8.8044596E-001	-1.481412700387970E-001	1.3043039E-004	-8.8052756E-001	0
5.8631455E+003	7.595219827657274E+001	-8.8243705E-001	-1.505057410286352E-001	1.3281184E-004	-8.8252753E-001	0
5.7835444E+003	7.615219827152032E+001	-8.8444138E-001	-1.529237596664459E-001	1.3525211E-004	-8.8452756E-001	0
5.6895767E+003	7.635219826646789E+001	-8.8643116E-001	-1.557991388454496E-001	1.3810521E-004	-8.8652754E-001	0
5.5809819E+003	7.655219826141547E+001	-8.8843489E-001	-1.591897052480444E-001	1.4142969E-004	-8.8852757E-001	0
5.4629697E+003	7.675219825636304E+001	-8.9043510E-001	-1.629946983003324E-001	1.4513620E-004	-8.9052749E-001	0
5.3186001E+003	7.695219825131062E+001	-8.9245021E-001	-1.677979560444334E-001	1.4975131E-004	-8.9252758E-001	0
5.1601147E+003	7.715219824625819E+001	-8.9444607E-001	-1.733384023625359E-001	1.5504185E-004	-8.9452755E-001	0
4.9790869E+003	7.735219824120577E+001	-8.9642125E-001	-1.800372852941727E-001	1.6138925E-004	-8.9652753E-001	0
4.7810654E+003	7.755219823615334E+001	-8.9844763E-001	-1.879178692666970E-001	1.6883436E-004	-8.9852756E-001	0
4.5674546E+003	7.775219823110092E+001	-9.0044737E-001	-1.971442329163011E-001	1.7751800E-004	-9.0052748E-001	0
4.3447188E+003	7.795219822604849E+001	-9.0243459E-001	-2.077083974493803E-001	1.8744325E-004	-9.0252757E-001	0
4.1041318E+003	7.815219822099607E+001	-9.0443265E-001	-2.203712559129856E-001	1.9931096E-004	-9.0452754E-001	0
3.8050374E+003	7.835219821594364E+001	-9.0644962E-001	-2.382235758771034E-001	2.1593767E-004	-9.0652764E-001	0
3.5577563E+003	7.855219821089122E+001	-9.0843803E-001	-2.553401381989566E-001	2.3196069E-004	-9.0852761E-001	0
3.3263096E+003	7.875219820583879E+001	-9.1043770E-001	-2.737080396518383E-001	2.4919413E-004	-9.1052753E-001	0
3.0942732E+003	7.895219820078637E+001	-9.1243517E-001	-2.948786710830342E-001	2.6905767E-004	-9.1252756E-001	0
2.8652737E+003	7.915219819573394E+001	-9.1445088E-001	-3.191495766766068E-001	2.9184661E-004	-9.1452765E-001	0
2.6266313E+003	7.935219819068152E+001	-9.1644329E-001	-3.489044149598426E-001	3.1975110E-004	-9.1652751E-001	0
2.3901675E+003	7.955219818562910E+001	-9.1844207E-001	-3.842584738790844E-001	3.5291916E-004	-9.1852754E-001	0
2.2101882E+003	7.975219818057667E+001	-9.2045373E-001	-4.164594508994721E-001	3.8333164E-004	-9.2052758E-001	0
2.0276428E+003	7.995219817552425E+001	-9.2244941E-001	-4.549368447381292E-001	4.1965622E-004	-9.2252755E-001	0
1.8297836E+003	8.015219817047182E+001	-9.2446226E-001	-5.052303697474627E-001	4.6706642E-004	-9.2452753E-001	0
1.6910487E+003	8.035219816541940E+001	-9.2646760E-001	-5.478656940424029E-001	5.0757983E-004	-9.2652756E-001	0
1.5323979E+003	8.055219816036697E+001	-9.2844284E-001	-6.058758028324647E-001	5.6252105E-004	-9.2852753E-001	0
1.4079584E+003	8.075219815531455E+001	-9.3045413E-001	-6.608534296319863E-001	6.1489380E-004	-9.3052751E-001	0
1.2784207E+003	8.095219815026212E+001	-9.3243718E-001	-7.293665075966054E-001	6.8008847E-004	-9.3252760E-001	0
1.1795630E+003	8.115219814520970E+001	-9.3443078E-001	-7.921838764895325E-001	7.4024097E-004	-9.3452758E-001	0
1.0708843E+003	8.135219814015727E+001	-9.3643725E-001	-8.744523196381948E-001	8.1886974E-004	-9.3652755E-001	0
9.8542908E+002	8.155219813510485E+001	-9.3842882E-001	-9.523047651343735E-001	8.9367025E-004	-9.3852752E-001	0
9.0387384E+002	8.176219812979980E+001	-9.4051719E-001	-1.040540328051661E+000	9.7864610E-004	-9.4062757E-001	0
8.2974963E+002	8.197219812449475E+001	-9.4257706E-001	-1.135977709011222E+000	1.0707466E-003	-9.4272757E-001	0
7.6253961E+002	8.217219811944233E+001	-9.4458139E-001	-1.238730929639877E+000	1.1700821E-003	-9.4472748E-001	0
7.0410193E+002	8.237219811438990E+001	-9.4657862E-001	-1.344377286191568E+000	1.2725588E-003	-9.4672757E-001	0
6.5269501E+002	8.257219810933748E+001	-9.4859928E-001	-1.453357596051736E+000	1.3786539E-003	-9.4872755E-001	0
6.0663885E+002	8.277219810428505E+001	-9.5060152E-001	-1.566997337942759E+000	1.4895900E-003	-9.5072752E-001	0
5.6348218E+002	8.297219809923263E+001	-9.5261186E-001	-1.690580207136485E+000	1.6104667E-003	-9.5272762E-001	0
5.2521991E+002	8.317219809418020E+001	-9.5459378E-001	-1.817512467706283E+000	1.7349861E-003	-9.5472759E-001	0
4.9074905E+002	8.337219808912778E+001	-9.5658958E-001	-1.949243815070922E+000	1.8646263E-003	-9.5672756E-001	0
4.5967493E+002	8.357219808407535E+001	-9.5861596E-001	-2.085421504009336E+000	1.9991184E-003	-9.5872754E-001	0
4.3211459E+002	8.377219807902293E+001	-9.6060395E-001	-2.223030622617728E+000	2.1354521E-003	-9.6072763E-001	0
4.0674451E+002	8.397219807397050E+001	-9.6260399E-001	-2.366606016818622E+000	2.2781044E-003	-9.6272761E-001	0
3.8340433E+002	8.417219806891808E+001	-9.6460611E-001	-2.515897740734543E+000	2.4268504E-003	-9.6472758E-001	0
3.6160959E+002	8.437219806386565E+001	-9.6660048E-001	-2.673049921081168E+000	2.5837712E-003	-9.6672755E-001	0
3.4225317E+002	8.457219805881323E+001	-9.6861720E-001	-2.830119023686635E+000	2.7413019E-003	-9.6872765E-001	0
3.2453683E+002	8.477219805376080E+001	-9.7060633E-001	-2.990743109242576E+000	2.9028342E-003	-9.7072750E-001	0
3.0780389E+002	8.497219804870838E+001	-9.7260708E-001	-3.159827211157948E+000	3.0732702E-003	-9.7272754E-001	0
2.9274261E+002	8.517219804365595E+001	-9.7459042E-001	-3.329171582110334E+000	3.2445788E-003	-9.7472757E-001	0
2.7893985E+002	8.537219803860353E+001	-9.7659594E-001	-3.501098639840716E+000	3.4191587E-003	-9.7672755E-001	0
2.6573709E+002	8.557219803355110E+001	-9.7859144E-001	-3.682554915344628E+000	3.6037166E-003	-9.7872758E-001	0
2.5402281E+002	8.577219802849868E+001	-9.8059773E-001	-3.860274280550261E+000	3.7853762E-003	-9.8072755E-001	0
2.4276697E+002	8.597219802344625E+001	-9.8260212E-001	-4.047511702525910E+000	3.9770934E-003	-9.8272753E-001	0
2.3249120E+002	8.617219801839383E+001	-9.8459804E-001	-4.234990683880532E+000	4.1697635E-003	-9.8472750E-001	0
2.2295204E+002	8.637219801334140E+001	-9.8661548E-001	-4.425236389615392E+000	4.3660067E-003	-9.8672760E-001	0
2.1428751E+002	8.657219800828898E+001	-9.8861545E-001	-4.613500246216404E+000	4.5609777E-003	-9.8872757E-001	0
2.0588873E+002	8.677219800323655E+001	-9.9060339E-001	-4.811352895365829E+000	4.7661425E-003	-9.9072754E-001	0
1.9784113E+002	8.697219799818413E+001	-9.9263155E-001	-5.017316683484836E+000	4.9803467E-003	-9.9272752E-001	0
1.9074522E+002	8.717219799313170E+001	-9.9461979E-001	-5.214388962505609E+000	5.1863343E-003	-9.9472749E-001	0
1.8409122E+002	8.737219798807928E+001	-9.9661136E-001	-5.413682075145566E+000	5.3953370E-003	-9.9672747E-001	0
1.7751219E+002	8.757219798302685E+001	-9.9861628E-001	-5.625620955039594E+000	5.6178365E-003	-9.9872750E-001	0
1.7136998E+002	8.777229797797190E+001	-1.0006120E+000	-5.838898881821990E+000	5.8424724E-003	-1.0007282E+000	0
1.6568434E+002	8.797279797290685E+001	-1.0026276E+000	-6.051432315479502E+000	6.0673333E-003	-1.0027331E+000	0
1.6025081E+002	8.817319796784432E+001	-1.0046217E+000	-6.269059000940189E+000	6.2980331E-003	-1.0047370E+000	0
1.5503522E+002	8.837379796277673E+001	-1.0066127E+000	-6.492800020030586E+000	6.5357345E-003	-1.0067428E+000	0
1.5001434E+002	8.857429795771168E+001	-1.0086329E+000	-6.723576577965694E+000	6.7816204E-003	-1.0087484E+000	0
1.4549771E+002	8.877459795265167E+001	-1.0106570E+000	-6.946205257100260E+000	7.0202309E-003	-1.0107510E+000	0
1.4101140E+002	8.897499794758915E+001	-1.0126536E+000	-7.181359491153529E+000	7.2722295E-003	-1.0127550E+000	0
1.3680916E+002	8.917529794252914E+001	-1.0146728E+000	-7.416702031271868E+000	7.5255255E-003	-1.0147583E+000	0
1.3275787E+002	8.937549793747166E+001	-1.0166721E+000	-7.658093345773032E+000	7.7857701E-003	-1.0167603E+000	0
1.2888969E+002	8.957589793240913E+001	-1.0186859E+000	-7.903548366967129E+000	8.0512334E-003	-1.0187639E+000	0
1.2509739E+002	8.977639792734408E+001	-1.0206841E+000	-8.159115976924795E+000	8.3278799E-003	-1.0207691E+000	0
1.2151427E+002	8.997679792228155E+001	-1.0226827E+000	-8.416152274180320E+000	8.6070532E-003	-1.0227730E+000	0
1.1800519E+002	9.017739791721397E+001	-1.0246886E+000	-8.683419971503739E+000	8.8978019E-003	-1.0247790E+000	0
1.1474632E+002	9.037789791214891E+001	-1.0266788E+000	-8.947378443161057E+000	9.1860835E-003	-1.0267838E+000	0
1.1148450E+002	9.057829790708638E+001	-1.0286835E+000	-9.227144349534832E+000	9.4918115E-003	-1.0287883E+000	0
1.0848496E+002	9.077859790202638E+001	-1.0306967E+000	-9.500825732290494E+000	9.7924704E-003	-1.0307910E+000	0
1.0552713E+002	9.097919789695879E+001	-1.0326928E+000	-9.786040519707839E+000	1.0105973E-002	-1.0327971E+000	0
1.0257155E+002	9.117969789189374E+001	-1.0347058E+000	-1.008764871308571E+001	1.0437748E-002	-1.0348017E+000	0
9.9757027E+001	9.138029788682616E+001	-1.0367273E+000	-1.039252382049305E+001	1.0774213E-002	-1.0368080E+000	0
9.7025436E+001	9.158069788176363E+001	-1.0387168E+000	-1.070561323620891E+001	1.1120101E-002	-1.0388123E+000	0
9.3897751E+001	9.179099787645100E+001	-1.0407981E+000	-1.108437681822630E+001	1.1536598E-002	-1.0409155E+000	0
9.1251190E+001	9.200129787113838E+001	-1.0428834E+000	-1.142871035095880E+001	1.1918812E-002	-1.0430183E+000	0
8.8786560E+001	9.220169786607585E+001	-1.0448912E+000	-1.176857468845009E+001	1.2296881E-002	-1.0450222E+000	0
8.6475998E+001	9.240219786101079E+001	-1.0469069E+000	-1.210632958983382E+001	1.2674200E-002	-1.0470271E+000	0
8.4228088E+001	9.260259785594826E+001	-1.0489256E+000	-1.245339528353045E+001	1.3062686E-002	-1.0490310E+000	0
8.2051445E+001	9.280279785089078E+001	-1.0509135E+000	-1.280798189723839E+001	1.3460080E-002	-1.0510335E+000	0
7.9873413E+001	9.300309784583078E+001	-1.0529118E+000	-1.318225618270634E+001	1.3879753E-002	-1.0530360E+000	0
7.7787941E+001	9.320369784076320E+001	-1.0549231E+000	-1.356152401245262E+001	1.4306365E-002	-1.0550420E+000	0
7.5899193E+001	9.340419783569814E+001	-1.0569149E+000	-1.392524661261021E+001	1.4717801E-002	-1.0570470E+000	0
7.3902565E+001	9.360459783063561E+001	-1.0589238E+000	-1.432864771735475E+001	1.5172946E-002	-1.0590512E+000	0
7.2039162E+001	9.380519782556803E+001	-1.0609107E+000	-1.472686149458099E+001	1.5623885E-002	-1.0610571E+000	0
7.0299637E+001	9.400559782050550E+001	-1.0629321E+000	-1.512002260063370E+001	1.6071558E-002	-1.0630611E+000	0
6.8498878E+001	9.420599781544297E+001	-1.0649329E+000	-1.554671999774013E+001	1.6556215E-002	-1.0650651E+000	0
6.6841515E+001	9.440639781038044E+001	-1.0669459E+000	-1.596232447548516E+001	1.7030938E-002	-1.0670694E+000	0
6.5264366E+001	9.460669780532044E+001	-1.0689491E+000	-1.637875531152886E+001	1.7508056E-002	-1.0690722E+000	0
6.3631218E+001	9.480699780026043E+001	-1.0709684E+000	-1.683086423555247E+001	1.8025324E-002	-1.0710751E+000	0
6.2066483E+001	9.500749779519538E+001	-1.0729487E+000	-1.728708708513574E+001	1.8548157E-002	-1.0730799E+000	0
6.0576317E+001	9.520789779013285E+001	-1.0749487E+000	-1.774536142415823E+001	1.9075353E-002	-1.0750844E+000	0
5.9127182E+001	9.540819778507284E+001	-1.0769715E+000	-1.821449065939628E+001	1.9616488E-002	-1.0770870E+000	0
5.7667290E+001	9.560849778001284E+001	-1.0789748E+000	-1.871034373375818E+001	2.0187991E-002	-1.0790902E+000	0
5.6101997E+001	9.580869777495536E+001	-1.0809668E+000	-1.926788525591231E+001	2.0827945E-002	-1.0810922E+000	0
5.4739334E+001	9.600909776989283E+001	-1.0829748E+000	-1.978421531210267E+001	2.1425806E-002	-1.0830959E+000	0
5.3458401E+001	9.620959776482778E+001	-1.0849912E+000	-2.029599058165104E+001	2.2020971E-002	-1.0851011E+000	0
5.2193760E+001	9.640989775976777E+001	-1.0869917E+000	-2.082608540114364E+001	2.2637781E-002	-1.0871044E+000	0
5.0985245E+001	9.661019775470777E+001	-1.0889976E+000	-2.135907327309511E+001	2.3259979E-002	-1.0891072E+000	0
4.9773544E+001	9.681089774963766E+001	-1.0910255E+000	-2.191978696122834E+001	2.3915047E-002	-1.0911139E+000	0
4.8631489E+001	9.701139774457261E+001	-1.0930171E+000	-2.247550121132258E+001	2.4566106E-002	-1.0931190E+000	0
4.7366116E+001	9.721189773950755E+001	-1.0950078E+000	-2.311795527762672E+001	2.5314340E-002	-1.0951242E+000	0
4.6285740E+001	9.741219773444755E+001	-1.0970063E+000	-2.370074121424943E+001	2.5999863E-002	-1.0971274E+000	0
4.5176003E+001	9.761259772938502E+001	-1.0990102E+000	-2.432730187196364E+001	2.6735954E-002	-1.0991311E+000	0
4.4127571E+001	9.781299772432249E+001	-1.1010218E+000	-2.495088010488127E+001	2.7471462E-002	-1.1011350E+000	0
4.3081051E+001	9.801329771926248E+001	-1.1030045E+000	-2.560300664731244E+001	2.8240230E-002	-1.1031383E+000	0
4.2087440E+001	9.821359771420248E+001	-1.1050324E+000	-2.625563497999167E+001	2.9013328E-002	-1.1051412E+000	0
4.1121342E+001	9.841419770913490E+001	-1.1070476E+000	-2.692148471571568E+001	2.9803364E-002	-1.1071471E+000	0
4.0031704E+001	9.861459770407237E+001	-1.1090534E+000	-2.770437649066082E+001	3.0725632E-002	-1.1091511E+000	0
3.9139118E+001	9.881519769900478E+001	-1.1110573E+000	-2.838738553582766E+001	3.1540010E-002	-1.1111568E+000	0
3.8251579E+001	9.901569769393973E+001	-1.1130695E+000	-2.909865663801708E+001	3.2388829E-002	-1.1131623E+000	0
3.7415863E+001	9.920589768913487E+001	-1.1149735E+000	-2.979948613000339E+001	3.3225637E-002	-1.1150640E+000	0
3.6526089E+001	9.939629768432496E+001	-1.1168782E+000	-3.057754650872488E+001	3.4151394E-002	-1.1169679E+000	0
3.5698387E+001	9.959669767926243E+001	-1.1188809E+000	-3.134261596921056E+001	3.5068654E-002	-1.1189723E+000	0
3.4851280E+001	9.979709767419990E+001	-1.1208709E+000	-3.216154349753310E+001	3.6048941E-002	-1.1209759E+000	0
3.4065105E+001	9.999759766913485E+001	-1.1229062E+000	-3.296353243741731E+001	3.7014954E-002	-1.1229811E+000	0
3.3302616E+001	1.001979976640723E+002	-1.1248811E+000	-3.377755999151111E+001	3.7995741E-002	-1.1249851E+000	0
3.2418140E+001	1.003983976590098E+002	-1.1269063E+000	-3.476159405675742E+001	3.9173059E-002	-1.1269891E+000	0
3.1657507E+001	1.005987976539473E+002	-1.1289083E+000	-3.566005049441924E+001	4.0256925E-002	-1.1289930E+000	0
3.0913626E+001	1.007992976488822E+002	-1.1308931E+000	-3.658235078224607E+001	4.1370727E-002	-1.1309983E+000	0
3.0233656E+001	1.009895976440748E+002	-1.1327797E+000	-3.746750744639940E+001	4.2442434E-002	-1.1329008E+000	0
2.9502462E+001	1.011801976392599E+002	-1.1347203E+000	-3.846188614095161E+001	4.3643486E-002	-1.1348071E+000	0
2.8819082E+001	1.013804976341999E+002	-1.1367230E+000	-3.944341614196063E+001	4.4836242E-002	-1.1368105E+000	0
2.8164576E+001	1.015808976291373E+002	-1.1387372E+000	-4.043154043102800E+001	4.6040900E-002	-1.1388140E+000	0
2.7493496E+001	1.017816976240647E+002	-1.1407335E+000	-4.149103086830758E+001	4.7330208E-002	-1.1408218E+000	0
2.6889593E+001	1.019821976189996E+002	-1.1427363E+000	-4.249734394944608E+001	4.8563257E-002	-1.1428272E+000	0
2.6266592E+001	1.021826976139346E+002	-1.1447366E+000	-4.358146713086978E+001	4.9889304E-002	-1.1448320E+000	0
2.5725500E+001	1.023832976088670E+002	-1.1467477E+000	-4.457630473741420E+001	5.1117774E-002	-1.1468378E+000	0
2.5180565E+001	1.025739976040495E+002	-1.1486648E+000	-4.561711766510814E+001	5.2398778E-002	-1.1487447E+000	0
2.4672981E+001	1.027543975994922E+002	-1.1504763E+000	-4.662899670438549E+001	5.3645559E-002	-1.1505494E+000	0
2.4157906E+001	1.029445975946874E+002	-1.1524080E+000	-4.770314195068590E+001	5.4973483E-002	-1.1524510E+000	0
2.3636408E+001	1.031451975896198E+002	-1.1544113E+000	-4.884038918390785E+001	5.6381896E-002	-1.1544570E+000	0
2.3137964E+001	1.033456975845547E+002	-1.1564372E+000	-4.998007382730634E+001	5.7798814E-002	-1.1564618E+000	0
2.2581974E+001	1.035460975794922E+002	-1.1584290E+000	-5.129883731638301E+001	5.9426062E-002	-1.1584663E+000	0
2.2128807E+001	1.037463975744322E+002	-1.1604354E+000	-5.244003722099407E+001	6.0853276E-002	-1.1604691E+000	0
2.1680187E+001	1.039470975693621E+002	-1.1624399E+000	-5.361761629342698E+001	6.2327258E-002	-1.1624757E+000	0
2.1232561E+001	1.041277975647972E+002	-1.1642593E+000	-5.483367426441544E+001	6.3840613E-002	-1.1642829E+000	0
2.0804867E+001	1.043081975602399E+002	-1.1660461E+000	-5.604679462667099E+001	6.5353148E-002	-1.1660872E+000	0
2.0386137E+001	1.045084975551799E+002	-1.1680691E+000	-5.729722762376150E+001	6.6927120E-002	-1.1680903E+000	0
1.9954159E+001	1.047085975501250E+002	-1.1700766E+000	-5.863823182999136E+001	6.8611227E-002	-1.1700915E+000	0
1.9528936E+001	1.049085975450726E+002	-1.1720709E+000	-6.001714021332430E+001	7.0344344E-002	-1.1720916E+000	0
1.9085953E+001	1.051087975400151E+002	-1.1740798E+000	-6.151539013201011E+001	7.2223976E-002	-1.1740931E+000	0
1.8687449E+001	1.053089975349576E+002	-1.1760727E+000	-6.293382962923192E+001	7.4014761E-002	-1.1760956E+000	0
1.8335281E+001	1.055090975299026E+002	-1.1780739E+000	-6.425174783317357E+001	7.5693309E-002	-1.1780965E+000	0
1.7969709E+001	1.056895975253428E+002	-1.1798673E+000	-6.565867106374208E+001	7.7468514E-002	-1.1799009E+000	0
1.7590292E+001	1.058899975202803E+002	-1.1818780E+000	-6.718921579724412E+001	7.9409458E-002	-1.1819050E+000	0
1.7203577E+001	1.060904975152152E+002	-1.1838691E+000	-6.881529074916955E+001	8.1468299E-002	-1.1839099E+000	0
1.6850569E+001	1.062908975101527E+002	-1.1858945E+000	-7.037711852020561E+001	8.3459839E-002	-1.1859145E+000	0
1.6507433E+001	1.064911975050927E+002	-1.1878952E+000	-7.196122948531024E+001	8.5482396E-002	-1.1879172E+000	0
1.6204285E+001	1.066915975000302E+002	-1.1898911E+000	-7.343064775063169E+001	8.7374471E-002	-1.1899211E+000	0
1.5928333E+001	1.068619974957255E+002	-1.1915950E+000	-7.480976966164678E+001	8.9142941E-002	-1.1916250E+000	0
1.5612547E+001	1.070324974914183E+002	-1.1933042E+000	-7.643238584408323E+001	9.1207087E-002	-1.1933298E+000	0
1.5326448E+001	1.072329974863533E+002	-1.1953069E+000	-7.798981389212167E+001	9.3221761E-002	-1.1953350E+000	0
1.5053621E+001	1.074335974812857E+002	-1.1973150E+000	-7.953667473952211E+001	9.5230453E-002	-1.1973412E+000	0
1.4699293E+001	1.076339974762232E+002	-1.1993114E+000	-8.158972986594335E+001	9.7851492E-002	-1.1993450E+000	0
1.4443088E+001	1.078344974711581E+002	-1.2013115E+000	-8.317553016238224E+001	9.9919721E-002	-1.2013497E+000	0
1.4164028E+001	1.080351974660880E+002	-1.2033414E+000	-8.495756670290609E+001	1.0223296E-001	-1.2033570E+000	0
1.3880471E+001	1.082255974612781E+002	-1.2052301E+000	-8.682919501044171E+001	1.0464916E-001	-1.2052609E+000	0
1.3598813E+001	1.084158974564707E+002	-1.2071378E+000	-8.876788241472673E+001	1.0715507E-001	-1.2071644E+000	0
1.3347013E+001	1.086161974514107E+002	-1.2091357E+000	-9.059222896554911E+001	1.0953829E-001	-1.2091671E+000	0
1.3062699E+001	1.088166974463456E+002	-1.2111547E+000	-9.271856313269654E+001	1.1229652E-001	-1.2111719E+000	0
1.2776762E+001	1.090172974412781E+002	-1.2131392E+000	-9.494887794107763E+001	1.1518621E-001	-1.2131783E+000	0
1.2512331E+001	1.092076974364682E+002	-1.2150536E+000	-9.710849255821040E+001	1.1799202E-001	-1.2150819E+000	0
1.2338543E+001	1.093780974321635E+002	-1.2167544E+000	-9.861411198209538E+001	1.1998916E-001	-1.2167865E+000	0
1.2086981E+001	1.095781974271085E+002	-1.2187518E+000	-1.008317769678808E+002	1.2288891E-001	-1.2187874E+000	0
1.1856811E+001	1.097784974220485E+002	-1.2207489E+000	-1.029576099988643E+002	1.2568539E-001	-1.2207899E+000	0
1.1661728E+001	1.099789974169835E+002	-1.2227695E+000	-1.048532003037105E+002	1.2821129E-001	-1.2227950E+000	0
1.1445440E+001	1.101793974119209E+002	-1.2247670E+000	-1.070091651466189E+002	1.3106129E-001	-1.2247992E+000	0
1.1285405E+001	1.103599974073586E+002	-1.2265742E+000	-1.086867612032378E+002	1.3331237E-001	-1.2266047E+000	0
1.1037289E+001	1.105501974025537E+002	-1.2284453E+000	-1.112995559488022E+002	1.3672541E-001	-1.2285078E+000	0
1.0783969E+001	1.107605973972386E+002	-1.2305430E+000	-1.141085446569048E+002	1.4041547E-001	-1.2306110E+000	0
1.0631989E+001	1.109609973921761E+002	-1.2325510E+000	-1.159285314368531E+002	1.4288783E-001	-1.2326152E+000	0
1.0465281E+001	1.111612973871161E+002	-1.2345566E+000	-1.179668841287817E+002	1.4563680E-001	-1.2346184E+000	0
1.0300172E+001	1.113515973823087E+002	-1.2364647E+000	-1.200431165671853E+002	1.4842908E-001	-1.2365209E+000	0
1.0113233E+001	1.115419973774988E+002	-1.2383703E+000	-1.224504893251660E+002	1.5163904E-001	-1.2384250E+000	0
9.9765444E+000	1.117422973724388E+002	-1.2403688E+000	-1.243285088886903E+002	1.5421320E-001	-1.2404284E+000	0
9.8634529E+000	1.119425973673788E+002	-1.2423801E+000	-1.259579283861390E+002	1.5648763E-001	-1.2424312E+000	0
9.7108412E+000	1.121429973623162E+002	-1.2444118E+000	-1.281466547470436E+002	1.5946721E-001	-1.2444350E+000	0
9.5201159E+000	1.123434973572512E+002	-1.2463984E+000	-1.309226104062029E+002	1.6318174E-001	-1.2464398E+000	0
9.3799992E+000	1.125339973524387E+002	-1.2483156E+000	-1.330826926269501E+002	1.6612920E-001	-1.2483449E+000	0
9.2723494E+000	1.127243973476288E+002	-1.2502179E+000	-1.348329186915153E+002	1.6857053E-001	-1.2502491E+000	0
9.1181612E+000	1.129249973425613E+002	-1.2522255E+000	-1.373331141027982E+002	1.7197204E-001	-1.2522548E+000	0
8.9732819E+000	1.131253973374987E+002	-1.2542076E+000	-1.397713311318236E+002	1.7530227E-001	-1.2542592E+000	0
8.8235426E+000	1.133256973324387E+002	-1.2562150E+000	-1.423708218441852E+002	1.7884836E-001	-1.2562623E+000	0
8.6699076E+000	1.135160973276288E+002	-1.2581224E+000	-1.451137130813240E+002	1.8257082E-001	-1.2581660E+000	0
8.5248213E+000	1.137065973228164E+002	-1.2600331E+000	-1.478075663134241E+002	1.8624243E-001	-1.2600712E+000	0
8.4291735E+000	1.139072973177463E+002	-1.2620531E+000	-1.497244294528271E+002	1.8896018E-001	-1.2620777E+000	0
8.3034945E+000	1.141075973126863E+002	-1.2640682E+000	-1.522332810771713E+002	1.9243325E-001	-1.2640815E+000	0
8.1733952E+000	1.142979973078764E+002	-1.2659570E+000	-1.548875222848301E+002	1.9608094E-001	-1.2659849E+000	0
8.0579958E+000	1.144583973038243E+002	-1.2675401E+000	-1.573021503245259E+002	1.9938678E-001	-1.2675884E+000	0
7.9870420E+000	1.146285972995247E+002	-1.2692728E+000	-1.589165066840151E+002	2.0170841E-001	-1.2692916E+000	0
7.9077616E+000	1.148287972944672E+002	-1.2712874E+000	-1.607645151622773E+002	2.0437790E-001	-1.2712930E+000	0
7.8027854E+000	1.150292972894022E+002	-1.2732810E+000	-1.631828746500773E+002	2.0777765E-001	-1.2732979E+000	0
7.6708217E+000	1.152297972843371E+002	-1.2752724E+000	-1.662497711679175E+002	2.1201374E-001	-1.2753031E+000	0
7.6052356E+000	1.154101972797798E+002	-1.2770797E+000	-1.679211266307468E+002	2.1444866E-001	-1.2771069E+000	0
7.5347857E+000	1.155705972757278E+002	-1.2786932E+000	-1.697053189080227E+002	2.1700104E-001	-1.2787110E+000	0
7.4481859E+000	1.157508972711730E+002	-1.2804933E+000	-1.719201552493309E+002	2.2014260E-001	-1.2805144E+000	0
7.3801751E+000	1.159511972661130E+002	-1.2825085E+000	-1.737775165407875E+002	2.2287114E-001	-1.2825171E+000	0
7.3045878E+000	1.161515972610505E+002	-1.2845211E+000	-1.758512717474335E+002	2.2588468E-001	-1.2845211E+000	0
7.1683478E+000	1.163518972559905E+002	-1.2865136E+000	-1.794714150222071E+002	2.3089240E-001	-1.2865245E+000	0
7.0961542E+000	1.165222972516858E+002	-1.2882185E+000	-1.815375576684000E+002	2.3386005E-001	-1.2882278E+000	0
7.0101810E+000	1.167126972468759E+002	-1.2901342E+000	-1.840372111607790E+002	2.3743270E-001	-1.2901318E+000	0
6.9426003E+000	1.169131972418108E+002	-1.2921332E+000	-1.861166059932071E+002	2.4048744E-001	-1.2921371E+000	0
6.8265882E+000	1.171136972367458E+002	-1.2941650E+000	-1.895771312249990E+002	2.4534409E-001	-1.2941422E+000	0
6.7672515E+000	1.173042972319308E+002	-1.2960471E+000	-1.915175027725156E+002	2.4821571E-001	-1.2960478E+000	0
6.7145686E+000	1.174648972278737E+002	-1.2976726E+000	-1.932622474450973E+002	2.5079113E-001	-1.2976537E+000	0
6.6485562E+000	1.176354972235640E+002	-1.2993777E+000	-1.954375680747489E+002	2.5394723E-001	-1.2993600E+000	0
6.5239735E+000	1.177861972197570E+002	-1.3008838E+000	-1.994005339042960E+002	2.5939691E-001	-1.3008661E+000	0
6.4831109E+000	1.178670972177133E+002	-1.3016682E+000	-2.007783242940313E+002	2.6134676E-001	-1.3016751E+000	0
6.4440808E+000	1.179480972156671E+002	-1.3025087E+000	-2.021248301520050E+002	2.6326936E-001	-1.3024845E+000	0
6.4546943E+000	1.180489972131181E+002	-1.3034934E+000	-2.019450165761923E+002	2.6323399E-001	-1.3034943E+000	0
6.4369001E+000	1.181399972108193E+002	-1.3043989E+000	-2.026439498882178E+002	2.6432854E-001	-1.3044037E+000	0
6.4054818E+000	1.182012972092707E+002	-1.3050207E+000	-2.037349829994666E+002	2.6587838E-001	-1.3050170E+000	0
6.3952761E+000	1.182526972079722E+002	-1.3055402E+000	-2.041413351488513E+002	2.6651472E-001	-1.3055303E+000	0
6.3788342E+000	1.183140972064211E+002	-1.3061426E+000	-2.047619506475489E+002	2.6744831E-001	-1.3061446E+000	0
6.3372278E+000	1.183853972046199E+002	-1.3068608E+000	-2.062196313525305E+002	2.6950034E-001	-1.3068576E+000	0
6.2838063E+000	1.184666972025661E+002	-1.3076822E+000	-2.081035091465747E+002	2.7213323E-001	-1.3076714E+000	0
6.2363520E+000	1.185578972002622E+002	-1.3085859E+000	-2.098319513130455E+002	2.7458313E-001	-1.3085828E+000	0
6.2096238E+000	1.186686971974632E+002	-1.3097115E+000	-2.109163875401705E+002	2.7623960E-001	-1.3096907E+000	0
6.1846266E+000	1.187695971949142E+002	-1.3107105E+000	-2.119304258835296E+002	2.7777943E-001	-1.3107001E+000	0
6.1523175E+000	1.188705971923628E+002	-1.3117245E+000	-2.132081933710022E+002	2.7967042E-001	-1.3117095E+000	0
6.1111078E+000	1.189616971900614E+002	-1.3126355E+000	-2.147950182241148E+002	2.8194758E-001	-1.3126205E+000	0
6.0830307E+000	1.190329971882602E+002	-1.3133626E+000	-2.159059605266111E+002	2.8356281E-001	-1.3133336E+000	0
6.0756574E+000	1.191041971864615E+002	-1.3140774E+000	-2.162856258640695E+002	2.8421605E-001	-1.3140469E+000	0
6.0520258E+000	1.191555971851631E+002	-1.3145833E+000	-2.172137552563468E+002	2.8554559E-001	-1.3145595E+000	0
6.0237522E+000	1.191871971843648E+002	-1.3148767E+000	-2.182819935605976E+002	2.8701389E-001	-1.3148760E+000	0
5.9615145E+000	1.192582971825686E+002	-1.3155887E+000	-2.206802836440123E+002	2.9032448E-001	-1.3155873E+000	0
5.9455032E+000	1.193887971792719E+002	-1.3169006E+000	-2.214952276465453E+002	2.9168719E-001	-1.3168925E+000	0
5.8830872E+000	1.195095971762203E+002	-1.3180870E+000	-2.240468185883051E+002	2.9531321E-001	-1.3181001E+000	0
5.8654532E+000	1.195710971746666E+002	-1.3187096E+000	-2.248265517486458E+002	2.9648092E-001	-1.3187146E+000	0
5.8549175E+000	1.196224971733682E+002	-1.3192298E+000	-2.253199776726233E+002	2.9724884E-001	-1.3192295E+000	0
5.8555489E+000	1.197133971710718E+002	-1.3201547E+000	-2.254536080067774E+002	2.9763362E-001	-1.3201379E+000	0
5.8224177E+000	1.198043971687730E+002	-1.3210591E+000	-2.268918478789881E+002	2.9973754E-001	-1.3210477E+000	0
5.8007479E+000	1.198953971664741E+002	-1.3219717E+000	-2.278967580816274E+002	3.0127305E-001	-1.3219578E+000	0
5.7524209E+000	1.199665971646755E+002	-1.3226539E+000	-2.299299544208347E+002	3.0411774E-001	-1.3226696E+000	0
5.6852813E+000	1.200473971626343E+002	-1.3234751E+000	-2.327897288797508E+002	3.0809140E-001	-1.3234780E+000	0
5.6407800E+000	1.201184971608382E+002	-1.3242000E+000	-2.347547686796861E+002	3.1086227E-001	-1.3241884E+000	0
5.6306591E+000	1.202295971580315E+002	-1.3253239E+000	-2.353763333646489E+002	3.1194988E-001	-1.3253005E+000	0
5.6029177E+000	1.203601971547323E+002	-1.3266159E+000	-2.367723303628786E+002	3.1410596E-001	-1.3266058E+000	0
5.5600615E+000	1.204610971521834E+002	-1.3276248E+000	-2.387787905629471E+002	3.1700864E-001	-1.3276145E+000	0
5.5433354E+000	1.205323971503822E+002	-1.3283187E+000	-2.396244491741220E+002	3.1829765E-001	-1.3283277E+000	0
5.5074592E+000	1.205739971493313E+002	-1.3287596E+000	-2.412654467455122E+002	3.2058376E-001	-1.3287436E+000	0
5.5012617E+000	1.206253971480328E+002	-1.3292532E+000	-2.416269669818014E+002	3.2118341E-001	-1.3292577E+000	0
5.4962506E+000	1.206965971462341E+002	-1.3299985E+000	-2.419828704562956E+002	3.2183686E-001	-1.3299701E+000	0
5.4645505E+000	1.207677971444355E+002	-1.3306856E+000	-2.435123743580326E+002	3.2403842E-001	-1.3306818E+000	0
5.4240618E+000	1.208684971418916E+002	-1.3316854E+000	-2.455144219687925E+002	3.2694799E-001	-1.3316891E+000	0
5.4103212E+000	1.209792971390925E+002	-1.3328148E+000	-2.463467112891267E+002	3.2833454E-001	-1.3327967E+000	0
5.3742990E+000	1.210998971360459E+002	-1.3340076E+000	-2.482198414244594E+002	3.3112717E-001	-1.3340030E+000	0
5.3496728E+000	1.212106971332469E+002	-1.3351229E+000	-2.495709542410287E+002	3.3320791E-001	-1.3351110E+000	0
5.3041134E+000	1.213115971306979E+002	-1.3361260E+000	-2.519037266400014E+002	3.3657512E-001	-1.3361198E+000	0
5.2924829E+000	1.213728971291494E+002	-1.3367673E+000	-2.525784798005116E+002	3.3763865E-001	-1.3367324E+000	0
5.2671180E+000	1.214440971273507E+002	-1.3374550E+000	-2.539254068081395E+002	3.3961383E-001	-1.3374448E+000	0
5.2342148E+000	1.215152971255520E+002	-1.3381711E+000	-2.556584392648961E+002	3.4211475E-001	-1.3381565E+000	0
5.2211914E+000	1.215963971235033E+002	-1.3389981E+000	-2.564545043430280E+002	3.4339207E-001	-1.3389679E+000	0
5.2025290E+000	1.216971971209568E+002	-1.3400005E+000	-2.575671482355838E+002	3.4514010E-001	-1.3399763E+000	0
5.1709399E+000	1.217681971191632E+002	-1.3407198E+000	-2.592797221046596E+002	3.4762147E-001	-1.3406866E+000	0
5.1332698E+000	1.218589971168694E+002	-1.3416092E+000	-2.613556933418840E+002	3.5063723E-001	-1.3415937E+000	0
5.1207285E+000	1.219597971143230E+002	-1.3426404E+000	-2.621971425232897E+002	3.5203648E-001	-1.3426024E+000	0
5.0968990E+000	1.220309971125243E+002	-1.3433075E+000	-2.635538761018015E+002	3.5403389E-001	-1.3433141E+000	0
5.1018939E+000	1.220626971117235E+002	-1.3436614E+000	-2.633652119603430E+002	3.5387367E-001	-1.3436307E+000	0
5.1020823E+000	1.220646971116730E+002	-1.3436699E+000	-2.633571532501114E+002	3.5386509E-001	-1.3436507E+000	0
5.1017833E+000	1.221060971106272E+002	-1.3440825E+000	-2.634534563575285E+002	3.5410318E-001	-1.3440654E+000	0
5.0891771E+000	1.221573971093312E+002	-1.3445990E+000	-2.642075458982567E+002	3.5525319E-001	-1.3445773E+000	0
5.0866251E+000	1.222385971072799E+002	-1.3454124E+000	-2.645000038661306E+002	3.5586157E-001	-1.3453896E+000	0
5.0820589E+000	1.223395971047285E+002	-1.3464230E+000	-2.649365160595339E+002	3.5671663E-001	-1.3463997E+000	0
5.0694876E+000	1.223811971036776E+002	-1.3468387E+000	-2.656755053731647E+002	3.5782206E-001	-1.3468157E+000	0
5.0660977E+000	1.223930971033769E+002	-1.3469516E+000	-2.658755766418249E+002	3.5812154E-001	-1.3469346E+000	0
5.0458393E+000	1.224245971025812E+002	-1.3472645E+000	-2.670050397015343E+002	3.5972643E-001	-1.3472501E+000	0
5.0176859E+000	1.224955971007876E+002	-1.3479714E+000	-2.686440423096938E+002	3.6212450E-001	-1.3479598E+000	0
5.0102425E+000	1.225863970984938E+002	-1.3488832E+000	-2.692251284760557E+002	3.6315325E-001	-1.3488680E+000	0
5.0001621E+000	1.226770970962025E+002	-1.3497852E+000	-2.699482803714491E+002	3.6437219E-001	-1.3497752E+000	0
4.9809031E+000	1.227976970931559E+002	-1.3509980E+000	-2.712355500571903E+002	3.6643869E-001	-1.3509810E+000	0
4.9384274E+000	1.229187970900966E+002	-1.3522053E+000	-2.738129382353227E+002	3.7025130E-001	-1.3521918E+000	0
4.8858628E+000	1.229900970882954E+002	-1.3529243E+000	-2.769059098950615E+002	3.7463275E-001	-1.3529054E+000	0
4.8707156E+000	1.230511970867519E+002	-1.3535210E+000	-2.778895432409272E+002	3.7612933E-001	-1.3535163E+000	0
4.8314333E+000	1.231121970852109E+002	-1.3541415E+000	-2.802773954571167E+002	3.7953526E-001	-1.3541254E+000	0
4.8488970E+000	1.231734970836624E+002	-1.3547783E+000	-2.793992717439060E+002	3.7852407E-001	-1.3547388E+000	0
4.8554740E+000	1.232446970818637E+002	-1.3554763E+000	-2.791645461912708E+002	3.7840092E-001	-1.3554506E+000	0
4.8501511E+000	1.233455970793148E+002	-1.3564887E+000	-2.796796825249889E+002	3.7938234E-001	-1.3564599E+000	0
4.8231325E+000	1.234265970772685E+002	-1.3572900E+000	-2.814125451705131E+002	3.8195845E-001	-1.3572698E+000	0
4.7835612E+000	1.235076970752198E+002	-1.3581072E+000	-2.839113140247916E+002	3.8558200E-001	-1.3580806E+000	0
4.7174964E+000	1.235987970729184E+002	-1.3590029E+000	-2.880771446060271E+002	3.9149770E-001	-1.3589922E+000	0
4.6646056E+000	1.237096970701168E+002	-1.3601295E+000	-2.915850913423556E+002	3.9659348E-001	-1.3601005E+000	0
4.6333179E+000	1.238006970678180E+002	-1.3610229E+000	-2.937469212342094E+002	3.9979631E-001	-1.3610108E+000	0
4.6044474E+000	1.238916970655191E+002	-1.3619564E+000	-2.957915068061088E+002	4.0285513E-001	-1.3619205E+000	0
4.5984535E+000	1.240023970627226E+002	-1.3630841E+000	-2.964222937982368E+002	4.0404850E-001	-1.3630279E+000	0
4.6000118E+000	1.240734970609265E+002	-1.3638078E+000	-2.964791925370096E+002	4.0434062E-001	-1.3637384E+000	0
4.6021576E+000	1.241545970588777E+002	-1.3646036E+000	-2.965138863032856E+002	4.0462393E-001	-1.3645501E+000	0
4.6013665E+000	1.242553970563313E+002	-1.3656150E+000	-2.967846577450928E+002	4.0529358E-001	-1.3655583E+000	0
4.5670958E+000	1.243362970542876E+002	-1.3664082E+000	-2.991853626339049E+002	4.0880933E-001	-1.3663669E+000	0
4.5449090E+000	1.244270970519938E+002	-1.3673269E+000	-3.008480307711925E+002	4.1135758E-001	-1.3672757E+000	0
4.5142741E+000	1.245378970491947E+002	-1.3684289E+000	-3.031337595961771E+002	4.1481701E-001	-1.3683826E+000	0
4.4922471E+000	1.246091970473935E+002	-1.3691603E+000	-3.047829551704490E+002	4.1729671E-001	-1.3690953E+000	0
4.4905114E+000	1.246705970458424E+002	-1.3697783E+000	-3.050383652411801E+002	4.1783494E-001	-1.3697096E+000	0
4.4909534E+000	1.247715970432910E+002	-1.3707788E+000	-3.052311390984170E+002	4.1840437E-001	-1.3707199E+000	0
4.4678268E+000	1.248427970414923E+002	-1.3714600E+000	-3.069635341750422E+002	4.2098820E-001	-1.3714319E+000	0
4.4463844E+000	1.248941970401938E+002	-1.3719728E+000	-3.085592039828610E+002	4.2333484E-001	-1.3719457E+000	0
4.4199433E+000	1.249555970386427E+002	-1.3725870E+000	-3.105440118768597E+002	4.2624867E-001	-1.3725597E+000	0
4.4152374E+000	1.249773970380920E+002	-1.3728546E+000	-3.109356364309908E+002	4.2686942E-001	-1.3727778E+000	0
4.4198861E+000	1.250486970362908E+002	-1.3735329E+000	-3.107620637629507E+002	4.2684191E-001	-1.3734906E+000	0
4.4130473E+000	1.251297970342421E+002	-1.3743479E+000	-3.114283199683950E+002	4.2801085E-001	-1.3743021E+000	0
4.4147220E+000	1.252702970306927E+002	-1.3757546E+000	-3.116288166846646E+002	4.2872477E-001	-1.3757073E+000	0
4.4148173E+000	1.254012970273834E+002	-1.3770697E+000	-3.119199654072600E+002	4.2953554E-001	-1.3770173E+000	0
4.3935680E+000	1.254822970253372E+002	-1.3778517E+000	-3.136065678451247E+002	4.3210334E-001	-1.3778270E+000	0
4.3488088E+000	1.255533970235410E+002	-1.3785766E+000	-3.170009705984708E+002	4.3701014E-001	-1.3785380E+000	0
4.3452992E+000	1.256145970219950E+002	-1.3792133E+000	-3.174035319422987E+002	4.3776718E-001	-1.3791497E+000	0
4.3364019E+000	1.256758970204464E+002	-1.3797766E+000	-3.181846509302059E+002	4.3902373E-001	-1.3797626E+000	0
4.3176155E+000	1.257668970181476E+002	-1.3807228E+000	-3.197882566750277E+002	4.4153893E-001	-1.3806728E+000	0
4.3099203E+000	1.258875970150984E+002	-1.3819222E+000	-3.206375491805993E+002	4.4309616E-001	-1.3818796E+000	0
4.2833123E+000	1.259587970132998E+002	-1.3826058E+000	-3.227889137746229E+002	4.4628981E-001	-1.3825920E+000	0
4.2731853E+000	1.260299970115011E+002	-1.3833727E+000	-3.237333653857013E+002	4.4784388E-001	-1.3833035E+000	0
4.2747722E+000	1.261208970092048E+002	-1.3842479E+000	-3.238179239748652E+002	4.4824427E-001	-1.3842132E+000	0
4.2843981E+000	1.262016970071636E+002	-1.3850750E+000	-3.232834397708975E+002	4.4777179E-001	-1.3850206E+000	0
4.2842751E+000	1.262927970048622E+002	-1.3859830E+000	-3.235046832862172E+002	4.4837198E-001	-1.3859321E+000	0
4.2597532E+000	1.264035970020632E+002	-1.3870779E+000	-3.256240197625878E+002	4.5166588E-001	-1.3870404E+000	0
4.2293892E+000	1.265340969987665E+002	-1.3883744E+000	-3.282683259599889E+002	4.5575935E-001	-1.3883446E+000	0
4.2327890E+000	1.265953969972179E+002	-1.3890293E+000	-3.281593379694464E+002	4.5582291E-001	-1.3889577E+000	0
4.2456861E+000	1.266171969966672E+002	-1.3892453E+000	-3.272133896722771E+002	4.5457965E-001	-1.3891754E+000	0
4.2370162E+000	1.266981969946210E+002	-1.3900408E+000	-3.280706611468504E+002	4.5603159E-001	-1.3899862E+000	0
4.2309155E+000	1.267989969920745E+002	-1.3910290E+000	-3.287773073141611E+002	4.5733878E-001	-1.3909936E+000	0
4.1959109E+000	1.268898969897782E+002	-1.3919348E+000	-3.317360211498631E+002	4.6175489E-001	-1.3919026E+000	0
4.1823440E+000	1.269708969877320E+002	-1.3927695E+000	-3.330116850826439E+002	4.6380851E-001	-1.3927127E+000	0
4.1548028E+000	1.270420969859333E+002	-1.3934412E+000	-3.353808148654534E+002	4.6733344E-001	-1.3934250E+000	0
4.1027808E+000	1.271132969841346E+002	-1.3941194E+000	-3.397986432400536E+002	4.7371987E-001	-1.3941365E+000	0
4.0486269E+000	1.271350969835839E+002	-1.3943769E+000	-3.444073627922280E+002	4.8023367E-001	-1.3943546E+000	0
4.0413737E+000	1.271862969822905E+002	-1.3949302E+000	-3.451623828863890E+002	4.8147744E-001	-1.3948671E+000	0
4.0398750E+000	1.272573969804944E+002	-1.3956239E+000	-3.454621555602157E+002	4.8213524E-001	-1.3955778E+000	0
4.0361423E+000	1.273481969782006E+002	-1.3965361E+000	-3.460076337991713E+002	4.8321214E-001	-1.3964857E+000	0
4.0170841E+000	1.273897969771497E+002	-1.3969727E+000	-3.477578652256343E+002	4.8580822E-001	-1.3969016E+000	0
4.0127568E+000	1.274707969751034E+002	-1.3977703E+000	-3.483316680810756E+002	4.8688766E-001	-1.3977120E+000	0
4.0225654E+000	1.275716969725545E+002	-1.3987640E+000	-3.477293639569980E+002	4.8639134E-001	-1.3987207E+000	0
4.0247927E+000	1.276626969702556E+002	-1.3996910E+000	-3.477672351976362E+002	4.8676667E-001	-1.3996304E+000	0
4.0230908E+000	1.277239969687071E+002	-1.4002948E+000	-3.480644339408245E+002	4.8739281E-001	-1.4002440E+000	0
4.0234122E+000	1.278149969664082E+002	-1.4012071E+000	-3.482633572612576E+002	4.8798910E-001	-1.4011544E+000	0
3.9924893E+000	1.279653969626088E+002	-1.4026940E+000	-3.513331920772124E+002	4.9281296E-001	-1.4026592E+000	0
3.9550285E+000	1.281256969585593E+002	-1.4042938E+000	-3.550653901871219E+002	4.9861613E-001	-1.4042615E+000	0
3.9070890E+000	1.282662969550074E+002	-1.4057001E+000	-3.597819393160444E+002	5.0574553E-001	-1.4056673E+000	0
3.8757980E+000	1.283969969517057E+002	-1.4070283E+000	-3.630293244209652E+002	5.1079255E-001	-1.4069742E+000	0
3.8571823E+000	1.285473969479062E+002	-1.4085416E+000	-3.651737041681554E+002	5.1436234E-001	-1.4084786E+000	0
3.8285232E+000	1.287175969436066E+002	-1.4102556E+000	-3.683549749786312E+002	5.1947463E-001	-1.4101810E+000	0
3.7986555E+000	1.288779969395546E+002	-1.4118365E+000	-3.716674119850086E+002	5.2473360E-001	-1.4117845E+000	0
3.7875736E+000	1.290086969362528E+002	-1.4131836E+000	-3.731105311491056E+002	5.2727365E-001	-1.4130913E+000	0
3.7697439E+000	1.291292969332062E+002	-1.4143914E+000	-3.751956263872962E+002	5.3067344E-001	-1.4142966E+000	0
3.7594528E+000	1.292500969301545E+002	-1.4156065E+000	-3.765458965668058E+002	5.3304082E-001	-1.4155047E+000	0
3.7681987E+000	1.293609969273530E+002	-1.4167011E+000	-3.759624204084685E+002	5.3262639E-001	-1.4166144E+000	0
3.7710476E+000	1.294419969253067E+002	-1.4175292E+000	-3.758979860592794E+002	5.3284639E-001	-1.4174234E+000	0
3.7526252E+000	1.295627969222551E+002	-1.4187279E+000	-3.780627776987142E+002	5.3636819E-001	-1.4186332E+000	0
3.7486427E+000	1.297428969177054E+002	-1.4205439E+000	-3.789488586825669E+002	5.3831351E-001	-1.4204334E+000	0
3.7305138E+000	1.298833969141560E+002	-1.4219416E+000	-3.811651025248448E+002	5.4199451E-001	-1.4218388E+000	0
3.6803865E+000	1.300239969106042E+002	-1.4233161E+000	-3.867300677442754E+002	5.5043912E-001	-1.4232440E+000	0
3.6658309E+000	1.301744969068022E+002	-1.4248564E+000	-3.886858131236067E+002	5.5382150E-001	-1.4247495E+000	0
3.6451828E+000	1.303645969019999E+002	-1.4267399E+000	-3.914042169912591E+002	5.5843204E-001	-1.4266514E+000	0
3.6275733E+000	1.305249968979479E+002	-1.4283352E+000	-3.937439910434562E+002	5.6239837E-001	-1.4282545E+000	0
3.6022842E+000	1.306554968946512E+002	-1.4296482E+000	-3.968726668891131E+002	5.6738830E-001	-1.4295598E+000	0
3.5945332E+000	1.307958968911043E+002	-1.4310470E+000	-3.981176094230368E+002	5.6972498E-001	-1.4309641E+000	0
3.5945978E+000	1.308770968890531E+002	-1.4318640E+000	-3.983377494078095E+002	5.7036549E-001	-1.4317745E+000	0
3.5961514E+000	1.309482968872544E+002	-1.4325833E+000	-3.983656913403445E+002	5.7069206E-001	-1.4324878E+000	0
3.5739713E+000	1.310885968837101E+002	-1.4339755E+000	-4.012274738723963E+002	5.7535034E-001	-1.4338899E+000	0
3.4339302E+000	1.312190968804134E+002	-1.4352579E+000	-4.179636313840010E+002	5.9988558E-001	-1.4351951E+000	0
3.4030983E+000	1.313596968768616E+002	-1.4366745E+000	-4.221666038390740E+002	6.0651600E-001	-1.4366014E+000	0
3.3823719E+000	1.314606968743101E+002	-1.4376910E+000	-4.250540797392919E+002	6.1109644E-001	-1.4376119E+000	0
3.3397818E+000	1.315615968717611E+002	-1.4386342E+000	-4.307569256710395E+002	6.1970162E-001	-1.4386206E+000	0
3.2595747E+000	1.316820968687171E+002	-1.4399470E+000	-4.417591591726286E+002	6.3610977E-001	-1.4398248E+000	0
3.2484345E+000	1.317929968659155E+002	-1.4416486E+000	-4.437979499497155E+002	6.3980067E-001	-1.4409344E+000	0
3.2774642E+000	1.318840968636141E+002	-1.4425446E+000	-4.401404526083115E+002	6.3492221E-001	-1.4418459E+000	0
3.2843530E+000	1.319848968610677E+002	-1.4435613E+000	-4.395268299029276E+002	6.3448393E-001	-1.4428535E+000	0
3.2682762E+000	1.321053968580236E+002	-1.4447542E+000	-4.420538990932218E+002	6.3865924E-001	-1.4440587E+000	0
3.2536542E+000	1.322457968544768E+002	-1.4461548E+000	-4.444709779423345E+002	6.4277387E-001	-1.4454629E+000	0
3.2507453E+000	1.323959968506824E+002	-1.4476479E+000	-4.453280214774150E+002	6.4467818E-001	-1.4469647E+000	0
3.2631254E+000	1.325460968468906E+002	-1.4491613E+000	-4.441022387553858E+002	6.4357579E-001	-1.4484657E+000	0
3.2573230E+000	1.326666968438440E+002	-1.4503652E+000	-4.452629262199398E+002	6.4579386E-001	-1.4496715E+000	0
3.2533767E+000	1.328170968400445E+002	-1.4518678E+000	-4.462648989902887E+002	6.4791763E-001	-1.4511758E+000	0
3.2472312E+000	1.329476968367453E+002	-1.4531808E+000	-4.475138129087809E+002	6.5031850E-001	-1.4524809E+000	0
3.2255764E+000	1.330681968337012E+002	-1.4543668E+000	-4.508858491944284E+002	6.5575343E-001	-1.4536864E+000	0
3.2197366E+000	1.332185968299018E+002	-1.4559004E+000	-4.521799883120070E+002	6.5832901E-001	-1.4551905E+000	0
3.2139537E+000	1.333492968266000E+002	-1.4571897E+000	-4.533947298142630E+002	6.6068214E-001	-1.4564970E+000	0
3.2078021E+000	1.334796968233059E+002	-1.4585171E+000	-4.546780160984890E+002	6.6315567E-001	-1.4578011E+000	0
3.2140129E+000	1.336298968195115E+002	-1.4600004E+000	-4.542609018342264E+002	6.6322112E-001	-1.4593041E+000	0
3.2261243E+000	1.337801968157146E+002	-1.4615171E+000	-4.530256548334883E+002	6.6210473E-001	-1.4608070E+000	0
3.2184346E+000	1.339007968126680E+002	-1.4627156E+000	-4.544804668715029E+002	6.6477567E-001	-1.4620129E+000	0
3.2044456E+000	1.340213968096214E+002	-1.4639006E+000	-4.568342726813426E+002	6.6875994E-001	-1.4632181E+000	0
3.1787121E+000	1.341517968063272E+002	-1.4652334E+000	-4.609519231944105E+002	6.7540216E-001	-1.4645227E+000	0
3.1655476E+000	1.342723968032806E+002	-1.4664487E+000	-4.632527762268181E+002	6.7933643E-001	-1.4657280E+000	0
3.1691191E+000	1.344027967999864E+002	-1.4677616E+000	-4.631449959649817E+002	6.7978644E-001	-1.4670326E+000	0
3.1522133E+000	1.345431967964396E+002	-1.4691347E+000	-4.660644687013310E+002	6.8471146E-001	-1.4684374E+000	0
3.1075883E+000	1.346935967926402E+002	-1.4706554E+000	-4.732465608158382E+002	6.9598264E-001	-1.4699411E+000	0
3.0940046E+000	1.348339967890934E+002	-1.4720852E+000	-4.757863636157554E+002	7.0039809E-001	-1.4713445E+000	0
3.0967321E+000	1.349643967857992E+002	-1.4733778E+000	-4.757847023536833E+002	7.0101064E-001	-1.4726490E+000	0
3.0903692E+000	1.351344967815021E+002	-1.4750689E+000	-4.773115426552604E+002	7.0406741E-001	-1.4743497E+000	0
3.0849936E+000	1.352948967774500E+002	-1.4766672E+000	-4.786613254996255E+002	7.0682347E-001	-1.4759531E+000	0
3.0951147E+000	1.354352967739032E+002	-1.4780854E+000	-4.775543054298396E+002	7.0586604E-001	-1.4773576E+000	0
3.1002722E+000	1.355162967718570E+002	-1.4788771E+000	-4.770152224010226E+002	7.0544690E-001	-1.4781671E+000	0
3.1025386E+000	1.355873967700609E+002	-1.4796011E+000	-4.769001609091229E+002	7.0562202E-001	-1.4788789E+000	0
3.1022699E+000	1.357276967665166E+002	-1.4810257E+000	-4.774006504460704E+002	7.0704263E-001	-1.4802821E+000	0
3.0755668E+000	1.358679967629723E+002	-1.4824042E+000	-4.819938570337708E+002	7.1450973E-001	-1.4816840E+000	0
3.0715449E+000	1.359787967601733E+002	-1.4834931E+000	-4.829794702638219E+002	7.1649671E-001	-1.4827925E+000	0
3.0393953E+000	1.361092967568766E+002	-1.4848058E+000	-4.885201506843805E+002	7.2535759E-001	-1.4840976E+000	0
3.0229902E+000	1.362497967533272E+002	-1.4862211E+000	-4.916393993896345E+002	7.3068482E-001	-1.4855025E+000	0
3.0113482E+000	1.363803967500280E+002	-1.4875374E+000	-4.939772117799093E+002	7.3480958E-001	-1.4868079E+000	0
3.0032592E+000	1.364811967474816E+002	-1.4885144E+000	-4.956330075483074E+002	7.3775691E-001	-1.4878159E+000	0
3.0010669E+000	1.365919967446825E+002	-1.4896264E+000	-4.963656087997233E+002	7.3939931E-001	-1.4889243E+000	0
2.9852540E+000	1.367224967413858E+002	-1.4909363E+000	-4.994336436750627E+002	7.4462372E-001	-1.4902296E+000	0
2.9628966E+000	1.368430967383392E+002	-1.4921594E+000	-5.036150620628796E+002	7.5147390E-001	-1.4914347E+000	0
2.9733465E+000	1.369440967357878E+002	-1.4931899E+000	-5.021917233415825E+002	7.4986762E-001	-1.4924445E+000	0
3.0040140E+000	1.370351967334864E+002	-1.4941071E+000	-4.973702260575956E+002	7.4312443E-001	-1.4933558E+000	0
3.0215909E+000	1.371855967296869E+002	-1.4955981E+000	-4.949704164203522E+002	7.4027681E-001	-1.4948612E+000	0
3.0096717E+000	1.373258967261427E+002	-1.4969611E+000	-4.973835432940817E+002	7.4456382E-001	-1.4962631E+000	0
3.0147276E+000	1.374463967230986E+002	-1.4981966E+000	-4.969591910967010E+002	7.4454260E-001	-1.4974688E+000	0
3.0080352E+000	1.375966967193017E+002	-1.4997046E+000	-4.985661569894255E+002	7.4770194E-001	-1.4989721E+000	0
3.0069354E+000	1.377369967157574E+002	-1.5011090E+000	-4.992155949356093E+002	7.4937701E-001	-1.5003741E+000	0
3.0064535E+000	1.378572967127184E+002	-1.5023103E+000	-4.996951653607443E+002	7.5069720E-001	-1.5015779E+000	0
3.0028815E+000	1.379674967099345E+002	-1.5033975E+000	-5.006515965132949E+002	7.5267833E-001	-1.5026790E+000	0
2.9924688E+000	1.380483967078908E+002	-1.5042040E+000	-5.026632062715205E+002	7.5610805E-001	-1.5034881E+000	0
2.9929543E+000	1.381689967048442E+002	-1.5054109E+000	-5.029849181532522E+002	7.5719899E-001	-1.5046940E+000	0
2.9781964E+000	1.382894967018001E+002	-1.5065898E+000	-5.058732155320367E+002	7.6214343E-001	-1.5058988E+000	0
2.9533169E+000	1.384199966985034E+002	-1.5079242E+000	-5.105866648584415E+002	7.6992601E-001	-1.5072045E+000	0
2.9370992E+000	1.385506966952016E+002	-1.5092450E+000	-5.138556727753494E+002	7.7553415E-001	-1.5085111E+000	0
2.9420092E+000	1.386417966929002E+002	-1.5101571E+000	-5.133080947891212E+002	7.7517587E-001	-1.5094225E+000	0
2.9285755E+000	1.387526966900987E+002	-1.5112594E+000	-5.160390672119547E+002	7.7986890E-001	-1.5105312E+000	0
2.9228721E+000	1.388533966875548E+002	-1.5122665E+000	-5.173905771472628E+002	7.8243244E-001	-1.5115384E+000	0
2.9128048E+000	1.389936966840105E+002	-1.5136939E+000	-5.196688401754254E+002	7.8661954E-001	-1.5129421E+000	0
2.9134963E+000	1.391637966797134E+002	-1.5153890E+000	-5.201272987861503E+002	7.8819519E-001	-1.5146430E+000	0
2.9021153E+000	1.393041966761666E+002	-1.5167766E+000	-5.226451467666707E+002	7.9273593E-001	-1.5160468E+000	0
2.8890173E+000	1.394348966728649E+002	-1.5180519E+000	-5.254561139262120E+002	7.9766965E-001	-1.5173528E+000	0
2.8497982E+000	1.395754966693130E+002	-1.5194787E+000	-5.331881605088056E+002	8.1016803E-001	-1.5187596E+000	0
2.7603517E+000	1.396860966665190E+002	-1.5205377E+000	-5.508492965803489E+002	8.3758712E-001	-1.5198654E+000	0
2.7738578E+000	1.397965966637275E+002	-1.5217127E+000	-5.485906981112394E+002	8.3479738E-001	-1.5209707E+000	0
2.7590466E+000	1.399171966606809E+002	-1.5229325E+000	-5.519778407270101E+002	8.4062499E-001	-1.5221761E+000	0
2.7760248E+000	1.400081966583821E+002	-1.5238386E+000	-5.489283080025307E+002	8.3647817E-001	-1.5230871E+000	0
2.7734096E+000	1.400992966560807E+002	-1.5247394E+000	-5.497707258072132E+002	8.3825707E-001	-1.5239966E+000	0
2.7857172E+000	1.402198966530341E+002	-1.5259736E+000	-5.477847987885843E+002	8.3590513E-001	-1.5252038E+000	0
2.7983794E+000	1.403502966497399E+002	-1.5272794E+000	-5.457728199377075E+002	8.3354759E-001	-1.5265074E+000	0
2.7930522E+000	1.404807966464432E+002	-1.5285597E+000	-5.472721408871348E+002	8.3653814E-001	-1.5278121E+000	0
2.7656407E+000	1.406410966423937E+002	-1.5301590E+000	-5.532746959528758E+002	8.4659827E-001	-1.5294158E+000	0
2.7527142E+000	1.407816966388418E+002	-1.5315709E+000	-5.563857643339234E+002	8.5214424E-001	-1.5308211E+000	0
2.7462473E+000	1.409022966357952E+002	-1.5327663E+000	-5.581312002824343E+002	8.5548472E-001	-1.5320266E+000	0
2.7528479E+000	1.410131966329936E+002	-1.5339108E+000	-5.572086616248616E+002	8.5470837E-001	-1.5331364E+000	0
2.7530816E+000	1.410645966316952E+002	-1.5343956E+000	-5.573374782014726E+002	8.5517615E-001	-1.5336505E+000	0
2.7624266E+000	1.411257966301491E+002	-1.5350362E+000	-5.556839995566188E+002	8.5299504E-001	-1.5342619E+000	0
2.7421987E+000	1.412365966273501E+002	-1.5361183E+000	-5.601776067546516E+002	8.6049908E-001	-1.5353709E+000	0
2.7302976E+000	1.413471966245561E+002	-1.5372258E+000	-5.630250211280134E+002	8.6549664E-001	-1.5364765E+000	0
2.7184114E+000	1.414678966215070E+002	-1.5384192E+000	-5.659258303989509E+002	8.7063122E-001	-1.5376836E+000	0
2.7000785E+000	1.415419966196350E+002	-1.5391970E+000	-5.700563795301659E+002	8.7742907E-001	-1.5384851E+000	1