EC-Lab ASCII FILE
Nb header lines : 61                          

Linear Sweep Voltammetry

Run on channel : 1 (SN 1340)
User : 
Electrode connection : standard
Potential control : Ewe
Ewe ctrl range : min = -5.00 V, max = 5.00 V
Ewe,I filtering : <None>
Channel : Grounded
Acquisition started on : 02/12/2026 16:51:47.084
Technique started on : 02/12/2026 16:51:49.765
Loaded Setting File :  NONE
Saved on :
	File : Pt_2_12_02_LSV_C01.mpr
	Directory : C:\Users\volt\Documents\Platalytix\
	Host : 127.0.0.1
Device : SP-200 (SN 0262)
Address : USB
EC-LAB for windows v11.60 (software)
Internet server v11.60 (firmware)
Command interpretor v11.60 (firmware)
Electrode material : Pt
Initial state : 
Electrolyte : KOH (1M)
Comments : 
Cable : standard
Reference electrode : Hg/HgO (0.140 V)
Electrode surface area : 1.000 cm˛
Characteristic mass : 0.001 g
Equivalent Weight : 0.000 g/eq.
Density : 0.000 g/cm3
Volume (V) : 0.001 cmł
Cycle Definition : Charge/Discharge alternance
tR (h:m:s)          0:00:5.0000         
dER/dt (mV/h)       0.0                 
dER (mV)            0                   
dtR (s)             0.0000              
dE/dt               10.000              
dE/dt unit          mV/s                
Ei (V)              -0.200              
vs.                 Ref                 
EL (V)              -2.500              
vs.                 Ref                 
record              <I>                 
dI                  0.000               
unit dI             µA                  
tI (s)              0.0000              
step percent        50                  
N                   10                  
E range min (V)     -5.000              
E range max (V)     5.000               
I Range             Auto                
I Range min         Unset               
I Range max         Unset               
I Range init        Unset               
Bandwidth           8                   

Rwe/Ohm	time/s	Ewe/V	<I>/mA	Pwe/W	control/V	error	
0.0000000E+000	2.681400127330562E+000	-1.4342731E-001	0.000000000000000E+000	0.0000000E+000	0.0000000E+000	0
0.0000000E+000	7.681200001024990E+000	-8.0445707E-003	0.000000000000000E+000	0.0000000E+000	-1.9998936E-001	0
3.5853562E+003	7.881199995972565E+000	-2.0167772E-001	-5.625040127866668E-002	1.1344453E-005	-2.0188914E-001	0
1.3261638E+003	8.001199992941110E+000	-2.0291312E-001	-1.530075830084331E-001	3.1047246E-005	-2.0308921E-001	0
1.4286700E+003	8.211199987636064E+000	-2.0502919E-001	-1.435105309192339E-001	2.9423847E-005	-2.0518920E-001	0
1.5763640E+003	8.411199982583639E+000	-2.0705980E-001	-1.313527837636426E-001	2.7197881E-005	-2.0718917E-001	0
1.7062357E+003	8.611199977531214E+000	-2.0905916E-001	-1.225265445591051E-001	2.5615296E-005	-2.0918907E-001	0
1.8227203E+003	8.811199972478789E+000	-2.1109736E-001	-1.158144500501481E-001	2.4448125E-005	-2.1118899E-001	0
1.9270214E+003	9.011199967426364E+000	-2.1305490E-001	-1.105617732992247E-001	2.3555727E-005	-2.1318890E-001	0
2.0246013E+003	9.211199962373939E+000	-2.1502413E-001	-1.062056621390899E-001	2.2836781E-005	-2.1518880E-001	0
2.1145156E+003	9.411199957321514E+000	-2.1707569E-001	-1.026597735852151E-001	2.2284941E-005	-2.1718870E-001	0
2.2007986E+003	9.611199952269089E+000	-2.1909688E-001	-9.955335414362304E-002	2.1811829E-005	-2.1918860E-001	0
2.2824714E+003	9.811199947216664E+000	-2.2105251E-001	-9.684787984660836E-002	2.1408467E-005	-2.2118849E-001	0
2.3620208E+003	1.001119994216424E+001	-2.2302429E-001	-9.442097425847296E-002	2.1058171E-005	-2.2318839E-001	0
2.4400056E+003	1.021119993711181E+001	-2.2506587E-001	-9.223989626158335E-002	2.0760053E-005	-2.2518829E-001	0
2.5131907E+003	1.041119993205939E+001	-2.2702110E-001	-9.033182780617399E-002	2.0507230E-005	-2.2718817E-001	0
2.5857817E+003	1.061119992700696E+001	-2.2904907E-001	-8.858020638766156E-002	2.0289213E-005	-2.2918807E-001	0
2.6587222E+003	1.081119992195454E+001	-2.3111272E-001	-8.692624073743760E-002	2.0089759E-005	-2.3118800E-001	0
2.7283540E+003	1.101119991690211E+001	-2.3307323E-001	-8.542631599469253E-002	1.9910587E-005	-2.3318790E-001	0
2.7958098E+003	1.121119991184969E+001	-2.3507515E-001	-8.408123299652695E-002	1.9765408E-005	-2.3518780E-001	0
2.8666648E+003	1.141119990679726E+001	-2.3705518E-001	-8.269371944764781E-002	1.9602974E-005	-2.3718770E-001	0
2.9343765E+003	1.161119990174484E+001	-2.3903437E-001	-8.146002060837215E-002	1.9471745E-005	-2.3918758E-001	0
2.9992488E+003	1.181119989669241E+001	-2.4104837E-001	-8.036958193723232E-002	1.9372956E-005	-2.4118748E-001	0
3.0686333E+003	1.201109989164252E+001	-2.4304405E-001	-7.920270495778386E-002	1.9249746E-005	-2.4318737E-001	0
3.1332314E+003	1.221099988659262E+001	-2.4507211E-001	-7.821704550432973E-002	1.9168816E-005	-2.4518727E-001	0
3.1975991E+003	1.241099988154019E+001	-2.4704726E-001	-7.726023368148827E-002	1.9086929E-005	-2.4718718E-001	0
3.2623367E+003	1.261099987648777E+001	-2.4908461E-001	-7.635159672991865E-002	1.9018007E-005	-2.4918708E-001	0
3.3266931E+003	1.281099987143534E+001	-2.5110731E-001	-7.548255696861039E-002	1.8954221E-005	-2.5118700E-001	0
3.3905120E+003	1.301099986638292E+001	-2.5308058E-001	-7.464376284187568E-002	1.8890887E-005	-2.5318691E-001	0
3.4560083E+003	1.321099986133049E+001	-2.5509709E-001	-7.381264059888837E-002	1.8829391E-005	-2.5518677E-001	0
3.5180208E+003	1.341099985627807E+001	-2.5707352E-001	-7.307334040933622E-002	1.8785220E-005	-2.5718671E-001	0
3.5797227E+003	1.361099985122564E+001	-2.5904256E-001	-7.236386168708026E-002	1.8745321E-005	-2.5918660E-001	0
3.6414783E+003	1.381099984617322E+001	-2.6103362E-001	-7.168342238619418E-002	1.8711784E-005	-2.6118651E-001	0
3.7035161E+003	1.401099984112079E+001	-2.6306671E-001	-7.103160918740936E-002	1.8686052E-005	-2.6318640E-001	0
3.7656812E+003	1.421099983606837E+001	-2.6503569E-001	-7.038187310511435E-002	1.8653709E-005	-2.6518631E-001	0
3.8287422E+003	1.441099983101594E+001	-2.6703867E-001	-6.974579445023060E-002	1.8624825E-005	-2.6718619E-001	0
3.8891750E+003	1.461099982596352E+001	-2.6907578E-001	-6.918582277976459E-002	1.8616229E-005	-2.6918608E-001	0
3.9523267E+003	1.481099982091109E+001	-2.7100515E-001	-6.856851174037837E-002	1.8582419E-005	-2.7118596E-001	0
4.0090999E+003	1.501099981585867E+001	-2.7307177E-001	-6.811298516604308E-002	1.8599732E-005	-2.7318588E-001	0
4.0723855E+003	1.521099981080624E+001	-2.7504095E-001	-6.753804546500013E-002	1.8575729E-005	-2.7518579E-001	0
4.1311353E+003	1.541099980575382E+001	-2.7705029E-001	-6.706395583351865E-002	1.8580087E-005	-2.7718568E-001	0
4.1927510E+003	1.561099980070139E+001	-2.7907890E-001	-6.656224434813074E-002	1.8576118E-005	-2.7918559E-001	0
4.2505322E+003	1.581099979564897E+001	-2.8107679E-001	-6.612743239991303E-002	1.8586887E-005	-2.8118551E-001	0
4.3157451E+003	1.601089979059907E+001	-2.8307042E-001	-6.559016370378157E-002	1.8566634E-005	-2.8318605E-001	0
4.3709985E+003	1.621079978554917E+001	-2.8506529E-001	-6.521743304695904E-002	1.8591227E-005	-2.8518528E-001	0
4.4308350E+003	1.641079978049675E+001	-2.8704405E-001	-6.478328943303263E-002	1.8595658E-005	-2.8718519E-001	0
4.4872559E+003	1.661079977544432E+001	-2.8902644E-001	-6.441050864620934E-002	1.8616340E-005	-2.8918508E-001	0
4.5487310E+003	1.681079977039190E+001	-2.9107970E-001	-6.399140764785982E-002	1.8626601E-005	-2.9118499E-001	0
4.6093657E+003	1.701079976533947E+001	-2.9309368E-001	-6.358655392933554E-002	1.8636818E-005	-2.9318488E-001	0
4.6658477E+003	1.721079976028705E+001	-2.9504251E-001	-6.323449279798282E-002	1.8656863E-005	-2.9518479E-001	0
4.7195078E+003	1.741079975523462E+001	-2.9703975E-001	-6.293871170522275E-002	1.8695298E-005	-2.9718468E-001	0
4.7771670E+003	1.761079975018220E+001	-2.9906988E-001	-6.260402377720198E-002	1.8722978E-005	-2.9918459E-001	0
4.8333809E+003	1.781079974512977E+001	-3.0104589E-001	-6.228474404424222E-002	1.8750567E-005	-3.0118448E-001	0
4.8958262E+003	1.801079974007735E+001	-3.0304161E-001	-6.189795086147654E-002	1.8757655E-005	-3.0318439E-001	0
4.9509321E+003	1.821079973502492E+001	-3.0510166E-001	-6.162509260500654E-002	1.8801918E-005	-3.0518427E-001	0
5.0010474E+003	1.841079972997250E+001	-3.0702102E-001	-6.139134525589629E-002	1.8848434E-005	-3.0718419E-001	0
5.0557080E+003	1.861079972492007E+001	-3.0909890E-001	-6.113859603040006E-002	1.8897872E-005	-3.0918407E-001	0
5.1131865E+003	1.881079971986765E+001	-3.1104520E-001	-6.083196619010267E-002	1.8921492E-005	-3.1118399E-001	0
5.1743916E+003	1.901079971481522E+001	-3.1309739E-001	-6.050902580137030E-002	1.8945218E-005	-3.1318387E-001	0
5.2235762E+003	1.921079970976280E+001	-3.1505728E-001	-6.031447844294746E-002	1.9002515E-005	-3.1518379E-001	0
5.2739863E+003	1.941079970471037E+001	-3.1708777E-001	-6.012298004773564E-002	1.9064262E-005	-3.1718367E-001	0
5.3301689E+003	1.961079969965795E+001	-3.1907696E-001	-5.986244753615533E-002	1.9100728E-005	-3.1918359E-001	0
5.3899590E+003	1.981079969460552E+001	-3.2102898E-001	-5.956056300928714E-002	1.9120667E-005	-3.2118347E-001	0
5.4313643E+003	2.001069968955562E+001	-3.2304013E-001	-5.947679368039155E-002	1.9213390E-005	-3.2318428E-001	0
5.4904307E+003	2.021059968450572E+001	-3.2504150E-001	-5.920145863217274E-002	1.9242931E-005	-3.2518327E-001	0
5.5407646E+003	2.041059967945330E+001	-3.2706416E-001	-5.902870552975448E-002	1.9306173E-005	-3.2718316E-001	0
5.5928740E+003	2.061059967440087E+001	-3.2907841E-001	-5.883887271046206E-002	1.9362602E-005	-3.2918307E-001	0
5.6479390E+003	2.081059966934845E+001	-3.3107600E-001	-5.861890664885910E-002	1.9407313E-005	-3.3118299E-001	0
5.6947090E+003	2.101059966429602E+001	-3.3301979E-001	-5.847880754159462E-002	1.9474601E-005	-3.3318287E-001	0
5.7492207E+003	2.121059965924360E+001	-3.3503228E-001	-5.827438315511790E-002	1.9523799E-005	-3.3518279E-001	0
5.7901821E+003	2.141059965419117E+001	-3.3707833E-001	-5.821549706741780E-002	1.9623183E-005	-3.3718267E-001	0
5.8453018E+003	2.161059964913875E+001	-3.3904755E-001	-5.800343142102238E-002	1.9665922E-005	-3.3918256E-001	0
5.8956079E+003	2.181059964408632E+001	-3.4105432E-001	-5.784887867365157E-002	1.9729610E-005	-3.4118247E-001	0
5.9388906E+003	2.201059963903390E+001	-3.4304646E-001	-5.776271825738610E-002	1.9815296E-005	-3.4318236E-001	0
5.9903765E+003	2.221059963398147E+001	-3.4503922E-001	-5.759891922651150E-002	1.9873885E-005	-3.4518227E-001	0
6.0324854E+003	2.241059962892905E+001	-3.4706298E-001	-5.753233473665598E-002	1.9967343E-005	-3.4718215E-001	0
6.0824780E+003	2.261059962387662E+001	-3.4908548E-001	-5.739198246275987E-002	2.0034708E-005	-3.4918210E-001	0
6.1282583E+003	2.281059961882420E+001	-3.5108232E-001	-5.728908658213486E-002	2.0113186E-005	-3.5118198E-001	0
6.1672896E+003	2.301059961377177E+001	-3.5304579E-001	-5.724488494362334E-002	2.0210065E-005	-3.5318184E-001	0
6.2180669E+003	2.321059960871935E+001	-3.5500926E-001	-5.709318757952608E-002	2.0268610E-005	-3.5518175E-001	0
6.2635972E+003	2.341059960366692E+001	-3.5706124E-001	-5.700577936365425E-002	2.0354553E-005	-3.5718164E-001	0
6.3042852E+003	2.361059959861450E+001	-3.5900751E-001	-5.694658463913738E-002	2.0444251E-005	-3.5918155E-001	0
6.3462832E+003	2.381059959356207E+001	-3.6104444E-001	-5.689069051811724E-002	2.0540067E-005	-3.6118171E-001	0
6.3937026E+003	2.401039958851470E+001	-3.6305678E-001	-5.678349530932514E-002	2.0615633E-005	-3.6318135E-001	0
6.4298301E+003	2.421039958346228E+001	-3.6503828E-001	-5.677261749808327E-002	2.0724179E-005	-3.6518127E-001	0
6.4710845E+003	2.441039957840985E+001	-3.6704418E-001	-5.672066045561797E-002	2.0818989E-005	-3.6718115E-001	0
6.5100894E+003	2.461039957335743E+001	-3.6904401E-001	-5.668800950785324E-002	2.0920370E-005	-3.6918107E-001	0
6.5635083E+003	2.481039956830500E+001	-3.7102488E-001	-5.652843980179889E-002	2.0973457E-005	-3.7118095E-001	0
6.5933623E+003	2.501039956325258E+001	-3.7303185E-001	-5.657687897333563E-002	2.1104977E-005	-3.7318087E-001	0
6.6322778E+003	2.521039955820015E+001	-3.7505749E-001	-5.655032890751643E-002	2.1209624E-005	-3.7518075E-001	0
6.6714917E+003	2.541039955314773E+001	-3.7705559E-001	-5.651743284663135E-002	2.1310214E-005	-3.7718067E-001	0
6.7084585E+003	2.561039954809530E+001	-3.7902507E-001	-5.649957892510316E-002	2.1414757E-005	-3.7918058E-001	0
6.7441548E+003	2.581039954304288E+001	-3.8105068E-001	-5.650088134804576E-002	2.1529699E-005	-3.8118047E-001	0
6.7893140E+003	2.601039953799045E+001	-3.8300145E-001	-5.641239315383317E-002	2.1606029E-005	-3.8318038E-001	0
6.8276230E+003	2.621039953293803E+001	-3.8504791E-001	-5.639560344257344E-002	2.1715010E-005	-3.8518023E-001	0
6.8574434E+003	2.641039952788560E+001	-3.8706464E-001	-5.644445266371889E-002	2.1847651E-005	-3.8718018E-001	0
6.8904131E+003	2.661039952283318E+001	-3.8898951E-001	-5.645372888153566E-002	2.1959908E-005	-3.8918003E-001	0
6.9411514E+003	2.681039951778075E+001	-3.9103705E-001	-5.633605146715159E-002	2.2029482E-005	-3.9117995E-001	0
6.9696465E+003	2.701039951272833E+001	-3.9306778E-001	-5.639709142837100E-002	2.2167880E-005	-3.9317989E-001	0
7.0023179E+003	2.721039950767590E+001	-3.9506927E-001	-5.641978632346159E-002	2.2289723E-005	-3.9517975E-001	0
7.0371411E+003	2.741039950262348E+001	-3.9705995E-001	-5.642347289312677E-002	2.2403501E-005	-3.9717969E-001	0
7.0748140E+003	2.761039949757105E+001	-3.9907646E-001	-5.640804956671341E-002	2.2511125E-005	-3.9917958E-001	0
7.1119116E+003	2.781029949252115E+001	-4.0108374E-001	-5.639605174550522E-002	2.2619539E-005	-4.0117905E-001	0
7.1422104E+003	2.801019948747125E+001	-4.0303403E-001	-5.642987315409920E-002	2.2743159E-005	-4.0317938E-001	0
7.1774844E+003	2.821019948241883E+001	-4.0502042E-001	-5.642930116734624E-002	2.2855020E-005	-4.0517923E-001	0
7.2156929E+003	2.841019947736640E+001	-4.0707597E-001	-5.641537001609909E-002	2.2965341E-005	-4.0717915E-001	0
7.2424175E+003	2.861019947231398E+001	-4.0906411E-001	-5.648170852961842E-002	2.3104640E-005	-4.0917906E-001	0
7.2750752E+003	2.881019946726155E+001	-4.1103312E-001	-5.649881613284535E-002	2.3222885E-005	-4.1117895E-001	0
7.3053257E+003	2.901019946220913E+001	-4.1309190E-001	-5.654667632479027E-002	2.3358974E-005	-4.1317886E-001	0
7.3462036E+003	2.921019945715670E+001	-4.1511244E-001	-5.650706962120550E-002	2.3456787E-005	-4.1517875E-001	0
7.3770024E+003	2.941019945210428E+001	-4.1706234E-001	-5.653547415247939E-002	2.3578817E-005	-4.1717866E-001	0
7.4123691E+003	2.961019944705185E+001	-4.1911921E-001	-5.654322008376356E-002	2.3698351E-005	-4.1917855E-001	0
7.4457910E+003	2.981019944199943E+001	-4.2111325E-001	-5.655722323828310E-002	2.3816996E-005	-4.2117846E-001	0
7.4781880E+003	3.001019943694700E+001	-4.2307103E-001	-5.657400338342433E-002	2.3934821E-005	-4.2317832E-001	0
7.5109663E+003	3.021019943189458E+001	-4.2507800E-001	-5.659431744738574E-002	2.4056999E-005	-4.2517826E-001	0
7.5457192E+003	3.041019942684215E+001	-4.2708078E-001	-5.659908131915925E-002	2.4172379E-005	-4.2717811E-001	0
7.5739326E+003	3.061019942178973E+001	-4.2910704E-001	-5.665577726033166E-002	2.4311394E-005	-4.2917806E-001	0
7.6055557E+003	3.081019941673731E+001	-4.3107602E-001	-5.667909427626183E-002	2.4432999E-005	-4.3117797E-001	0
7.6418232E+003	3.101019941168488E+001	-4.3307307E-001	-5.667143400870428E-002	2.4542873E-005	-4.3317783E-001	0
7.6777314E+003	3.121019940663246E+001	-4.3512055E-001	-5.667306262104366E-002	2.4659614E-005	-4.3517777E-001	0
7.7086226E+003	3.141019940158003E+001	-4.3709680E-001	-5.670232180391965E-002	2.4784404E-005	-4.3717763E-001	0
7.7346475E+003	3.161019939652761E+001	-4.3910018E-001	-5.677054714212981E-002	2.4927956E-005	-4.3917757E-001	0
7.7671646E+003	3.181009939147771E+001	-4.4108877E-001	-5.678890486023369E-002	2.5048948E-005	-4.4117680E-001	0
7.8082036E+003	3.200999938642781E+001	-4.4310161E-001	-5.674821521470196E-002	2.5145226E-005	-4.4317737E-001	0
7.8429492E+003	3.220999938137538E+001	-4.4508660E-001	-5.674990324478763E-002	2.5258621E-005	-4.4517723E-001	0
7.8738315E+003	3.240999937632296E+001	-4.4708660E-001	-5.678132738360508E-002	2.5386171E-005	-4.4717723E-001	0
7.9077349E+003	3.260999937127053E+001	-4.4912398E-001	-5.679552687137740E-002	2.5508232E-005	-4.4917703E-001	0
7.9416377E+003	3.280999936621811E+001	-4.5108572E-001	-5.680008803794179E-002	2.5621708E-005	-4.5117697E-001	0
7.9735269E+003	3.300999936116568E+001	-4.5308822E-001	-5.682406785883143E-002	2.5746316E-005	-4.5317686E-001	0
8.0113740E+003	3.320999935611326E+001	-4.5510796E-001	-5.680772783065768E-002	2.5853649E-005	-4.5517674E-001	0
8.0398604E+003	3.340999935106083E+001	-4.5710388E-001	-5.685470381840352E-002	2.5988506E-005	-4.5717669E-001	0
8.0774492E+003	3.360999934600841E+001	-4.5911852E-001	-5.683954228285937E-002	2.6096086E-005	-4.5917654E-001	0
8.1128545E+003	3.380999934095598E+001	-4.6109220E-001	-5.683476702455870E-002	2.6206068E-005	-4.6117648E-001	0
8.1486406E+003	3.400999933590356E+001	-4.6309808E-001	-5.683132852089767E-002	2.6318479E-005	-4.6317634E-001	0
8.1711904E+003	3.420999933085113E+001	-4.6510494E-001	-5.692009566100459E-002	2.6473817E-005	-4.6517625E-001	0
8.2194404E+003	3.440999932579871E+001	-4.6706411E-001	-5.682431791947062E-002	2.6540600E-005	-4.6717614E-001	0
8.2456563E+003	3.460999932074628E+001	-4.6909338E-001	-5.688975943841657E-002	2.6686610E-005	-4.6917605E-001	0
8.2889980E+003	3.480999931569386E+001	-4.7107491E-001	-5.683134283549429E-002	2.6771821E-005	-4.7117597E-001	0
8.3300195E+003	3.500999931064143E+001	-4.7311017E-001	-5.679580422652586E-002	2.6870672E-005	-4.7317582E-001	0
8.3661865E+003	3.520999930558901E+001	-4.7510609E-001	-5.678884532406070E-002	2.6980726E-005	-4.7517577E-001	0
8.3921299E+003	3.540999930053658E+001	-4.7709146E-001	-5.684986909325584E-002	2.7122587E-005	-4.7717562E-001	0
8.4344326E+003	3.560999929548416E+001	-4.7906935E-001	-5.679924171175121E-002	2.7210775E-005	-4.7917560E-001	0
8.4654121E+003	3.580989929043426E+001	-4.8109919E-001	-5.683115683209783E-002	2.7341423E-005	-4.8117501E-001	0
8.4994180E+003	3.600979928538436E+001	-4.8307481E-001	-5.683622291140567E-002	2.7456148E-005	-4.8317537E-001	0
8.5545713E+003	3.620979928033194E+001	-4.8505557E-001	-5.670133023681212E-002	2.7503296E-005	-4.8517525E-001	0
8.5931016E+003	3.640979927527951E+001	-4.8709652E-001	-5.668460153193211E-002	2.7610871E-005	-4.8717514E-001	0
8.6316113E+003	3.660979927022709E+001	-4.8909035E-001	-5.666269318838427E-002	2.7713177E-005	-4.8917508E-001	0
8.6695576E+003	3.680979926517466E+001	-4.9107844E-001	-5.664400068795955E-002	2.7816648E-005	-4.9117494E-001	0
8.7139141E+003	3.700979926012224E+001	-4.9307269E-001	-5.658452637766032E-002	2.7900285E-005	-4.9317488E-001	0
8.7606807E+003	3.720979925506981E+001	-4.9506438E-001	-5.650980542297712E-002	2.7975992E-005	-4.9517474E-001	0
8.7915781E+003	3.740979925001739E+001	-4.9711406E-001	-5.654434610660819E-002	2.8108989E-005	-4.9717468E-001	0
8.8326230E+003	3.760979924496496E+001	-4.9909070E-001	-5.650537715044268E-002	2.8201308E-005	-4.9917454E-001	0
8.8725264E+003	3.780979923991254E+001	-5.0109720E-001	-5.647739725316236E-002	2.8300667E-005	-5.0117445E-001	0
8.9314053E+003	3.800979923486011E+001	-5.0309622E-001	-5.632890172750415E-002	2.8338858E-005	-5.0317436E-001	0
8.9761934E+003	3.820979922980769E+001	-5.0512165E-001	-5.627347982611058E-002	2.8424953E-005	-5.0517422E-001	0
9.0164092E+003	3.840979922475526E+001	-5.0711715E-001	-5.624380670519538E-002	2.8522200E-005	-5.0717413E-001	0
9.0470986E+003	3.860979921970284E+001	-5.0909680E-001	-5.627183148124226E-002	2.8647810E-005	-5.0917399E-001	0
9.1018457E+003	3.880979921465041E+001	-5.1109314E-001	-5.615268957214081E-002	2.8699254E-005	-5.1117396E-001	0
9.1441826E+003	3.900979920959799E+001	-5.1311928E-001	-5.611428790599060E-002	2.8793324E-005	-5.1317382E-001	0
9.1833965E+003	3.920979920454556E+001	-5.1510334E-001	-5.609072167310214E-002	2.8892518E-005	-5.1517373E-001	0
9.2359775E+003	3.940979919949314E+001	-5.1712352E-001	-5.599012103960210E-002	2.8953809E-005	-5.1717365E-001	0
9.2738467E+003	3.960979919444071E+001	-5.1911795E-001	-5.597654963017806E-002	2.9058432E-005	-5.1917350E-001	0
9.3174922E+003	3.980959918939334E+001	-5.2109802E-001	-5.592685365821337E-002	2.9143373E-005	-5.2117324E-001	0
9.3583721E+003	4.000959918434091E+001	-5.2309483E-001	-5.589592431897869E-002	2.9238869E-005	-5.2317333E-001	0
9.4124951E+003	4.020959917928849E+001	-5.2509886E-001	-5.578742383941238E-002	2.9293913E-005	-5.2517325E-001	0
9.4623125E+003	4.040959917423606E+001	-5.2712154E-001	-5.570747671213827E-002	2.9364612E-005	-5.2717310E-001	0
9.5006006E+003	4.060959916918364E+001	-5.2908182E-001	-5.568930095266511E-002	2.9464196E-005	-5.2917308E-001	0
9.5453545E+003	4.080959916413121E+001	-5.3116095E-001	-5.564601575668515E-002	2.9556990E-005	-5.3117293E-001	0
9.5857998E+003	4.100959915907879E+001	-5.3306228E-001	-5.560957941927785E-002	2.9643370E-005	-5.3317285E-001	0
9.6328887E+003	4.120959915402636E+001	-5.3508449E-001	-5.554766400269484E-002	2.9722692E-005	-5.3517276E-001	0
9.6798906E+003	4.140959914897394E+001	-5.3708029E-001	-5.548412865344554E-002	2.9799432E-005	-5.3717262E-001	0
9.7205146E+003	4.160959914392151E+001	-5.3908879E-001	-5.545887165457897E-002	2.9897255E-005	-5.3917259E-001	0
9.7705889E+003	4.180959913886909E+001	-5.4110163E-001	-5.538065532853809E-002	2.9966563E-005	-5.4117239E-001	0
9.8036533E+003	4.200959913381666E+001	-5.4310316E-001	-5.539803677491961E-002	3.0086849E-005	-5.4317236E-001	0
9.8588271E+003	4.220959912876424E+001	-5.4508942E-001	-5.528948135893641E-002	3.0137711E-005	-5.4517221E-001	0
9.8951670E+003	4.240959912371181E+001	-5.4709870E-001	-5.528948330922301E-002	3.0248804E-005	-5.4717213E-001	0
9.9369365E+003	4.260959911865939E+001	-5.4911900E-001	-5.526038894457252E-002	3.0344529E-005	-5.4917204E-001	0
9.9887148E+003	4.280959911360696E+001	-5.5109268E-001	-5.517152935697323E-002	3.0404626E-005	-5.5117196E-001	0
1.0025389E+004	4.300959910855454E+001	-5.5311328E-001	-5.517125731469252E-002	3.0515956E-005	-5.5317187E-001	0
1.0077608E+004	4.320959910350211E+001	-5.5512857E-001	-5.508534819079913E-002	3.0579449E-005	-5.5517173E-001	0
1.0114332E+004	4.340959909844969E+001	-5.5708009E-001	-5.507828795420811E-002	3.0683019E-005	-5.5717164E-001	0
1.0163248E+004	4.360959909339726E+001	-5.5910265E-001	-5.501220264205331E-002	3.0757470E-005	-5.5917174E-001	0
1.0203542E+004	4.380939908834989E+001	-5.6114250E-001	-5.499487128886604E-002	3.0859959E-005	-5.6117147E-001	0
1.0262135E+004	4.400939908329747E+001	-5.6313014E-001	-5.487455937656627E-002	3.0901519E-005	-5.6317133E-001	0
1.0293634E+004	4.420939907824504E+001	-5.6513572E-001	-5.490147998945055E-002	3.1026786E-005	-5.6517124E-001	0
1.0337599E+004	4.440939907319262E+001	-5.6712300E-001	-5.486022407355839E-002	3.1112493E-005	-5.6717110E-001	0
1.0388258E+004	4.460939906814019E+001	-5.6909180E-001	-5.478221610190576E-002	3.1176110E-005	-5.6917101E-001	0
1.0419653E+004	4.480939906308777E+001	-5.7110852E-001	-5.481070127124854E-002	3.1302858E-005	-5.7117093E-001	0
1.0480537E+004	4.500939905803534E+001	-5.7309115E-001	-5.468146572715266E-002	3.1337466E-005	-5.7317084E-001	0
1.0493975E+004	4.520939905298292E+001	-5.7506883E-001	-5.479990468463969E-002	3.1513719E-005	-5.7517076E-001	0
1.0551388E+004	4.540939904793049E+001	-5.7707280E-001	-5.469165215175820E-002	3.1561063E-005	-5.7717061E-001	0
1.0594478E+004	4.560939904287807E+001	-5.7909316E-001	-5.465990778105245E-002	3.1653177E-005	-5.7917053E-001	0
1.0627960E+004	4.580939903782564E+001	-5.8104843E-001	-5.467168191055055E-002	3.1766896E-005	-5.8117044E-001	0
1.0680328E+004	4.600939903277322E+001	-5.8305728E-001	-5.459170019393483E-002	3.1830088E-005	-5.8317035E-001	0
1.0715348E+004	4.620939902772079E+001	-5.8507591E-001	-5.460167189113918E-002	3.1946121E-005	-5.8517021E-001	0
1.0756233E+004	4.640939902266837E+001	-5.8707064E-001	-5.457957425099830E-002	3.2042066E-005	-5.8717006E-001	0
1.0795056E+004	4.660939901761594E+001	-5.8906358E-001	-5.456790613494134E-002	3.2143966E-005	-5.8917004E-001	0
1.0837201E+004	4.680939901256352E+001	-5.9109628E-001	-5.454326242624497E-002	3.2240321E-005	-5.9116989E-001	0
1.0873266E+004	4.700939900751109E+001	-5.9307736E-001	-5.454454601049646E-002	3.2349137E-005	-5.9316981E-001	0
1.0906382E+004	4.720939900245867E+001	-5.9506762E-001	-5.456141311022750E-002	3.2467731E-005	-5.9516972E-001	0
1.0944054E+004	4.740939899740624E+001	-5.9709877E-001	-5.455919715856757E-002	3.2577231E-005	-5.9716964E-001	0
1.1002146E+004	4.760929899235634E+001	-5.9912741E-001	-5.445550268566546E-002	3.2625783E-005	-5.9916914E-001	0
1.1048256E+004	4.780919898730644E+001	-6.0112470E-001	-5.440901176288046E-002	3.2706601E-005	-6.0116941E-001	0
1.1094911E+004	4.800919898225402E+001	-6.0308665E-001	-5.435705198874685E-002	3.2782013E-005	-6.0316932E-001	0
1.1123961E+004	4.820919897720160E+001	-6.0510063E-001	-5.439614828479589E-002	3.2915144E-005	-6.0516918E-001	0
1.1180387E+004	4.840919897214917E+001	-6.0709488E-001	-5.429998933825475E-002	3.2965247E-005	-6.0716915E-001	0
1.1211012E+004	4.860919896709675E+001	-6.0908872E-001	-5.432950358578093E-002	3.3091488E-005	-6.0916901E-001	0
1.1258313E+004	4.880919896204432E+001	-6.1109143E-001	-5.427913243888682E-002	3.3169512E-005	-6.1116892E-001	0
1.1307381E+004	4.900919895699190E+001	-6.1309636E-001	-5.422089793539819E-002	3.3242635E-005	-6.1316884E-001	0
1.1340803E+004	4.920919895193947E+001	-6.1511564E-001	-5.423916085642214E-002	3.3363358E-005	-6.1516869E-001	0
1.1371053E+004	4.940919894688705E+001	-6.1713475E-001	-5.427243795283887E-002	3.3493408E-005	-6.1716861E-001	0
1.1433866E+004	4.960919894183462E+001	-6.1906958E-001	-5.414350173127769E-002	3.3518594E-005	-6.1916852E-001	0
1.1463435E+004	4.980919893678220E+001	-6.2115967E-001	-5.418617699914069E-002	3.3658267E-005	-6.2116843E-001	0
1.1499260E+004	5.000919893172977E+001	-6.2309730E-001	-5.418586321206742E-002	3.3763066E-005	-6.2316829E-001	0
1.1530899E+004	5.020919892667735E+001	-6.2507653E-001	-5.420882578320418E-002	3.3884666E-005	-6.2516820E-001	0
1.1570183E+004	5.040919892162492E+001	-6.2713432E-001	-5.420262770739931E-002	3.3992328E-005	-6.2716806E-001	0
1.1611862E+004	5.060919891657250E+001	-6.2912959E-001	-5.417990214307522E-002	3.4086181E-005	-6.2916809E-001	0
1.1635479E+004	5.080919891152007E+001	-6.3110393E-001	-5.423961463542715E-002	3.4230834E-005	-6.3116795E-001	0
1.1674065E+004	5.100919890646765E+001	-6.3310426E-001	-5.423168609311557E-002	3.4334313E-005	-6.3316780E-001	0
1.1700373E+004	5.120919890141522E+001	-6.3509279E-001	-5.427970455974224E-002	3.4472650E-005	-6.3516772E-001	0
1.1752411E+004	5.140919889636280E+001	-6.3711762E-001	-5.421165141483963E-002	3.4539200E-005	-6.3716757E-001	0
1.1764600E+004	5.160909889131290E+001	-6.3907808E-001	-5.432212855012519E-002	3.4716082E-005	-6.3916737E-001	0
1.1801683E+004	5.180899888626300E+001	-6.4109892E-001	-5.432266939448360E-002	3.4826204E-005	-6.4116740E-001	0
1.1824500E+004	5.200899888121057E+001	-6.4308560E-001	-5.438586146372226E-002	3.4974764E-005	-6.4316732E-001	0
1.1853880E+004	5.220899887615815E+001	-6.4514697E-001	-5.442496305891198E-002	3.5112098E-005	-6.4516717E-001	0
1.1865784E+004	5.240899887110572E+001	-6.4713705E-001	-5.453807659723853E-002	3.5293611E-005	-6.4716709E-001	0
1.1899988E+004	5.260899886605330E+001	-6.4913452E-001	-5.454917445191754E-002	3.5409754E-005	-6.4916700E-001	0
1.1900112E+004	5.280899886100087E+001	-6.5107638E-001	-5.471178249914288E-002	3.5621550E-005	-6.5116692E-001	0
1.1935840E+004	5.300899885594845E+001	-6.5312958E-001	-5.472003362382316E-002	3.5739271E-005	-6.5316683E-001	0
1.1950384E+004	5.320899885089602E+001	-6.5512067E-001	-5.482005420069114E-002	3.5913752E-005	-6.5516669E-001	0
1.1983382E+004	5.340899884584360E+001	-6.5709609E-001	-5.483394508174032E-002	3.6031171E-005	-6.5716660E-001	0
1.1974972E+004	5.360899884079117E+001	-6.5912956E-001	-5.504226634678017E-002	3.6279984E-005	-6.5916646E-001	0
1.1996893E+004	5.380899883573875E+001	-6.6116607E-001	-5.511144413232683E-002	3.6437817E-005	-6.6116643E-001	0
1.2003541E+004	5.400899883068632E+001	-6.6312277E-001	-5.524392886501228E-002	3.6633508E-005	-6.6316628E-001	0
1.2033819E+004	5.420899882563390E+001	-6.6512555E-001	-5.527136079035691E-002	3.6762394E-005	-6.6516620E-001	0
1.2009017E+004	5.440899882058147E+001	-6.6712022E-001	-5.555161117426102E-002	3.7059603E-005	-6.6716611E-001	0
1.2029695E+004	5.460899881552905E+001	-6.6911077E-001	-5.562159130582051E-002	3.7217007E-005	-6.6916597E-001	0
1.2030064E+004	5.480899881047662E+001	-6.7112398E-001	-5.578723265219243E-002	3.7440150E-005	-6.7116588E-001	0
1.2034666E+004	5.500899880542420E+001	-6.7305797E-001	-5.592659958522106E-002	3.7641843E-005	-6.7316580E-001	0
1.2029901E+004	5.520899880037177E+001	-6.7512178E-001	-5.612030692499920E-002	3.7888043E-005	-6.7516571E-001	0
1.2020315E+004	5.540899879531935E+001	-6.7711568E-001	-5.633093930079758E-002	3.8142563E-005	-6.7716557E-001	0
1.2016072E+004	5.560889879026945E+001	-6.7905372E-001	-5.651211979991966E-002	3.8374765E-005	-6.7916530E-001	0
1.1992532E+004	5.580879878521955E+001	-6.8110782E-001	-5.679432823810537E-002	3.8683062E-005	-6.8116540E-001	0
1.1983515E+004	5.600879878016713E+001	-6.8312627E-001	-5.700550202117657E-002	3.8941955E-005	-6.8316525E-001	0
1.1960688E+004	5.620879877511470E+001	-6.8510610E-001	-5.727982610652010E-002	3.9242757E-005	-6.8516517E-001	0
1.1952075E+004	5.640879877006228E+001	-6.8708694E-001	-5.748683358056872E-002	3.9498453E-005	-6.8716508E-001	0
1.1917582E+004	5.660879876500985E+001	-6.8910372E-001	-5.782244337169376E-002	3.9845661E-005	-6.8916500E-001	0
1.1937706E+004	5.680879875995743E+001	-6.9108713E-001	-5.789111619297821E-002	4.0007806E-005	-6.9116485E-001	0
1.1902832E+004	5.700879875490500E+001	-6.9309688E-001	-5.822957819116525E-002	4.0358740E-005	-6.9316477E-001	0
1.1897814E+004	5.720879874985258E+001	-6.9508433E-001	-5.842117719878082E-002	4.0607643E-005	-6.9516474E-001	0
1.1863845E+004	5.740879874480015E+001	-6.9711345E-001	-5.875948789928634E-002	4.0962030E-005	-6.9716465E-001	0
1.1862122E+004	5.760879873974773E+001	-6.9907755E-001	-5.893359962817057E-002	4.1199157E-005	-6.9916451E-001	0
1.1820502E+004	5.780879873469530E+001	-7.0111036E-001	-5.931307951277742E-002	4.1585015E-005	-7.0116436E-001	0
1.1774970E+004	5.800879872964288E+001	-7.0311439E-001	-5.971262769408270E-002	4.1984807E-005	-7.0316434E-001	0
1.1778092E+004	5.820879872459045E+001	-7.0514327E-001	-5.986906099238820E-002	4.2216267E-005	-7.0516413E-001	0
1.1749796E+004	5.840879871953803E+001	-7.0709825E-001	-6.017961836728336E-002	4.2552903E-005	-7.0716417E-001	0
1.1704123E+004	5.860879871448560E+001	-7.0910764E-001	-6.058614151372765E-002	4.2962096E-005	-7.0916396E-001	0
1.1688323E+004	5.880879870943318E+001	-7.1110255E-001	-6.083871133661428E-002	4.3262564E-005	-7.1116394E-001	0
1.1641739E+004	5.900879870438075E+001	-7.1310526E-001	-6.125418345767031E-002	4.3680680E-005	-7.1316373E-001	0
1.1629834E+004	5.920879869932833E+001	-7.1509141E-001	-6.148767078035580E-002	4.3969307E-005	-7.1516365E-001	0
1.1591669E+004	5.940879869427590E+001	-7.1708763E-001	-6.186233026233173E-002	4.4360713E-005	-7.1716362E-001	0
1.1566867E+004	5.960869868922600E+001	-7.1911347E-001	-6.217011665132643E-002	4.4707369E-005	-7.1916395E-001	0
1.1522282E+004	5.980859868417610E+001	-7.2107255E-001	-6.258070593606913E-002	4.5125231E-005	-7.2116345E-001	0
1.1488929E+004	6.000859867912368E+001	-7.2311544E-001	-6.294019502490465E-002	4.5513028E-005	-7.2316325E-001	0
1.1487303E+004	6.020859867407125E+001	-7.2507375E-001	-6.311958268455871E-002	4.5766352E-005	-7.2516316E-001	0
1.1460134E+004	6.040859866901883E+001	-7.2712153E-001	-6.344791009331585E-002	4.6134341E-005	-7.2716308E-001	0
1.1452513E+004	6.060859866396640E+001	-7.2908431E-001	-6.366151557705221E-002	4.6414611E-005	-7.2916305E-001	0
1.1428319E+004	6.080859865891398E+001	-7.3108524E-001	-6.397137009219839E-002	4.6768524E-005	-7.3116285E-001	0
1.1391987E+004	6.100859865386155E+001	-7.3311293E-001	-6.435338325287432E-002	4.7178299E-005	-7.3316276E-001	0
1.1344862E+004	6.120859864880913E+001	-7.3510092E-001	-6.479593360471335E-002	4.7631551E-005	-7.3516268E-001	0
1.1346208E+004	6.140859864375670E+001	-7.3713475E-001	-6.496749892345116E-002	4.7889800E-005	-7.3716259E-001	0
1.1339332E+004	6.160859863870428E+001	-7.3906308E-001	-6.517695041337479E-002	4.8169877E-005	-7.3916256E-001	0
1.1282644E+004	6.180859863365185E+001	-7.4111587E-001	-6.568636611218071E-002	4.8681210E-005	-7.4116236E-001	0
1.1271145E+004	6.200859862859943E+001	-7.4310440E-001	-6.592980636518164E-002	4.8992730E-005	-7.4316227E-001	0
1.1251596E+004	6.220859862354700E+001	-7.4513626E-001	-6.622493841374921E-002	4.9346603E-005	-7.4516219E-001	0
1.1216167E+004	6.240859861849458E+001	-7.4709022E-001	-6.660833380970654E-002	4.9762435E-005	-7.4716210E-001	0
1.1222765E+004	6.260859861344215E+001	-7.4910396E-001	-6.674861102818985E-002	5.0001650E-005	-7.4916196E-001	0
1.1176687E+004	6.280859860838973E+001	-7.5111544E-001	-6.720376770643524E-002	5.0477789E-005	-7.5116187E-001	0
1.1135479E+004	6.300859860333730E+001	-7.5310796E-001	-6.763139546293406E-002	5.0933744E-005	-7.5316179E-001	0
1.1121056E+004	6.320859859828488E+001	-7.5513512E-001	-6.790138693218067E-002	5.1274721E-005	-7.5516170E-001	0
1.1077373E+004	6.340859859323245E+001	-7.5709802E-001	-6.834634910221493E-002	5.1744886E-005	-7.5716162E-001	0
1.1094739E+004	6.360849858818256E+001	-7.5909090E-001	-6.841899511761590E-002	5.1936237E-005	-7.5916219E-001	0
1.1014645E+004	6.380839858313266E+001	-7.6113290E-001	-6.910190548612627E-002	5.2595733E-005	-7.6116139E-001	0
1.1006122E+004	6.400839857808023E+001	-7.6309007E-001	-6.933323826847815E-002	5.2907504E-005	-7.6316130E-001	0
1.0976485E+004	6.420839857302781E+001	-7.6508987E-001	-6.970262613259437E-002	5.3328775E-005	-7.6516122E-001	0
1.0939401E+004	6.440839856797538E+001	-7.6711804E-001	-7.012431368774541E-002	5.3793625E-005	-7.6716113E-001	0
1.0913063E+004	6.460839856292296E+001	-7.6911342E-001	-7.047640523068663E-002	5.4204349E-005	-7.6916099E-001	0
1.0885614E+004	6.480839855787053E+001	-7.7108854E-001	-7.083555525158247E-002	5.4620486E-005	-7.7116090E-001	0
1.0831601E+004	6.500839855281811E+001	-7.7310956E-001	-7.137537578462927E-002	5.5180986E-005	-7.7316070E-001	0
1.0800581E+004	6.520839854776568E+001	-7.7509004E-001	-7.176373726075880E-002	5.5623357E-005	-7.7516073E-001	0
1.0744853E+004	6.540839854271326E+001	-7.7705240E-001	-7.231857578529871E-002	5.6195324E-005	-7.7716053E-001	0
1.0699835E+004	6.560839853766083E+001	-7.7904367E-001	-7.280894202737720E-002	5.6721346E-005	-7.7916050E-001	0
1.0668157E+004	6.580839853260841E+001	-7.8113133E-001	-7.322082748528885E-002	5.7195080E-005	-7.8116035E-001	0
1.0632657E+004	6.600839852755598E+001	-7.8310418E-001	-7.365084445904353E-002	5.7676283E-005	-7.8316033E-001	0
1.0576884E+004	6.620839852250356E+001	-7.8505903E-001	-7.422404048294945E-002	5.8270252E-005	-7.8516024E-001	0
1.0517229E+004	6.640839851745113E+001	-7.8709954E-001	-7.483906328177634E-002	5.8905793E-005	-7.8716010E-001	0
1.0467405E+004	6.660839851239871E+001	-7.8904969E-001	-7.538159164101665E-002	5.9479822E-005	-7.8916001E-001	0
1.0459871E+004	6.680839850734628E+001	-7.9105049E-001	-7.562717235786531E-002	5.9824913E-005	-7.9115993E-001	0
1.0349359E+004	6.700839850229386E+001	-7.9311347E-001	-7.663406458336974E-002	6.0779508E-005	-7.9315984E-001	0
1.0306246E+004	6.720839849724143E+001	-7.9513407E-001	-7.715069525875162E-002	6.1345148E-005	-7.9515964E-001	0
1.0265973E+004	6.740829849219153E+001	-7.9709882E-001	-7.764474269042554E-002	6.1890532E-005	-7.9715878E-001	0
1.0191417E+004	6.760819848714164E+001	-7.9909283E-001	-7.840841249488348E-002	6.2655599E-005	-7.9915935E-001	0
1.0126918E+004	6.780819848208921E+001	-8.0104727E-001	-7.910079352637900E-002	6.3363477E-005	-8.0115944E-001	0
1.0068551E+004	6.800819847703679E+001	-8.0306846E-001	-7.976008741113239E-002	6.4052809E-005	-8.0315936E-001	0
1.0014336E+004	6.820819847198436E+001	-8.0507833E-001	-8.039258568032404E-002	6.4722328E-005	-8.0515915E-001	0
9.9549697E+003	6.840819846693194E+001	-8.0707079E-001	-8.107215140274623E-002	6.5430962E-005	-8.0715913E-001	0
9.8739902E+003	6.860819846187951E+001	-8.0906069E-001	-8.193857346232680E-002	6.6293280E-005	-8.0915904E-001	0
9.8149834E+003	6.880819845682709E+001	-8.1111819E-001	-8.264081090078390E-002	6.7031462E-005	-8.1115896E-001	0
9.7627002E+003	6.900819845177466E+001	-8.1308490E-001	-8.328483903689787E-002	6.7717643E-005	-8.1315875E-001	0
9.6579736E+003	6.920819844672224E+001	-8.1509966E-001	-8.439654934266466E-002	6.8791596E-005	-8.1515867E-001	0
9.5929814E+003	6.940819844166981E+001	-8.1710434E-001	-8.517730937079609E-002	6.9598747E-005	-8.1715864E-001	0
9.5582402E+003	6.960819843661739E+001	-8.1911117E-001	-8.569685600660004E-002	7.0195252E-005	-8.1915843E-001	0
9.4518301E+003	6.980819843156496E+001	-8.2111228E-001	-8.687336495158804E-002	7.1332790E-005	-8.2115847E-001	0
9.4084131E+003	7.000819842651254E+001	-8.2312334E-001	-8.748800669746082E-002	7.2013419E-005	-8.2315826E-001	0
9.3267559E+003	7.020819842146011E+001	-8.2510310E-001	-8.846624640435352E-002	7.2993775E-005	-8.2515818E-001	0
9.3084375E+003	7.040819841640769E+001	-8.2711858E-001	-8.885686414827387E-002	7.3495161E-005	-8.2715815E-001	0
9.1992344E+003	7.060819841135526E+001	-8.2909387E-001	-9.012640404563554E-002	7.4723248E-005	-8.2915795E-001	0
9.1210049E+003	7.080819840630284E+001	-8.3106035E-001	-9.111499589817185E-002	7.5722062E-005	-8.3115786E-001	0
9.0557734E+003	7.100819840125041E+001	-8.3307350E-001	-9.199363356688495E-002	7.6637458E-005	-8.3315778E-001	0
8.9924736E+003	7.120819839619799E+001	-8.3513099E-001	-9.286999888506964E-002	7.7558616E-005	-8.3515769E-001	0
8.9394395E+003	7.140819839114556E+001	-8.3714485E-001	-9.364623878501765E-002	7.8395467E-005	-8.3715755E-001	0
8.8560498E+003	7.160809838609566E+001	-8.3910304E-001	-9.474913541165941E-002	7.9504287E-005	-8.3915776E-001	0
8.8129229E+003	7.180799838104576E+001	-8.4111232E-001	-9.544079260512062E-002	8.0276426E-005	-8.4115738E-001	0
8.7318643E+003	7.200799837599334E+001	-8.4309024E-001	-9.655329699590032E-002	8.1403145E-005	-8.4315729E-001	0
8.6817939E+003	7.220799837094091E+001	-8.4511817E-001	-9.734372238632849E-002	8.2266946E-005	-8.4515721E-001	0
8.5968799E+003	7.240799836588849E+001	-8.4713131E-001	-9.853938825812847E-002	8.3475803E-005	-8.4715706E-001	0
8.5346992E+003	7.260799836083606E+001	-8.4913743E-001	-9.949236193274802E-002	8.4482686E-005	-8.4915698E-001	0
8.4785391E+003	7.280799835578364E+001	-8.5112923E-001	-1.003863079623321E-001	8.5441723E-005	-8.5115689E-001	0
8.3994551E+003	7.300799835073121E+001	-8.5309017E-001	-1.015649470036046E-001	8.6644061E-005	-8.5315681E-001	0
8.3202549E+003	7.320799834567879E+001	-8.5511374E-001	-1.027749432124141E-001	8.7884269E-005	-8.5515666E-001	0
8.2684492E+003	7.340799834062636E+001	-8.5714358E-001	-1.036643727878936E-001	8.8855253E-005	-8.5715657E-001	0
8.2153379E+003	7.360799833557394E+001	-8.5908991E-001	-1.045714595635969E-001	8.9836285E-005	-8.5915649E-001	0
8.1214404E+003	7.380799833052151E+001	-8.6110133E-001	-1.060281510067824E-001	9.1300979E-005	-8.6115640E-001	0
8.0384658E+003	7.400799832546909E+001	-8.6311835E-001	-1.073735158028852E-001	9.2676055E-005	-8.6315632E-001	0
7.9524399E+003	7.420799832041666E+001	-8.6508119E-001	-1.087818580105172E-001	9.4105140E-005	-8.6515617E-001	0
7.8292603E+003	7.440799831536424E+001	-8.6711520E-001	-1.107531447183172E-001	9.6035736E-005	-8.6715609E-001	0
7.7619824E+003	7.460799831031181E+001	-8.6911553E-001	-1.119708222381415E-001	9.7315584E-005	-8.6915588E-001	0
7.6547603E+003	7.480799830525939E+001	-8.7110937E-001	-1.137996955664906E-001	9.9131983E-005	-8.7115592E-001	0
7.5544590E+003	7.500799830020696E+001	-8.7312591E-001	-1.155775530895222E-001	1.0091376E-004	-8.7315577E-001	0
7.4348813E+003	7.520799829515454E+001	-8.7508047E-001	-1.176993185971058E-001	1.0299638E-004	-8.7515569E-001	0
7.3224868E+003	7.540799829010211E+001	-8.7711895E-001	-1.197842979505910E-001	1.0506508E-004	-8.7715554E-001	0
7.1883901E+003	7.560789828505222E+001	-8.7910181E-001	-1.222946679042338E-001	1.0750946E-004	-8.7915617E-001	0
7.0426792E+003	7.580779828000232E+001	-8.8110393E-001	-1.251091943133004E-001	1.1023421E-004	-8.8115543E-001	0
6.8979502E+003	7.600779827494989E+001	-8.8311374E-001	-1.280255348531445E-001	1.1306111E-004	-8.8315523E-001	0
6.7595210E+003	7.620779826989747E+001	-8.8508552E-001	-1.309390849963914E-001	1.1589229E-004	-8.8515520E-001	0
6.6090039E+003	7.640779826484504E+001	-8.8708782E-001	-1.342241342301966E-001	1.1906859E-004	-8.8715529E-001	0
6.4557021E+003	7.660779825979262E+001	-8.8906038E-001	-1.377170715331097E-001	1.2243880E-004	-8.8915533E-001	0
6.3086875E+003	7.680779825474019E+001	-8.9108330E-001	-1.412470233901209E-001	1.2586286E-004	-8.9115524E-001	0
6.1501377E+003	7.700779824968777E+001	-8.9308196E-001	-1.452133234045436E-001	1.2968740E-004	-8.9315534E-001	0
5.9788257E+003	7.720779824463534E+001	-8.9512724E-001	-1.497162236397043E-001	1.3401506E-004	-8.9515537E-001	0
5.7988965E+003	7.740779823958292E+001	-8.9709169E-001	-1.547004179627787E-001	1.3878047E-004	-8.9715528E-001	0
5.6188359E+003	7.760779823453049E+001	-8.9909708E-001	-1.600148331272560E-001	1.4386886E-004	-8.9915526E-001	0
5.4291084E+003	7.780779822947807E+001	-9.0111309E-001	-1.659780998794522E-001	1.4956504E-004	-9.0115535E-001	0
5.2143184E+003	7.800779822442564E+001	-9.0308154E-001	-1.731926323138513E-001	1.5640707E-004	-9.0315533E-001	0
5.0113755E+003	7.820779821937322E+001	-9.0509248E-001	-1.806075947460570E-001	1.6346658E-004	-9.0515524E-001	0
4.8056821E+003	7.840779821432079E+001	-9.0712166E-001	-1.887602286546368E-001	1.7122849E-004	-9.0715539E-001	0
4.5844087E+003	7.860779820926837E+001	-9.0908629E-001	-1.982995777553511E-001	1.8027143E-004	-9.0915525E-001	0
4.3656064E+003	7.880779820421594E+001	-9.1110271E-001	-2.087001444163690E-001	1.9014727E-004	-9.1115534E-001	0
4.1477930E+003	7.900779819916352E+001	-9.1312188E-001	-2.201464444297514E-001	2.0102054E-004	-9.1315532E-001	0
3.9250913E+003	7.920779819411109E+001	-9.1507781E-001	-2.331354225206423E-001	2.1333706E-004	-9.1515529E-001	0
3.6957861E+003	7.940779818905867E+001	-9.1713196E-001	-2.481561204684635E-001	2.2759191E-004	-9.1715539E-001	0
3.4322065E+003	7.960779818400624E+001	-9.1911030E-001	-2.677899208574512E-001	2.4612847E-004	-9.1915530E-001	0
3.1949780E+003	7.980779817895382E+001	-9.2110801E-001	-2.882986960767883E-001	2.6555423E-004	-9.2115533E-001	0
2.9767375E+003	8.000779817390139E+001	-9.2308205E-001	-3.100985800108269E-001	2.8624645E-004	-9.2315531E-001	0
2.7593293E+003	8.020779816884897E+001	-9.2509407E-001	-3.352604830941670E-001	3.1014747E-004	-9.2515528E-001	0
2.5531177E+003	8.040779816379654E+001	-9.2709661E-001	-3.631233295210357E-001	3.3665041E-004	-9.2715532E-001	0
2.3300432E+003	8.060779815874412E+001	-9.2910248E-001	-3.987490288013600E-001	3.7047872E-004	-9.2915535E-001	0
2.1311548E+003	8.080779815369169E+001	-9.3110532E-001	-4.369017868440048E-001	4.0680158E-004	-9.3115532E-001	0
1.9577151E+003	8.100779814863927E+001	-9.3309098E-001	-4.766224702511854E-001	4.4473214E-004	-9.3315524E-001	0
1.7868121E+003	8.120779814358684E+001	-9.3510586E-001	-5.233375334356154E-001	4.8937602E-004	-9.3515533E-001	0
1.6171113E+003	8.140779813853442E+001	-9.3713981E-001	-5.795147340204103E-001	5.4308632E-004	-9.3715531E-001	0
1.4814353E+003	8.160779813348199E+001	-9.3910891E-001	-6.339182901468621E-001	5.9531833E-004	-9.3915528E-001	0
1.3336287E+003	8.180779812842957E+001	-9.4115007E-001	-7.057062448667648E-001	6.6417549E-004	-9.4115537E-001	0
1.2202863E+003	8.200779812337714E+001	-9.4308370E-001	-7.728381286081687E-001	7.2885107E-004	-9.4315535E-001	0
1.1010621E+003	8.220779811832472E+001	-9.4511610E-001	-8.583676631556116E-001	8.1125711E-004	-9.4515532E-001	0
9.9849475E+002	8.240779811327229E+001	-9.4711828E-001	-9.485460620567769E-001	8.9838530E-004	-9.4715530E-001	0
9.0145123E+002	8.261779810796725E+001	-9.4922274E-001	-1.052994033436795E+000	9.9952589E-004	-9.4925535E-001	0
8.1608472E+002	8.282779810266220E+001	-9.5128459E-001	-1.165668878383308E+000	1.1088828E-003	-9.5135528E-001	0
7.4154999E+002	8.302779809760978E+001	-9.5328373E-001	-1.285528566789667E+000	1.2254735E-003	-9.5335525E-001	0
6.7338721E+002	8.322779809255735E+001	-9.5530534E-001	-1.418656749942265E+000	1.3552504E-003	-9.5535535E-001	0
6.1114001E+002	8.342779808750493E+001	-9.5733237E-001	-1.566469746314489E+000	1.4996323E-003	-9.5735532E-001	0
5.5679468E+002	8.362779808245250E+001	-9.5928550E-001	-1.722871149461412E+000	1.6527253E-003	-9.5935524E-001	0
5.0774701E+002	8.382779807740008E+001	-9.6128774E-001	-1.893241606027626E+000	1.8199499E-003	-9.6135539E-001	0
4.6276108E+002	8.402779807234765E+001	-9.6330309E-001	-2.081642417731336E+000	2.0052525E-003	-9.6335524E-001	0
4.2340640E+002	8.422779806729523E+001	-9.6530455E-001	-2.279853396590745E+000	2.2007530E-003	-9.6535534E-001	0
3.8706226E+002	8.442779806224280E+001	-9.6727425E-001	-2.499014602344722E+000	2.4172324E-003	-9.6735531E-001	0
3.5478198E+002	8.462779805719038E+001	-9.6925706E-001	-2.731979376064134E+000	2.6479904E-003	-9.6935540E-001	0
3.2617526E+002	8.482779805213795E+001	-9.7130924E-001	-2.977875288685695E+000	2.8924379E-003	-9.7135538E-001	0
2.9982132E+002	8.502779804708553E+001	-9.7327846E-001	-3.246194819744485E+000	3.1594515E-003	-9.7335529E-001	0
2.7643808E+002	8.522779804203310E+001	-9.7527075E-001	-3.527989805893547E+000	3.4407452E-003	-9.7535533E-001	0
2.5533296E+002	8.542779803698068E+001	-9.7728837E-001	-3.827505769068694E+000	3.7405768E-003	-9.7735530E-001	0
2.3596761E+002	8.562779803192825E+001	-9.7929829E-001	-4.150138698298647E+000	4.0642237E-003	-9.7935528E-001	0
2.1905579E+002	8.582779802687583E+001	-9.8130435E-001	-4.479700511207380E+000	4.3959497E-003	-9.8135531E-001	0
2.0332501E+002	8.602779802182340E+001	-9.8329544E-001	-4.836077189263040E+000	4.7552926E-003	-9.8335534E-001	0
1.8938171E+002	8.622779801677098E+001	-9.8528445E-001	-5.202637711417385E+000	5.1260781E-003	-9.8535532E-001	0
1.7656705E+002	8.642779801171855E+001	-9.8731118E-001	-5.591706886752419E+000	5.5207550E-003	-9.8735523E-001	0
1.6498654E+002	8.662779800666613E+001	-9.8926008E-001	-5.996004734416402E+000	5.9316079E-003	-9.8935533E-001	0
1.5454968E+002	8.682779800161370E+001	-9.9130195E-001	-6.414131054194335E+000	6.3583408E-003	-9.9135518E-001	0
1.4501622E+002	8.702779799656128E+001	-9.9334592E-001	-6.849895101623488E+000	6.8043154E-003	-9.9335521E-001	0
1.3644475E+002	8.722779799150885E+001	-9.9530113E-001	-7.294535993651195E+000	7.2602597E-003	-9.9535525E-001	0
1.2858476E+002	8.742779798645643E+001	-9.9732834E-001	-7.756193929113209E+000	7.7354722E-003	-9.9735522E-001	0
1.2139899E+002	8.762779798140400E+001	-9.9928951E-001	-8.231448199946298E+000	8.2256002E-003	-9.9935526E-001	0
1.1476572E+002	8.782779797635158E+001	-1.0013348E+000	-8.725033955441603E+000	8.7366803E-003	-1.0013553E+000	0
1.0879435E+002	8.802789797129662E+001	-1.0033194E+000	-9.222164335357689E+000	9.2527764E-003	-1.0033561E+000	0
1.0327982E+002	8.822809796623915E+001	-1.0053036E+000	-9.733785902711873E+000	9.7854100E-003	-1.0053581E+000	0
9.8202980E+001	8.842839796117914E+001	-1.0073335E+000	-1.025766727189628E+001	1.0332892E-002	-1.0073612E+000	0
9.3243065E+001	8.863859795586905E+001	-1.0093952E+000	-1.082541900578318E+001	1.0927127E-002	-1.0094632E+000	0
8.8605049E+001	8.884859795056400E+001	-1.0115238E+000	-1.141609750461686E+001	1.1547655E-002	-1.0115633E+000	0
8.4685677E+001	8.904879794550652E+001	-1.0134910E+000	-1.196767919178183E+001	1.2129135E-002	-1.0135652E+000	0
8.1083748E+001	8.924899794044904E+001	-1.0155126E+000	-1.252424327887105E+001	1.2718527E-002	-1.0155672E+000	0
7.7720993E+001	8.944909793539409E+001	-1.0175121E+000	-1.309185604991286E+001	1.3321122E-002	-1.0175681E+000	0
7.4627678E+001	8.964929793033662E+001	-1.0195508E+000	-1.366183184782397E+001	1.3928931E-002	-1.0195701E+000	0
7.1735558E+001	8.984939792528166E+001	-1.0215576E+000	-1.424060297512409E+001	1.4547596E-002	-1.0215713E+000	0
6.9076035E+001	9.004949792022671E+001	-1.0235343E+000	-1.481750294757550E+001	1.5166222E-002	-1.0235721E+000	0
6.6604782E+001	9.024959791517176E+001	-1.0255251E+000	-1.539716871565975E+001	1.5790183E-002	-1.0255734E+000	0
6.4246391E+001	9.044969791011681E+001	-1.0274837E+000	-1.599286203344826E+001	1.6432405E-002	-1.0275741E+000	0
6.2056377E+001	9.064979790506186E+001	-1.0295572E+000	-1.659067572406633E+001	1.7081050E-002	-1.0295752E+000	0
6.0041069E+001	9.084999790000438E+001	-1.0315516E+000	-1.718076679749811E+001	1.7722847E-002	-1.0315768E+000	0
5.8098682E+001	9.105029789494438E+001	-1.0335369E+000	-1.778933500548496E+001	1.8385934E-002	-1.0335801E+000	0
5.6290562E+001	9.125049788988690E+001	-1.0355475E+000	-1.839646778931558E+001	1.9050416E-002	-1.0355821E+000	0
5.4584122E+001	9.145069788482942E+001	-1.0375656E+000	-1.900856068808730E+001	1.9722629E-002	-1.0375841E+000	0
5.3014896E+001	9.165079787977447E+001	-1.0395445E+000	-1.960853539410624E+001	2.0383945E-002	-1.0395854E+000	0
5.1494881E+001	9.185079787472205E+001	-1.0414850E+000	-2.022501995287791E+001	2.1064054E-002	-1.0415853E+000	0
5.0064014E+001	9.205089786966710E+001	-1.0435330E+000	-2.084397320880050E+001	2.1751374E-002	-1.0435860E+000	0
4.8742641E+001	9.225099786461215E+001	-1.0455525E+000	-2.145046763490384E+001	2.2427591E-002	-1.0455873E+000	0
4.7445522E+001	9.245109785955719E+001	-1.0475405E+000	-2.207880742162897E+001	2.3128446E-002	-1.0475881E+000	0
4.6250996E+001	9.265119785450224E+001	-1.0495535E+000	-2.269256083657137E+001	2.3817057E-002	-1.0495893E+000	0
4.5097988E+001	9.285119784944982E+001	-1.0515177E+000	-2.331628880762992E+001	2.4517491E-002	-1.0515893E+000	0
4.3997726E+001	9.305129784439487E+001	-1.0535331E+000	-2.394517015612348E+001	2.5227029E-002	-1.0535901E+000	0
4.2942871E+001	9.325139783933992E+001	-1.0555120E+000	-2.457944465291746E+001	2.5943898E-002	-1.0555913E+000	0
4.1964638E+001	9.345159783428244E+001	-1.0575135E+000	-2.520010966636012E+001	2.6649456E-002	-1.0575929E+000	0
4.0997841E+001	9.365179782922496E+001	-1.0594879E+000	-2.584253029461092E+001	2.7379850E-002	-1.0595953E+000	0
4.0112221E+001	9.385189782417001E+001	-1.0615621E+000	-2.646480302572616E+001	2.8094031E-002	-1.0615962E+000	0
3.9247803E+001	9.405209781911253E+001	-1.0635574E+000	-2.709851937358064E+001	2.8820831E-002	-1.0635982E+000	0
3.8405277E+001	9.425229781405505E+001	-1.0655432E+000	-2.774470792986580E+001	2.9563185E-002	-1.0656000E+000	0
3.7601410E+001	9.445249780899758E+001	-1.0675664E+000	-2.839165734169657E+001	3.0309979E-002	-1.0676020E+000	0
3.6806782E+001	9.465279780393757E+001	-1.0695571E+000	-2.905869544582436E+001	3.1079933E-002	-1.0696049E+000	0
3.6065121E+001	9.485299779888010E+001	-1.0715846E+000	-2.971249144201647E+001	3.1839449E-002	-1.0716074E+000	0
3.5338486E+001	9.505299779382767E+001	-1.0735663E+000	-3.037952096797443E+001	3.2614432E-002	-1.0736072E+000	0
3.4646507E+001	9.525299778877525E+001	-1.0755725E+000	-3.104418387191375E+001	3.3390269E-002	-1.0756073E+000	0
3.3983097E+001	9.545309778372030E+001	-1.0775467E+000	-3.170831347792330E+001	3.4167189E-002	-1.0776081E+000	0
3.3358345E+001	9.565339777866029E+001	-1.0795856E+000	-3.236328091127268E+001	3.4938931E-002	-1.0796113E+000	0
3.2720505E+001	9.585339777360787E+001	-1.0815971E+000	-3.305563724716758E+001	3.5752881E-002	-1.0816114E+000	0
3.2087551E+001	9.605349776855292E+001	-1.0835321E+000	-3.376798987985990E+001	3.6588702E-002	-1.0836121E+000	0
3.1491280E+001	9.625379776349291E+001	-1.0855941E+000	-3.447284692011965E+001	3.7423518E-002	-1.0856148E+000	0
3.0890400E+001	9.645419775843038E+001	-1.0875803E+000	-3.520771351670453E+001	3.8291216E-002	-1.0876192E+000	0
3.0323586E+001	9.665419775337796E+001	-1.0896097E+000	-3.593274669447172E+001	3.9152671E-002	-1.0896193E+000	0
2.9774036E+001	9.685429774832301E+001	-1.0916021E+000	-3.666288451345440E+001	4.0021282E-002	-1.0916201E+000	0
2.9243946E+001	9.705439774326805E+001	-1.0935806E+000	-3.739511118535274E+001	4.0894568E-002	-1.0936214E+000	0
2.8734253E+001	9.725439773821563E+001	-1.0956064E+000	-3.812893346134496E+001	4.1774306E-002	-1.0956213E+000	0
2.8235762E+001	9.745439773316321E+001	-1.0976132E+000	-3.887315716143362E+001	4.2667691E-002	-1.0976213E+000	0
2.7743940E+001	9.765439772811078E+001	-1.0996155E+000	-3.963443830116000E+001	4.3582641E-002	-1.0996213E+000	0
2.7274143E+001	9.785459772305330E+001	-1.1016312E+000	-4.039104544169248E+001	4.4496033E-002	-1.1016233E+000	0
2.6826185E+001	9.805459771800088E+001	-1.1036249E+000	-4.113983808326054E+001	4.5402952E-002	-1.1036234E+000	0
2.6379713E+001	9.825469771294593E+001	-1.1056086E+000	-4.191132100352854E+001	4.6337515E-002	-1.1056242E+000	0
2.5947353E+001	9.845479770789098E+001	-1.1076075E+000	-4.268672247457397E+001	4.7280133E-002	-1.1076252E+000	0
2.5494595E+001	9.865489770283602E+001	-1.1096267E+000	-4.352399511019070E+001	4.8295386E-002	-1.1096261E+000	0
2.5078018E+001	9.885509769777855E+001	-1.1116532E+000	-4.432779400477057E+001	4.9277134E-002	-1.1116282E+000	0
2.4661039E+001	9.905539769271854E+001	-1.1136239E+000	-4.515721418465517E+001	5.0288152E-002	-1.1136308E+000	0
2.4272083E+001	9.925589768765349E+001	-1.1156062E+000	-4.596252391617418E+001	5.1276077E-002	-1.1156356E+000	0
2.3867834E+001	9.945629768259096E+001	-1.1176087E+000	-4.682488993093635E+001	5.2331902E-002	-1.1176401E+000	0
2.3487671E+001	9.965649767753348E+001	-1.1196018E+000	-4.766764146683715E+001	5.3368781E-002	-1.1196421E+000	0
2.3114792E+001	9.985669767247600E+001	-1.1216460E+000	-4.852503295909332E+001	5.4427911E-002	-1.1216441E+000	0
2.2752769E+001	1.000568976674185E+002	-1.1236329E+000	-4.938444750468466E+001	5.5489991E-002	-1.1236460E+000	0
2.2414112E+001	1.002570976623610E+002	-1.1256208E+000	-5.021929179942937E+001	5.6527883E-002	-1.1256480E+000	0
2.2077650E+001	1.004572976573036E+002	-1.1276294E+000	-5.107560974076421E+001	5.7594359E-002	-1.1276501E+000	0
2.1736046E+001	1.006574976522461E+002	-1.1296664E+000	-5.197202937778616E+001	5.8711059E-002	-1.1296521E+000	0
2.1418083E+001	1.008575976471911E+002	-1.1316766E+000	-5.283743322895759E+001	5.9794884E-002	-1.1316532E+000	0
2.1090450E+001	1.010575976421387E+002	-1.1336755E+000	-5.375302352278140E+001	6.0938485E-002	-1.1336533E+000	0
2.0799038E+001	1.012576976370838E+002	-1.1356946E+000	-5.460323021211548E+001	6.2012594E-002	-1.1356541E+000	0
2.0486023E+001	1.014577976320288E+002	-1.1376441E+000	-5.553269225021066E+001	6.3176438E-002	-1.1376554E+000	0
2.0182503E+001	1.016579976269713E+002	-1.1396800E+000	-5.646871719174533E+001	6.4356267E-002	-1.1396568E+000	0
1.9888859E+001	1.018583976219088E+002	-1.1416576E+000	-5.740186388802931E+001	6.5533273E-002	-1.1416613E+000	0
1.9599186E+001	1.020583976168564E+002	-1.1436486E+000	-5.835184333600159E+001	6.6734008E-002	-1.1436614E+000	0
1.9328880E+001	1.022585976117989E+002	-1.1457280E+000	-5.927544604615423E+001	6.7913540E-002	-1.1456629E+000	0
1.9035765E+001	1.024589976067364E+002	-1.1476990E+000	-6.029171963497106E+001	6.9196746E-002	-1.1476672E+000	0
1.8770252E+001	1.026591976016789E+002	-1.1497204E+000	-6.125226554219685E+001	7.0422985E-002	-1.1496692E+000	0
1.8501928E+001	1.028592975966239E+002	-1.1517261E+000	-6.224897518099579E+001	7.1693771E-002	-1.1516701E+000	0
1.8265894E+001	1.030593975915690E+002	-1.1537548E+000	-6.316443410644183E+001	7.2876275E-002	-1.1536714E+000	0
1.8020525E+001	1.032594975865140E+002	-1.1557204E+000	-6.413355859859314E+001	7.4120462E-002	-1.1556721E+000	0
1.7785852E+001	1.034595975814591E+002	-1.1577258E+000	-6.509251290275893E+001	7.5359285E-002	-1.1576734E+000	0
1.7558548E+001	1.036596975764041E+002	-1.1596992E+000	-6.604755614180385E+001	7.6595299E-002	-1.1596742E+000	0
1.7318123E+001	1.038598975713467E+002	-1.1617275E+000	-6.708161260332486E+001	7.7930555E-002	-1.1616762E+000	0
1.7099234E+001	1.040599975662917E+002	-1.1637250E+000	-6.805714494949581E+001	7.9199806E-002	-1.1636773E+000	0
1.6861307E+001	1.042600975612368E+002	-1.1657548E+000	-6.913786358092293E+001	8.0597796E-002	-1.1656781E+000	0
1.6647415E+001	1.044602975561793E+002	-1.1677370E+000	-7.014524808438247E+001	8.1911199E-002	-1.1676801E+000	0
1.6458490E+001	1.046604975511218E+002	-1.1697632E+000	-7.107353805773801E+001	8.3139211E-002	-1.1696820E+000	0
1.6227882E+001	1.048607975460618E+002	-1.1717255E+000	-7.220445991244291E+001	8.4603809E-002	-1.1716850E+000	0
1.6032696E+001	1.050610975410018E+002	-1.1737262E+000	-7.320829097214676E+001	8.5926488E-002	-1.1736881E+000	0
1.5829296E+001	1.052612975359443E+002	-1.1757997E+000	-7.427997365598935E+001	8.7338373E-002	-1.1756903E+000	0
1.5633567E+001	1.054614975308868E+002	-1.1777210E+000	-7.533283981172993E+001	8.8721067E-002	-1.1776922E+000	0
1.5423520E+001	1.056615975258319E+002	-1.1797599E+000	-7.649096089479895E+001	9.0240963E-002	-1.1796933E+000	0
1.5225502E+001	1.058615975207795E+002	-1.1817232E+000	-7.761473150588506E+001	9.1719128E-002	-1.1816933E+000	0
1.5023667E+001	1.060615975157270E+002	-1.1837772E+000	-7.879415949023502E+001	9.3274727E-002	-1.1836933E+000	0
1.4834188E+001	1.062615975106746E+002	-1.1857603E+000	-7.993429024906118E+001	9.4782904E-002	-1.1856934E+000	0
1.4674986E+001	1.064615975056222E+002	-1.1877561E+000	-8.093746057551414E+001	9.6133962E-002	-1.1876934E+000	0
1.4516424E+001	1.066617975005647E+002	-1.1897528E+000	-8.195908391711870E+001	9.7511053E-002	-1.1896949E+000	0
1.4343226E+001	1.068619974955072E+002	-1.1918055E+000	-8.309187079286903E+001	9.9029347E-002	-1.1916974E+000	0
1.4182588E+001	1.070619974904548E+002	-1.1937702E+000	-8.417153325372817E+001	1.0048147E-001	-1.1936973E+000	0
1.4027750E+001	1.072619974854024E+002	-1.1957561E+000	-8.524218781518809E+001	1.0192887E-001	-1.1956973E+000	0
1.3874506E+001	1.074621974803449E+002	-1.1977470E+000	-8.632717848313817E+001	1.0339812E-001	-1.1976988E+000	0
1.3697968E+001	1.076623974752874E+002	-1.1997768E+000	-8.758794254186182E+001	1.0508598E-001	-1.1997013E+000	0
1.3547739E+001	1.078626974702274E+002	-1.2017523E+000	-8.870500706264374E+001	1.0660145E-001	-1.2017037E+000	0
1.3407243E+001	1.080630974651649E+002	-1.2037992E+000	-8.978723530049683E+001	1.0808580E-001	-1.2037082E+000	0
1.3249486E+001	1.082632974601074E+002	-1.2057440E+000	-9.100307725918719E+001	1.0972641E-001	-1.2057102E+000	0
1.3077546E+001	1.084634974550499E+002	-1.2077959E+000	-9.235645753853760E+001	1.1154775E-001	-1.2077121E+000	0
1.2940124E+001	1.086635974499950E+002	-1.2097458E+000	-9.348796053862608E+001	1.1309666E-001	-1.2097133E+000	0
1.2800004E+001	1.088635974449426E+002	-1.2117865E+000	-9.467078911149838E+001	1.1472078E-001	-1.2117133E+000	0
1.2662095E+001	1.090635974398901E+002	-1.2137879E+000	-9.585995981428346E+001	1.1635366E-001	-1.2137133E+000	0
1.2531816E+001	1.092636974348352E+002	-1.2158132E+000	-9.701811713302823E+001	1.1795590E-001	-1.2157141E+000	0
1.2400133E+001	1.094639974297752E+002	-1.2177947E+000	-9.820819190116151E+001	1.1959741E-001	-1.2177172E+000	0
1.2284282E+001	1.096641974247177E+002	-1.2197934E+000	-9.929709345062838E+001	1.2112194E-001	-1.2197191E+000	0
1.2168661E+001	1.098641974196653E+002	-1.2218158E+000	-1.004067591826117E+002	1.2267857E-001	-1.2217194E+000	0
1.2035081E+001	1.100642974146103E+002	-1.2238282E+000	-1.016884065485389E+002	1.2444914E-001	-1.2237201E+000	0
1.1925846E+001	1.102643974095554E+002	-1.2257694E+000	-1.027825968541254E+002	1.2598777E-001	-1.2257212E+000	0
1.1822144E+001	1.104644974045004E+002	-1.2278346E+000	-1.038588766684443E+002	1.2752151E-001	-1.2277222E+000	0
1.1699556E+001	1.106645973994455E+002	-1.2297947E+000	-1.051146469462215E+002	1.2926944E-001	-1.2297233E+000	0
1.1560091E+001	1.108645973943931E+002	-1.2317551E+000	-1.065523718955030E+002	1.3124643E-001	-1.2317233E+000	0
1.1452795E+001	1.110645973893406E+002	-1.2337821E+000	-1.077275949962552E+002	1.3291237E-001	-1.2337233E+000	0
1.1358828E+001	1.112645973842882E+002	-1.2358432E+000	-1.088002380211066E+002	1.3446003E-001	-1.2357234E+000	0
1.1215585E+001	1.114746973789806E+002	-1.2378628E+000	-1.103698874161472E+002	1.3662279E-001	-1.2378241E+000	0
1.1091249E+001	1.116849973736680E+002	-1.2399817E+000	-1.117981991473778E+002	1.3862772E-001	-1.2399272E+000	0
1.0985995E+001	1.118851973686105E+002	-1.2419879E+000	-1.130519321316657E+002	1.4040914E-001	-1.2419292E+000	0
1.0899239E+001	1.120851973635581E+002	-1.2439671E+000	-1.141333866962773E+002	1.4197817E-001	-1.2439294E+000	0
1.0781643E+001	1.122851973585057E+002	-1.2459502E+000	-1.155621823550891E+002	1.4398472E-001	-1.2459294E+000	0
1.0654250E+001	1.124851973534533E+002	-1.2480202E+000	-1.171382494253912E+002	1.4619090E-001	-1.2479293E+000	0
1.0576930E+001	1.126851973484008E+002	-1.2499505E+000	-1.181770634121366E+002	1.4771548E-001	-1.2499293E+000	0
1.0488280E+001	1.128851973433484E+002	-1.2519550E+000	-1.193670474277335E+002	1.4944218E-001	-1.2519294E+000	0
1.0414583E+001	1.130855973382859E+002	-1.2539779E+000	-1.204059650717927E+002	1.5098642E-001	-1.2539327E+000	0
1.0300111E+001	1.132858973332259E+002	-1.2559937E+000	-1.219398307490583E+002	1.5315565E-001	-1.2559360E+000	0
1.0218690E+001	1.134860973281684E+002	-1.2580074E+000	-1.231084772727909E+002	1.5487137E-001	-1.2579380E+000	0
1.0134933E+001	1.136861973231134E+002	-1.2600029E+000	-1.243227638646863E+002	1.5664704E-001	-1.2599393E+000	0
1.0024591E+001	1.138861973180610E+002	-1.2619774E+000	-1.258881717625659E+002	1.5886803E-001	-1.2619394E+000	0
9.9381332E+000	1.140862973130061E+002	-1.2639898E+000	-1.271858373785529E+002	1.6076159E-001	-1.2639401E+000	0
9.8613310E+000	1.142863973079511E+002	-1.2659822E+000	-1.283784300680875E+002	1.6252480E-001	-1.2659414E+000	0
9.7778339E+000	1.144863973028987E+002	-1.2680154E+000	-1.296826524994003E+002	1.6443960E-001	-1.2679415E+000	0
9.7298164E+000	1.146863972978463E+002	-1.2699592E+000	-1.305224282227948E+002	1.6575816E-001	-1.2699413E+000	0
9.6545677E+000	1.148863972927938E+002	-1.2720137E+000	-1.317525280511300E+002	1.6759102E-001	-1.2719413E+000	0
9.5951052E+000	1.150863972877414E+002	-1.2740120E+000	-1.327772794083401E+002	1.6915984E-001	-1.2739414E+000	0
9.5157328E+000	1.152863972826890E+002	-1.2759838E+000	-1.340920136488485E+002	1.7109925E-001	-1.2759414E+000	0
9.4333706E+000	1.154863972776366E+002	-1.2779796E+000	-1.354743393056788E+002	1.7313345E-001	-1.2779413E+000	0
9.3607721E+000	1.156863972725841E+002	-1.2800074E+000	-1.367416369531155E+002	1.7503031E-001	-1.2799413E+000	0
9.2836256E+000	1.158863972675317E+002	-1.2819705E+000	-1.380894160962701E+002	1.7702655E-001	-1.2819413E+000	0
9.2196484E+000	1.160864972624768E+002	-1.2839928E+000	-1.392669935695076E+002	1.7881781E-001	-1.2839421E+000	0
9.1401758E+000	1.162865972574218E+002	-1.2859433E+000	-1.406913016529033E+002	1.8092103E-001	-1.2859434E+000	0
9.0491915E+000	1.164866972523669E+002	-1.2879212E+000	-1.423244481205253E+002	1.8330267E-001	-1.2879441E+000	0
8.9486036E+000	1.166869972473069E+002	-1.2899696E+000	-1.441531670252008E+002	1.8595320E-001	-1.2899468E+000	0
8.8523464E+000	1.168873972422443E+002	-1.2920005E+000	-1.459500611588533E+002	1.8856756E-001	-1.2919513E+000	0
8.7958889E+000	1.170876972371843E+002	-1.2940085E+000	-1.471151470310297E+002	1.9036825E-001	-1.2939540E+000	0
8.7333736E+000	1.172877972321294E+002	-1.2960103E+000	-1.483974409881903E+002	1.9232461E-001	-1.2959553E+000	0
8.6860676E+000	1.174877972270770E+002	-1.2980164E+000	-1.494365960421735E+002	1.9397116E-001	-1.2979554E+000	0
8.5992336E+000	1.176877972220245E+002	-1.2999820E+000	-1.511741591873083E+002	1.9652368E-001	-1.2999554E+000	0
8.5502834E+000	1.178877972169721E+002	-1.3020314E+000	-1.522793222403575E+002	1.9827245E-001	-1.3019553E+000	0
8.4743366E+000	1.180877972119197E+002	-1.3040496E+000	-1.538822143007571E+002	2.0067005E-001	-1.3039553E+000	0
8.4028435E+000	1.182878972068647E+002	-1.3060086E+000	-1.554246053452111E+002	2.0298587E-001	-1.3059561E+000	0
8.3645992E+000	1.184879972018098E+002	-1.3080831E+000	-1.563832266000934E+002	2.0456225E-001	-1.3079573E+000	0
8.3140965E+000	1.186879971967574E+002	-1.3100146E+000	-1.575654722687336E+002	2.0641308E-001	-1.3099574E+000	0
8.1786814E+000	1.188879971917049E+002	-1.3119606E+000	-1.604122453525222E+002	2.1045454E-001	-1.3119574E+000	0
8.1413651E+000	1.190879971866525E+002	-1.3139993E+000	-1.613979055281397E+002	2.1207674E-001	-1.3139573E+000	0
8.0833435E+000	1.192880971815976E+002	-1.3160396E+000	-1.628088108775519E+002	2.1426284E-001	-1.3159580E+000	0
7.9808998E+000	1.194881971765426E+002	-1.3180534E+000	-1.651509742304302E+002	2.1767780E-001	-1.3179593E+000	0
7.8665299E+000	1.196882971714876E+002	-1.3199915E+000	-1.677984467942747E+002	2.2149251E-001	-1.3199601E+000	0
7.7953277E+000	1.198884971664302E+002	-1.3220123E+000	-1.695903468091204E+002	2.2420053E-001	-1.3219622E+000	0
7.7462597E+000	1.200885971613752E+002	-1.3240538E+000	-1.709281359173010E+002	2.2631805E-001	-1.3239633E+000	0
7.6994429E+000	1.202885971563228E+002	-1.3260438E+000	-1.722259491360383E+002	2.2837916E-001	-1.3259633E+000	0
7.6472759E+000	1.204885971512704E+002	-1.3280160E+000	-1.736587079225488E+002	2.3062155E-001	-1.3279634E+000	0
7.5978975E+000	1.206885971462179E+002	-1.3300551E+000	-1.750556761012867E+002	2.3283370E-001	-1.3299633E+000	0
7.5380802E+000	1.208886971411630E+002	-1.3320020E+000	-1.767030907507183E+002	2.3536888E-001	-1.3319640E+000	0
7.5068917E+000	1.210887971361080E+002	-1.3340284E+000	-1.777071572074547E+002	2.3706639E-001	-1.3339653E+000	0
7.4401650E+000	1.212887971310556E+002	-1.3360282E+000	-1.795696981131623E+002	2.3991019E-001	-1.3359654E+000	0
7.4020672E+000	1.214888971260007E+002	-1.3380438E+000	-1.807662308787353E+002	2.4187313E-001	-1.3379661E+000	0
7.3289008E+000	1.216890971209432E+002	-1.3400750E+000	-1.828480198175760E+002	2.4503006E-001	-1.3399682E+000	0
7.2811847E+000	1.218892971158857E+002	-1.3420615E+000	-1.843191135192710E+002	2.4736759E-001	-1.3419702E+000	0
7.2438197E+000	1.220893971108308E+002	-1.3440173E+000	-1.855398617493597E+002	2.4936877E-001	-1.3439714E+000	0
7.1826830E+000	1.222895971057733E+002	-1.3460497E+000	-1.874020654961148E+002	2.5225249E-001	-1.3459729E+000	0
7.1411223E+000	1.224897971007158E+002	-1.3480263E+000	-1.887695229718474E+002	2.5446627E-001	-1.3479753E+000	0
7.0660605E+000	1.226898970956609E+002	-1.3500369E+000	-1.910593335195235E+002	2.5793713E-001	-1.3499761E+000	0
7.0213943E+000	1.228703970911010E+002	-1.3518485E+000	-1.925327739962851E+002	2.6027513E-001	-1.3517803E+000	0
6.9430084E+000	1.230310970870414E+002	-1.3534709E+000	-1.949401209066873E+002	2.6384577E-001	-1.3533874E+000	0
6.9088979E+000	1.231917970829818E+002	-1.3550851E+000	-1.961362270968154E+002	2.6578128E-001	-1.3549945E+000	0
6.8821650E+000	1.233523970789247E+002	-1.3566858E+000	-1.971306670046765E+002	2.6744437E-001	-1.3566009E+000	0
6.8316903E+000	1.235027970751253E+002	-1.3581519E+000	-1.988017321201401E+002	2.7000296E-001	-1.3581043E+000	0
6.7924862E+000	1.236233970720787E+002	-1.3593683E+000	-2.001282435870235E+002	2.7204800E-001	-1.3593099E+000	0
6.7218294E+000	1.237539970687794E+002	-1.3607213E+000	-2.024331854610666E+002	2.7545515E-001	-1.3606167E+000	0
6.6526251E+000	1.239244970644722E+002	-1.3623942E+000	-2.047904729932370E+002	2.7900535E-001	-1.3623216E+000	0
6.6063275E+000	1.240752970606627E+002	-1.3639394E+000	-2.064595449522426E+002	2.8159830E-001	-1.3638293E+000	0
6.5646300E+000	1.242058970573635E+002	-1.3651855E+000	-2.079607715880554E+002	2.8390503E-001	-1.3651357E+000	0
6.5154877E+000	1.243559970535716E+002	-1.3667352E+000	-2.097671344902726E+002	2.8669614E-001	-1.3666366E+000	0
6.4911718E+000	1.245164970495171E+002	-1.3683268E+000	-2.107981091430566E+002	2.8844070E-001	-1.3682415E+000	0
6.4538960E+000	1.246768970454650E+002	-1.3698999E+000	-2.122593635158869E+002	2.9077408E-001	-1.3698459E+000	0
6.4121013E+000	1.248372970414130E+002	-1.3715104E+000	-2.138940612197039E+002	2.9335794E-001	-1.3714497E+000	0
6.3502622E+000	1.250078970371032E+002	-1.3732097E+000	-2.162445674076978E+002	2.9694915E-001	-1.3731554E+000	0
6.3275814E+000	1.251683970330487E+002	-1.3748808E+000	-2.172837832243910E+002	2.9873931E-001	-1.3747607E+000	0
6.2774291E+000	1.253289970289916E+002	-1.3764284E+000	-2.192662576895823E+002	3.0180430E-001	-1.3763666E+000	0
6.2346044E+000	1.254894970249370E+002	-1.3780667E+000	-2.210351464261612E+002	3.0460116E-001	-1.3779712E+000	0
6.1877894E+000	1.256497970208875E+002	-1.3796759E+000	-2.229674894578079E+002	3.0762285E-001	-1.3795745E+000	0
6.1301322E+000	1.258202970165803E+002	-1.3813486E+000	-2.253374966501171E+002	3.1126964E-001	-1.3812793E+000	0
6.0973310E+000	1.259907970122731E+002	-1.3830965E+000	-2.268363714805701E+002	3.1373659E-001	-1.3829845E+000	0
6.0729690E+000	1.261709970077209E+002	-1.3848609E+000	-2.280368698561424E+002	3.1579933E-001	-1.3847867E+000	0
6.0191751E+000	1.263313970036688E+002	-1.3864831E+000	-2.303443662597151E+002	3.1936857E-001	-1.3863903E+000	0
5.9693017E+000	1.265018969993616E+002	-1.3882344E+000	-2.325622653063342E+002	3.2285094E-001	-1.3880959E+000	0
5.9428124E+000	1.266324969960624E+002	-1.3895175E+000	-2.338147985445662E+002	3.2488978E-001	-1.3894013E+000	0
5.9037132E+000	1.267729969925131E+002	-1.3908718E+000	-2.355927064598736E+002	3.2767925E-001	-1.3908066E+000	0
5.8401208E+000	1.269234969887111E+002	-1.3923919E+000	-2.384183369351185E+002	3.3197176E-001	-1.3923115E+000	0
5.7911029E+000	1.271038969841538E+002	-1.3941754E+000	-2.407443754855531E+002	3.3563989E-001	-1.3941159E+000	0
5.7619114E+000	1.272842969795965E+002	-1.3960038E+000	-2.422813740101847E+002	3.3822572E-001	-1.3959193E+000	0
5.7201190E+000	1.274250969760396E+002	-1.3974321E+000	-2.443012323797420E+002	3.4139439E-001	-1.3973274E+000	0
5.6783681E+000	1.275655969724903E+002	-1.3987964E+000	-2.463377480013319E+002	3.4457636E-001	-1.3987325E+000	0
5.6454349E+000	1.276959969691961E+002	-1.4001192E+000	-2.480090884072770E+002	3.4724230E-001	-1.4000365E+000	0
5.6093221E+000	1.278363969656493E+002	-1.4015450E+000	-2.498599706037435E+002	3.5019001E-001	-1.4014404E+000	0
5.5372243E+000	1.279970969615897E+002	-1.4031951E+000	-2.534112969578232E+002	3.5558552E-001	-1.4030473E+000	0
5.4990602E+000	1.281576969575326E+002	-1.4048269E+000	-2.554667254655515E+002	3.5888651E-001	-1.4046534E+000	0
5.4777241E+000	1.283081969537307E+002	-1.4063078E+000	-2.567321486304900E+002	3.6104444E-001	-1.4061586E+000	0
5.4567413E+000	1.284587969499262E+002	-1.4078387E+000	-2.579999054095563E+002	3.6322224E-001	-1.4076645E+000	0
5.4326053E+000	1.286091969461268E+002	-1.4092492E+000	-2.594057708817654E+002	3.6556739E-001	-1.4091688E+000	0
5.3805494E+000	1.287697969420697E+002	-1.4108979E+000	-2.622218966959972E+002	3.6996832E-001	-1.4107747E+000	0
5.3314919E+000	1.289103969385178E+002	-1.4123439E+000	-2.649059377672670E+002	3.7413827E-001	-1.4121804E+000	0
5.2706890E+000	1.290510969349634E+002	-1.4137099E+000	-2.682210766481167E+002	3.7918678E-001	-1.4135875E+000	0
5.2423930E+000	1.292115969309089E+002	-1.4153188E+000	-2.699757314140488E+002	3.8210174E-001	-1.4151927E+000	0
5.2190704E+000	1.293823969265941E+002	-1.4170244E+000	-2.715089668111000E+002	3.8473481E-001	-1.4169006E+000	0
5.1812940E+000	1.295327969227947E+002	-1.4185684E+000	-2.737864993251209E+002	3.8838488E-001	-1.4184042E+000	0
5.1265469E+000	1.296832969189927E+002	-1.4200360E+000	-2.769965767379267E+002	3.9334509E-001	-1.4199096E+000	0
5.1080947E+000	1.298537969146855E+002	-1.4217376E+000	-2.783302997091778E+002	3.9571264E-001	-1.4216148E+000	0
5.0998902E+000	1.300243969103758E+002	-1.4234816E+000	-2.791200509588066E+002	3.9732224E-001	-1.4233203E+000	0
5.0773888E+000	1.301650969068214E+002	-1.4249268E+000	-2.806416461037679E+002	3.9989379E-001	-1.4247273E+000	0
5.0515747E+000	1.303056969032696E+002	-1.4262797E+000	-2.823435868693368E+002	4.0270093E-001	-1.4261335E+000	0
5.0132504E+000	1.304460968997228E+002	-1.4276847E+000	-2.847822314621690E+002	4.0657923E-001	-1.4275376E+000	0
4.9891653E+000	1.305765968964261E+002	-1.4290007E+000	-2.864208019775292E+002	4.0929553E-001	-1.4288424E+000	0
4.9940271E+000	1.307270968926241E+002	-1.4305388E+000	-2.864499416952049E+002	4.0977776E-001	-1.4303472E+000	0
4.9710503E+000	1.309075968880643E+002	-1.4322962E+000	-2.881274673745393E+002	4.1268387E-001	-1.4321525E+000	0
4.9333558E+000	1.310579968842649E+002	-1.4338579E+000	-2.906455614671559E+002	4.1674444E-001	-1.4336561E+000	0
4.8785472E+000	1.311585968817235E+002	-1.4347987E+000	-2.941036757380830E+002	4.2197958E-001	-1.4346622E+000	0
4.7980695E+000	1.312987968781817E+002	-1.4362576E+000	-2.993407295273391E+002	4.2993039E-001	-1.4360646E+000	0
4.7752166E+000	1.314692968738746E+002	-1.4379716E+000	-3.011322315385418E+002	4.3301961E-001	-1.4377695E+000	0
4.7232895E+000	1.316397968695674E+002	-1.4396228E+000	-3.047924178425092E+002	4.3878609E-001	-1.4394745E+000	0
4.6696248E+000	1.318103968652576E+002	-1.4413924E+000	-3.086741545070863E+002	4.4492060E-001	-1.4411806E+000	0
4.6503000E+000	1.319709968612005E+002	-1.4429551E+000	-3.102929086580882E+002	4.4773874E-001	-1.4427865E+000	0
4.6120315E+000	1.321214968573986E+002	-1.4444575E+000	-3.131933543707842E+002	4.5239449E-001	-1.4442915E+000	0
4.5777087E+000	1.322619968538493E+002	-1.4458696E+000	-3.158500704317314E+002	4.5667800E-001	-1.4456967E+000	0
4.5515642E+000	1.324322968495471E+002	-1.4475355E+000	-3.180303383366477E+002	4.6036020E-001	-1.4473995E+000	0
4.4913769E+000	1.325929968454875E+002	-1.4491683E+000	-3.226556802874911E+002	4.6758240E-001	-1.4490063E+000	0
4.4381962E+000	1.327435968416830E+002	-1.4506835E+000	-3.268632908522040E+002	4.7417518E-001	-1.4505124E+000	0
4.3898835E+000	1.329140968373758E+002	-1.4523768E+000	-3.308463125580827E+002	4.8051351E-001	-1.4522172E+000	0
4.3762474E+000	1.330546968338240E+002	-1.4538248E+000	-3.322080851386472E+002	4.8297235E-001	-1.4536235E+000	0
4.3663130E+000	1.331849968305323E+002	-1.4551234E+000	-3.332613793847213E+002	4.8493645E-001	-1.4549263E+000	0
4.3464599E+000	1.332955968277383E+002	-1.4562240E+000	-3.350367814659749E+002	4.8788860E-001	-1.4560324E+000	0
4.3159008E+000	1.334459968239389E+002	-1.4577413E+000	-3.377605891773723E+002	4.9236754E-001	-1.4575365E+000	0
4.2881107E+000	1.336163968196342E+002	-1.4594223E+000	-3.403415791968300E+002	4.9670210E-001	-1.4592409E+000	0
4.2744117E+000	1.337566968160900E+002	-1.4608331E+000	-3.417623742597789E+002	4.9925777E-001	-1.4606433E+000	0
4.2413054E+000	1.339070968122905E+002	-1.4623398E+000	-3.447853220404486E+002	5.0419331E-001	-1.4621472E+000	0
4.2126408E+000	1.340574968084911E+002	-1.4638397E+000	-3.474874220512274E+002	5.0866586E-001	-1.4636515E+000	0
4.1808004E+000	1.342177968044416E+002	-1.4654279E+000	-3.505137102771823E+002	5.1365256E-001	-1.4652545E+000	0
4.1876879E+000	1.343682968006397E+002	-1.4669515E+000	-3.503010752130831E+002	5.1387471E-001	-1.4667596E+000	0
4.1619992E+000	1.345483967960899E+002	-1.4687445E+000	-3.528939832830099E+002	5.1831108E-001	-1.4685611E+000	0
4.1184931E+000	1.347483967910375E+002	-1.4707934E+000	-3.571193098513731E+002	5.2524871E-001	-1.4705611E+000	0
4.0888038E+000	1.349483967859851E+002	-1.4727424E+000	-3.601890575577613E+002	5.3046572E-001	-1.4725612E+000	0
4.0816045E+000	1.351483967809327E+002	-1.4747347E+000	-3.613124762143684E+002	5.3284001E-001	-1.4745610E+000	0
4.0400729E+000	1.353483967758802E+002	-1.4767188E+000	-3.655178451127204E+002	5.3976709E-001	-1.4765612E+000	0
3.9928741E+000	1.355483967708278E+002	-1.4787593E+000	-3.703495814524531E+002	5.4765791E-001	-1.4785610E+000	0
3.9815969E+000	1.357483967657754E+002	-1.4807748E+000	-3.719047391593067E+002	5.5070716E-001	-1.4805611E+000	0
3.9480155E+000	1.359483967607230E+002	-1.4828223E+000	-3.755867585833098E+002	5.5692840E-001	-1.4825612E+000	0
3.9319158E+000	1.361483967556705E+002	-1.4847982E+000	-3.776271589240259E+002	5.6070012E-001	-1.4845611E+000	0
3.8836622E+000	1.363483967506181E+002	-1.4867958E+000	-3.828334336745759E+002	5.6919515E-001	-1.4865612E+000	0
3.8524833E+000	1.365483967455657E+002	-1.4888178E+000	-3.864566539539501E+002	5.7536358E-001	-1.4885610E+000	0
3.8474569E+000	1.367483967405133E+002	-1.4908007E+000	-3.874769141419965E+002	5.7765085E-001	-1.4905611E+000	0
3.8317380E+000	1.369483967354608E+002	-1.4928030E+000	-3.895890027303558E+002	5.8157963E-001	-1.4925612E+000	0
3.8033352E+000	1.371483967304084E+002	-1.4947985E+000	-3.930230793206874E+002	5.8749032E-001	-1.4945611E+000	0
3.7264874E+000	1.373483967253560E+002	-1.4968085E+000	-4.016674092091689E+002	6.0121918E-001	-1.4965612E+000	0
3.6509366E+000	1.375483967203036E+002	-1.4987897E+000	-4.105219614716589E+002	6.1528605E-001	-1.4985610E+000	0
3.6433754E+000	1.377483967152511E+002	-1.5008097E+000	-4.119283636400251E+002	6.1822605E-001	-1.5005611E+000	0
3.6183228E+000	1.379483967101987E+002	-1.5028051E+000	-4.153319517555137E+002	6.2416297E-001	-1.5025612E+000	0
3.5592918E+000	1.381483967051463E+002	-1.5047702E+000	-4.227723409432135E+002	6.3617522E-001	-1.5045611E+000	0
3.5384326E+000	1.383483967000939E+002	-1.5067970E+000	-4.258374050123089E+002	6.4165050E-001	-1.5065610E+000	0
3.5356104E+000	1.385483966950414E+002	-1.5088028E+000	-4.267446442212649E+002	6.4387351E-001	-1.5085610E+000	0
3.5249369E+000	1.387483966899890E+002	-1.5107813E+000	-4.285980942395272E+002	6.4751798E-001	-1.5105611E+000	0
3.5130844E+000	1.389483966849366E+002	-1.5128055E+000	-4.306202889613305E+002	6.5144473E-001	-1.5125612E+000	0
3.4480212E+000	1.391483966798842E+002	-1.5148070E+000	-4.393264779849928E+002	6.6549480E-001	-1.5145611E+000	0
3.4434254E+000	1.393483966748317E+002	-1.5167913E+000	-4.404891053932863E+002	6.6813004E-001	-1.5165610E+000	0
3.4166813E+000	1.395483966697793E+002	-1.5187767E+000	-4.445180847617794E+002	6.7512369E-001	-1.5185611E+000	0
3.3824527E+000	1.397483966647269E+002	-1.5212574E+000	-4.497497818399715E+002	6.8418521E-001	-1.5205611E+000	0
3.3676577E+000	1.399483966596745E+002	-1.5232354E+000	-4.523130237164146E+002	6.8897921E-001	-1.5225611E+000	0
3.3372066E+000	1.401483966546220E+002	-1.5252522E+000	-4.570445867698469E+002	6.9710827E-001	-1.5245612E+000	0
3.3121207E+000	1.403483966495696E+002	-1.5272503E+000	-4.611094872610920E+002	7.0422959E-001	-1.5265610E+000	0
3.2784872E+000	1.405483966445172E+002	-1.5292780E+000	-4.664584557669514E+002	7.1334469E-001	-1.5285611E+000	0
3.2741637E+000	1.407483966394648E+002	-1.5312825E+000	-4.676865985420536E+002	7.1616030E-001	-1.5305612E+000	0
3.2463689E+000	1.409483966344123E+002	-1.5332645E+000	-4.723013709624083E+002	7.2416294E-001	-1.5325612E+000	0
3.2181056E+000	1.411483966293599E+002	-1.5353184E+000	-4.770876534087856E+002	7.3248142E-001	-1.5345609E+000	0
3.1807270E+000	1.413483966243075E+002	-1.5372874E+000	-4.833132093131139E+002	7.4299127E-001	-1.5365611E+000	0
3.1474736E+000	1.415483966192551E+002	-1.5393442E+000	-4.890729412329683E+002	7.5285161E-001	-1.5385611E+000	0
3.1370373E+000	1.417483966142026E+002	-1.5412973E+000	-4.913226177405886E+002	7.5727421E-001	-1.5405612E+000	0
3.1502614E+000	1.419483966091502E+002	-1.5433282E+000	-4.899048070193958E+002	7.5608391E-001	-1.5425611E+000	0
3.1430609E+000	1.421483966040978E+002	-1.5453385E+000	-4.916667362740773E+002	7.5979155E-001	-1.5445611E+000	0
3.1123261E+000	1.423483965990454E+002	-1.5472912E+000	-4.971494310296857E+002	7.6923490E-001	-1.5465610E+000	0
3.0789208E+000	1.425483965939929E+002	-1.5493082E+000	-5.031984579211723E+002	7.7960950E-001	-1.5485611E+000	0
3.0810294E+000	1.427483965889405E+002	-1.5513110E+000	-5.035041342235745E+002	7.8109151E-001	-1.5505612E+000	0
3.1036823E+000	1.429483965838881E+002	-1.5533154E+000	-5.004750147622717E+002	7.7739555E-001	-1.5525613E+000	0
3.0794723E+000	1.431483965788357E+002	-1.5552781E+000	-5.050469379381793E+002	7.8548843E-001	-1.5545611E+000	0
3.0620513E+000	1.433483965737832E+002	-1.5573025E+000	-5.085814484706539E+002	7.9201514E-001	-1.5565610E+000	0
3.0513961E+000	1.435483965687308E+002	-1.5593128E+000	-5.110161955524181E+002	7.9683411E-001	-1.5585611E+000	0
3.0438905E+000	1.437483965636784E+002	-1.5613589E+000	-5.129484696290929E+002	8.0089664E-001	-1.5605609E+000	0
3.0204916E+000	1.439483965586260E+002	-1.5633266E+000	-5.175735603124922E+002	8.0913651E-001	-1.5625613E+000	0
3.0149708E+000	1.441483965535735E+002	-1.5652823E+000	-5.191699971439111E+002	8.1264764E-001	-1.5645611E+000	0
2.9945045E+000	1.443483965485211E+002	-1.5673162E+000	-5.233975132360447E+002	8.2032937E-001	-1.5665610E+000	0
2.9645267E+000	1.445483965434687E+002	-1.5693402E+000	-5.293729326849334E+002	8.3076626E-001	-1.5685611E+000	0
2.9280400E+000	1.447483965384163E+002	-1.5713255E+000	-5.366475825926067E+002	8.4324807E-001	-1.5705612E+000	0
2.9003460E+000	1.449483965333638E+002	-1.5733697E+000	-5.424765496199907E+002	8.5351616E-001	-1.5725613E+000	0
2.8981559E+000	1.451483965283114E+002	-1.5753552E+000	-5.435715917167768E+002	8.5631830E-001	-1.5745611E+000	0
2.8376663E+000	1.453483965232590E+002	-1.5773225E+000	-5.558520001348716E+002	8.7675786E-001	-1.5765611E+000	0
2.8253014E+000	1.455483965182066E+002	-1.5793685E+000	-5.590088595565512E+002	8.8288099E-001	-1.5785611E+000	0
2.8375931E+000	1.457483965131541E+002	-1.5813670E+000	-5.572916878118549E+002	8.8128269E-001	-1.5805612E+000	0
2.8408418E+000	1.459483965081017E+002	-1.5833281E+000	-5.573447245946008E+002	8.8245958E-001	-1.5825613E+000	0
2.8428829E+000	1.461483965030493E+002	-1.5853668E+000	-5.576616684184855E+002	8.8409829E-001	-1.5845611E+000	0
2.8320894E+000	1.462583965002705E+002	-1.5863587E+000	-5.601371970663267E+002	8.8857847E-001	-1.5856608E+000	0
2.8261395E+000	1.462589965002553E+002	-1.5866126E+000	-5.614063313802089E+002	8.9073437E-001	-1.5858608E+000	1