EC-Lab ASCII FILE
Nb header lines : 61                          

Linear Sweep Voltammetry

Run on channel : 1 (SN 1340)
User : 
Electrode connection : standard
Potential control : Ewe
Ewe ctrl range : min = -5.00 V, max = 5.00 V
Ewe,I filtering : <None>
Channel : Grounded
Acquisition started on : 02/12/2026 17:25:40.985
Technique started on : 02/12/2026 17:25:43.824
Loaded Setting File :  NONE
Saved on :
	File : PtPdCoNi_2_12_02_LSV_C01.mpr
	Directory : C:\Users\volt\Documents\Platalytix\
	Host : 127.0.0.1
Device : SP-200 (SN 0262)
Address : USB
EC-LAB for windows v11.60 (software)
Internet server v11.60 (firmware)
Command interpretor v11.60 (firmware)
Electrode material : PtPdCoNi
Initial state : 
Electrolyte : KOH (1M)
Comments : 
Cable : standard
Reference electrode : Hg/HgO (0.140 V)
Electrode surface area : 1.000 cm˛
Characteristic mass : 0.001 g
Equivalent Weight : 0.000 g/eq.
Density : 0.000 g/cm3
Volume (V) : 0.001 cmł
Cycle Definition : Charge/Discharge alternance
tR (h:m:s)          0:00:5.0000         
dER/dt (mV/h)       0.0                 
dER (mV)            0                   
dtR (s)             0.0000              
dE/dt               10.000              
dE/dt unit          mV/s                
Ei (V)              -0.200              
vs.                 Ref                 
EL (V)              -2.500              
vs.                 Ref                 
record              <I>                 
dI                  0.000               
unit dI             µA                  
tI (s)              0.0000              
step percent        50                  
N                   10                  
E range min (V)     -5.000              
E range max (V)     5.000               
I Range             Auto                
I Range min         Unset               
I Range max         Unset               
I Range init        Unset               
Bandwidth           8                   

Rwe/Ohm	time/s	Ewe/V	<I>/mA	Pwe/W	control/V	error	
0.0000000E+000	2.839400134835159E+000	-1.5092191E-001	0.000000000000000E+000	0.0000000E+000	0.0000000E+000	0
0.0000000E+000	7.839200008529588E+000	-2.1596432E-002	0.000000000000000E+000	0.0000000E+000	-1.9982000E-001	0
1.1550259E+003	8.039200003477163E+000	-2.0155954E-001	-1.745065210759642E-001	3.5173456E-005	-2.0171978E-001	0
9.0471521E+002	8.159200000445708E+000	-2.0267564E-001	-2.240214745419058E-001	4.5403696E-005	-2.0291986E-001	0
1.0345446E+003	8.369199995140661E+000	-2.0477192E-001	-1.979343647975682E-001	4.0531399E-005	-2.0501982E-001	0
1.1411554E+003	8.569199990088237E+000	-2.0680851E-001	-1.812273004639247E-001	3.7479349E-005	-2.0701982E-001	0
1.2278217E+003	8.769199985035812E+000	-2.0882346E-001	-1.700763719889191E-001	3.5515935E-005	-2.0901985E-001	0
1.3012000E+003	8.969199979983387E+000	-2.1082313E-001	-1.620220941303470E-001	3.4158005E-005	-2.1101981E-001	0
1.3651593E+003	9.169199974930962E+000	-2.1284243E-001	-1.559103250549998E-001	3.3184333E-005	-2.1301973E-001	0
1.4221609E+003	9.369199969878537E+000	-2.1479423E-001	-1.510337037984661E-001	3.2441170E-005	-2.1501960E-001	0
1.4747906E+003	9.569199964826112E+000	-2.1680462E-001	-1.470070506156735E-001	3.1871808E-005	-2.1701950E-001	0
1.5236874E+003	9.769199959773687E+000	-2.1880206E-001	-1.436003600247207E-001	3.1420055E-005	-2.1901937E-001	0
1.5695679E+003	9.969199954721262E+000	-2.2082306E-001	-1.406903582764475E-001	3.1067677E-005	-2.2101928E-001	0
1.6117400E+003	1.016919994966884E+001	-2.2281730E-001	-1.382464319129651E-001	3.0803698E-005	-2.2301918E-001	0
1.6533427E+003	1.036919994461641E+001	-2.2480458E-001	-1.359697419668540E-001	3.0566622E-005	-2.2501905E-001	0
1.6932981E+003	1.056919993956399E+001	-2.2681963E-001	-1.339513925210378E-001	3.0382806E-005	-2.2701897E-001	0
1.7314922E+003	1.076919993451156E+001	-2.2879925E-001	-1.321399329956667E-001	3.0233517E-005	-2.2901884E-001	0
1.7682808E+003	1.096919992945914E+001	-2.3082447E-001	-1.305360987628319E-001	3.0130926E-005	-2.3101872E-001	0
1.8048754E+003	1.116919992440671E+001	-2.3279925E-001	-1.289835577575136E-001	3.0027275E-005	-2.3301861E-001	0
1.8399124E+003	1.136919991935429E+001	-2.3482129E-001	-1.276263424888033E-001	2.9969382E-005	-2.3501851E-001	0
1.8753549E+003	1.156919991430186E+001	-2.3683633E-001	-1.262888042900348E-001	2.9909777E-005	-2.3701841E-001	0
1.9107135E+003	1.176919990924944E+001	-2.3879640E-001	-1.249776086442664E-001	2.9844203E-005	-2.3901831E-001	0
1.9434688E+003	1.196919990419701E+001	-2.4080870E-001	-1.239066450643329E-001	2.9837798E-005	-2.4101816E-001	0
1.9789036E+003	1.216919989914459E+001	-2.4280444E-001	-1.226964468282135E-001	2.9791241E-005	-2.4301808E-001	0
2.0117109E+003	1.236899989409721E+001	-2.4481337E-001	-1.216941088640767E-001	2.9792345E-005	-2.4501795E-001	0
2.0447073E+003	1.256899988904479E+001	-2.4681993E-001	-1.207116182202943E-001	2.9794033E-005	-2.4701785E-001	0
2.0776023E+003	1.276899988399236E+001	-2.4878408E-001	-1.197457618160329E-001	2.9790839E-005	-2.4901776E-001	0
2.1102168E+003	1.296899987893994E+001	-2.5080252E-001	-1.188515363147062E-001	2.9808265E-005	-2.5101766E-001	0
2.1422598E+003	1.316899987388751E+001	-2.5278342E-001	-1.179984966440805E-001	2.9828063E-005	-2.5301754E-001	0
2.1749119E+003	1.336899986883509E+001	-2.5479379E-001	-1.171513139840444E-001	2.9849427E-005	-2.5501743E-001	0
2.2083533E+003	1.356899986378266E+001	-2.5681689E-001	-1.162933880872932E-001	2.9866107E-005	-2.5701731E-001	0
2.2398528E+003	1.376899985873024E+001	-2.5881243E-001	-1.155488512451313E-001	2.9905479E-005	-2.5901723E-001	0
2.2744265E+003	1.396899985367781E+001	-2.6083875E-001	-1.146833036409562E-001	2.9913850E-005	-2.6101711E-001	0
2.3062104E+003	1.416899984862539E+001	-2.6276171E-001	-1.139365762943094E-001	2.9938170E-005	-2.6301700E-001	0
2.3401296E+003	1.436899984357296E+001	-2.6479504E-001	-1.131540054239992E-001	2.9962619E-005	-2.6501688E-001	0
2.3752766E+003	1.456899983852054E+001	-2.6683068E-001	-1.123366767736975E-001	2.9974872E-005	-2.6701677E-001	0
2.4093411E+003	1.476899983346812E+001	-2.6879966E-001	-1.115656325629493E-001	2.9988805E-005	-2.6901668E-001	0
2.4433096E+003	1.496899982841569E+001	-2.7079332E-001	-1.108305425237437E-001	3.0012170E-005	-2.7101654E-001	0
2.4804656E+003	1.516899982336327E+001	-2.7280605E-001	-1.099817958341534E-001	3.0003699E-005	-2.7301645E-001	0
2.5152771E+003	1.536899981831084E+001	-2.7477607E-001	-1.092428595119082E-001	3.0017323E-005	-2.7501634E-001	0
2.5484592E+003	1.556899981325842E+001	-2.7678645E-001	-1.086093257360852E-001	3.0061590E-005	-2.7701622E-001	0
2.5851665E+003	1.576899980820599E+001	-2.7878919E-001	-1.078418666568668E-001	3.0065146E-005	-2.7901611E-001	0
2.6206494E+003	1.596889980315609E+001	-2.8078583E-001	-1.071436085284863E-001	3.0084408E-005	-2.8101692E-001	0
2.6566187E+003	1.616879979810619E+001	-2.8279787E-001	-1.064503091068567E-001	3.0103922E-005	-2.8301591E-001	0
2.6928970E+003	1.636879979305377E+001	-2.8481314E-001	-1.057645885206235E-001	3.0123145E-005	-2.8501579E-001	0
2.7296755E+003	1.656879978800134E+001	-2.8682753E-001	-1.050775160700459E-001	3.0139125E-005	-2.8701571E-001	0
2.7656396E+003	1.676879978294892E+001	-2.8882480E-001	-1.044332754646181E-001	3.0162919E-005	-2.8901559E-001	0
2.8020842E+003	1.696879977789649E+001	-2.9084831E-001	-1.037971312085131E-001	3.0189221E-005	-2.9101548E-001	0
2.8390300E+003	1.716879977284407E+001	-2.9281986E-001	-1.031408063600643E-001	3.0201676E-005	-2.9301536E-001	0
2.8751609E+003	1.736879976779164E+001	-2.9479909E-001	-1.025330799625435E-001	3.0226658E-005	-2.9501525E-001	0
2.9131116E+003	1.756879976273922E+001	-2.9681391E-001	-1.018889589676562E-001	3.0242059E-005	-2.9701516E-001	0
2.9520417E+003	1.776879975768679E+001	-2.9880071E-001	-1.012183191611639E-001	3.0244106E-005	-2.9901505E-001	0
2.9904519E+003	1.796879975263437E+001	-3.0081645E-001	-1.005923029789257E-001	3.0259818E-005	-3.0101493E-001	0
3.0289480E+003	1.816879974758194E+001	-3.0282533E-001	-9.997706429699194E-002	3.0275587E-005	-3.0301484E-001	0
3.0726243E+003	1.836879974252952E+001	-3.0480304E-001	-9.919958268218343E-002	3.0236335E-005	-3.0501470E-001	0
3.1134954E+003	1.856879973747709E+001	-3.0680004E-001	-9.853878070002686E-002	3.0231702E-005	-3.0701458E-001	0
3.1532761E+003	1.876879973242467E+001	-3.0880278E-001	-9.793077983582987E-002	3.0241297E-005	-3.0901450E-001	0
3.1923149E+003	1.896879972737224E+001	-3.1081638E-001	-9.736394803536025E-002	3.0262310E-005	-3.1101435E-001	0
3.2325723E+003	1.916879972231982E+001	-3.1282949E-001	-9.677417165612456E-002	3.0273815E-005	-3.1301427E-001	0
3.2743711E+003	1.936879971726739E+001	-3.1479895E-001	-9.614028200209401E-002	3.0264860E-005	-3.1501415E-001	0
3.3142419E+003	1.956869971221749E+001	-3.1681481E-001	-9.559194088275819E-002	3.0284942E-005	-3.1701428E-001	0
3.3555513E+003	1.976859970716760E+001	-3.1879699E-001	-9.500584649999133E-002	3.0287578E-005	-3.1901395E-001	0
3.3977715E+003	1.996859970211517E+001	-3.2080930E-001	-9.441756254247924E-002	3.0290033E-005	-3.2101384E-001	0
3.4392263E+003	2.016859969706275E+001	-3.2278550E-001	-9.385410426005070E-002	3.0294743E-005	-3.2301369E-001	0
3.4819089E+003	2.036859969201032E+001	-3.2481501E-001	-9.328647373801724E-002	3.0300846E-005	-3.2501361E-001	0
3.5248784E+003	2.056859968695790E+001	-3.2680988E-001	-9.271522043452352E-002	3.0300251E-005	-3.2701349E-001	0
3.5642708E+003	2.076859968190547E+001	-3.2881880E-001	-9.225415684760074E-002	3.0334901E-005	-3.2901341E-001	0
3.6065215E+003	2.096859967685305E+001	-3.3078906E-001	-9.171969826067139E-002	3.0339872E-005	-3.3101329E-001	0
3.6506858E+003	2.116859967180062E+001	-3.3280179E-001	-9.116144252565128E-002	3.0338691E-005	-3.3301318E-001	0
3.6933391E+003	2.136859966674820E+001	-3.3481088E-001	-9.065262703415078E-002	3.0351486E-005	-3.3501306E-001	0
3.7356372E+003	2.156859966169577E+001	-3.3682722E-001	-9.016593224991976E-002	3.0370340E-005	-3.3701295E-001	0
3.7806035E+003	2.176859965664335E+001	-3.3881149E-001	-8.961836187234373E-002	3.0363730E-005	-3.3901286E-001	0
3.8221187E+003	2.196859965159092E+001	-3.4078583E-001	-8.916150007287155E-002	3.0384976E-005	-3.4101275E-001	0
3.8684941E+003	2.216859964653850E+001	-3.4287113E-001	-8.863168029756618E-002	3.0389245E-005	-3.4301263E-001	0
3.9095674E+003	2.236859964148607E+001	-3.4479684E-001	-8.819309261557828E-002	3.0408699E-005	-3.4501255E-001	0
3.9491592E+003	2.256859963643365E+001	-3.4681782E-001	-8.782067384556091E-002	3.0457775E-005	-3.4701240E-001	0
3.9937559E+003	2.276859963138122E+001	-3.4882185E-001	-8.734180451668605E-002	3.0466730E-005	-3.4901229E-001	0
4.0368054E+003	2.296859962632880E+001	-3.5082144E-001	-8.690571107969219E-002	3.0488387E-005	-3.5101220E-001	0
4.0794641E+003	2.316849962127890E+001	-3.5280508E-001	-8.648319366241897E-002	3.0511710E-005	-3.5301167E-001	0
4.1211377E+003	2.336839961622900E+001	-3.5480124E-001	-8.609303043808919E-002	3.0545914E-005	-3.5501200E-001	0
4.1685933E+003	2.356839961117657E+001	-3.5680929E-001	-8.559465520569598E-002	3.0540967E-005	-3.5701185E-001	0
4.2065049E+003	2.376839960612415E+001	-3.5882518E-001	-8.530245564113503E-002	3.0608669E-005	-3.5901177E-001	0
4.2488672E+003	2.396839960107172E+001	-3.6082664E-001	-8.492301940567359E-002	3.0642488E-005	-3.6101165E-001	0
4.2925381E+003	2.416839959601930E+001	-3.6281413E-001	-8.452205562883863E-002	3.0665797E-005	-3.6301154E-001	0
4.3381519E+003	2.436839959096687E+001	-3.6478484E-001	-8.408761104355561E-002	3.0673884E-005	-3.6501142E-001	0
4.3759409E+003	2.456839958591445E+001	-3.6680329E-001	-8.382272222892384E-002	3.0746451E-005	-3.6701134E-001	0
4.4174297E+003	2.476839958086202E+001	-3.6879036E-001	-8.348528516337295E-002	3.0788568E-005	-3.6901122E-001	0
4.4534941E+003	2.496839957580960E+001	-3.7075910E-001	-8.325128498605450E-002	3.0866173E-005	-3.7101108E-001	0
4.4987510E+003	2.516839957075717E+001	-3.7283209E-001	-8.287458229533362E-002	3.0898304E-005	-3.7301099E-001	0
4.5385454E+003	2.536839956570475E+001	-3.7480810E-001	-8.258330716768436E-002	3.0952891E-005	-3.7501088E-001	0
4.5782432E+003	2.556839956065232E+001	-3.7678877E-001	-8.229985974344722E-002	3.1009662E-005	-3.7701076E-001	0
4.6231592E+003	2.576839955559990E+001	-3.7878704E-001	-8.193250827579979E-002	3.1034971E-005	-3.7901065E-001	0
4.6588613E+003	2.596839955054747E+001	-3.8078791E-001	-8.173411506515371E-002	3.1123363E-005	-3.8101056E-001	0
4.6926953E+003	2.616839954549505E+001	-3.8277853E-001	-8.156901091345681E-002	3.1222866E-005	-3.8301045E-001	0
4.7342612E+003	2.636839954044262E+001	-3.8481292E-001	-8.128257261962957E-002	3.1278585E-005	-3.8501036E-001	0
4.7701675E+003	2.656839953539020E+001	-3.8681820E-001	-8.109111861534846E-002	3.1367519E-005	-3.8701022E-001	0
4.8115439E+003	2.676839953033777E+001	-3.8881221E-001	-8.080820073457218E-002	3.1419215E-005	-3.8901034E-001	0
4.8482988E+003	2.696819952529040E+001	-3.9081520E-001	-8.060872541914389E-002	3.1503114E-005	-3.9101002E-001	0
4.8834702E+003	2.716819952023798E+001	-3.9281222E-001	-8.043710823601630E-002	3.1596679E-005	-3.9300987E-001	0
4.9195327E+003	2.736819951518555E+001	-3.9482138E-001	-8.025586753851321E-002	3.1686734E-005	-3.9500982E-001	0
4.9593496E+003	2.756819951013313E+001	-3.9681071E-001	-8.001265114504885E-002	3.1749878E-005	-3.9700967E-001	0
4.9910903E+003	2.776819950508070E+001	-3.9880842E-001	-7.990406527312771E-002	3.1866413E-005	-3.9900959E-001	0
5.0304312E+003	2.796819950002828E+001	-4.0082255E-001	-7.967956555751754E-002	3.1937365E-005	-4.0100950E-001	0
5.0669229E+003	2.816819949497585E+001	-4.0282366E-001	-7.950065232963266E-002	3.2024742E-005	-4.0300938E-001	0
5.0978950E+003	2.836819948992343E+001	-4.0480009E-001	-7.940533638471414E-002	3.2143285E-005	-4.0500924E-001	0
5.1397251E+003	2.856819948487100E+001	-4.0680894E-001	-7.914993857443259E-002	3.2198903E-005	-4.0700915E-001	0
5.1683301E+003	2.876819947981858E+001	-4.0879261E-001	-7.909568608421691E-002	3.2333734E-005	-4.0900904E-001	0
5.2085117E+003	2.896819947476615E+001	-4.1078395E-001	-7.886781631821077E-002	3.2397635E-005	-4.1100892E-001	0
5.2361411E+003	2.916819946971373E+001	-4.1283038E-001	-7.884248468207611E-002	3.2548574E-005	-4.1300881E-001	0
5.2679111E+003	2.936819946466130E+001	-4.1488296E-001	-7.875663854335918E-002	3.2674787E-005	-4.1500872E-001	0
5.2994189E+003	2.956819945960888E+001	-4.1684836E-001	-7.865926084243835E-002	3.2788983E-005	-4.1700858E-001	0
5.3276157E+003	2.976819945455645E+001	-4.1884559E-001	-7.861782828094577E-002	3.2928732E-005	-4.1900852E-001	0
5.3668203E+003	2.996819944950403E+001	-4.2086557E-001	-7.841990974757068E-002	3.3004239E-005	-4.2100838E-001	0
5.3940845E+003	3.016819944445160E+001	-4.2286003E-001	-7.839329303991982E-002	3.3149390E-005	-4.2300829E-001	0
5.4249092E+003	3.036819943939918E+001	-4.2484915E-001	-7.831452018581322E-002	3.3271859E-005	-4.2500815E-001	0
5.4593892E+003	3.056809943434928E+001	-4.2684674E-001	-7.818580377181394E-002	3.3373355E-005	-4.2700812E-001	0
5.4883447E+003	3.076799942929938E+001	-4.2882726E-001	-7.813417087910940E-002	3.3506061E-005	-4.2900795E-001	0
5.5189888E+003	3.096799942424695E+001	-4.3088266E-001	-7.807275478658393E-002	3.3640197E-005	-4.3100783E-001	0
5.5503965E+003	3.116799941919453E+001	-4.3282598E-001	-7.798109381922158E-002	3.3752243E-005	-4.3300775E-001	0
5.5836953E+003	3.136799941414210E+001	-4.3485272E-001	-7.787902111952083E-002	3.3865905E-005	-4.3500760E-001	0
5.6125078E+003	3.156799940908968E+001	-4.3682852E-001	-7.783125173469474E-002	3.3998909E-005	-4.3700755E-001	0
5.6416895E+003	3.176799940403725E+001	-4.3885309E-001	-7.778752697029856E-002	3.4137298E-005	-4.3900740E-001	0
5.6727476E+003	3.196799939898483E+001	-4.4084397E-001	-7.771260428290927E-002	3.4259134E-005	-4.4100726E-001	0
5.7086133E+003	3.216799939393240E+001	-4.4285399E-001	-7.757645602023366E-002	3.4355042E-005	-4.4300720E-001	0
5.7405659E+003	3.236799938887998E+001	-4.4489408E-001	-7.750003992066690E-002	3.4479308E-005	-4.4500703E-001	0
5.7704551E+003	3.256799938382756E+001	-4.4685858E-001	-7.743905488900020E-002	3.4604305E-005	-4.4700700E-001	0
5.8053389E+003	3.276799937877513E+001	-4.4884840E-001	-7.731648650740486E-002	3.4703382E-005	-4.4900683E-001	0
5.8418892E+003	3.296799937372271E+001	-4.5085239E-001	-7.717578897945368E-002	3.4794888E-005	-4.5100683E-001	0
5.8755908E+003	3.316799936867028E+001	-4.5287791E-001	-7.707784839487664E-002	3.4906854E-005	-4.5300663E-001	0
5.9043721E+003	3.336799936361786E+001	-4.5485517E-001	-7.703700799826507E-002	3.5040681E-005	-4.5500651E-001	0
5.9414512E+003	3.356799935856543E+001	-4.5687333E-001	-7.689591491744820E-002	3.5131692E-005	-4.5700645E-001	0
5.9790015E+003	3.376799935351301E+001	-4.5881230E-001	-7.673727577740141E-002	3.5208006E-005	-4.5900631E-001	0
6.0137334E+003	3.396799934846058E+001	-4.6083984E-001	-7.663124011588754E-002	3.5314730E-005	-4.6100625E-001	0
6.0503135E+003	3.416789934341068E+001	-4.6284834E-001	-7.649989631104415E-002	3.5407851E-005	-4.6300539E-001	0
6.0796035E+003	3.436779933836078E+001	-4.6482769E-001	-7.645690998182841E-002	3.5539288E-005	-4.6500599E-001	0
6.1219619E+003	3.456779933330836E+001	-4.6682709E-001	-7.625448908773014E-002	3.5597663E-005	-4.6700588E-001	0
6.1626313E+003	3.476779932825593E+001	-4.6883574E-001	-7.607720150768582E-002	3.5667712E-005	-4.6900576E-001	0
6.2027622E+003	3.496779932320351E+001	-4.7082198E-001	-7.590521267792649E-002	3.5737841E-005	-4.7100568E-001	0
6.2469790E+003	3.516779931815108E+001	-4.7280458E-001	-7.568531480508009E-002	3.5784364E-005	-4.7300553E-001	0
6.2909121E+003	3.536779931309866E+001	-4.7481894E-001	-7.547696495941836E-002	3.5837893E-005	-4.7500548E-001	0
6.3272012E+003	3.556779930804623E+001	-4.7684187E-001	-7.536379394518500E-002	3.5936613E-005	-4.7700533E-001	0
6.3681162E+003	3.576779930299381E+001	-4.7880197E-001	-7.518737906507766E-002	3.5999867E-005	-4.7900522E-001	0
6.4139346E+003	3.596779929794138E+001	-4.8078918E-001	-7.496010368877870E-002	3.6040008E-005	-4.8100513E-001	0
6.4598813E+003	3.616779929288896E+001	-4.8281723E-001	-7.474088087749764E-002	3.6086185E-005	-4.8300499E-001	0
6.5065083E+003	3.636779928783653E+001	-4.8486599E-001	-7.452015034102599E-002	3.6132285E-005	-4.8500493E-001	0
6.5468140E+003	3.656779928278411E+001	-4.8682734E-001	-7.436095674515864E-002	3.6200949E-005	-4.8700479E-001	0
6.5937070E+003	3.676779927773168E+001	-4.8883396E-001	-7.413644216428883E-002	3.6240410E-005	-4.8900470E-001	0
6.6430303E+003	3.696779927267926E+001	-4.9080551E-001	-7.388277586534775E-002	3.6262074E-005	-4.9100456E-001	0
6.6930840E+003	3.716779926762683E+001	-4.9281821E-001	-7.363096015187820E-002	3.6286678E-005	-4.9300441E-001	0
6.7423755E+003	3.736779926257441E+001	-4.9482071E-001	-7.338967014530695E-002	3.6314730E-005	-4.9500436E-001	0
6.7928984E+003	3.756779925752198E+001	-4.9681374E-001	-7.313722396077230E-002	3.6335579E-005	-4.9700421E-001	0
6.8487363E+003	3.776769925247208E+001	-4.9883083E-001	-7.283545238684391E-002	3.6332567E-005	-4.9900347E-001	0
6.8981978E+003	3.796759924742219E+001	-5.0085020E-001	-7.260595108097279E-002	3.6364705E-005	-5.0100404E-001	0
6.9523955E+003	3.816759924236976E+001	-5.0284576E-001	-7.232698100902007E-002	3.6369314E-005	-5.0300395E-001	0
7.0039053E+003	3.836759923731734E+001	-5.0485486E-001	-7.208190681708448E-002	3.6390902E-005	-5.0500387E-001	0
7.0619077E+003	3.856759923226491E+001	-5.0685078E-001	-7.177250165821747E-002	3.6377947E-005	-5.0700366E-001	0
7.1171460E+003	3.876759922721249E+001	-5.0883764E-001	-7.149461677082491E-002	3.6379151E-005	-5.0900364E-001	0
7.1699146E+003	3.896759922216006E+001	-5.1086581E-001	-7.125130935113833E-002	3.6399859E-005	-5.1100343E-001	0
7.2341572E+003	3.916759921710764E+001	-5.1284695E-001	-7.089242547995478E-002	3.6356963E-005	-5.1300341E-001	0
7.2924756E+003	3.936759921205521E+001	-5.1482886E-001	-7.059727066466803E-002	3.6345511E-005	-5.1500326E-001	0
7.3508188E+003	3.956759920700279E+001	-5.1686090E-001	-7.031337839399204E-002	3.6342237E-005	-5.1700312E-001	0
7.4183784E+003	3.976759920195036E+001	-5.1887196E-001	-6.994412284631668E-002	3.6292044E-005	-5.1900309E-001	0
7.4855659E+003	3.996759919689794E+001	-5.2083498E-001	-6.957857213521590E-002	3.6238955E-005	-5.2100295E-001	0
7.5445371E+003	4.016759919184551E+001	-5.2281868E-001	-6.929764844151926E-002	3.6230107E-005	-5.2300280E-001	0
7.6107422E+003	4.036759918679309E+001	-5.2484220E-001	-6.896071359694700E-002	3.6193494E-005	-5.2500272E-001	0
7.6705806E+003	4.056759918174066E+001	-5.2682501E-001	-6.868124190853109E-002	3.6182995E-005	-5.2700257E-001	0
7.7446899E+003	4.076759917668824E+001	-5.2884722E-001	-6.828513598257524E-002	3.6112404E-005	-5.2900255E-001	0
7.8065596E+003	4.096759917163581E+001	-5.3079849E-001	-6.799390767500368E-002	3.6091064E-005	-5.3100234E-001	0
7.8677280E+003	4.116759916658339E+001	-5.3285211E-001	-6.772630018036363E-002	3.6088102E-005	-5.3300232E-001	0
7.9356377E+003	4.136759916153096E+001	-5.3480947E-001	-6.739338298904762E-002	3.6042620E-005	-5.3500217E-001	0
8.0068369E+003	4.156749915648106E+001	-5.3684348E-001	-6.704813453340108E-002	3.5994355E-005	-5.3700304E-001	0
8.0629248E+003	4.176739915143116E+001	-5.3881025E-001	-6.682565923655603E-002	3.6006350E-005	-5.3900194E-001	0
8.1280986E+003	4.196739914637874E+001	-5.4084849E-001	-6.654059029893877E-002	3.5988378E-005	-5.4100186E-001	0
8.2056035E+003	4.216739914132631E+001	-5.4286975E-001	-6.615842046277381E-002	3.5915404E-005	-5.4300177E-001	0
8.2745850E+003	4.236739913627389E+001	-5.4484439E-001	-6.584552109986974E-002	3.5875564E-005	-5.4500163E-001	0
8.3480430E+003	4.256739913122146E+001	-5.4683316E-001	-6.550435153946965E-002	3.5819950E-005	-5.4700154E-001	0
8.4123594E+003	4.276739912616904E+001	-5.4882056E-001	-6.523978696236389E-002	3.5804936E-005	-5.4900146E-001	0
8.4861279E+003	4.296739912111661E+001	-5.5084985E-001	-6.491180348670411E-002	3.5756657E-005	-5.5100131E-001	0
8.5536924E+003	4.316739911606419E+001	-5.5284160E-001	-6.463192634985626E-002	3.5731216E-005	-5.5300122E-001	0
8.6294092E+003	4.336739911101176E+001	-5.5481827E-001	-6.429389096709906E-002	3.5671426E-005	-5.5500102E-001	0
8.6960332E+003	4.356739910595934E+001	-5.5684650E-001	-6.403454227843919E-002	3.5657409E-005	-5.5700099E-001	0
8.7539619E+003	4.376739910090691E+001	-5.5886573E-001	-6.384146274722119E-002	3.5678804E-005	-5.5900085E-001	0
8.8381504E+003	4.396739909585449E+001	-5.6082654E-001	-6.345519492858842E-002	3.5587356E-005	-5.6100082E-001	0
8.9048848E+003	4.416739909080206E+001	-5.6283838E-001	-6.320557688403045E-002	3.5574525E-005	-5.6300068E-001	0
8.9840850E+003	4.436739908574964E+001	-5.6485832E-001	-6.287321681684754E-002	3.5514458E-005	-5.6500053E-001	0
9.0561797E+003	4.456739908069721E+001	-5.6684709E-001	-6.259229559453461E-002	3.5480261E-005	-5.6700045E-001	0
9.1262451E+003	4.476739907564479E+001	-5.6884402E-001	-6.233056820770644E-002	3.5456371E-005	-5.6900030E-001	0
9.1996035E+003	4.496739907059236E+001	-5.7082748E-001	-6.204914071654133E-002	3.5419354E-005	-5.7100022E-001	0
9.2741826E+003	4.516729906554247E+001	-5.7284015E-001	-6.176718380646795E-002	3.5382724E-005	-5.7300037E-001	0
9.3344189E+003	4.536719906049257E+001	-5.7481474E-001	-6.158012837222249E-002	3.5397166E-005	-5.7499999E-001	0
9.4027080E+003	4.556719905544014E+001	-5.7682234E-001	-6.134640595077379E-002	3.5385976E-005	-5.7699990E-001	0
9.4700117E+003	4.576719905038772E+001	-5.7880366E-001	-6.111963335878712E-002	3.5376266E-005	-5.7899976E-001	0
9.5428242E+003	4.596719904533529E+001	-5.8082849E-001	-6.086546848232421E-002	3.5352397E-005	-5.8099967E-001	0
9.6214824E+003	4.616719904028287E+001	-5.8283657E-001	-6.057658816936942E-002	3.5306250E-005	-5.8299953E-001	0
9.6855469E+003	4.636719903523044E+001	-5.8481568E-001	-6.038024181356461E-002	3.5311314E-005	-5.8499938E-001	0
9.7574521E+003	4.656719903017802E+001	-5.8681852E-001	-6.014054879079422E-002	3.5291589E-005	-5.8699936E-001	0
9.8191777E+003	4.676719902512559E+001	-5.8882803E-001	-5.996714470656728E-002	3.5310335E-005	-5.8899915E-001	0
9.8836631E+003	4.696719902007317E+001	-5.9082276E-001	-5.977770977108704E-002	3.5318033E-005	-5.9099913E-001	0
9.9568740E+003	4.716719901502074E+001	-5.9282202E-001	-5.953897199226016E-002	3.5296012E-005	-5.9299898E-001	0
1.0020139E+004	4.736719900996832E+001	-5.9486783E-001	-5.936722663419125E-002	3.5315654E-005	-5.9499890E-001	0
1.0093827E+004	4.756719900491589E+001	-5.9685600E-001	-5.913078980657627E-002	3.5292567E-005	-5.9699875E-001	0
1.0159675E+004	4.776719899986347E+001	-5.9881735E-001	-5.894059932720974E-002	3.5294652E-005	-5.9899867E-001	0
1.0228602E+004	4.796719899481104E+001	-6.0081154E-001	-5.873838379977053E-002	3.5290697E-005	-6.0099858E-001	0
1.0298287E+004	4.816719898975862E+001	-6.0287017E-001	-5.854082115991309E-002	3.5292516E-005	-6.0299844E-001	0
1.0350186E+004	4.836719898470619E+001	-6.0482836E-001	-5.843647285216719E-002	3.5344037E-005	-6.0499835E-001	0
1.0415913E+004	4.856719897965377E+001	-6.0683423E-001	-5.826029865242222E-002	3.5354344E-005	-6.0699826E-001	0
1.0488991E+004	4.876709897460387E+001	-6.0882068E-001	-5.804377877443861E-002	3.5338253E-005	-6.0899770E-001	0
1.0553368E+004	4.896699896955397E+001	-6.1082447E-001	-5.787957417398534E-002	3.5354260E-005	-6.1099803E-001	0
1.0615832E+004	4.916699896450154E+001	-6.1285269E-001	-5.773006867545594E-002	3.5380028E-005	-6.1299789E-001	0
1.0670820E+004	4.936699895944912E+001	-6.1483186E-001	-5.761805199120415E-002	3.5425415E-005	-6.1499786E-001	0
1.0726058E+004	4.956699895439669E+001	-6.1686152E-001	-5.751055338242561E-002	3.5476049E-005	-6.1699766E-001	0
1.0790478E+004	4.976699894934427E+001	-6.1884671E-001	-5.735118821096474E-002	3.5491594E-005	-6.1899763E-001	0
1.0846033E+004	4.996699894429185E+001	-6.2087286E-001	-5.724423483981333E-002	3.5541390E-005	-6.2099749E-001	0
1.0915896E+004	5.016699893923942E+001	-6.2287492E-001	-5.706127187186449E-002	3.5542034E-005	-6.2299734E-001	0
1.0960552E+004	5.036699893418700E+001	-6.2489611E-001	-5.701320001785792E-002	3.5627327E-005	-6.2499726E-001	0
1.1023645E+004	5.056699892913457E+001	-6.2682503E-001	-5.686187144641308E-002	3.5642446E-005	-6.2699717E-001	0
1.1080092E+004	5.076699892408215E+001	-6.2881672E-001	-5.675194208624279E-002	3.5686571E-005	-6.2899709E-001	0
1.1132029E+004	5.096699891902972E+001	-6.3084579E-001	-5.666943025604199E-002	3.5749672E-005	-6.3099694E-001	0
1.1179742E+004	5.116699891397730E+001	-6.3282472E-001	-5.660459090155190E-002	3.5820784E-005	-6.3299686E-001	0
1.1238031E+004	5.136699890892487E+001	-6.3483977E-001	-5.649030335826155E-002	3.5862293E-005	-6.3499671E-001	0
1.1288281E+004	5.156699890387245E+001	-6.3685083E-001	-5.641698705290144E-002	3.5929206E-005	-6.3699657E-001	0
1.1352312E+004	5.176699889882002E+001	-6.3886714E-001	-5.627639081208735E-002	3.5953137E-005	-6.3899648E-001	0
1.1391970E+004	5.196699889376760E+001	-6.4083230E-001	-5.625298435381609E-002	3.6048728E-005	-6.4099634E-001	0
1.1445084E+004	5.216699888871517E+001	-6.4284140E-001	-5.616747093536922E-002	3.6106776E-005	-6.4299631E-001	0
1.1494948E+004	5.236689888366527E+001	-6.4483505E-001	-5.609725748164071E-002	3.6173478E-005	-6.4499527E-001	0
1.1540331E+004	5.256689887861285E+001	-6.4683461E-001	-5.604991985051561E-002	3.6255027E-005	-6.4699692E-001	0
1.1604299E+004	5.276679887356295E+001	-6.4887851E-001	-5.591708202286716E-002	3.6283393E-005	-6.4899594E-001	0
1.1642407E+004	5.296679886851052E+001	-6.5084469E-001	-5.590293118402839E-002	3.6384125E-005	-6.5099579E-001	0
1.1676681E+004	5.316679886345810E+001	-6.5286368E-001	-5.591175450295061E-002	3.6502755E-005	-6.5299577E-001	0
1.1718829E+004	5.336679885840567E+001	-6.5484816E-001	-5.587999882491169E-002	3.6592915E-005	-6.5499562E-001	0
1.1767237E+004	5.356679885335325E+001	-6.5683490E-001	-5.581895770165068E-002	3.6663838E-005	-6.5699553E-001	0
1.1828386E+004	5.376679884830082E+001	-6.5882409E-001	-5.569856395668316E-002	3.6695554E-005	-6.5899545E-001	0
1.1854695E+004	5.396679884324840E+001	-6.6085535E-001	-5.574629392819097E-002	3.6840236E-005	-6.6099530E-001	0
1.1907507E+004	5.416679883819597E+001	-6.6285592E-001	-5.566706290244716E-002	3.6899244E-005	-6.6299522E-001	0
1.1937537E+004	5.436679883314355E+001	-6.6487104E-001	-5.569582941990470E-002	3.7030542E-005	-6.6499507E-001	0
1.1988033E+004	5.456679882809112E+001	-6.6684532E-001	-5.562591638950354E-002	3.7093883E-005	-6.6699505E-001	0
1.2033272E+004	5.476679882303870E+001	-6.6883808E-001	-5.558239321895964E-002	3.7175621E-005	-6.6899484E-001	0
1.2051196E+004	5.496679881798627E+001	-6.7083740E-001	-5.566562646250250E-002	3.7342583E-005	-6.7099476E-001	0
1.2108663E+004	5.516679881293385E+001	-6.7286736E-001	-5.556908912023262E-002	3.7390626E-005	-6.7299467E-001	0
1.2141546E+004	5.536679880788142E+001	-6.7480791E-001	-5.557841775926181E-002	3.7504757E-005	-6.7499453E-001	0
1.2184981E+004	5.556679880282900E+001	-6.7684466E-001	-5.554745193568755E-002	3.7596998E-005	-6.7699444E-001	0
1.2217252E+004	5.576679879777657E+001	-6.7883205E-001	-5.556339983640446E-002	3.7718219E-005	-6.7899430E-001	0
1.2243215E+004	5.596679879272415E+001	-6.8081659E-001	-5.560766358790170E-002	3.7858619E-005	-6.8099415E-001	0
1.2264101E+004	5.616659878767678E+001	-6.8285018E-001	-5.567878242532331E-002	3.8020265E-005	-6.8299365E-001	0
1.2307784E+004	5.636659878262435E+001	-6.8483889E-001	-5.564274291757099E-002	3.8106315E-005	-6.8499392E-001	0
1.2338977E+004	5.656659877757193E+001	-6.8682986E-001	-5.566343830955445E-002	3.8231312E-005	-6.8699390E-001	0
1.2387517E+004	5.676659877251950E+001	-6.8883926E-001	-5.560753324445011E-002	3.8304654E-005	-6.8899375E-001	0
1.2410974E+004	5.696659876746708E+001	-6.9084710E-001	-5.566421643801234E-002	3.8455462E-005	-6.9099367E-001	0
1.2442338E+004	5.716659876241465E+001	-6.9286281E-001	-5.568590268541274E-002	3.8582690E-005	-6.9299352E-001	0
1.2470065E+004	5.736659875736223E+001	-6.9481754E-001	-5.571883734550043E-002	3.8714425E-005	-6.9499344E-001	0
1.2506342E+004	5.756659875230980E+001	-6.9686705E-001	-5.572109445433271E-002	3.8830196E-005	-6.9699335E-001	0
1.2526306E+004	5.776659874725738E+001	-6.9885170E-001	-5.579072729285284E-002	3.8989445E-005	-6.9899327E-001	0
1.2550922E+004	5.796659874220495E+001	-7.0084107E-001	-5.583980885522266E-002	3.9134833E-005	-7.0099318E-001	0
1.2573367E+004	5.816659873715253E+001	-7.0283061E-001	-5.589835957968270E-002	3.9287079E-005	-7.0299304E-001	0
1.2585123E+004	5.836659873210010E+001	-7.0487458E-001	-5.600855616343670E-002	3.9479008E-005	-7.0499295E-001	0
1.2613142E+004	5.856659872704768E+001	-7.0684934E-001	-5.604070429204446E-002	3.9612336E-005	-7.0699286E-001	0
1.2650537E+004	5.876659872199525E+001	-7.0887154E-001	-5.603489686118324E-002	3.9721544E-005	-7.0899266E-001	0
1.2673759E+004	5.896659871694283E+001	-7.1087128E-001	-5.609001005765291E-002	3.9872779E-005	-7.1099257E-001	0
1.2680702E+004	5.916659871189040E+001	-7.1279818E-001	-5.621125379444236E-002	4.0067280E-005	-7.1299249E-001	0
1.2688781E+004	5.936659870683798E+001	-7.1483755E-001	-5.633618468218060E-002	4.0271221E-005	-7.1499240E-001	0
1.2718752E+004	5.956659870178555E+001	-7.1684897E-001	-5.636158248551137E-002	4.0402741E-005	-7.1699226E-001	0
1.2747092E+004	5.976649869673565E+001	-7.1885204E-001	-5.639341416493487E-002	4.0538522E-005	-7.1899211E-001	0
1.2750416E+004	5.996639869168575E+001	-7.2083181E-001	-5.653398234213425E-002	4.0751493E-005	-7.2099209E-001	0
1.2766938E+004	6.016639868663333E+001	-7.2282732E-001	-5.661712780482908E-002	4.0924406E-005	-7.2299188E-001	0
1.2778809E+004	6.036639868158090E+001	-7.2488296E-001	-5.672539539303645E-002	4.1119274E-005	-7.2499180E-001	0
1.2794863E+004	6.056639867652848E+001	-7.2687912E-001	-5.681022790328161E-002	4.1294170E-005	-7.2699171E-001	0
1.2813859E+004	6.076639867147605E+001	-7.2882801E-001	-5.687810383766656E-002	4.1454354E-005	-7.2899163E-001	0
1.2799771E+004	6.096639866642363E+001	-7.3088717E-001	-5.710158356604800E-002	4.1734816E-005	-7.3099148E-001	0
1.2818095E+004	6.116639866137120E+001	-7.3285276E-001	-5.717329710907806E-002	4.1899610E-005	-7.3299134E-001	0
1.2839495E+004	6.136639865631878E+001	-7.3485929E-001	-5.723428047450085E-002	4.2059142E-005	-7.3499131E-001	0
1.2824342E+004	6.156639865126635E+001	-7.3685819E-001	-5.745777783359984E-002	4.2338233E-005	-7.3699111E-001	0
1.2846834E+004	6.176639864621393E+001	-7.3884439E-001	-5.751178909648569E-002	4.2492262E-005	-7.3899102E-001	0
1.2817372E+004	6.196639864116150E+001	-7.4086040E-001	-5.780127079145825E-002	4.2822674E-005	-7.4099094E-001	0
1.2815927E+004	6.216639863610908E+001	-7.4281448E-001	-5.796026210501237E-002	4.3053722E-005	-7.4299085E-001	0
1.2807671E+004	6.236639863105665E+001	-7.4485224E-001	-5.815672745100309E-002	4.3318170E-005	-7.4499077E-001	0
1.2803598E+004	6.256639862600423E+001	-7.4688137E-001	-5.833371255922692E-002	4.3568361E-005	-7.4699056E-001	0
1.2794591E+004	6.276639862095180E+001	-7.4882954E-001	-5.852703949385873E-002	4.3826778E-005	-7.4899054E-001	0
1.2790237E+004	6.296639861589938E+001	-7.5086069E-001	-5.870576904845903E-002	4.4079854E-005	-7.5099033E-001	0
1.2782413E+004	6.316639861084695E+001	-7.5281304E-001	-5.889443626950408E-002	4.4336499E-005	-7.5299025E-001	0
1.2777727E+004	6.336629860579706E+001	-7.5482166E-001	-5.907323583475498E-002	4.4589757E-005	-7.5498968E-001	0
1.2740855E+004	6.356629860074463E+001	-7.5685483E-001	-5.940376921566101E-002	4.4960030E-005	-7.5699103E-001	0
1.2743835E+004	6.376619859569473E+001	-7.5885725E-001	-5.954700759918252E-002	4.5187677E-005	-7.5898999E-001	0
1.2703296E+004	6.396619859064231E+001	-7.6085454E-001	-5.989426166471756E-002	4.5570821E-005	-7.6098984E-001	0
1.2695439E+004	6.416619858558988E+001	-7.6286471E-001	-6.008966494923951E-002	4.5840286E-005	-7.6298976E-001	0
1.2653850E+004	6.436619858053746E+001	-7.6485640E-001	-6.044456363199495E-002	4.6231413E-005	-7.6498967E-001	0
1.2646930E+004	6.456619857548503E+001	-7.6683301E-001	-6.063392730862682E-002	4.6496098E-005	-7.6698947E-001	0
1.2599893E+004	6.476619857043261E+001	-7.6885271E-001	-6.102057592045762E-002	4.6915837E-005	-7.6898938E-001	0
1.2573409E+004	6.496619856538018E+001	-7.7086437E-001	-6.130909749788216E-002	4.7260997E-005	-7.7098930E-001	0
1.2536491E+004	6.516619856032776E+001	-7.7283490E-001	-6.164682475647221E-002	4.7642818E-005	-7.7298921E-001	0
1.2523201E+004	6.536619855527533E+001	-7.7482444E-001	-6.187111734573136E-002	4.7939255E-005	-7.7498907E-001	0
1.2460227E+004	6.556619855022291E+001	-7.7682167E-001	-6.234410310495642E-002	4.8430251E-005	-7.7698892E-001	0
1.2415896E+004	6.576619854517048E+001	-7.7882504E-001	-6.272806011218490E-002	4.8854185E-005	-7.7898890E-001	0
1.2398329E+004	6.596619854011806E+001	-7.8082085E-001	-6.297791099636163E-002	4.9174465E-005	-7.8098869E-001	0
1.2353190E+004	6.616619853506563E+001	-7.8283149E-001	-6.337079298766968E-002	4.9608654E-005	-7.8298873E-001	0
1.2320108E+004	6.636619853001321E+001	-7.8482467E-001	-6.370274057504138E-002	4.9995484E-005	-7.8498858E-001	0
1.2233789E+004	6.656619852496078E+001	-7.8682119E-001	-6.431541445426403E-002	5.0604729E-005	-7.8698850E-001	0
1.2203304E+004	6.676619851990836E+001	-7.8879237E-001	-6.463761107104915E-002	5.0985655E-005	-7.8898835E-001	0
1.2141228E+004	6.696619851485593E+001	-7.9080784E-001	-6.513409461887343E-002	5.1508552E-005	-7.9098821E-001	0
1.2083671E+004	6.716599850980856E+001	-7.9281163E-001	-6.561016525788110E-002	5.2016501E-005	-7.9298770E-001	0
1.2030320E+004	6.736599850475613E+001	-7.9479718E-001	-6.606616885316857E-002	5.2509204E-005	-7.9498804E-001	0
1.1942818E+004	6.756599849970371E+001	-7.9678893E-001	-6.671699286225241E-002	5.3159361E-005	-7.9698795E-001	0
1.1900159E+004	6.776599849465129E+001	-7.9882741E-001	-6.712745858225405E-002	5.3623255E-005	-7.9898775E-001	0
1.1819247E+004	6.796599848959886E+001	-8.0082053E-001	-6.775562987502348E-002	5.4260101E-005	-8.0098766E-001	0
1.1747498E+004	6.816599848454644E+001	-8.0281156E-001	-6.833893763874999E-002	5.4863289E-005	-8.0298758E-001	0
1.1674005E+004	6.836599847949401E+001	-8.0481732E-001	-6.894097988527514E-002	5.5484896E-005	-8.0498743E-001	0
1.1611723E+004	6.856599847444159E+001	-8.0684936E-001	-6.948575939003221E-002	5.6064542E-005	-8.0698735E-001	0
1.1516344E+004	6.876599846938916E+001	-8.0887693E-001	-7.023730274034312E-002	5.6813333E-005	-8.0898726E-001	0
1.1433953E+004	6.896599846433674E+001	-8.1080735E-001	-7.091225093693099E-002	5.7496174E-005	-8.1098717E-001	0
1.1343377E+004	6.916599845928431E+001	-8.1282729E-001	-7.165654977813141E-002	5.8244401E-005	-8.1298703E-001	0
1.1265380E+004	6.936599845423189E+001	-8.1480533E-001	-7.232826056862751E-002	5.8933452E-005	-8.1498688E-001	0
1.1168768E+004	6.956599844917946E+001	-8.1680381E-001	-7.313284849697310E-002	5.9735190E-005	-8.1698686E-001	0
1.1047435E+004	6.976599844412704E+001	-8.1885076E-001	-7.412134941040133E-002	6.0694321E-005	-8.1898665E-001	0
1.0958272E+004	6.996599843907461E+001	-8.2085097E-001	-7.490696984526979E-002	6.1487459E-005	-8.2098669E-001	0
1.0861545E+004	7.016599843402219E+001	-8.2282412E-001	-7.575571666737757E-002	6.2333631E-005	-8.2298648E-001	0
1.0753310E+004	7.036599842896976E+001	-8.2486701E-001	-7.670819668506867E-002	6.3274063E-005	-8.2498646E-001	0
1.0631459E+004	7.056599842391734E+001	-8.2687277E-001	-7.777603953240497E-002	6.4310887E-005	-8.2698631E-001	0
1.0511796E+004	7.076589841886744E+001	-8.2886267E-001	-7.885072128935389E-002	6.5356420E-005	-8.2898527E-001	0
1.0378502E+004	7.096579841381754E+001	-8.3085662E-001	-8.005554448758279E-002	6.6514680E-005	-8.3098608E-001	0
1.0262101E+004	7.116579840876511E+001	-8.3284730E-001	-8.115758142611440E-002	6.7591871E-005	-8.3298600E-001	0
1.0107210E+004	7.136579840371269E+001	-8.3484519E-001	-8.259897688382589E-002	6.8957357E-005	-8.3498591E-001	0
9.9432422E+003	7.156579839866026E+001	-8.3680332E-001	-8.415799029435456E-002	7.0423688E-005	-8.3698571E-001	0
9.7708467E+003	7.176579839360784E+001	-8.3883029E-001	-8.585031492510997E-002	7.2013841E-005	-8.3898562E-001	0
9.5816074E+003	7.196579838855541E+001	-8.4086657E-001	-8.775840442450322E-002	7.3793111E-005	-8.4098554E-001	0
9.3639941E+003	7.216579838350299E+001	-8.4285778E-001	-9.001049913768000E-002	7.5866046E-005	-8.4298539E-001	0
9.1398730E+003	7.236579837845056E+001	-8.4480673E-001	-9.243090655401254E-002	7.8086254E-005	-8.4498531E-001	0
8.8887539E+003	7.256579837339814E+001	-8.4683180E-001	-9.527002592822376E-002	8.0677688E-005	-8.4698516E-001	0
8.6237959E+003	7.276579836834571E+001	-8.4883291E-001	-9.842915363533811E-002	8.3549901E-005	-8.4898502E-001	0
8.3264727E+003	7.296579836329329E+001	-8.5085315E-001	-1.021865035117924E-001	8.6945707E-005	-8.5098505E-001	0
8.0209648E+003	7.316579835824086E+001	-8.5287178E-001	-1.063303226930272E-001	9.0686131E-005	-8.5298485E-001	0
7.7006094E+003	7.336579835318844E+001	-8.5483074E-001	-1.110081940935819E-001	9.4893214E-005	-8.5498482E-001	0
7.4090854E+003	7.356579834813601E+001	-8.5685384E-001	-1.156490715062186E-001	9.9094352E-005	-8.5698462E-001	0
7.1029014E+003	7.376579834308359E+001	-8.5883647E-001	-1.209134770115912E-001	1.0384490E-004	-8.5898453E-001	0
6.8274707E+003	7.396579833803116E+001	-8.6088657E-001	-1.260915803026128E-001	1.0855055E-004	-8.6098444E-001	0
6.5805864E+003	7.416579833297874E+001	-8.6280990E-001	-1.311144379301254E-001	1.1312684E-004	-8.6298436E-001	0
6.3581587E+003	7.436579832792631E+001	-8.6483252E-001	-1.360193345254360E-001	1.1763394E-004	-8.6498427E-001	0
6.1644287E+003	7.456569832287641E+001	-8.6683881E-001	-1.406194902071949E-001	1.2189443E-004	-8.6698478E-001	0
6.0033613E+003	7.476559831782652E+001	-8.6881649E-001	-1.447216744583246E-001	1.2573658E-004	-8.6898398E-001	0
5.8698940E+003	7.496559831277409E+001	-8.7083626E-001	-1.483563798957011E-001	1.2919412E-004	-8.7098390E-001	0
5.7579282E+003	7.516559830772167E+001	-8.7283725E-001	-1.515887720117561E-001	1.3231233E-004	-8.7298375E-001	0
5.6383076E+003	7.536559830266924E+001	-8.7481087E-001	-1.551548708209145E-001	1.3573117E-004	-8.7498367E-001	0
5.5389863E+003	7.556559829761682E+001	-8.7681627E-001	-1.582990535281499E-001	1.3879918E-004	-8.7698346E-001	0
5.4268760E+003	7.576559829256439E+001	-8.7885994E-001	-1.619458350188223E-001	1.4232771E-004	-8.7898350E-001	0
5.3174063E+003	7.596559828751197E+001	-8.8083446E-001	-1.656511554255860E-001	1.4591124E-004	-8.8098395E-001	0
5.1974224E+003	7.616559828245954E+001	-8.8283205E-001	-1.698595857038634E-001	1.4995749E-004	-8.8298392E-001	0
5.0675625E+003	7.636559827740712E+001	-8.8482761E-001	-1.746061578669629E-001	1.5449635E-004	-8.8498384E-001	0
4.9360361E+003	7.656559827235469E+001	-8.8684833E-001	-1.796681223977830E-001	1.5933838E-004	-8.8698399E-001	0
4.8004961E+003	7.676559826730227E+001	-8.8883883E-001	-1.851556249239543E-001	1.6457350E-004	-8.8898396E-001	0
4.6674541E+003	7.696559826224984E+001	-8.9082217E-001	-1.908582512641970E-001	1.7002076E-004	-8.9098388E-001	0
4.5340229E+003	7.716559825719742E+001	-8.9282483E-001	-1.969166894796013E-001	1.7581211E-004	-8.9298397E-001	0
4.4014795E+003	7.736559825214499E+001	-8.9480281E-001	-2.032959082537662E-001	1.8190975E-004	-8.9498401E-001	0
4.2750420E+003	7.756559824709257E+001	-8.9685011E-001	-2.097874465261227E-001	1.8814790E-004	-8.9698392E-001	0
4.1388687E+003	7.776559824204014E+001	-8.9881808E-001	-2.171651672639472E-001	1.9519198E-004	-8.9898390E-001	0
4.0130110E+003	7.796559823698772E+001	-9.0081310E-001	-2.244731218252083E-001	2.0220834E-004	-9.0098399E-001	0
3.8772322E+003	7.816559823193529E+001	-9.0285760E-001	-2.328613764583185E-001	2.1024066E-004	-9.0298396E-001	0
3.7247542E+003	7.836559822688287E+001	-9.0483516E-001	-2.429248023178436E-001	2.1980690E-004	-9.0498388E-001	0
3.5508232E+003	7.856559822183044E+001	-9.0684545E-001	-2.553901925045232E-001	2.3159944E-004	-9.0698403E-001	0
3.3608076E+003	7.876559821677802E+001	-9.0884274E-001	-2.704239095415488E-001	2.4577280E-004	-9.0898389E-001	0
3.1561074E+003	7.896559821172559E+001	-9.1082674E-001	-2.885918026946295E-001	2.6285712E-004	-9.1098398E-001	0
2.9488757E+003	7.916559820667317E+001	-9.1286498E-001	-3.095637273736077E-001	2.8258990E-004	-9.1298395E-001	0
2.6857832E+003	7.936559820162074E+001	-9.1484559E-001	-3.406252658180478E-001	3.1161951E-004	-9.1498393E-001	0
2.4976333E+003	7.956559819656832E+001	-9.1682649E-001	-3.670780853307107E-001	3.3654692E-004	-9.1698390E-001	0
2.3107717E+003	7.976559819151589E+001	-9.1882050E-001	-3.976249325758605E-001	3.6534594E-004	-9.1898394E-001	0
2.1312908E+003	7.996559818646347E+001	-9.2086238E-001	-4.320679313741826E-001	3.9787509E-004	-9.2098397E-001	0
1.9584369E+003	8.016559818141104E+001	-9.2280227E-001	-4.711932683671902E-001	4.3481821E-004	-9.2298394E-001	0
1.7602599E+003	8.036559817635862E+001	-9.2486393E-001	-5.254132696585789E-001	4.8593577E-004	-9.2498392E-001	0
1.6278126E+003	8.056559817130619E+001	-9.2687380E-001	-5.693983293250371E-001	5.2776042E-004	-9.2698395E-001	0
1.4964528E+003	8.076559816625377E+001	-9.2882085E-001	-6.206817172906964E-001	5.7650212E-004	-9.2898399E-001	0
1.3485281E+003	8.096559816120134E+001	-9.3084848E-001	-6.902699973603168E-001	6.4253679E-004	-9.3098396E-001	0
1.2428425E+003	8.116559815614892E+001	-9.3282938E-001	-7.505611768435869E-001	7.0014549E-004	-9.3298388E-001	0
1.1344955E+003	8.136559815109649E+001	-9.3486881E-001	-8.240392425281264E-001	7.7036861E-004	-9.3498397E-001	0
1.0378721E+003	8.156559814604407E+001	-9.3685842E-001	-9.026723269820920E-001	8.4567617E-004	-9.3698394E-001	0
9.5232544E+002	8.176559814099164E+001	-9.3884122E-001	-9.858407190665091E-001	9.2554791E-004	-9.3898392E-001	0
8.7285242E+002	8.197559813568660E+001	-9.4086713E-001	-1.077922325026314E+000	1.0141816E-003	-9.4108409E-001	0
7.9703363E+002	8.218559813038155E+001	-9.4306070E-001	-1.183213139142914E+000	1.1158418E-003	-9.4318396E-001	0
7.3945538E+002	8.238559812532912E+001	-9.4501996E-001	-1.277994547993821E+000	1.2077304E-003	-9.4518393E-001	0
6.8006134E+002	8.258559812027670E+001	-9.4701070E-001	-1.392537173415931E+000	1.3187476E-003	-9.4718397E-001	0
6.2905994E+002	8.278559811522427E+001	-9.4903451E-001	-1.508655129215953E+000	1.4317657E-003	-9.4918400E-001	0
5.8567126E+002	8.298559811017185E+001	-9.5104444E-001	-1.623853741302383E+000	1.5443570E-003	-9.5118397E-001	0
5.4585217E+002	8.318559810511942E+001	-9.5300299E-001	-1.745899356208952E+000	1.6638474E-003	-9.5318389E-001	0
5.0774808E+002	8.338559810006700E+001	-9.5503718E-001	-1.880927265687198E+000	1.7963555E-003	-9.5518398E-001	0
4.7476428E+002	8.358559809501457E+001	-9.5706391E-001	-2.015871720502570E+000	1.9293181E-003	-9.5718396E-001	0
4.4532346E+002	8.378559808996215E+001	-9.5902938E-001	-2.153556792880664E+000	2.0653242E-003	-9.5918387E-001	0
4.1874915E+002	8.398559808490973E+001	-9.6102250E-001	-2.294983784830755E+000	2.2055311E-003	-9.6118402E-001	0
3.9462805E+002	8.418559807985730E+001	-9.6304405E-001	-2.440384107314529E+000	2.3501974E-003	-9.6318388E-001	0
3.7196707E+002	8.438559807480488E+001	-9.6502841E-001	-2.594392012238771E+000	2.5036619E-003	-9.6518397E-001	0
3.5183597E+002	8.458559806975245E+001	-9.6704388E-001	-2.748564644668100E+000	2.6579825E-003	-9.6718395E-001	0
3.3299649E+002	8.478559806470003E+001	-9.6904337E-001	-2.910070856800836E+000	2.8199849E-003	-9.6918404E-001	0
3.1553735E+002	8.498559805964760E+001	-9.7104055E-001	-3.077418791734169E+000	2.9882984E-003	-9.7118402E-001	0
3.0004416E+002	8.518559805459518E+001	-9.7304159E-001	-3.242994536077629E+000	3.1555686E-003	-9.7318393E-001	0
2.8572446E+002	8.538559804954275E+001	-9.7501242E-001	-3.412422036502917E+000	3.3271539E-003	-9.7518396E-001	0
2.7222769E+002	8.558559804449033E+001	-9.7703791E-001	-3.589046685029306E+000	3.5066346E-003	-9.7718394E-001	0
2.5969641E+002	8.578559803943790E+001	-9.7904187E-001	-3.769947771008310E+000	3.6909368E-003	-9.7918391E-001	0
2.4803497E+002	8.598559803438548E+001	-9.8100865E-001	-3.955122380232325E+000	3.8800093E-003	-9.8118395E-001	0
2.3730177E+002	8.618559802933305E+001	-9.8303372E-001	-4.142546762178000E+000	4.0722634E-003	-9.8318398E-001	0
2.2705464E+002	8.638559802428063E+001	-9.8503357E-001	-4.338310581621386E+000	4.2733815E-003	-9.8518395E-001	0
2.1780045E+002	8.658559801922820E+001	-9.8701018E-001	-4.531717894400344E+000	4.4728518E-003	-9.8718387E-001	0
2.0906560E+002	8.678559801417578E+001	-9.8902202E-001	-4.730678076342661E+000	4.6787448E-003	-9.8918396E-001	0
2.0087994E+002	8.698559800912335E+001	-9.9105197E-001	-4.933553551262463E+000	4.8894081E-003	-9.9118394E-001	0
1.9318034E+002	8.718559800407093E+001	-9.9303913E-001	-5.140477177845391E+000	5.1046950E-003	-9.9318391E-001	0
1.8583942E+002	8.738559799901850E+001	-9.9503851E-001	-5.354291912413218E+000	5.3277267E-003	-9.9518389E-001	0
1.7928339E+002	8.758559799396608E+001	-9.9701101E-001	-5.561089607120358E+000	5.5444674E-003	-9.9718386E-001	0
1.7296831E+002	8.778559798891365E+001	-9.9905533E-001	-5.775944394859863E+000	5.7704882E-003	-9.9918389E-001	0
1.6693102E+002	8.798559798386123E+001	-1.0010170E+000	-5.996590836957736E+000	6.0026892E-003	-1.0011839E+000	0
1.6130260E+002	8.818559797880880E+001	-1.0030199E+000	-6.218250237050508E+000	6.2370291E-003	-1.0031840E+000	0
1.5596596E+002	8.838559797375638E+001	-1.0050144E+000	-6.443806478766362E+000	6.4761182E-003	-1.0051839E+000	0
1.5092261E+002	8.858559796870395E+001	-1.0070876E+000	-6.672874363574287E+000	6.7201690E-003	-1.0071839E+000	0
1.4616522E+002	8.878559796365153E+001	-1.0090520E+000	-6.903502753870299E+000	6.9659934E-003	-1.0091840E+000	0
1.4142070E+002	8.898559795859910E+001	-1.0110711E+000	-7.149385538771575E+000	7.2285370E-003	-1.0111839E+000	0
1.3715289E+002	8.918559795354668E+001	-1.0130465E+000	-7.386256797040708E+000	7.4826218E-003	-1.0131838E+000	0
1.3301149E+002	8.938559794849425E+001	-1.0150619E+000	-7.631384395417705E+000	7.7463272E-003	-1.0151839E+000	0
1.2914006E+002	8.958559794344183E+001	-1.0170419E+000	-7.875495370485865E+000	8.0097085E-003	-1.0171840E+000	0
1.2530539E+002	8.978559793838940E+001	-1.0190760E+000	-8.132738816089358E+000	8.2878787E-003	-1.0191839E+000	0
1.2179017E+002	8.998559793333698E+001	-1.0210662E+000	-8.383814556258073E+000	8.5604293E-003	-1.0211838E+000	0
1.1830305E+002	9.018559792828455E+001	-1.0230582E+000	-8.647775319495679E+000	8.8471770E-003	-1.0231839E+000	0
1.1499428E+002	9.038559792323213E+001	-1.0250659E+000	-8.914059863541922E+000	9.1374991E-003	-1.0251839E+000	0
1.1189373E+002	9.058559791817970E+001	-1.0270571E+000	-9.178861651088134E+000	9.4272150E-003	-1.0271839E+000	0
1.0882849E+002	9.078559791312728E+001	-1.0290772E+000	-9.455953481110825E+000	9.7309062E-003	-1.0291839E+000	0
1.0581276E+002	9.098559790807485E+001	-1.0310644E+000	-9.744235172833967E+000	1.0046934E-002	-1.0311838E+000	0
1.0296719E+002	9.118559790302243E+001	-1.0330929E+000	-1.003322335016699E+001	1.0365251E-002	-1.0331839E+000	0
1.0021427E+002	9.138559789797000E+001	-1.0350796E+000	-1.032866471958538E+001	1.0690990E-002	-1.0351839E+000	0
9.7558876E+001	9.158559789291758E+001	-1.0370609E+000	-1.063010246480673E+001	1.1024063E-002	-1.0371840E+000	0
9.4685242E+001	9.179559788761253E+001	-1.0391952E+000	-1.097526061820741E+001	1.1405438E-002	-1.0392840E+000	0
9.1926361E+001	9.200559788230748E+001	-1.0412236E+000	-1.132671412724218E+001	1.1793642E-002	-1.0413839E+000	0
8.9541695E+001	9.220559787725506E+001	-1.0432490E+000	-1.165098561539127E+001	1.2154879E-002	-1.0433840E+000	0
8.7120705E+001	9.240559787220263E+001	-1.0452033E+000	-1.199718608884587E+001	1.2539499E-002	-1.0453840E+000	0
8.4851639E+001	9.260559786715021E+001	-1.0472513E+000	-1.234214658193855E+001	1.2925330E-002	-1.0473840E+000	0
8.2558311E+001	9.280559786209778E+001	-1.0492177E+000	-1.270880743097558E+001	1.3334306E-002	-1.0493839E+000	0
8.0411697E+001	9.300559785704536E+001	-1.0512297E+000	-1.307309395993914E+001	1.3742825E-002	-1.0513839E+000	0
7.8281830E+001	9.320559785199293E+001	-1.0532305E+000	-1.345434254124049E+001	1.4170525E-002	-1.0533839E+000	0
7.6213295E+001	9.340559784694051E+001	-1.0552460E+000	-1.384595637689102E+001	1.4610890E-002	-1.0553839E+000	0
7.4173843E+001	9.360559784188808E+001	-1.0572723E+000	-1.425397728400438E+001	1.5070336E-002	-1.0573840E+000	0
7.2207230E+001	9.380559783683566E+001	-1.0592206E+000	-1.466917559308524E+001	1.5537892E-002	-1.0593840E+000	0
7.0295555E+001	9.400559783178323E+001	-1.0612301E+000	-1.509668787671868E+001	1.6021060E-002	-1.0613840E+000	0
6.8405533E+001	9.420559782673081E+001	-1.0632219E+000	-1.554292236663855E+001	1.6525576E-002	-1.0633839E+000	0
6.6543251E+001	9.440559782167838E+001	-1.0652125E+000	-1.600782231260050E+001	1.7051732E-002	-1.0653840E+000	0
6.4807449E+001	9.460559781662596E+001	-1.0672218E+000	-1.646757910108356E+001	1.7574558E-002	-1.0673840E+000	0
6.3147865E+001	9.480559781157353E+001	-1.0691831E+000	-1.693142097282842E+001	1.8102789E-002	-1.0693840E+000	0
6.1468727E+001	9.500559780652111E+001	-1.0712012E+000	-1.742676763523738E+001	1.8667575E-002	-1.0713840E+000	0
5.9890247E+001	9.520559780146868E+001	-1.0732135E+000	-1.791966950947466E+001	1.9231630E-002	-1.0733839E+000	0
5.8344162E+001	9.540559779641626E+001	-1.0752273E+000	-1.842904634297295E+001	1.9815413E-002	-1.0753840E+000	0
5.6845646E+001	9.560559779136383E+001	-1.0772085E+000	-1.894971053954416E+001	2.0412790E-002	-1.0773840E+000	0
5.5464340E+001	9.580559778631141E+001	-1.0792509E+000	-1.945846515853384E+001	2.1000566E-002	-1.0793840E+000	0
5.4070858E+001	9.600559778125898E+001	-1.0812495E+000	-1.999689870951129E+001	2.1621637E-002	-1.0813839E+000	0
5.2777195E+001	9.620559777620656E+001	-1.0832361E+000	-2.052470075786795E+001	2.2233097E-002	-1.0833839E+000	0
5.1424381E+001	9.640559777115413E+001	-1.0852171E+000	-2.110316318368160E+001	2.2901515E-002	-1.0853840E+000	0
5.0179569E+001	9.660559776610171E+001	-1.0872183E+000	-2.166655314549837E+001	2.3556273E-002	-1.0873840E+000	0
4.8947674E+001	9.680559776104928E+001	-1.0892149E+000	-2.225263855570842E+001	2.4237907E-002	-1.0893840E+000	0
4.7716507E+001	9.700559775599686E+001	-1.0912474E+000	-2.286939113386103E+001	2.4956165E-002	-1.0913839E+000	0
4.6550060E+001	9.720559775094443E+001	-1.0932218E+000	-2.348486344803484E+001	2.5674164E-002	-1.0933840E+000	0
4.5361755E+001	9.740559774589201E+001	-1.0952694E+000	-2.414521763789679E+001	2.6445519E-002	-1.0953840E+000	0
4.4316597E+001	9.760559774083958E+001	-1.0972191E+000	-2.475864893927871E+001	2.7165662E-002	-1.0973840E+000	0
4.3275555E+001	9.780559773578716E+001	-1.0992609E+000	-2.540142818562292E+001	2.7922798E-002	-1.0993840E+000	0
4.2217278E+001	9.800559773073473E+001	-1.1012282E+000	-2.608477703757302E+001	2.8725293E-002	-1.1013838E+000	0
4.1224422E+001	9.820559772568231E+001	-1.1032552E+000	-2.676217453252691E+001	2.9525507E-002	-1.1033840E+000	0
4.0208736E+001	9.840559772062988E+001	-1.1051995E+000	-2.748654975804610E+001	3.0378120E-002	-1.1053840E+000	0
3.9289936E+001	9.860559771557746E+001	-1.1072619E+000	-2.818182000443507E+001	3.1204656E-002	-1.1073840E+000	0
3.8321655E+001	9.880559771052503E+001	-1.1092527E+000	-2.894584606645327E+001	3.2108258E-002	-1.1093839E+000	0
3.7441666E+001	9.900559770547261E+001	-1.1112293E+000	-2.967895069414249E+001	3.2980118E-002	-1.1113839E+000	0
3.6554600E+001	9.920559770042019E+001	-1.1132042E+000	-3.045319078055104E+001	3.3900622E-002	-1.1133840E+000	0
3.5725399E+001	9.940559769536776E+001	-1.1152586E+000	-3.121752453228777E+001	3.4815613E-002	-1.1153840E+000	0
3.4941303E+001	9.960559769031534E+001	-1.1172380E+000	-3.197470958135563E+001	3.5723362E-002	-1.1173838E+000	0
3.4145470E+001	9.980559768526291E+001	-1.1193024E+000	-3.278040619258707E+001	3.6691189E-002	-1.1193839E+000	0
3.3404671E+001	1.000055976802105E+002	-1.1212741E+000	-3.356638774066295E+001	3.7637122E-002	-1.1213839E+000	0
3.2631199E+001	1.002055976751581E+002	-1.1232373E+000	-3.442218731833691E+001	3.8664281E-002	-1.1233839E+000	0
3.1866798E+001	1.004055976701056E+002	-1.1252346E+000	-3.531056267063622E+001	3.9732669E-002	-1.1253840E+000	0
3.1194357E+001	1.006055976650532E+002	-1.1272967E+000	-3.613784078756947E+001	4.0738069E-002	-1.1273839E+000	0
3.0533150E+001	1.008055976600008E+002	-1.1292400E+000	-3.698406575866835E+001	4.1763887E-002	-1.1293839E+000	0
2.9863461E+001	1.010055976549484E+002	-1.1312523E+000	-3.788081665590499E+001	4.2852759E-002	-1.1313839E+000	0
2.9231894E+001	1.012055976498959E+002	-1.1332498E+000	-3.876757867671444E+001	4.3933351E-002	-1.1333840E+000	0
2.8595789E+001	1.014055976448435E+002	-1.1352050E+000	-3.969832936084725E+001	4.5065742E-002	-1.1353840E+000	0
2.7927078E+001	1.016055976397911E+002	-1.1372377E+000	-4.072168331189499E+001	4.6310231E-002	-1.1373839E+000	0
2.7333670E+001	1.018055976347387E+002	-1.1392536E+000	-4.167949724332539E+001	4.7483519E-002	-1.1393839E+000	0
2.6714445E+001	1.020055976296862E+002	-1.1412572E+000	-4.272060068178064E+001	4.8755191E-002	-1.1413839E+000	0
2.6110388E+001	1.022055976246338E+002	-1.1432252E+000	-4.378430517838908E+001	5.0055321E-002	-1.1433840E+000	0
2.5528618E+001	1.024055976195814E+002	-1.1452594E+000	-4.486178464143472E+001	5.1378381E-002	-1.1453840E+000	0
2.4949703E+001	1.026055976145290E+002	-1.1472416E+000	-4.598217479144631E+001	5.2752662E-002	-1.1473839E+000	0
2.4411497E+001	1.028055976094765E+002	-1.1492444E+000	-4.707799749904211E+001	5.4104127E-002	-1.1493840E+000	0
2.3874416E+001	1.030055976044241E+002	-1.1512501E+000	-4.822107867724219E+001	5.5514522E-002	-1.1513839E+000	0
2.3327549E+001	1.032055975993717E+002	-1.1532623E+000	-4.943778039592723E+001	5.7014726E-002	-1.1533840E+000	0
2.2813696E+001	1.034055975943193E+002	-1.1552840E+000	-5.063993248809743E+001	5.8503505E-002	-1.1553839E+000	0
2.2310648E+001	1.036055975892668E+002	-1.1572468E+000	-5.186970807149021E+001	6.0026053E-002	-1.1573839E+000	0
2.1817560E+001	1.038055975842144E+002	-1.1592699E+000	-5.313471931665134E+001	6.1597481E-002	-1.1593840E+000	0
2.1345463E+001	1.040055975791620E+002	-1.1612635E+000	-5.440329488334737E+001	6.3176557E-002	-1.1613840E+000	0
2.0828054E+001	1.042055975741096E+002	-1.1632600E+000	-5.585062982219677E+001	6.4968802E-002	-1.1633840E+000	0
2.0369707E+001	1.044055975690571E+002	-1.1653053E+000	-5.720775851100461E+001	6.6664502E-002	-1.1653841E+000	0
1.9915150E+001	1.046055975640047E+002	-1.1672897E+000	-5.861315530876451E+001	6.8418533E-002	-1.1673840E+000	0
1.9452570E+001	1.048055975589523E+002	-1.1692830E+000	-6.010943429918791E+001	7.0284940E-002	-1.1693839E+000	0
1.9034002E+001	1.050055975538999E+002	-1.1713114E+000	-6.153783718150214E+001	7.2079971E-002	-1.1713839E+000	0
1.8624041E+001	1.052055975488474E+002	-1.1732887E+000	-6.299860979099685E+001	7.3915556E-002	-1.1733840E+000	0
1.8196049E+001	1.054055975437950E+002	-1.1752919E+000	-6.459049735480153E+001	7.5912692E-002	-1.1753840E+000	0
1.7796558E+001	1.056055975387426E+002	-1.1773641E+000	-6.615683945506635E+001	7.7890687E-002	-1.1773840E+000	0
1.7369928E+001	1.058055975336902E+002	-1.1793106E+000	-6.789380764744988E+001	8.0067888E-002	-1.1793839E+000	0
1.6980154E+001	1.060055975286377E+002	-1.1813711E+000	-6.957363812777442E+001	8.2192287E-002	-1.1813840E+000	0
1.6606905E+001	1.062055975235853E+002	-1.1833199E+000	-7.125469254960825E+001	8.4317096E-002	-1.1833839E+000	0
1.6246670E+001	1.064055975185329E+002	-1.1852943E+000	-7.295614082634870E+001	8.6474493E-002	-1.1853839E+000	0
1.5908836E+001	1.066055975134805E+002	-1.1873082E+000	-7.463199614126890E+001	8.8611178E-002	-1.1873840E+000	0
1.5554457E+001	1.068055975084280E+002	-1.1893424E+000	-7.646312463418690E+001	9.0940833E-002	-1.1893840E+000	0
1.5217511E+001	1.070055975033756E+002	-1.1913208E+000	-7.828617777089147E+001	9.3263946E-002	-1.1913838E+000	0
1.4879465E+001	1.072055974983232E+002	-1.1933267E+000	-8.019956992218522E+001	9.5704287E-002	-1.1933839E+000	0
1.4546019E+001	1.074055974932708E+002	-1.1953083E+000	-8.217426089743094E+001	9.8223582E-002	-1.1953840E+000	0
1.4246313E+001	1.076055974882183E+002	-1.1973305E+000	-8.404493631202871E+001	1.0062956E-001	-1.1973839E+000	0
1.3930578E+001	1.078055974831659E+002	-1.1993104E+000	-8.609193462795693E+001	1.0325096E-001	-1.1993840E+000	0
1.3664926E+001	1.080055974781135E+002	-1.2013259E+000	-8.791309338902626E+001	1.0561228E-001	-1.2013839E+000	0
1.3373155E+001	1.082055974730611E+002	-1.2033405E+000	-8.998179798710100E+001	1.0827874E-001	-1.2033840E+000	0
1.3082647E+001	1.084055974680086E+002	-1.2053158E+000	-9.213088455275897E+001	1.1104681E-001	-1.2053840E+000	0
1.2822802E+001	1.086055974629562E+002	-1.2073132E+000	-9.415362213366188E+001	1.1367291E-001	-1.2073839E+000	0
1.2529559E+001	1.088055974579038E+002	-1.2093519E+000	-9.651991134814409E+001	1.1672654E-001	-1.2093840E+000	0
1.2238562E+001	1.090055974528514E+002	-1.2113615E+000	-9.897907566807953E+001	1.1989944E-001	-1.2113839E+000	0
1.1986593E+001	1.092055974477989E+002	-1.2133216E+000	-1.012232167715388E+002	1.2281631E-001	-1.2133839E+000	0
1.1748163E+001	1.094055974427465E+002	-1.2153600E+000	-1.034510719749122E+002	1.2573031E-001	-1.2153840E+000	0
1.1509116E+001	1.096055974376941E+002	-1.2173202E+000	-1.057700830879126E+002	1.2875606E-001	-1.2173840E+000	0
1.1239390E+001	1.098055974326417E+002	-1.2193515E+000	-1.084891123609477E+002	1.3228637E-001	-1.2193840E+000	0
1.0908628E+001	1.100255974270840E+002	-1.2215029E+000	-1.119758429992228E+002	1.3677882E-001	-1.2215840E+000	0
1.0730570E+001	1.102255974220316E+002	-1.2234823E+000	-1.140183832131809E+002	1.3949947E-001	-1.2235841E+000	0
1.0505520E+001	1.104255974169791E+002	-1.2254660E+000	-1.166497310078323E+002	1.4295028E-001	-1.2255839E+000	0
1.0331982E+001	1.106255974119267E+002	-1.2275366E+000	-1.188094017738118E+002	1.4584288E-001	-1.2275839E+000	0
1.0165732E+001	1.108255974068743E+002	-1.2295046E+000	-1.209459891957220E+002	1.4870365E-001	-1.2295840E+000	0
9.9536324E+000	1.110255974018219E+002	-1.2315273E+000	-1.237264290169528E+002	1.5237248E-001	-1.2315840E+000	0
9.7473879E+000	1.112255973967694E+002	-1.2335271E+000	-1.265495023943670E+002	1.5610224E-001	-1.2335839E+000	0
9.6145468E+000	1.114255973917170E+002	-1.2354943E+000	-1.285025952916568E+002	1.5876421E-001	-1.2355839E+000	0
9.4469967E+000	1.116255973866646E+002	-1.2374887E+000	-1.309928183490733E+002	1.6210213E-001	-1.2375840E+000	0
9.2346840E+000	1.118255973816122E+002	-1.2394980E+000	-1.342220298611380E+002	1.6636793E-001	-1.2395840E+000	0
9.1047354E+000	1.120255973765597E+002	-1.2414845E+000	-1.363559212998193E+002	1.6928376E-001	-1.2415839E+000	0
8.9927359E+000	1.122255973715073E+002	-1.2434949E+000	-1.382777091651272E+002	1.7194763E-001	-1.2435840E+000	0
8.8126659E+000	1.124255973664549E+002	-1.2455405E+000	-1.413352686683072E+002	1.7603880E-001	-1.2455840E+000	0
8.6447268E+000	1.126255973614025E+002	-1.2475019E+000	-1.443078431758743E+002	1.8002430E-001	-1.2475840E+000	0
8.5147123E+000	1.128255973563500E+002	-1.2494813E+000	-1.467438085171102E+002	1.8335365E-001	-1.2495840E+000	0
8.3609991E+000	1.130255973512976E+002	-1.2514759E+000	-1.496801960635894E+002	1.8732116E-001	-1.2515839E+000	0
8.2135754E+000	1.132255973462452E+002	-1.2535123E+000	-1.526146855700308E+002	1.9130439E-001	-1.2535840E+000	0
8.1021900E+000	1.134255973411928E+002	-1.2554951E+000	-1.549575042973296E+002	1.9454838E-001	-1.2555840E+000	0
7.9796548E+000	1.136255973361403E+002	-1.2574960E+000	-1.575877698100335E+002	1.9816598E-001	-1.2575839E+000	0
7.8696070E+000	1.138255973310879E+002	-1.2594454E+000	-1.600391733965366E+002	2.0156060E-001	-1.2595840E+000	0
7.6890502E+000	1.140255973260355E+002	-1.2614695E+000	-1.640605111013997E+002	2.0695733E-001	-1.2615840E+000	0
7.5444431E+000	1.142255973209831E+002	-1.2635400E+000	-1.674795647846054E+002	2.1161713E-001	-1.2635840E+000	0
7.4747186E+000	1.144255973159306E+002	-1.2654864E+000	-1.693022036682182E+002	2.1424963E-001	-1.2655841E+000	0
7.3829341E+000	1.146255973108782E+002	-1.2675258E+000	-1.716832099696130E+002	2.1761289E-001	-1.2675840E+000	0
7.2576599E+000	1.148255973058258E+002	-1.2695041E+000	-1.749192059077920E+002	2.2206065E-001	-1.2695839E+000	0
7.1775584E+000	1.150255973007734E+002	-1.2714900E+000	-1.771479757302473E+002	2.2524187E-001	-1.2715840E+000	0
7.0324178E+000	1.152255972957209E+002	-1.2734948E+000	-1.810891911188755E+002	2.3061615E-001	-1.2735840E+000	0
6.9300513E+000	1.154255972906685E+002	-1.2754834E+000	-1.840510728894449E+002	2.3475409E-001	-1.2755840E+000	0
6.8588204E+000	1.156255972856161E+002	-1.2774636E+000	-1.862512061039072E+002	2.3792912E-001	-1.2775840E+000	0
6.7383699E+000	1.158255972805637E+002	-1.2795129E+000	-1.898846277422909E+002	2.4295983E-001	-1.2795839E+000	0
6.5962415E+000	1.160255972755112E+002	-1.2815157E+000	-1.942796852139927E+002	2.4897248E-001	-1.2815839E+000	0
6.5222950E+000	1.162255972704588E+002	-1.2835128E+000	-1.967885218174820E+002	2.5258058E-001	-1.2835841E+000	0
6.4490604E+000	1.164255972654064E+002	-1.2855042E+000	-1.993320103816163E+002	2.5624213E-001	-1.2855840E+000	0
6.3602695E+000	1.166255972603540E+002	-1.2874929E+000	-2.024273998083178E+002	2.6062384E-001	-1.2875839E+000	0
6.2167625E+000	1.168255972553015E+002	-1.2895327E+000	-2.074283234883869E+002	2.6748559E-001	-1.2895840E+000	0
6.1654043E+000	1.170255972502491E+002	-1.2914976E+000	-2.094749196240691E+002	2.7053636E-001	-1.2915839E+000	0
6.1098280E+000	1.172255972451967E+002	-1.2935302E+000	-2.117130376162722E+002	2.7385721E-001	-1.2935840E+000	0
6.0374007E+000	1.174255972401443E+002	-1.2955203E+000	-2.145824621680642E+002	2.7799594E-001	-1.2955840E+000	0
5.9553499E+000	1.176255972350918E+002	-1.2975236E+000	-2.178752952865461E+002	2.8269833E-001	-1.2975839E+000	0
5.8725667E+000	1.178255972300394E+002	-1.2995181E+000	-2.212862237251269E+002	2.8756547E-001	-1.2995839E+000	0
5.7711520E+000	1.180255972249870E+002	-1.3015248E+000	-2.255225304713867E+002	2.9352316E-001	-1.3015839E+000	0
5.6783791E+000	1.182255972199346E+002	-1.3035210E+000	-2.295586451554250E+002	2.9923451E-001	-1.3035840E+000	0
5.6388412E+000	1.184255972148821E+002	-1.3055224E+000	-2.315231815973912E+002	3.0225870E-001	-1.3055840E+000	0
5.5471978E+000	1.186255972098297E+002	-1.3075435E+000	-2.357124399630648E+002	3.0820426E-001	-1.3075839E+000	0
5.4631505E+000	1.188255972047773E+002	-1.3095156E+000	-2.396997113411662E+002	3.1389052E-001	-1.3095839E+000	0
5.4111190E+000	1.190255971997249E+002	-1.3115410E+000	-2.423788759054242E+002	3.1788981E-001	-1.3115840E+000	0
5.3354883E+000	1.192255971946724E+002	-1.3135363E+000	-2.461885714217383E+002	3.2337761E-001	-1.3135840E+000	0
5.2680426E+000	1.194255971896200E+002	-1.3155173E+000	-2.497165234840382E+002	3.2850641E-001	-1.3155839E+000	0
5.2100086E+000	1.196255971845676E+002	-1.3175364E+000	-2.528856481067717E+002	3.3318603E-001	-1.3175840E+000	0
5.1278138E+000	1.198255971795152E+002	-1.3195500E+000	-2.573319021493116E+002	3.3956233E-001	-1.3195839E+000	0
5.0573525E+000	1.200257971744577E+002	-1.3215414E+000	-2.613109142897098E+002	3.4533319E-001	-1.3215854E+000	0
5.0359855E+000	1.202260971693977E+002	-1.3235837E+000	-2.628251640514781E+002	3.4787109E-001	-1.3235888E+000	0
4.9835348E+000	1.204262971643402E+002	-1.3255866E+000	-2.659932248838663E+002	3.5259706E-001	-1.3255908E+000	0
4.9509263E+000	1.206267971592752E+002	-1.3276254E+000	-2.681569773214319E+002	3.5601202E-001	-1.3275955E+000	0
4.8485909E+000	1.208271971542126E+002	-1.3295925E+000	-2.742224435150175E+002	3.6460409E-001	-1.3295995E+000	0
4.7816129E+000	1.210275971491501E+002	-1.3316007E+000	-2.784835820414219E+002	3.7082893E-001	-1.3316035E+000	0
4.7308640E+000	1.212278971440901E+002	-1.3336337E+000	-2.819006570042311E+002	3.7595221E-001	-1.3336067E+000	0
4.6287460E+000	1.214283971390250E+002	-1.3356485E+000	-2.885551472995157E+002	3.8540825E-001	-1.3356112E+000	0
4.5961204E+000	1.216290971339549E+002	-1.3375933E+000	-2.910266210201644E+002	3.8927525E-001	-1.3376182E+000	0
4.5233474E+000	1.218295971288899E+002	-1.3396430E+000	-2.961618645707391E+002	3.9675117E-001	-1.3396239E+000	0
4.4706478E+000	1.220296971238349E+002	-1.3415962E+000	-3.000898991635349E+002	4.0259948E-001	-1.3416247E+000	0
4.4345565E+000	1.222298971187774E+002	-1.3436007E+000	-3.029842532497534E+002	4.0708986E-001	-1.3436270E+000	0
4.4124584E+000	1.224299971137225E+002	-1.3455999E+000	-3.049546812568120E+002	4.1034698E-001	-1.3456274E+000	0
4.3432565E+000	1.226305971086549E+002	-1.3476559E+000	-3.102869785680623E+002	4.1816008E-001	-1.3476335E+000	0
4.2860847E+000	1.228309971035924E+002	-1.3496437E+000	-3.148896437478925E+002	4.2498884E-001	-1.3496374E+000	0
4.2423692E+000	1.230313970985299E+002	-1.3516809E+000	-3.186146333379556E+002	4.3066531E-001	-1.3516414E+000	0
4.1506305E+000	1.232319970934623E+002	-1.3536752E+000	-3.261372632904236E+002	4.4148394E-001	-1.3536474E+000	0
4.1014395E+000	1.234322970884023E+002	-1.3556774E+000	-3.305369787109976E+002	4.4810149E-001	-1.3556508E+000	0
4.0883102E+000	1.236323970833473E+002	-1.3576529E+000	-3.320816696257816E+002	4.5085165E-001	-1.3576521E+000	0
4.0823259E+000	1.238323970782949E+002	-1.3596580E+000	-3.330596278876124E+002	4.5284718E-001	-1.3596519E+000	0
4.0616393E+000	1.240326970732349E+002	-1.3616647E+000	-3.352500317615085E+002	4.5649812E-001	-1.3616546E+000	0
4.0501118E+000	1.242329970681749E+002	-1.3636941E+000	-3.367052874988676E+002	4.5916301E-001	-1.3636575E+000	0
3.9968524E+000	1.244333970631124E+002	-1.3656735E+000	-3.416872620435315E+002	4.6663326E-001	-1.3656614E+000	0
3.9633038E+000	1.246336970580523E+002	-1.3677168E+000	-3.450951184235937E+002	4.7199237E-001	-1.3676648E+000	0
3.8905823E+000	1.248339970529923E+002	-1.3697606E+000	-3.520708614945238E+002	4.8225281E-001	-1.3696674E+000	0
3.8444602E+000	1.250343970479298E+002	-1.3716925E+000	-3.567971615933511E+002	4.8941600E-001	-1.3716716E+000	0
3.8099563E+000	1.252348970428648E+002	-1.3737442E+000	-3.605669213676124E+002	4.9532673E-001	-1.3736767E+000	0
3.7739716E+000	1.254351970378048E+002	-1.3757021E+000	-3.645237224998582E+002	5.0147605E-001	-1.3756795E+000	0
3.7273126E+000	1.256355970327422E+002	-1.3777490E+000	-3.696360272981328E+002	5.0926566E-001	-1.3776834E+000	0
3.6936936E+000	1.258359970276797E+002	-1.3796968E+000	-3.735276918534273E+002	5.1535499E-001	-1.3796873E+000	0
3.6553297E+000	1.260366970226096E+002	-1.3817537E+000	-3.780106934404430E+002	5.2231765E-001	-1.3816941E+000	0
3.6445460E+000	1.262371970175445E+002	-1.3838087E+000	-3.796930317213464E+002	5.2542251E-001	-1.3836995E+000	0
3.6046271E+000	1.264377970124769E+002	-1.3858609E+000	-3.844672076455772E+002	5.3281808E-001	-1.3857054E+000	0
3.5882947E+000	1.266381970074144E+002	-1.3877569E+000	-3.867455286655104E+002	5.3670877E-001	-1.3877096E+000	0
3.5739572E+000	1.268385970023519E+002	-1.3897768E+000	-3.888621785232976E+002	5.4043162E-001	-1.3897135E+000	0
3.5371022E+000	1.270388969972919E+002	-1.3918030E+000	-3.934868006442730E+002	5.4765612E-001	-1.3917168E+000	0
3.4532118E+000	1.272393969922268E+002	-1.3937838E+000	-4.036195551967194E+002	5.6255841E-001	-1.3937212E+000	0
3.4073586E+000	1.274399969871592E+002	-1.3958106E+000	-4.096459248452184E+002	5.7178813E-001	-1.3957274E+000	0
3.4052875E+000	1.276401969821018E+002	-1.3977702E+000	-4.104705406158209E+002	5.7374346E-001	-1.3977299E+000	0
3.3531809E+000	1.278401969770493E+002	-1.3998083E+000	-4.174568294819255E+002	5.8435953E-001	-1.3997300E+000	0
3.2965791E+000	1.280402969719944E+002	-1.4018309E+000	-4.252380492036373E+002	5.9611183E-001	-1.4017309E+000	0
3.2721405E+000	1.282404969669369E+002	-1.4038268E+000	-4.290240150678903E+002	6.0227543E-001	-1.4037329E+000	0
3.2460096E+000	1.284407969618769E+002	-1.4058254E+000	-4.330934003814327E+002	6.0885370E-001	-1.4057353E+000	0
3.2222033E+000	1.286411969568144E+002	-1.4078449E+000	-4.369199634306515E+002	6.1511552E-001	-1.4077395E+000	0
3.1926856E+000	1.288413969517569E+002	-1.4098361E+000	-4.415831098664639E+002	6.2255979E-001	-1.4097420E+000	0
3.1468654E+000	1.290414969467020E+002	-1.4118332E+000	-4.486474602274021E+002	6.3341534E-001	-1.4117429E+000	0
3.1476884E+000	1.292417969416420E+002	-1.4138359E+000	-4.491663975103511E+002	6.3504755E-001	-1.4137455E+000	0
3.0967760E+000	1.294421969365794E+002	-1.4158351E+000	-4.571964823837425E+002	6.4731485E-001	-1.4157494E+000	0
3.0897427E+000	1.296424969315194E+002	-1.4178584E+000	-4.588920416855890E+002	6.5064394E-001	-1.4177529E+000	0
3.0652459E+000	1.298429969264544E+002	-1.4198678E+000	-4.632149724610149E+002	6.5770400E-001	-1.4197574E+000	0
3.0372791E+000	1.300433969213918E+002	-1.4218223E+000	-4.681236939073287E+002	6.6558874E-001	-1.4217615E+000	0
3.0132306E+000	1.302435969163344E+002	-1.4238430E+000	-4.725304101913698E+002	6.7280912E-001	-1.4237639E+000	0
2.9874625E+000	1.304435969112819E+002	-1.4258326E+000	-4.772721451307334E+002	6.8051022E-001	-1.4257637E+000	0
2.9819012E+000	1.306435969062295E+002	-1.4278531E+000	-4.788398318647560E+002	6.8371296E-001	-1.4277637E+000	0
2.9642224E+000	1.308435969011771E+002	-1.4298520E+000	-4.823700079366463E+002	6.8971771E-001	-1.4297637E+000	0
2.9207199E+000	1.310435968961247E+002	-1.4318908E+000	-4.902527343118563E+002	7.0198840E-001	-1.4317638E+000	0
2.8938925E+000	1.312435968910722E+002	-1.4338757E+000	-4.954833881568484E+002	7.1046156E-001	-1.4337639E+000	0
2.8847904E+000	1.314435968860198E+002	-1.4358691E+000	-4.977377606822249E+002	7.1468627E-001	-1.4357637E+000	0
2.8807328E+000	1.316435968809674E+002	-1.4378603E+000	-4.991300525405786E+002	7.1767926E-001	-1.4377637E+000	0
2.8716350E+000	1.318435968759150E+002	-1.4398822E+000	-5.014154779559613E+002	7.2197920E-001	-1.4397638E+000	0
2.8493648E+000	1.320435968708625E+002	-1.4419169E+000	-5.060485738291518E+002	7.2968000E-001	-1.4417638E+000	0
2.8187399E+000	1.322435968658101E+002	-1.4439108E+000	-5.122540123176150E+002	7.3964912E-001	-1.4437637E+000	0
2.7811081E+000	1.324435968607577E+002	-1.4459033E+000	-5.199018702171825E+002	7.5172782E-001	-1.4457638E+000	0
2.7520552E+000	1.326435968557053E+002	-1.4478664E+000	-5.261036976621813E+002	7.6172787E-001	-1.4477637E+000	0
2.7392077E+000	1.328435968506528E+002	-1.4499027E+000	-5.293145886289294E+002	7.6745462E-001	-1.4497638E+000	0
2.7359843E+000	1.330435968456004E+002	-1.4519169E+000	-5.306744406520627E+002	7.7049524E-001	-1.4517637E+000	0
2.6915400E+000	1.332435968405480E+002	-1.4538727E+000	-5.401638629852769E+002	7.8532946E-001	-1.4537637E+000	0
2.6728642E+000	1.334435968354956E+002	-1.4558785E+000	-5.446885225334927E+002	7.9300028E-001	-1.4557638E+000	0
2.6696613E+000	1.336435968304431E+002	-1.4579220E+000	-5.461074761198206E+002	7.9618210E-001	-1.4577638E+000	0
2.6473951E+000	1.338435968253907E+002	-1.4598874E+000	-5.514429451170408E+002	8.0504459E-001	-1.4597638E+000	0
2.6267691E+000	1.340435968203383E+002	-1.4619448E+000	-5.565562741372585E+002	8.1365454E-001	-1.4617639E+000	0
2.6140676E+000	1.342435968152859E+002	-1.4638885E+000	-5.600040689239140E+002	8.1978351E-001	-1.4637637E+000	0
2.6161792E+000	1.344435968102334E+002	-1.4659585E+000	-5.603432823881813E+002	8.2143998E-001	-1.4657636E+000	0
2.6100583E+000	1.346435968051810E+002	-1.4679546E+000	-5.624221738395781E+002	8.2561022E-001	-1.4677637E+000	0
2.5990145E+000	1.347835968016443E+002	-1.4693052E+000	-5.653316340414076E+002	8.3064467E-001	-1.4691637E+000	0
2.5926812E+000	1.348141968008713E+002	-1.4696633E+000	-5.668507283528652E+002	8.3307970E-001	-1.4696635E+000	1