EC-Lab ASCII FILE
Nb header lines : 62                          

Linear Sweep Voltammetry

Run on channel : 1 (SN 1340)
User : 
Electrode connection : standard
Potential control : Ewe
Ewe ctrl range : min = -5.00 V, max = 5.00 V
Ewe,I filtering : 50 kHz
Channel : Grounded
Acquisition started on : 11/06/2025 12:13:22.882
Technique started on : 11/06/2025 12:13:22.882
Loaded Setting File :  C:\Users\volt\Documents\Platalytix\PtPdNi_Test1Rerun_C01.mpr
Saved on :
	File : PtPdCo_Test1Rerun_C01.mpr
	Directory : C:\Users\volt\Documents\Platalytix\
	Host : 127.0.0.1
Device : SP-200 (SN 0262)
Address : USB
EC-LAB for windows v11.60 (software)
Internet server v11.60 (firmware)
Command interpretor v11.60 (firmware)
Electrode material : PtPdCo
Initial state : 
Electrolyte : KOH (1M)
Comments : 
Cable : standard
Reference electrode : Hg/HgO (0.140 V)
Electrode surface area : 1.000 cm˛
Characteristic mass : 0.001 g
Volume (V) : 0.001 cmł
Thickness (t) : 0.000 cm
Diameter (d) : 0.000 cm
Cell constant (k=t/A) : 0.000 cm-1
Cycle Definition : Charge/Discharge alternance
tR (h:m:s)          0:00:5.0000         
dER/dt (mV/h)       0.0                 
dER (mV)            0                   
dtR (s)             0.0000              
dE/dt               10.000              
dE/dt unit          mV/s                
Ei (V)              -0.200              
vs.                 Ref                 
EL (V)              -2.200              
vs.                 Ref                 
record              <I>                 
dI                  0.000               
unit dI             µA                  
tI (s)              0.0000              
step percent        50                  
N                   10                  
E range min (V)     -5.000              
E range max (V)     5.000               
I Range             Auto                
I Range min         Unset               
I Range max         Unset               
I Range init        Unset               
Bandwidth           8                   

<I>/mA	Ewe/V	control/V	Rwe/Ohm	time/s	
0.000000000000000E+000	6.5802947E-002	0.0000000E+000	0.0000000E+000	0.000000000000000E+000
0.000000000000000E+000	6.5837324E-002	-1.9982237E-001	0.0000000E+000	4.999799873694428E+000
-7.046716261554411E-001	-2.0132871E-001	-2.0112209E-001	2.8570572E+002	5.139799870157731E+000
-5.417678528961627E-001	-2.0242794E-001	-2.0222208E-001	3.7364331E+002	5.249799867378897E+000
-4.105916979971496E-001	-2.0452979E-001	-2.0432198E-001	4.9813425E+002	5.459799862073851E+000
-3.549233317658174E-001	-2.0663483E-001	-2.0642187E-001	5.8219568E+002	5.669799856768805E+000
-3.244603328858759E-001	-2.0865390E-001	-2.0842177E-001	6.4307983E+002	5.869799851716380E+000
-3.037559165072348E-001	-2.1065432E-001	-2.1042168E-001	6.9349866E+002	6.069799846663955E+000
-2.885731856640685E-001	-2.1265388E-001	-2.1242155E-001	7.3691486E+002	6.269799841611530E+000
-2.769614746604024E-001	-2.1464197E-001	-2.1442145E-001	7.7498859E+002	6.469799836559105E+000
-2.677664753058056E-001	-2.1666424E-001	-2.1642135E-001	8.0915375E+002	6.669799831506680E+000
-2.602690674993884E-001	-2.1864322E-001	-2.1842127E-001	8.4006610E+002	6.869799826454255E+000
-2.540643208759443E-001	-2.2063622E-001	-2.2042117E-001	8.6842664E+002	7.069799821401830E+000
-2.489279439385630E-001	-2.2263430E-001	-2.2242106E-001	8.9437250E+002	7.269799816349405E+000
-2.445269238368489E-001	-2.2462153E-001	-2.2442096E-001	9.1859631E+002	7.469799811296980E+000
-2.408036224442682E-001	-2.2663257E-001	-2.2642086E-001	9.4115100E+002	7.669799806244555E+000
-2.376088262018232E-001	-2.2862725E-001	-2.2842075E-001	9.6220013E+002	7.869799801192130E+000
-2.348327566711168E-001	-2.3062299E-001	-2.3042065E-001	9.8207336E+002	8.069799796139705E+000
-2.325485416491628E-001	-2.3263592E-001	-2.3242053E-001	1.0003757E+003	8.269799791087280E+000
-2.305011758749753E-001	-2.3462363E-001	-2.3442043E-001	1.0178847E+003	8.469799786034855E+000
-2.286959370756430E-001	-2.3663123E-001	-2.3642102E-001	1.0346980E+003	8.669699780984956E+000
-2.271013215581221E-001	-2.3863290E-001	-2.3842025E-001	1.0507772E+003	8.869599775935058E+000
-2.257174546777563E-001	-2.4062485E-001	-2.4042015E-001	1.0660444E+003	9.069599770882633E+000
-2.245706048162655E-001	-2.4262822E-001	-2.4242006E-001	1.0804095E+003	9.269599765830208E+000
-2.235309933217200E-001	-2.4463290E-001	-2.4441993E-001	1.0944026E+003	9.469599760777783E+000
-2.226631749809935E-001	-2.4661992E-001	-2.4641983E-001	1.1075919E+003	9.669599755725358E+000
-2.219382470828446E-001	-2.4862839E-001	-2.4841972E-001	1.1202593E+003	9.869599750672933E+000
-2.213280305135430E-001	-2.5062543E-001	-2.5041962E-001	1.1323710E+003	1.006959974562051E+001
-2.207753461090816E-001	-2.5264472E-001	-2.5241953E-001	1.1443521E+003	1.026959974056808E+001
-2.202979863437560E-001	-2.5461882E-001	-2.5441945E-001	1.1557928E+003	1.046959973551566E+001
-2.198752794549923E-001	-2.5662732E-001	-2.5641933E-001	1.1671495E+003	1.066959973046323E+001
-2.195812395590107E-001	-2.5861728E-001	-2.5841922E-001	1.1777749E+003	1.086959972541081E+001
-2.192406990922255E-001	-2.6061794E-001	-2.6041913E-001	1.1887297E+003	1.106959972035838E+001
-2.189076424274350E-001	-2.6261154E-001	-2.6241902E-001	1.1996454E+003	1.126959971530596E+001
-2.185917553827674E-001	-2.6461622E-001	-2.6441893E-001	1.2105499E+003	1.146959971025353E+001
-2.182398823907192E-001	-2.6661152E-001	-2.6641884E-001	1.2216443E+003	1.166959970520111E+001
-2.180532340167285E-001	-2.6860473E-001	-2.6841873E-001	1.2318309E+003	1.186959970014868E+001
-2.179791809285643E-001	-2.7062038E-001	-2.7041861E-001	1.2414965E+003	1.206959969509626E+001
-2.179430577557648E-001	-2.7262765E-001	-2.7241853E-001	1.2509124E+003	1.226959969004383E+001
-2.179138214552822E-001	-2.7459788E-001	-2.7441779E-001	1.2601215E+003	1.246949968499393E+001
-2.179419165097025E-001	-2.7659261E-001	-2.7641833E-001	1.2691116E+003	1.266939967994404E+001
-2.180503003463953E-001	-2.7861249E-001	-2.7841824E-001	1.2777441E+003	1.286939967489161E+001
-2.180759058188220E-001	-2.8060722E-001	-2.8041810E-001	1.2867411E+003	1.306939966983919E+001
-2.178860551840258E-001	-2.8261375E-001	-2.8241804E-001	1.2970713E+003	1.326939966478676E+001
-2.176660506853025E-001	-2.8461421E-001	-2.8441793E-001	1.3075728E+003	1.346939965973434E+001
-2.176692496474130E-001	-2.8661436E-001	-2.8641781E-001	1.3167426E+003	1.366939965468191E+001
-2.175201695188536E-001	-2.8860694E-001	-2.8841773E-001	1.3268054E+003	1.386939964962949E+001
-2.172985272460908E-001	-2.9061052E-001	-2.9041758E-001	1.3373792E+003	1.406939964457706E+001
-2.171496881526847E-001	-2.9259697E-001	-2.9241750E-001	1.3474436E+003	1.426939963952464E+001
-2.173068887742060E-001	-2.9459926E-001	-2.9441741E-001	1.3556831E+003	1.446939963447221E+001
-2.173958665684972E-001	-2.9660475E-001	-2.9641730E-001	1.3643533E+003	1.466939962941979E+001
-2.179383354730344E-001	-2.9860729E-001	-2.9841721E-001	1.3701458E+003	1.486939962436736E+001
-2.182811036359630E-001	-3.0061513E-001	-3.0041710E-001	1.3771926E+003	1.506939961931494E+001
-2.183224502127290E-001	-3.0260941E-001	-3.0241701E-001	1.3860664E+003	1.526939961426251E+001
-2.187750231930798E-001	-3.0461320E-001	-3.0441689E-001	1.3923583E+003	1.546939960921009E+001
-2.191560766670242E-001	-3.0660981E-001	-3.0641678E-001	1.3990477E+003	1.566939960415766E+001
-2.210263385418436E-001	-3.0861488E-001	-3.0841672E-001	1.3962810E+003	1.586939959910524E+001
-2.210933201927325E-001	-3.1063694E-001	-3.1041658E-001	1.4050037E+003	1.606939959405281E+001
-2.210412755642348E-001	-3.1261718E-001	-3.1241649E-001	1.4142932E+003	1.626939958900039E+001
-2.206329012739023E-001	-3.1461868E-001	-3.1441638E-001	1.4259825E+003	1.646929958395049E+001
-2.204234368144586E-001	-3.1661630E-001	-3.1641629E-001	1.4364003E+003	1.666919957890059E+001
-2.200907953210236E-001	-3.1862649E-001	-3.1841621E-001	1.4477047E+003	1.686919957384816E+001
-2.198138426241725E-001	-3.2061142E-001	-3.2041609E-001	1.4585588E+003	1.706919956879574E+001
-2.200965350261486E-001	-3.2259759E-001	-3.2241598E-001	1.4657096E+003	1.726919956374331E+001
-2.200097239548819E-001	-3.2461563E-001	-3.2441586E-001	1.4754603E+003	1.746919955869089E+001
-2.198412693221787E-001	-3.2660669E-001	-3.2641575E-001	1.4856478E+003	1.766919955363846E+001
-2.200421929283398E-001	-3.2861131E-001	-3.2841569E-001	1.4934014E+003	1.786919954858604E+001
-2.201277775512566E-001	-3.3061218E-001	-3.3041558E-001	1.5019103E+003	1.806919954353361E+001
-2.200445623967022E-001	-3.3261809E-001	-3.3241546E-001	1.5115942E+003	1.826919953848119E+001
-2.198748748724150E-001	-3.3460939E-001	-3.3441538E-001	1.5218173E+003	1.846919953342876E+001
-2.192576584129542E-001	-3.3663547E-001	-3.3641529E-001	1.5353419E+003	1.866919952837634E+001
-2.185591410870869E-001	-3.3862084E-001	-3.3841518E-001	1.5493328E+003	1.886919952332391E+001
-2.179449589990594E-001	-3.4061489E-001	-3.4041506E-001	1.5628481E+003	1.906919951827149E+001
-2.177564383203550E-001	-3.4261847E-001	-3.4241498E-001	1.5734022E+003	1.926919951321906E+001
-2.174948415340952E-001	-3.4463015E-001	-3.4441486E-001	1.5845441E+003	1.946919950816664E+001
-2.174435373091566E-001	-3.4660378E-001	-3.4641474E-001	1.5939944E+003	1.966919950311421E+001
-2.171930571333798E-001	-3.4862223E-001	-3.4841469E-001	1.6051261E+003	1.986919949806179E+001
-2.168708086550195E-001	-3.5062796E-001	-3.5041457E-001	1.6167596E+003	2.006919949300936E+001
-2.164258523390132E-001	-3.5261077E-001	-3.5241443E-001	1.6292451E+003	2.026919948795694E+001
-2.161119956257984E-001	-3.5460803E-001	-3.5441503E-001	1.6408530E+003	2.046909948290704E+001
-2.158549321570398E-001	-3.5661161E-001	-3.5641423E-001	1.6520892E+003	2.066899947785714E+001
-2.155143314330519E-001	-3.5861543E-001	-3.5841414E-001	1.6639980E+003	2.086899947280472E+001
-2.153441988189368E-001	-3.6062789E-001	-3.6041409E-001	1.6746581E+003	2.106899946775229E+001
-2.149089594242797E-001	-3.6260393E-001	-3.6241394E-001	1.6872444E+003	2.126899946269987E+001
-2.144404738875370E-001	-3.6460304E-001	-3.6441386E-001	1.7002529E+003	2.146899945764744E+001
-2.139176176332960E-001	-3.6660901E-001	-3.6641374E-001	1.7137859E+003	2.166899945259502E+001
-2.137157826678084E-001	-3.6861283E-001	-3.6841366E-001	1.7247805E+003	2.186899944754259E+001
-2.141715837727030E-001	-3.7060198E-001	-3.7041354E-001	1.7303976E+003	2.206899944249017E+001
-2.176563664362714E-001	-3.7259772E-001	-3.7241343E-001	1.7118623E+003	2.226899943743774E+001
-2.187518360549392E-001	-3.7460849E-001	-3.7441334E-001	1.7124816E+003	2.246899943238532E+001
-2.185591567168328E-001	-3.7660640E-001	-3.7641323E-001	1.7231326E+003	2.266899942733289E+001
-2.183686262630182E-001	-3.7859872E-001	-3.7841317E-001	1.7337596E+003	2.286899942228047E+001
-2.182964856468157E-001	-3.8061059E-001	-3.8041306E-001	1.7435488E+003	2.306899941722804E+001
-2.178402770069887E-001	-3.8259998E-001	-3.8241297E-001	1.7563326E+003	2.326899941217562E+001
-2.174278375251297E-001	-3.8462159E-001	-3.8441283E-001	1.7689620E+003	2.346899940712319E+001
-2.171156478310827E-001	-3.8663495E-001	-3.8641271E-001	1.7807788E+003	2.366899940207077E+001
-2.167329122491868E-001	-3.8861457E-001	-3.8841262E-001	1.7930575E+003	2.386899939701834E+001
-2.164575114081737E-001	-3.9062303E-001	-3.9041254E-001	1.8046176E+003	2.406899939196592E+001
-2.160088921202723E-001	-3.9260966E-001	-3.9241150E-001	1.8175625E+003	2.426889938691602E+001
-2.151652563219708E-001	-3.9460054E-001	-3.9441234E-001	1.8339418E+003	2.446879938186612E+001
-2.150872941899736E-001	-3.9661625E-001	-3.9641222E-001	1.8439780E+003	2.466879937681369E+001
-2.145071687269740E-001	-3.9860874E-001	-3.9841214E-001	1.8582537E+003	2.486879937176127E+001
-2.137493072880137E-001	-4.0061262E-001	-4.0041202E-001	1.8742172E+003	2.506879936670884E+001
-2.128298505866177E-001	-4.0262195E-001	-4.0241194E-001	1.8917551E+003	2.526879936165642E+001
-2.120973983179777E-001	-4.0462425E-001	-4.0441182E-001	1.9077285E+003	2.546879935660400E+001
-2.117966789659316E-001	-4.0662208E-001	-4.0641174E-001	1.9198700E+003	2.566879935155157E+001
-2.108745499326097E-001	-4.0862721E-001	-4.0841159E-001	1.9377739E+003	2.586879934649915E+001
-2.101763697286172E-001	-4.1061702E-001	-4.1041154E-001	1.9536783E+003	2.606879934144672E+001
-2.090845834294883E-001	-4.1264394E-001	-4.1241145E-001	1.9735742E+003	2.626879933639430E+001
-2.085365017077749E-001	-4.1463673E-001	-4.1441131E-001	1.9883173E+003	2.646879933134187E+001
-2.077914568048627E-001	-4.1665369E-001	-4.1641125E-001	2.0051532E+003	2.666879932628945E+001
-2.068267899170485E-001	-4.1864496E-001	-4.1841111E-001	2.0241332E+003	2.686879932123702E+001
-2.054817416407424E-001	-4.2064753E-001	-4.2041105E-001	2.0471285E+003	2.706879931618460E+001
-2.042814231838808E-001	-4.2264390E-001	-4.2241091E-001	2.0689297E+003	2.726879931113217E+001
-2.035189397155794E-001	-4.2463243E-001	-4.2441085E-001	2.0864517E+003	2.746879930607975E+001
-2.023629452779789E-001	-4.2664146E-001	-4.2641070E-001	2.1082983E+003	2.766879930102732E+001
-2.011429100316395E-001	-4.2864621E-001	-4.2841062E-001	2.1310530E+003	2.786879929597490E+001
-2.001053616805795E-001	-4.3065378E-001	-4.3041050E-001	2.1521353E+003	2.806879929092247E+001
-1.990123027743671E-001	-4.3264270E-001	-4.3240952E-001	2.1739495E+003	2.826869928587257E+001
-1.992920267875071E-001	-4.3463996E-001	-4.3441030E-001	2.1809199E+003	2.846859928082267E+001
-1.983487320210688E-001	-4.3665692E-001	-4.3641019E-001	2.2014607E+003	2.866859927577025E+001
-1.956108675914860E-001	-4.3866369E-001	-4.3841013E-001	2.2425322E+003	2.886859927071782E+001
-1.941034697300319E-001	-4.4067153E-001	-4.4040999E-001	2.2702920E+003	2.906859926566540E+001
-1.930537574856954E-001	-4.4265541E-001	-4.4240993E-001	2.2929126E+003	2.926859926061297E+001
-1.915453275108110E-001	-4.4464481E-001	-4.4440979E-001	2.3213555E+003	2.946859925556055E+001
-1.900265866250654E-001	-4.4665986E-001	-4.4640967E-001	2.3505125E+003	2.966859925050812E+001
-1.884968880650560E-001	-4.4863671E-001	-4.4840962E-001	2.3800750E+003	2.986859924545570E+001
-1.873701714114393E-001	-4.5065901E-001	-4.5040950E-001	2.4051802E+003	3.006859924040327E+001
-1.859373416278569E-001	-4.5265022E-001	-4.5240945E-001	2.4344233E+003	3.026859923535085E+001
-1.842882212720256E-001	-4.5463809E-001	-4.5440924E-001	2.4669949E+003	3.046859923029842E+001
-1.828061174527393E-001	-4.5664430E-001	-4.5640925E-001	2.4979705E+003	3.066859922524600E+001
-1.830324020538736E-001	-4.5866615E-001	-4.5840910E-001	2.5059287E+003	3.086859922019357E+001
-1.804082622179282E-001	-4.6067694E-001	-4.6040905E-001	2.5535247E+003	3.106859921514115E+001
-1.790370135821506E-001	-4.6263787E-001	-4.6240890E-001	2.5840347E+003	3.126859921008872E+001
-1.774339346339722E-001	-4.6464300E-001	-4.6440879E-001	2.6186816E+003	3.146859920503630E+001
-1.759031070047854E-001	-4.6664742E-001	-4.6640870E-001	2.6528662E+003	3.166859919998387E+001
-1.743556645544677E-001	-4.6863696E-001	-4.6840855E-001	2.6878218E+003	3.186859919493145E+001
-1.725607654269861E-001	-4.7064146E-001	-4.7040850E-001	2.7273955E+003	3.206859918987902E+001
-1.706200376007834E-001	-4.7262809E-001	-4.7240838E-001	2.7700620E+003	3.226849918482912E+001
-1.684869515821507E-001	-4.7462338E-001	-4.7440830E-001	2.8169741E+003	3.246839917977923E+001
-1.664016652322222E-001	-4.7664076E-001	-4.7640815E-001	2.8643989E+003	3.266839917472680E+001
-1.644956316469474E-001	-4.7863588E-001	-4.7840810E-001	2.9097178E+003	3.286839916967438E+001
-1.623545888053199E-001	-4.8064286E-001	-4.8040798E-001	2.9604514E+003	3.306839916462195E+001
-1.604270215363761E-001	-4.8264477E-001	-4.8240787E-001	3.0085005E+003	3.326839915956953E+001
-1.584349087663335E-001	-4.8463455E-001	-4.8440781E-001	3.0588875E+003	3.346839915451710E+001
-1.563721449629674E-001	-4.8664153E-001	-4.8640767E-001	3.1120730E+003	3.366839914946468E+001
-1.536532208310807E-001	-4.8862481E-001	-4.8840761E-001	3.1800493E+003	3.386839914441225E+001
-1.514265885504806E-001	-4.9062690E-001	-4.9040747E-001	3.2400315E+003	3.406839913935983E+001
-1.492149231547827E-001	-4.9262157E-001	-4.9240738E-001	3.3014229E+003	3.426839913430740E+001
-1.469246008815644E-001	-4.9462414E-001	-4.9440727E-001	3.3665168E+003	3.446839912925498E+001
-1.447116760082985E-001	-4.9660650E-001	-4.9640715E-001	3.4316960E+003	3.466839912420255E+001
-1.422943957498433E-001	-4.9862009E-001	-4.9840710E-001	3.5041443E+003	3.486839911915013E+001
-1.399072662414032E-001	-5.0063342E-001	-5.0040698E-001	3.5783232E+003	3.506839911409770E+001
-1.374937403923888E-001	-5.0263214E-001	-5.0240690E-001	3.6556729E+003	3.526839910904528E+001
-1.354142994146847E-001	-5.0463551E-001	-5.0440675E-001	3.7266042E+003	3.546839910399285E+001
-1.332673472193937E-001	-5.0663763E-001	-5.0640672E-001	3.8016636E+003	3.566839909894043E+001
-1.310205191665259E-001	-5.0862998E-001	-5.0840658E-001	3.8820635E+003	3.586839909388800E+001
-1.284614193439061E-001	-5.1065540E-001	-5.1040649E-001	3.9751655E+003	3.606839908883558E+001
-1.258942437675281E-001	-5.1263678E-001	-5.1240659E-001	4.0719636E+003	3.626829908378568E+001
-1.235499725816456E-001	-5.1463461E-001	-5.1440620E-001	4.1653965E+003	3.646819907873578E+001
-1.212156232913151E-001	-5.1663589E-001	-5.1640618E-001	4.2621230E+003	3.666819907368335E+001
-1.189622752866848E-001	-5.1861823E-001	-5.1840603E-001	4.3595186E+003	3.686819906863093E+001
-1.168292310002287E-001	-5.2065414E-001	-5.2040595E-001	4.4565400E+003	3.706819906357850E+001
-1.145909955627929E-001	-5.2262187E-001	-5.2240586E-001	4.5607588E+003	3.726819905852608E+001
-1.124386316621486E-001	-5.2463055E-001	-5.2440578E-001	4.6659277E+003	3.746819905347365E+001
-1.105255301927730E-001	-5.2664030E-001	-5.2640569E-001	4.7648745E+003	3.766819904842123E+001
-1.085078963469246E-001	-5.2862304E-001	-5.2840555E-001	4.8717471E+003	3.786819904336880E+001
-1.064715785177133E-001	-5.3063518E-001	-5.3040546E-001	4.9838198E+003	3.806819903831638E+001
-1.045726600711293E-001	-5.3262115E-001	-5.3240532E-001	5.0933115E+003	3.826819903326395E+001
-1.026689285061866E-001	-5.3461963E-001	-5.3440529E-001	5.2072192E+003	3.846819902821153E+001
-1.010592092956308E-001	-5.3661883E-001	-5.3640515E-001	5.3099448E+003	3.866819902315910E+001
-9.949166744698212E-002	-5.3859478E-001	-5.3840506E-001	5.4134663E+003	3.886819901810668E+001
-9.792712839508222E-002	-5.4063874E-001	-5.4040498E-001	5.5208271E+003	3.906819901305425E+001
-9.650292730670573E-002	-5.4264420E-001	-5.4240483E-001	5.6230854E+003	3.926819900800183E+001
-9.497377978397065E-002	-5.4462785E-001	-5.4440475E-001	5.7345073E+003	3.946819900294940E+001
-9.368113119602883E-002	-5.4662168E-001	-5.4640466E-001	5.8349175E+003	3.966819899789698E+001
-9.235125969432278E-002	-5.4863417E-001	-5.4840457E-001	5.9407329E+003	3.986819899284455E+001
-9.122166601650672E-002	-5.5062521E-001	-5.5040354E-001	6.0361230E+003	4.006809898779466E+001
-9.010193849142345E-002	-5.5262679E-001	-5.5240524E-001	6.1333506E+003	4.026809898274223E+001
-8.908950082710665E-002	-5.5463791E-001	-5.5440420E-001	6.2256260E+003	4.046799897769233E+001
-8.808877763218037E-002	-5.5662543E-001	-5.5640411E-001	6.3189141E+003	4.066799897263991E+001
-8.719114367924041E-002	-5.5864370E-001	-5.5840409E-001	6.4071152E+003	4.086799896758748E+001
-8.636795723485556E-002	-5.6064069E-001	-5.6040394E-001	6.4913042E+003	4.106799896253506E+001
-8.556117039953098E-002	-5.6263977E-001	-5.6240386E-001	6.5758774E+003	4.126799895748263E+001
-8.477757018230536E-002	-5.6462878E-001	-5.6440365E-001	6.6601196E+003	4.146799895243021E+001
-8.411895516782555E-002	-5.6661499E-001	-5.6640369E-001	6.7358774E+003	4.166799894737778E+001
-8.345936775912866E-002	-5.6861258E-001	-5.6840348E-001	6.8130469E+003	4.186799894232536E+001
-8.286955450236988E-002	-5.7060987E-001	-5.7040346E-001	6.8856392E+003	4.206799893727293E+001
-8.228252258398872E-002	-5.7261181E-001	-5.7240331E-001	6.9590942E+003	4.226799893222051E+001
-8.173367955781041E-002	-5.7461703E-001	-5.7440317E-001	7.0303579E+003	4.246799892716808E+001
-8.115933654151919E-002	-5.7660449E-001	-5.7640314E-001	7.1045981E+003	4.266799892211566E+001
-8.080691002866836E-002	-5.7859921E-001	-5.7840300E-001	7.1602690E+003	4.286799891706323E+001
-8.038665182189464E-002	-5.8061939E-001	-5.8040291E-001	7.2228335E+003	4.306799891201081E+001
-7.997417233223292E-002	-5.8260339E-001	-5.8240277E-001	7.2848945E+003	4.326799890695838E+001
-7.958508176726919E-002	-5.8460957E-001	-5.8440274E-001	7.3457178E+003	4.346799890190596E+001
-7.928495304796312E-002	-5.8660531E-001	-5.8640260E-001	7.3986968E+003	4.366799889685353E+001
-7.889129989199703E-002	-5.8862412E-001	-5.8840257E-001	7.4612046E+003	4.386799889180111E+001
-7.855755998129565E-002	-5.9060222E-001	-5.9040201E-001	7.5180825E+003	4.406789888675121E+001
-7.829608643942787E-002	-5.9262091E-001	-5.9240228E-001	7.5689722E+003	4.426779888170131E+001
-7.806015760076047E-002	-5.9462649E-001	-5.9440225E-001	7.6175415E+003	4.446779887664889E+001
-7.766962781613967E-002	-5.9661686E-001	-5.9640205E-001	7.6814692E+003	4.466779887159646E+001
-7.745262168668826E-002	-5.9862328E-001	-5.9840202E-001	7.7288960E+003	4.486779886654404E+001
-7.729359719925501E-002	-6.0060716E-001	-6.0040188E-001	7.7704644E+003	4.506779886149161E+001
-7.694718820600444E-002	-6.0261285E-001	-6.0240179E-001	7.8315122E+003	4.526779885643919E+001
-7.675371883709448E-002	-6.0463089E-001	-6.0440171E-001	7.8775454E+003	4.546779885138676E+001
-7.658149543811765E-002	-6.0662127E-001	-6.0640162E-001	7.9212515E+003	4.566779884633434E+001
-7.638498536963667E-002	-6.0861915E-001	-6.0840154E-001	7.9677852E+003	4.586779884128191E+001
-7.615557400448458E-002	-6.1061460E-001	-6.1040139E-001	8.0179897E+003	4.606779883622949E+001
-7.594090613036042E-002	-6.1262357E-001	-6.1240131E-001	8.0671089E+003	4.626779883117706E+001
-7.577672007951974E-002	-6.1461234E-001	-6.1440116E-001	8.1108330E+003	4.646779882612464E+001
-7.567527294876997E-002	-6.1662972E-001	-6.1640114E-001	8.1483647E+003	4.666779882107221E+001
-7.550701744645405E-002	-6.1863077E-001	-6.1840099E-001	8.1930234E+003	4.686779881601979E+001
-7.532938041559545E-002	-6.2064201E-001	-6.2040091E-001	8.2390430E+003	4.706779881096736E+001
-7.519555018365787E-002	-6.2262779E-001	-6.2240076E-001	8.2801152E+003	4.726779880591494E+001
-7.506930710200876E-002	-6.2465829E-001	-6.2440068E-001	8.3210879E+003	4.746779880086251E+001
-7.486756298587571E-002	-6.2663049E-001	-6.2640059E-001	8.3698525E+003	4.766779879581009E+001
-7.480189744266919E-002	-6.2864709E-001	-6.2840050E-001	8.4041592E+003	4.786779879075766E+001
-7.467763167022054E-002	-6.3064009E-001	-6.3040048E-001	8.4448320E+003	4.806769878570776E+001
-7.459476392752062E-002	-6.3263828E-001	-6.3240027E-001	8.4810010E+003	4.826759878065786E+001
-7.448045661685598E-002	-6.3462025E-001	-6.3440025E-001	8.5206279E+003	4.846759877560544E+001
-7.437223961836591E-002	-6.3663805E-001	-6.3640010E-001	8.5601572E+003	4.866759877055301E+001
-7.427937600523038E-002	-6.3863909E-001	-6.3840002E-001	8.5977979E+003	4.886759876550059E+001
-7.420626869573010E-002	-6.4062703E-001	-6.4039987E-001	8.6330576E+003	4.906759876044816E+001
-7.414698363186756E-002	-6.4264995E-001	-6.4239973E-001	8.6672432E+003	4.926759875539574E+001
-7.406864396366097E-002	-6.4463323E-001	-6.4439970E-001	8.7031865E+003	4.946759875034331E+001
-7.396611594489400E-002	-6.4663756E-001	-6.4639956E-001	8.7423486E+003	4.966759874529089E+001
-7.393906194064115E-002	-6.4865470E-001	-6.4839953E-001	8.7728281E+003	4.986759874023846E+001
-7.381710408059040E-002	-6.5064579E-001	-6.5039939E-001	8.8142959E+003	5.006759873518604E+001
-7.382856197803045E-002	-6.5266216E-001	-6.5239924E-001	8.8402393E+003	5.026759873013361E+001
-7.382990928290756E-002	-6.5464151E-001	-6.5439916E-001	8.8668877E+003	5.046759872508119E+001
-7.383248331701042E-002	-6.5664542E-001	-6.5639913E-001	8.8937197E+003	5.066759872002876E+001
-7.378280144227040E-002	-6.5864635E-001	-6.5839899E-001	8.9268271E+003	5.086759871497634E+001
-7.381683058113864E-002	-6.6064936E-001	-6.6039890E-001	8.9498477E+003	5.106759870992391E+001
-7.375492261144034E-002	-6.6264361E-001	-6.6239876E-001	8.9843984E+003	5.126759870487149E+001
-7.378954467017310E-002	-6.6465437E-001	-6.6439861E-001	9.0074326E+003	5.146759869981906E+001
-7.378057153713846E-002	-6.6663641E-001	-6.6639858E-001	9.0353926E+003	5.166759869476664E+001
-7.381188306511877E-002	-6.6862363E-001	-6.6839850E-001	9.0584824E+003	5.186759868971421E+001
-7.382445759974006E-002	-6.7063254E-001	-6.7039907E-001	9.0841514E+003	5.206749868466432E+001
-7.391534737245845E-002	-6.7262745E-001	-6.7239827E-001	9.0999697E+003	5.226739867961442E+001
-7.390755206576705E-002	-6.7463380E-001	-6.7439812E-001	9.1280762E+003	5.246739867456199E+001
-7.400404823344220E-002	-6.7662251E-001	-6.7639804E-001	9.1430469E+003	5.266739866950957E+001
-7.403182767040195E-002	-6.7862380E-001	-6.7839789E-001	9.1666494E+003	5.286739866445714E+001
-7.407431273674686E-002	-6.8062335E-001	-6.8039787E-001	9.1883857E+003	5.306739865940472E+001
-7.410751801626136E-002	-6.8264544E-001	-6.8239772E-001	9.2115547E+003	5.326739865435229E+001
-7.422587840422945E-002	-6.8462527E-001	-6.8439764E-001	9.2235391E+003	5.346739864929987E+001
-7.420632011962458E-002	-6.8662691E-001	-6.8639755E-001	9.2529434E+003	5.366739864424744E+001
-7.436115326794859E-002	-6.8863028E-001	-6.8839741E-001	9.2606182E+003	5.386739863919502E+001
-7.440950741300821E-002	-6.9061989E-001	-6.9039732E-001	9.2813389E+003	5.406739863414259E+001
-7.450822834189474E-002	-6.9263768E-001	-6.9239724E-001	9.2961230E+003	5.426739862909017E+001
-7.454414586663288E-002	-6.9462562E-001	-6.9439715E-001	9.3183125E+003	5.446739862403774E+001
-7.470396374164356E-002	-6.9663066E-001	-6.9639707E-001	9.3252168E+003	5.466739861898532E+001
-7.478863559874460E-002	-6.9863212E-001	-6.9839698E-001	9.3414209E+003	5.486739861393289E+001
-7.500523341821731E-002	-7.0064598E-001	-7.0039684E-001	9.3412949E+003	5.506739860888047E+001
-7.510002062269527E-002	-7.0264065E-001	-7.0239669E-001	9.3560645E+003	5.526739860382804E+001
-7.523284734505520E-002	-7.0462894E-001	-7.0439667E-001	9.3659746E+003	5.546739859877562E+001
-7.539657403581879E-002	-7.0663333E-001	-7.0639646E-001	9.3722207E+003	5.566739859372319E+001
-7.551931611839513E-002	-7.0862764E-001	-7.0839584E-001	9.3833955E+003	5.586729858867329E+001
-7.560402874163233E-002	-7.1062213E-001	-7.1039629E-001	9.3992627E+003	5.606719858362339E+001
-7.580666375808953E-002	-7.1262020E-001	-7.1239626E-001	9.4004951E+003	5.626719857857097E+001
-7.602345776826525E-002	-7.1462613E-001	-7.1439618E-001	9.4000742E+003	5.646719857351854E+001
-7.615663305235421E-002	-7.1662015E-001	-7.1639609E-001	9.4098193E+003	5.666719856846612E+001
-7.626713312108535E-002	-7.1863091E-001	-7.1839595E-001	9.4225508E+003	5.686719856341369E+001
-7.644748104611643E-002	-7.2062188E-001	-7.2039580E-001	9.4263652E+003	5.706719855836127E+001
-7.661814309335602E-002	-7.2263670E-001	-7.2239578E-001	9.4316660E+003	5.726719855330884E+001
-7.683964165734314E-002	-7.2461802E-001	-7.2439557E-001	9.4302627E+003	5.746719854825642E+001
-7.713903443277514E-002	-7.2661150E-001	-7.2639561E-001	9.4195049E+003	5.766719854320399E+001
-7.732315292600933E-002	-7.2863007E-001	-7.2839540E-001	9.4231807E+003	5.786719853815157E+001
-7.748933827827631E-002	-7.3063129E-001	-7.3039538E-001	9.4287979E+003	5.806719853309914E+001
-7.771249807201086E-002	-7.3262984E-001	-7.3239517E-001	9.4274395E+003	5.826719852804672E+001
-7.793769876466317E-002	-7.3463261E-001	-7.3439509E-001	9.4258955E+003	5.846719852299429E+001
-7.826703193474993E-002	-7.3662722E-001	-7.3639500E-001	9.4117178E+003	5.866719851794187E+001
-7.859240547128765E-002	-7.3863506E-001	-7.3839492E-001	9.3983008E+003	5.886719851288944E+001
-7.878415067648481E-002	-7.4063891E-001	-7.4039489E-001	9.4008613E+003	5.906719850783702E+001
-7.903662139957413E-002	-7.4263364E-001	-7.4239469E-001	9.3960703E+003	5.926719850278459E+001
-7.944910732454846E-002	-7.4462658E-001	-7.4439460E-001	9.3723721E+003	5.946719849773217E+001
-7.977508015607519E-002	-7.4663162E-001	-7.4639452E-001	9.3592090E+003	5.966719849267975E+001
-8.003407889766534E-002	-7.4864119E-001	-7.4839443E-001	9.3540303E+003	5.986709848762985E+001
-8.039753865017657E-002	-7.5063455E-001	-7.5039428E-001	9.3365361E+003	6.006699848257995E+001
-8.067132327589466E-002	-7.5264645E-001	-7.5239420E-001	9.3297891E+003	6.026699847752752E+001
-8.101511955031060E-002	-7.5462502E-001	-7.5439411E-001	9.3146191E+003	6.046699847247510E+001
-8.144095421202746E-002	-7.5664860E-001	-7.5639403E-001	9.2907627E+003	6.066699846742267E+001
-8.178839152531003E-002	-7.5863284E-001	-7.5839394E-001	9.2755566E+003	6.086699846237025E+001
-8.214244768688705E-002	-7.6065087E-001	-7.6039380E-001	9.2601436E+003	6.106699845731782E+001
-8.251430251838365E-002	-7.6264513E-001	-7.6239371E-001	9.2425811E+003	6.126699845226540E+001
-8.295675980290418E-002	-7.6464510E-001	-7.6439363E-001	9.2173936E+003	6.146699844721297E+001
-8.328426700737968E-002	-7.6662952E-001	-7.6639342E-001	9.2049736E+003	6.166699844216055E+001
-8.368123921168658E-002	-7.6864189E-001	-7.6839346E-001	9.1853555E+003	6.186699843710812E+001
-8.411206515577718E-002	-7.7063131E-001	-7.7039325E-001	9.1619590E+003	6.206699843205570E+001
-8.449478252091813E-002	-7.7261561E-001	-7.7239323E-001	9.1439443E+003	6.226699842700327E+001
-8.489170030198689E-002	-7.7460235E-001	-7.7439302E-001	9.1245947E+003	6.246699842195085E+001
-8.547229221346220E-002	-7.7660704E-001	-7.7639294E-001	9.0860674E+003	6.266699841689842E+001
-8.595246895609232E-002	-7.7860892E-001	-7.7839285E-001	9.0585986E+003	6.286699841184600E+001
-8.633334992153557E-002	-7.8062099E-001	-7.8039283E-001	9.0419404E+003	6.306699840679357E+001
-8.693686232990827E-002	-7.8261429E-001	-7.8239274E-001	9.0020996E+003	6.326699840174115E+001
-8.744196953936201E-002	-7.8461385E-001	-7.8439265E-001	8.9729668E+003	6.346699839668872E+001
-8.806527032656231E-002	-7.8660256E-001	-7.8639257E-001	8.9320400E+003	6.366699839163630E+001
-8.866127924119604E-002	-7.8861147E-001	-7.8839195E-001	8.8946543E+003	6.386679838658893E+001
-8.917677503600807E-002	-7.9062504E-001	-7.9039228E-001	8.8658174E+003	6.406679838153650E+001
-8.975832405248840E-002	-7.9261965E-001	-7.9239225E-001	8.8305977E+003	6.426679837648408E+001
-9.043837094504203E-002	-7.9462123E-001	-7.9439217E-001	8.7863281E+003	6.446679837143165E+001
-9.101616853030814E-002	-7.9662818E-001	-7.9639196E-001	8.7526006E+003	6.466679836637923E+001
-9.161413500672552E-002	-7.9860991E-001	-7.9839188E-001	8.7171035E+003	6.486679836132680E+001
-9.237857806166860E-002	-8.0061734E-001	-8.0039179E-001	8.6666992E+003	6.506679835627438E+001
-9.309009097615828E-002	-8.0262887E-001	-8.0239165E-001	8.6220654E+003	6.526679835122195E+001
-9.373517593531511E-002	-8.0462468E-001	-8.0439168E-001	8.5840205E+003	6.546679834616953E+001
-9.456892693922136E-002	-8.0661899E-001	-8.0639148E-001	8.5294297E+003	6.566679834111710E+001
-9.543311208499228E-002	-8.0862069E-001	-8.0839139E-001	8.4731670E+003	6.586679833606468E+001
-9.610715486022635E-002	-8.1063443E-001	-8.1039137E-001	8.4346943E+003	6.606679833101225E+001
-9.697880853989593E-002	-8.1262535E-001	-8.1239116E-001	8.3794111E+003	6.626679832595983E+001
-9.783030601055764E-002	-8.1463373E-001	-8.1439108E-001	8.3270078E+003	6.646679832090740E+001
-9.859891582698577E-002	-8.1662780E-001	-8.1639099E-001	8.2823203E+003	6.666679831585498E+001
-9.952755576704986E-002	-8.1862575E-001	-8.1839091E-001	8.2251162E+003	6.686679831080255E+001
-1.004548035509245E-001	-8.2062119E-001	-8.2039076E-001	8.1690586E+003	6.706679830575013E+001
-1.014485747865962E-001	-8.2264817E-001	-8.2239068E-001	8.1090166E+003	6.726679830069770E+001
-1.024677354373591E-001	-8.2463396E-001	-8.2439059E-001	8.0477427E+003	6.746679829564528E+001
-1.034081161429774E-001	-8.2662743E-001	-8.2639039E-001	7.9938350E+003	6.766679829059285E+001
-1.045940775961653E-001	-8.2865149E-001	-8.2839072E-001	7.9225469E+003	6.786669828554295E+001
-1.055682149975479E-001	-8.3064085E-001	-8.3039027E-001	7.8682856E+003	6.806659828049305E+001
-1.067517163673343E-001	-8.3263201E-001	-8.3239019E-001	7.7997061E+003	6.826659827544063E+001
-1.078299750202245E-001	-8.3463174E-001	-8.3438998E-001	7.7402573E+003	6.846659827038820E+001
-1.089718814309932E-001	-8.3663851E-001	-8.3639002E-001	7.6775630E+003	6.866659826533578E+001
-1.102219762686062E-001	-8.3863807E-001	-8.3838987E-001	7.6086284E+003	6.886659826028335E+001
-1.114826129058841E-001	-8.4064698E-001	-8.4038979E-001	7.5406108E+003	6.906659825523093E+001
-1.127745705158314E-001	-8.4263223E-001	-8.4238964E-001	7.4718281E+003	6.926659825017850E+001
-1.139622008725749E-001	-8.4463167E-001	-8.4438950E-001	7.4115073E+003	6.946659824512608E+001
-1.152213481782836E-001	-8.4663570E-001	-8.4638953E-001	7.3479067E+003	6.966659824007365E+001
-1.162161285927743E-001	-8.4864461E-001	-8.4838933E-001	7.3022964E+003	6.986659823502123E+001
-1.172772247720162E-001	-8.5063297E-001	-8.5038930E-001	7.2531812E+003	7.006659822996880E+001
-1.182697228633303E-001	-8.5264432E-001	-8.5238910E-001	7.2093203E+003	7.026659822491638E+001
-1.194239736676144E-001	-8.5463649E-001	-8.5438913E-001	7.1563228E+003	7.046659821986395E+001
-1.205296183116906E-001	-8.5664159E-001	-8.5638893E-001	7.1073120E+003	7.066659821481153E+001
-1.218951446745464E-001	-8.5864621E-001	-8.5838890E-001	7.0441382E+003	7.086659820975910E+001
-1.230813673815674E-001	-8.6063516E-001	-8.6038876E-001	6.9924082E+003	7.106659820470668E+001
-1.244096587783745E-001	-8.6262947E-001	-8.6238861E-001	6.9337822E+003	7.126659819965425E+001
-1.259752943786597E-001	-8.6463094E-001	-8.6438864E-001	6.8634961E+003	7.146659819460183E+001
-1.274730311463803E-001	-8.6664283E-001	-8.6638844E-001	6.7986367E+003	7.166659818954940E+001
-1.294023538746493E-001	-8.6862898E-001	-8.6838818E-001	6.7126211E+003	7.186639818450203E+001
-1.312760163727908E-001	-8.7063193E-001	-8.7038821E-001	6.6320718E+003	7.206639817944961E+001
-1.332748078069569E-001	-8.7264091E-001	-8.7238812E-001	6.5476807E+003	7.226639817439718E+001
-1.356448097314992E-001	-8.7462622E-001	-8.7438804E-001	6.4479150E+003	7.246639816934476E+001
-1.384744800874316E-001	-8.7661874E-001	-8.7638795E-001	6.3305435E+003	7.266639816429233E+001
-1.415020362833034E-001	-8.7861067E-001	-8.7838787E-001	6.2091733E+003	7.286639815923991E+001
-1.449329904217249E-001	-8.8061452E-001	-8.8038772E-001	6.0760117E+003	7.306639815418748E+001
-1.489814678639971E-001	-8.8261992E-001	-8.8238764E-001	5.9243604E+003	7.326639814913506E+001
-1.535434126273194E-001	-8.8461381E-001	-8.8438755E-001	5.7613271E+003	7.346639814408263E+001
-1.585733125011635E-001	-8.8662523E-001	-8.8638747E-001	5.5912637E+003	7.366639813903021E+001
-1.644157207182393E-001	-8.8863015E-001	-8.8838726E-001	5.4047759E+003	7.386639813397778E+001
-1.709748105338171E-001	-8.9061457E-001	-8.9038724E-001	5.2090396E+003	7.406639812892536E+001
-1.783813793695792E-001	-8.9262348E-001	-8.9238715E-001	5.0040171E+003	7.426639812387293E+001
-1.866461722741999E-001	-8.9463055E-001	-8.9438707E-001	4.7931899E+003	7.446639811882051E+001
-1.959331423844608E-001	-8.9662117E-001	-8.9638698E-001	4.5761587E+003	7.466639811376808E+001
-2.064027926988073E-001	-8.9863110E-001	-8.9838684E-001	4.3537739E+003	7.486639810871566E+001
-2.183019117517668E-001	-9.0063512E-001	-9.0038675E-001	4.1256401E+003	7.506639810366323E+001
-2.316100193280515E-001	-9.0265024E-001	-9.0238661E-001	3.8972849E+003	7.526639809861081E+001
-2.469717349430494E-001	-9.0463328E-001	-9.0438658E-001	3.6629021E+003	7.546639809355838E+001
-2.642191342579334E-001	-9.0662628E-001	-9.0638602E-001	3.4313423E+003	7.566629808850848E+001
-2.842663811676001E-001	-9.0862530E-001	-9.0838635E-001	3.1963867E+003	7.586619808345858E+001
-3.066016178337398E-001	-9.1063470E-001	-9.1038620E-001	2.9700911E+003	7.606619807840616E+001
-3.318229225525409E-001	-9.1265357E-001	-9.1238606E-001	2.7504236E+003	7.626619807335373E+001
-3.605996854096443E-001	-9.1463566E-001	-9.1438609E-001	2.5364294E+003	7.646619806830131E+001
-3.929814117878268E-001	-9.1663998E-001	-9.1638589E-001	2.3325276E+003	7.666619806324888E+001
-4.295589765597168E-001	-9.1863227E-001	-9.1838580E-001	2.1385474E+003	7.686619805819646E+001
-4.710130415510483E-001	-9.2062736E-001	-9.2038572E-001	1.9545687E+003	7.706619805314403E+001
-5.167638679750932E-001	-9.2262632E-001	-9.2238557E-001	1.7853925E+003	7.726619804809161E+001
-5.684547987629309E-001	-9.2465538E-001	-9.2438561E-001	1.6266119E+003	7.746619804303919E+001
-6.253058854870637E-001	-9.2664742E-001	-9.2638540E-001	1.4819106E+003	7.766619803798676E+001
-6.878464164047604E-001	-9.2862946E-001	-9.2838532E-001	1.3500535E+003	7.786619803293434E+001
-7.578147199477936E-001	-9.3064445E-001	-9.3038517E-001	1.2280634E+003	7.806619802788191E+001
-8.344001414723135E-001	-9.3262029E-001	-9.3238509E-001	1.1177135E+003	7.826619802282949E+001
-9.176178358140419E-001	-9.3462473E-001	-9.3438500E-001	1.0185338E+003	7.846619801777706E+001
-1.008922542675553E+000	-9.3663448E-001	-9.3638492E-001	9.2835126E+002	7.866619801272464E+001
-1.106646213038339E+000	-9.3869221E-001	-9.3848485E-001	8.4823151E+002	7.887619800741959E+001
-1.218426700892632E+000	-9.4078606E-001	-9.4058466E-001	7.7213184E+002	7.908619800211454E+001
-1.330928885924905E+000	-9.4277793E-001	-9.4258463E-001	7.0836084E+002	7.928619799706212E+001
-1.450426820048940E+000	-9.4477338E-001	-9.4458449E-001	6.5137610E+002	7.948619799200969E+001
-1.577831302413067E+000	-9.4678056E-001	-9.4658482E-001	6.0005182E+002	7.968609798695979E+001
-1.711715099357422E+000	-9.4878209E-001	-9.4858432E-001	5.5428741E+002	7.988599798190990E+001
-1.853145793553377E+000	-9.5079315E-001	-9.5058411E-001	5.1306982E+002	8.008599797685747E+001
-1.999195131213490E+000	-9.5279008E-001	-9.5258415E-001	4.7658682E+002	8.028599797180505E+001
-2.150923065080942E+000	-9.5479262E-001	-9.5458394E-001	4.4389902E+002	8.048599796675262E+001
-2.309193885397349E+000	-9.5678908E-001	-9.5658392E-001	4.1433899E+002	8.068599796170020E+001
-2.472545382353444E+000	-9.5880669E-001	-9.5858377E-001	3.8778122E+002	8.088599795664777E+001
-2.640607658106326E+000	-9.6079177E-001	-9.6058363E-001	3.6385254E+002	8.108599795159535E+001
-2.814774885942597E+000	-9.6279252E-001	-9.6258354E-001	3.4204956E+002	8.128599794654292E+001
-2.992361985180789E+000	-9.6478397E-001	-9.6458346E-001	3.2241553E+002	8.148599794149050E+001
-3.172898446401902E+000	-9.6679318E-001	-9.6658337E-001	3.0470346E+002	8.168599793643807E+001
-3.358660523921181E+000	-9.6880597E-001	-9.6858323E-001	2.8845010E+002	8.188599793138565E+001
-3.547627583855672E+000	-9.7079855E-001	-9.7058314E-001	2.7364725E+002	8.208599792633322E+001
-3.740628572920016E+000	-9.7279829E-001	-9.7258306E-001	2.6006277E+002	8.228599792128080E+001
-3.936730041424156E+000	-9.7480184E-001	-9.7458303E-001	2.4761714E+002	8.248599791622837E+001
-4.131908741296002E+000	-9.7680140E-001	-9.7658288E-001	2.3640440E+002	8.268599791117595E+001
-4.332281601401946E+000	-9.7880000E-001	-9.7858274E-001	2.2593176E+002	8.288599790612352E+001
-4.535426467319184E+000	-9.8078996E-001	-9.8058265E-001	2.1625089E+002	8.308599790107110E+001
-4.741682536477639E+000	-9.8279375E-001	-9.8258257E-001	2.0726688E+002	8.328599789601867E+001
-4.948702706129723E+000	-9.8479694E-001	-9.8458153E-001	1.9900104E+002	8.348589789096877E+001
-5.158322684708921E+000	-9.8678952E-001	-9.8658329E-001	1.9130046E+002	8.368589788591635E+001
-5.371512873271401E+000	-9.8880315E-001	-9.8858225E-001	1.8408281E+002	8.388579788086645E+001
-5.584514903643822E+000	-9.9079716E-001	-9.9058217E-001	1.7741866E+002	8.408579787581402E+001
-5.798714669890117E+000	-9.9281454E-001	-9.9258208E-001	1.7121286E+002	8.428579787076160E+001
-6.016688963318103E+000	-9.9479264E-001	-9.9458200E-001	1.6533888E+002	8.448579786570917E+001
-6.235596676262066E+000	-9.9681127E-001	-9.9658179E-001	1.5985820E+002	8.468579786065675E+001
-6.455648717696448E+000	-9.9880362E-001	-9.9858177E-001	1.5471777E+002	8.488579785560432E+001
-6.679298034465781E+000	-1.0008070E+000	-1.0005816E+000	1.4983716E+002	8.508579785055190E+001
-6.903241694987237E+000	-1.0028346E+000	-1.0025816E+000	1.4527010E+002	8.528579784549947E+001
-7.127721106114052E+000	-1.0048283E+000	-1.0045815E+000	1.4097470E+002	8.548579784044705E+001
-7.355364603655659E+000	-1.0068094E+000	-1.0065813E+000	1.3688095E+002	8.568579783539462E+001
-7.584286052083229E+000	-1.0088248E+000	-1.0085813E+000	1.3301514E+002	8.588579783034220E+001
-7.816078403031213E+000	-1.0108452E+000	-1.0105811E+000	1.2932895E+002	8.608579782528977E+001
-8.049513572873479E+000	-1.0128326E+000	-1.0125810E+000	1.2582533E+002	8.628579782023735E+001
-8.283513100036409E+000	-1.0148423E+000	-1.0145810E+000	1.2251351E+002	8.648579781518492E+001
-8.519230660329882E+000	-1.0168167E+000	-1.0165808E+000	1.1935546E+002	8.668579781013250E+001
-8.758046886277569E+000	-1.0188324E+000	-1.0185808E+000	1.1633101E+002	8.688579780508007E+001
-9.001492655196131E+000	-1.0208290E+000	-1.0205805E+000	1.1340663E+002	8.708579780002765E+001
-9.246735798934168E+000	-1.0228300E+000	-1.0225805E+000	1.1061525E+002	8.728579779497522E+001
-9.495466872698302E+000	-1.0248150E+000	-1.0245806E+000	1.0792676E+002	8.748579778992280E+001
-9.748732323535734E+000	-1.0268346E+000	-1.0265800E+000	1.0533006E+002	8.768559778487543E+001
-1.000465503740473E+001	-1.0288315E+000	-1.0285802E+000	1.0283528E+002	8.788559777982300E+001
-1.026205343332414E+001	-1.0308251E+000	-1.0305802E+000	1.0045018E+002	8.808559777477058E+001
-1.052461246568332E+001	-1.0328273E+000	-1.0325800E+000	9.8134468E+001	8.828559776971815E+001
-1.079279832741304E+001	-1.0348146E+000	-1.0345800E+000	9.5880104E+001	8.848559776466573E+001
-1.109449579235245E+001	-1.0369055E+000	-1.0366799E+000	9.3461258E+001	8.869559775936068E+001
-1.138593158693544E+001	-1.0390065E+000	-1.0387796E+000	9.1253532E+001	8.890559775405563E+001
-1.166431609025888E+001	-1.0409926E+000	-1.0407796E+000	8.9245918E+001	8.910559774900321E+001
-1.194926040236101E+001	-1.0430027E+000	-1.0427796E+000	8.7285965E+001	8.930559774395078E+001
-1.224051623651235E+001	-1.0449963E+000	-1.0447794E+000	8.5371910E+001	8.950559773889836E+001
-1.254078818259597E+001	-1.0470136E+000	-1.0467793E+000	8.3488663E+001	8.970559773384593E+001
-1.284674700560754E+001	-1.0489959E+000	-1.0487791E+000	8.1654587E+001	8.990559772879351E+001
-1.316026346861906E+001	-1.0509892E+000	-1.0507792E+000	7.9860802E+001	9.010559772374108E+001
-1.348622735611707E+001	-1.0530263E+000	-1.0527790E+000	7.8081612E+001	9.030559771868866E+001
-1.381611866394138E+001	-1.0550085E+000	-1.0547789E+000	7.6360703E+001	9.050559771363623E+001
-1.413856179657435E+001	-1.0570092E+000	-1.0567787E+000	7.4760735E+001	9.070559770858381E+001
-1.438454704733388E+001	-1.0590025E+000	-1.0587786E+000	7.3620842E+001	9.090559770353138E+001
-1.456932993513658E+001	-1.0610046E+000	-1.0607786E+000	7.2824532E+001	9.110559769847896E+001
-1.494831625269106E+001	-1.0630150E+000	-1.0627785E+000	7.1112694E+001	9.130559769342653E+001
-1.532012087537849E+001	-1.0650076E+000	-1.0647793E+000	6.9516914E+001	9.150559768837411E+001
-1.569117535683393E+001	-1.0670148E+000	-1.0667783E+000	6.8000946E+001	9.170539768332674E+001
-1.606161708883137E+001	-1.0690174E+000	-1.0687782E+000	6.6557274E+001	9.190539767827431E+001
-1.643308104328014E+001	-1.0710245E+000	-1.0707781E+000	6.5174904E+001	9.210539767322189E+001
-1.680874460692306E+001	-1.0730280E+000	-1.0727780E+000	6.3837482E+001	9.230539766816946E+001
-1.719205149852775E+001	-1.0750065E+000	-1.0747778E+000	6.2529274E+001	9.250539766311704E+001
-1.758360140569627E+001	-1.0770205E+000	-1.0767778E+000	6.1251419E+001	9.270539765806461E+001
-1.797621943796574E+001	-1.0790116E+000	-1.0787777E+000	6.0024387E+001	9.290539765301219E+001
-1.837433624794694E+001	-1.0810163E+000	-1.0807776E+000	5.8832943E+001	9.310539764795976E+001
-1.877583866378887E+001	-1.0830175E+000	-1.0827774E+000	5.7681442E+001	9.330539764290734E+001
-1.918699267243039E+001	-1.0850102E+000	-1.0847774E+000	5.6549255E+001	9.350539763785491E+001
-1.961183124185953E+001	-1.0870018E+000	-1.0867772E+000	5.5425819E+001	9.370539763280249E+001
-2.004347986320789E+001	-1.0889969E+000	-1.0887772E+000	5.4331726E+001	9.390539762775006E+001
-2.048594670474117E+001	-1.0910121E+000	-1.0907770E+000	5.3256611E+001	9.410539762269764E+001
-2.094285716653684E+001	-1.0930225E+000	-1.0927769E+000	5.2190704E+001	9.430539761764521E+001
-2.140858791055598E+001	-1.0950073E+000	-1.0947769E+000	5.1148041E+001	9.450539761259279E+001
-2.188839531999053E+001	-1.0970207E+000	-1.0967768E+000	5.0118828E+001	9.470539760754036E+001
-2.236515172957832E+001	-1.0990185E+000	-1.0987766E+000	4.9139771E+001	9.490539760248794E+001
-2.285063540840903E+001	-1.1010132E+000	-1.1007766E+000	4.8183044E+001	9.510539759743551E+001
-2.334827289289365E+001	-1.1030347E+000	-1.1027764E+000	4.7242668E+001	9.530539759238309E+001
-2.384158040305692E+001	-1.1050425E+000	-1.1047769E+000	4.6349380E+001	9.550529758733319E+001
-2.433667312619900E+001	-1.1070211E+000	-1.1067762E+000	4.5487774E+001	9.570519758228329E+001
-2.483550649854331E+001	-1.1090230E+000	-1.1087762E+000	4.4654736E+001	9.590519757723087E+001
-2.534031263554706E+001	-1.1110351E+000	-1.1107761E+000	4.3844570E+001	9.610519757217844E+001
-2.585806302121446E+001	-1.1130235E+000	-1.1127760E+000	4.3043575E+001	9.630519756712602E+001
-2.638293800413470E+001	-1.1150233E+000	-1.1147758E+000	4.2263042E+001	9.650519756207359E+001
-2.691012670042289E+001	-1.1170281E+000	-1.1167759E+000	4.1509583E+001	9.670519755702117E+001
-2.745277737976460E+001	-1.1190199E+000	-1.1187756E+000	4.0761627E+001	9.690519755196874E+001
-2.800244050744982E+001	-1.1210248E+000	-1.1207756E+000	4.0033112E+001	9.710519754691632E+001
-2.854740411029644E+001	-1.1230350E+000	-1.1227753E+000	3.9339302E+001	9.730519754186389E+001
-2.910444596132723E+001	-1.1250311E+000	-1.1247754E+000	3.8654957E+001	9.750519753681147E+001
-2.968029622993765E+001	-1.1270256E+000	-1.1267753E+000	3.7972183E+001	9.770519753175904E+001
-3.025594310344208E+001	-1.1290307E+000	-1.1287751E+000	3.7315998E+001	9.790519752670662E+001
-3.083995382234349E+001	-1.1310363E+000	-1.1307750E+000	3.6674381E+001	9.810519752165419E+001
-3.141833387588969E+001	-1.1330309E+000	-1.1327749E+000	3.6062729E+001	9.830519751660177E+001
-3.198565565809906E+001	-1.1350293E+000	-1.1347748E+000	3.5485573E+001	9.850519751154934E+001
-3.257954149316504E+001	-1.1370265E+000	-1.1367748E+000	3.4900017E+001	9.870519750649692E+001
-3.319362244638452E+001	-1.1390237E+000	-1.1387746E+000	3.4314533E+001	9.890519750144449E+001
-3.379698660665645E+001	-1.1410270E+000	-1.1407746E+000	3.3761204E+001	9.910519749639207E+001
-3.442299342840664E+001	-1.1430285E+000	-1.1427746E+000	3.3205379E+001	9.930519749133964E+001
-3.507098029199993E+001	-1.1450166E+000	-1.1447741E+000	3.2648548E+001	9.950499748629227E+001
-3.571651812286331E+001	-1.1470422E+000	-1.1467742E+000	3.2115173E+001	9.970499748123984E+001
-3.638828180030896E+001	-1.1490331E+000	-1.1487741E+000	3.1577007E+001	9.990499747618742E+001
-3.703998899811259E+001	-1.1510526E+000	-1.1507740E+000	3.1075943E+001	1.001049974711350E+002
-3.771242568038761E+001	-1.1530336E+000	-1.1527740E+000	3.0574369E+001	1.003049974660826E+002
-3.838703502143588E+001	-1.1550465E+000	-1.1547738E+000	3.0089495E+001	1.005049974610301E+002
-3.907063661086578E+001	-1.1570412E+000	-1.1567737E+000	2.9614086E+001	1.007049974559777E+002
-3.974782997167029E+001	-1.1590294E+000	-1.1587735E+000	2.9159563E+001	1.009049974509253E+002
-4.043415561636016E+001	-1.1610441E+000	-1.1607736E+000	2.8714439E+001	1.011049974458729E+002
-4.109772447042172E+001	-1.1630323E+000	-1.1627734E+000	2.8299189E+001	1.013049974408204E+002
-4.178508122437677E+001	-1.1650324E+000	-1.1647733E+000	2.7881540E+001	1.015049974357680E+002
-4.251038361893217E+001	-1.1670326E+000	-1.1667731E+000	2.7452883E+001	1.017049974307156E+002
-4.320265657371954E+001	-1.1690240E+000	-1.1687731E+000	2.7059076E+001	1.019049974256632E+002
-4.390576436757522E+001	-1.1710278E+000	-1.1707730E+000	2.6671391E+001	1.021049974206107E+002
-4.461006680745936E+001	-1.1730366E+000	-1.1727729E+000	2.6295334E+001	1.023049974155583E+002
-4.532441351148815E+001	-1.1750267E+000	-1.1747727E+000	2.5924807E+001	1.025049974105059E+002
-4.605742230923528E+001	-1.1770315E+000	-1.1767727E+000	2.5555740E+001	1.027049974054535E+002
-4.678869352156892E+001	-1.1790419E+000	-1.1787726E+000	2.5199289E+001	1.029049974004010E+002
-4.753859517714875E+001	-1.1810433E+000	-1.1807725E+000	2.4843882E+001	1.031049973953486E+002
-4.830118750908241E+001	-1.1830150E+000	-1.1827720E+000	2.4492462E+001	1.033048973902987E+002
-4.911337957468692E+001	-1.1850272E+000	-1.1847723E+000	2.4128399E+001	1.035047973852488E+002
-4.990355820125978E+001	-1.1870382E+000	-1.1867722E+000	2.3786644E+001	1.037047973801964E+002
-5.065420026844072E+001	-1.1890248E+000	-1.1887721E+000	2.3473370E+001	1.039047973751440E+002
-5.140968656107401E+001	-1.1910304E+000	-1.1907721E+000	2.3167431E+001	1.041047973700915E+002
-5.217225498785524E+001	-1.1930273E+000	-1.1927718E+000	2.2867083E+001	1.043047973650391E+002
-5.296994474847838E+001	-1.1950272E+000	-1.1947718E+000	2.2560476E+001	1.045047973599867E+002
-5.375698374999092E+001	-1.1970252E+000	-1.1967716E+000	2.2267344E+001	1.047047973549343E+002
-5.452597700170918E+001	-1.1990362E+000	-1.1987716E+000	2.1990183E+001	1.049047973498818E+002
-5.535929545848035E+001	-1.2010362E+000	-1.2007715E+000	2.1695295E+001	1.051047973448294E+002
-5.619128420996286E+001	-1.2030431E+000	-1.2027713E+000	2.1409781E+001	1.053047973397770E+002
-5.700772993310511E+001	-1.2050529E+000	-1.2047713E+000	2.1138411E+001	1.055047973347246E+002
-5.784605973269663E+001	-1.2070478E+000	-1.2067711E+000	2.0866552E+001	1.057047973296721E+002
-5.862380390913290E+001	-1.2090372E+000	-1.2087711E+000	2.0623657E+001	1.059047973246197E+002
-5.943429324794511E+001	-1.2110360E+000	-1.2107710E+000	2.0376047E+001	1.061047973195673E+002
-6.029592168087865E+001	-1.2130413E+000	-1.2127708E+000	2.0118132E+001	1.063047973145149E+002
-6.117064247596281E+001	-1.2150356E+000	-1.2147708E+000	1.9863050E+001	1.065047973094624E+002
-6.197406250873678E+001	-1.2170426E+000	-1.2167706E+000	1.9637934E+001	1.067047973044100E+002
-6.274487609171297E+001	-1.2190535E+000	-1.2187706E+000	1.9428734E+001	1.069047972993576E+002
-6.364608500063287E+001	-1.2210418E+000	-1.2207705E+000	1.9184870E+001	1.071047972943052E+002
-6.456137861458836E+001	-1.2230328E+000	-1.2227707E+000	1.8943722E+001	1.073046972892553E+002
-6.540472619441653E+001	-1.2250601E+000	-1.2247702E+000	1.8730452E+001	1.075045972842054E+002
-6.626275012066037E+001	-1.2270598E+000	-1.2267702E+000	1.8518095E+001	1.077045972791529E+002
-6.725118056933070E+001	-1.2290494E+000	-1.2287700E+000	1.8275507E+001	1.079045972741005E+002
-6.820201906271251E+001	-1.2310698E+000	-1.2307700E+000	1.8050343E+001	1.081045972690481E+002
-6.916190574012398E+001	-1.2331023E+000	-1.2327698E+000	1.7829212E+001	1.083045972639957E+002
-7.002948628153115E+001	-1.2350975E+000	-1.2347698E+000	1.7636822E+001	1.085045972589433E+002
-7.088036415636407E+001	-1.2370927E+000	-1.2367697E+000	1.7453251E+001	1.087045972538908E+002
-7.179174746731815E+001	-1.2390987E+000	-1.2387695E+000	1.7259624E+001	1.089045972488384E+002
-7.262105381407696E+001	-1.2411011E+000	-1.2407694E+000	1.7090101E+001	1.091045972437860E+002
-7.351154437357036E+001	-1.2430860E+000	-1.2427694E+000	1.6910078E+001	1.093045972387336E+002
-7.458187167282262E+001	-1.2450966E+000	-1.2447692E+000	1.6694359E+001	1.095045972336811E+002
-7.547949823662759E+001	-1.2470918E+000	-1.2467692E+000	1.6522259E+001	1.097045972286287E+002
-7.645108218906739E+001	-1.2490879E+000	-1.2487690E+000	1.6338394E+001	1.099045972235763E+002
-7.746899309882747E+001	-1.2510906E+000	-1.2507690E+000	1.6149567E+001	1.101045972185239E+002
-7.847660242132588E+001	-1.2531098E+000	-1.2527689E+000	1.5967941E+001	1.103045972134714E+002
-7.945963364339485E+001	-1.2551003E+000	-1.2547688E+000	1.5795444E+001	1.105045972084190E+002
-8.049545286842492E+001	-1.2571064E+000	-1.2567687E+000	1.5617111E+001	1.107045972033666E+002
-8.162070327064612E+001	-1.2591174E+000	-1.2587686E+000	1.5426446E+001	1.109045971983142E+002
-8.254155599719024E+001	-1.2611086E+000	-1.2607678E+000	1.5278469E+001	1.111044971932643E+002
-8.349616032605695E+001	-1.2631246E+000	-1.2627687E+000	1.5127936E+001	1.113044971882118E+002
-8.442418427748476E+001	-1.2651116E+000	-1.2647682E+000	1.4985180E+001	1.115043971831619E+002
-8.530464702020163E+001	-1.2671237E+000	-1.2667682E+000	1.4854099E+001	1.117043971781095E+002
-8.622665442468869E+001	-1.2691033E+000	-1.2687681E+000	1.4718225E+001	1.119043971730571E+002
-8.716539947516253E+001	-1.2711135E+000	-1.2707680E+000	1.4582776E+001	1.121043971680047E+002
-8.805041281382228E+001	-1.2731107E+000	-1.2727678E+000	1.4458884E+001	1.123043971629522E+002
-8.890447435519604E+001	-1.2751151E+000	-1.2747678E+000	1.4342530E+001	1.125043971578998E+002
-9.000337878376479E+001	-1.2771126E+000	-1.2767676E+000	1.4189608E+001	1.127043971528474E+002
-9.128876187958144E+001	-1.2791229E+000	-1.2787675E+000	1.4011834E+001	1.129043971477950E+002
-9.237129449628083E+001	-1.2811025E+000	-1.2807674E+000	1.3869055E+001	1.131043971427425E+002
-9.338186806616079E+001	-1.2831005E+000	-1.2827673E+000	1.3740360E+001	1.133043971376901E+002
-9.428637822955659E+001	-1.2850970E+000	-1.2847673E+000	1.3629721E+001	1.135043971326377E+002
-9.528385505059941E+001	-1.2870811E+000	-1.2867671E+000	1.3507861E+001	1.137043971275853E+002
-9.632037981513406E+001	-1.2890737E+000	-1.2887670E+000	1.3383187E+001	1.139043971225328E+002
-9.732151122806829E+001	-1.2910863E+000	-1.2907670E+000	1.3266197E+001	1.141043971174804E+002
-9.854403837143445E+001	-1.2930902E+000	-1.2927668E+000	1.3121953E+001	1.143043971124280E+002
-9.965667998871822E+001	-1.2950810E+000	-1.2947668E+000	1.2995426E+001	1.145043971073756E+002
-1.007103054377498E+002	-1.2970793E+000	-1.2967665E+000	1.2879311E+001	1.147043971023231E+002
-1.017295044252387E+002	-1.2990832E+000	-1.2987665E+000	1.2769975E+001	1.149043970972707E+002
-1.026172397299682E+002	-1.3010809E+000	-1.3007671E+000	1.2678970E+001	1.151043970922183E+002
-1.036963644381809E+002	-1.3030878E+000	-1.3027661E+000	1.2566380E+001	1.153041970871709E+002
-1.049080567716741E+002	-1.3050970E+000	-1.3047662E+000	1.2440389E+001	1.155041970821185E+002
-1.061364467754927E+002	-1.3070986E+000	-1.3067660E+000	1.2315267E+001	1.157041970770661E+002
-1.069634752295187E+002	-1.3091013E+000	-1.3087660E+000	1.2238770E+001	1.159041970720136E+002
-1.078161799913089E+002	-1.3111064E+000	-1.3107659E+000	1.2160572E+001	1.161041970669612E+002
-1.089382743089382E+002	-1.3130927E+000	-1.3127657E+000	1.2053548E+001	1.163041970619088E+002
-1.104352831176125E+002	-1.3151789E+000	-1.3148658E+000	1.1909046E+001	1.165141970566037E+002
-1.117105451538448E+002	-1.3172617E+000	-1.3169657E+000	1.1791739E+001	1.167241970512987E+002
-1.127687234435222E+002	-1.3192657E+000	-1.3189654E+000	1.1698862E+001	1.169241970462463E+002
-1.136930658401004E+002	-1.3212572E+000	-1.3209654E+000	1.1621264E+001	1.171241970411938E+002
-1.146355391835409E+002	-1.3232863E+000	-1.3229653E+000	1.1543421E+001	1.173241970361414E+002
-1.158023827913941E+002	-1.3252858E+000	-1.3249652E+000	1.1444374E+001	1.175241970310890E+002
-1.170418384999645E+002	-1.3272732E+000	-1.3269651E+000	1.1340160E+001	1.177241970260366E+002
-1.182807112907876E+002	-1.3292860E+000	-1.3289649E+000	1.1238400E+001	1.179241970209841E+002
-1.193528080570454E+002	-1.3312960E+000	-1.3309648E+000	1.1154291E+001	1.181241970159317E+002
-1.203839990838580E+002	-1.3332814E+000	-1.3329648E+000	1.1075237E+001	1.183241970108793E+002
-1.215036166281927E+002	-1.3352822E+000	-1.3349646E+000	1.0989650E+001	1.185241970058269E+002
-1.226007795150044E+002	-1.3372868E+000	-1.3369646E+000	1.0907654E+001	1.187241970007744E+002
-1.236532206286648E+002	-1.3392836E+000	-1.3389645E+000	1.0830964E+001	1.189241969957220E+002
-1.246767995445489E+002	-1.3412963E+000	-1.3409655E+000	1.0758187E+001	1.191241969906696E+002
-1.260039535815843E+002	-1.3432705E+000	-1.3429642E+000	1.0660542E+001	1.193239969856222E+002
-1.273582680371343E+002	-1.3452802E+000	-1.3449641E+000	1.0562959E+001	1.195239969805698E+002
-1.283931115608910E+002	-1.3472910E+000	-1.3469640E+000	1.0493484E+001	1.197239969755174E+002
-1.294630929012692E+002	-1.3492801E+000	-1.3489640E+000	1.0422122E+001	1.199239969704649E+002
-1.304457577750802E+002	-1.3512846E+000	-1.3509638E+000	1.0358977E+001	1.201239969654125E+002
-1.313727464340718E+002	-1.3532752E+000	-1.3529638E+000	1.0301034E+001	1.203239969603601E+002
-1.326864636674222E+002	-1.3552680E+000	-1.3549637E+000	1.0214064E+001	1.205239969553077E+002
-1.339824523060773E+002	-1.3572764E+000	-1.3569636E+000	1.0130256E+001	1.207239969502552E+002
-1.347741092846233E+002	-1.3592813E+000	-1.3589634E+000	1.0085627E+001	1.209239969452028E+002
-1.362018552313048E+002	-1.3612938E+000	-1.3609635E+000	9.9946785E+000	1.211239969401504E+002
-1.373811767625693E+002	-1.3632810E+000	-1.3629632E+000	9.9233465E+000	1.213239969350980E+002
-1.386748938257736E+002	-1.3652927E+000	-1.3649632E+000	9.8452768E+000	1.215239969300455E+002
-1.402642652107203E+002	-1.3672999E+000	-1.3669629E+000	9.7480278E+000	1.217239969249931E+002
-1.412334859052207E+002	-1.3693024E+000	-1.3689630E+000	9.6953096E+000	1.219239969199407E+002
-1.421505561166882E+002	-1.3713138E+000	-1.3709629E+000	9.6469116E+000	1.221239969148883E+002
-1.433538683709648E+002	-1.3733146E+000	-1.3729628E+000	9.5798922E+000	1.223239969098358E+002
-1.449336133630372E+002	-1.3753024E+000	-1.3749627E+000	9.4891891E+000	1.225239969047834E+002
-1.461470664234116E+002	-1.3772953E+000	-1.3769625E+000	9.4240360E+000	1.227239968997310E+002
-1.470166912344165E+002	-1.3793103E+000	-1.3789614E+000	9.3819981E+000	1.229238968946811E+002
-1.478842666081964E+002	-1.3813062E+000	-1.3809620E+000	9.3404541E+000	1.231237968896312E+002
-1.487773886862257E+002	-1.3833073E+000	-1.3829621E+000	9.2978334E+000	1.233237968845788E+002
-1.501019870375287E+002	-1.3853254E+000	-1.3849622E+000	9.2292280E+000	1.235237968795263E+002
-1.516378974871297E+002	-1.3873011E+000	-1.3869621E+000	9.1487751E+000	1.237237968744739E+002
-1.526859561710401E+002	-1.3893019E+000	-1.3889620E+000	9.0990810E+000	1.239237968694215E+002
-1.538595257692054E+002	-1.3913096E+000	-1.3909619E+000	9.0427265E+000	1.241237968643691E+002
-1.549522119217177E+002	-1.3932943E+000	-1.3929619E+000	8.9917679E+000	1.243237968593166E+002
-1.559712496690458E+002	-1.3952967E+000	-1.3949616E+000	8.9458580E+000	1.245237968542642E+002
-1.571673098691731E+002	-1.3973000E+000	-1.3969617E+000	8.8905258E+000	1.247237968492118E+002
-1.585153403368668E+002	-1.3992925E+000	-1.3989614E+000	8.8274889E+000	1.249237968441594E+002
-1.599409043015803E+002	-1.4013033E+000	-1.4009614E+000	8.7613811E+000	1.251237968391069E+002
-1.614214199643559E+002	-1.4032817E+000	-1.4029611E+000	8.6932802E+000	1.253237968340545E+002
-1.628265823106917E+002	-1.4053096E+000	-1.4049612E+000	8.6307135E+000	1.255237968290021E+002
-1.640285747251269E+002	-1.4073206E+000	-1.4069610E+000	8.5797281E+000	1.257237968239497E+002
-1.649808696770619E+002	-1.4093311E+000	-1.4089611E+000	8.5423908E+000	1.259237968188972E+002
-1.664650593896031E+002	-1.4113179E+000	-1.4109608E+000	8.4781628E+000	1.261237968138448E+002
-1.678868528244993E+002	-1.4133251E+000	-1.4129606E+000	8.4183187E+000	1.263237968087924E+002
-1.689563242302465E+002	-1.4153280E+000	-1.4149606E+000	8.3768873E+000	1.265237968037400E+002
-1.698411094163820E+002	-1.4173185E+000	-1.4169605E+000	8.3449669E+000	1.267237967986875E+002
-1.716516994667488E+002	-1.4193172E+000	-1.4189609E+000	8.2685881E+000	1.269237967936351E+002
-1.729349704801539E+002	-1.4212998E+000	-1.4209603E+000	8.2186956E+000	1.271235967885877E+002
-1.738008143226041E+002	-1.4233168E+000	-1.4229602E+000	8.1893568E+000	1.273235967835353E+002
-1.745351256037514E+002	-1.4253093E+000	-1.4249601E+000	8.1663179E+000	1.275235967784829E+002
-1.759380680893012E+002	-1.4273207E+000	-1.4269601E+000	8.1126318E+000	1.277235967734305E+002
-1.773845356013496E+002	-1.4293004E+000	-1.4289598E+000	8.0576382E+000	1.279235967683780E+002
-1.786838617887088E+002	-1.4313247E+000	-1.4309598E+000	8.0103750E+000	1.281235967633256E+002
-1.798677955430653E+002	-1.4333211E+000	-1.4329597E+000	7.9687481E+000	1.283235967582732E+002
-1.806981378153064E+002	-1.4353358E+000	-1.4349597E+000	7.9432793E+000	1.285235967532208E+002
-1.818862330756763E+002	-1.4373457E+000	-1.4369595E+000	7.9024439E+000	1.287235967481683E+002
-1.829992015042808E+002	-1.4393348E+000	-1.4389594E+000	7.8652515E+000	1.289235967431159E+002
-1.838499900391851E+002	-1.4413166E+000	-1.4409593E+000	7.8396339E+000	1.291235967380635E+002
-1.854838349748907E+002	-1.4433291E+000	-1.4429592E+000	7.7814279E+000	1.293235967330111E+002
-1.870876322560305E+002	-1.4453298E+000	-1.4449592E+000	7.7254162E+000	1.295235967279586E+002
-1.878137115902373E+002	-1.4473327E+000	-1.4469590E+000	7.7062144E+000	1.297235967229062E+002
-1.890067660511218E+002	-1.4493351E+000	-1.4489589E+000	7.6681652E+000	1.299235967178538E+002
-1.911053034042827E+002	-1.4513358E+000	-1.4509588E+000	7.5944295E+000	1.301235967128014E+002
-1.921778220600550E+002	-1.4533254E+000	-1.4529587E+000	7.5623989E+000	1.303235967077489E+002
-1.934795983935163E+002	-1.4553518E+000	-1.4549586E+000	7.5219913E+000	1.305235967026965E+002
-1.946795334199657E+002	-1.4573352E+000	-1.4569585E+000	7.4858165E+000	1.307235966976441E+002
-1.961537414305431E+002	-1.4593314E+000	-1.4589584E+000	7.4397326E+000	1.309234966925942E+002
-1.971724446106382E+002	-1.4613196E+000	-1.4609584E+000	7.4113784E+000	1.311233966875443E+002
-1.980306840829561E+002	-1.4633279E+000	-1.4629582E+000	7.3893995E+000	1.313233966824919E+002
-1.987896655303293E+002	-1.4653373E+000	-1.4649581E+000	7.3712950E+000	1.315233966774395E+002
-1.999390194562015E+002	-1.4673306E+000	-1.4669580E+000	7.3388906E+000	1.317233966723870E+002
-2.010510183083497E+002	-1.4693220E+000	-1.4689578E+000	7.3082047E+000	1.319233966673346E+002
-2.024246302732281E+002	-1.4713284E+000	-1.4709579E+000	7.2685246E+000	1.321233966622822E+002
-2.038300104400732E+002	-1.4733328E+000	-1.4729577E+000	7.2282424E+000	1.323233966572298E+002
-2.059771877816472E+002	-1.4753265E+000	-1.4749576E+000	7.1625724E+000	1.325233966521773E+002
-2.069376881787566E+002	-1.4773463E+000	-1.4769573E+000	7.1390877E+000	1.327233966471249E+002
-2.081922480978933E+002	-1.4793342E+000	-1.4789574E+000	7.1056161E+000	1.329233966420725E+002
-2.099683612706722E+002	-1.4813389E+000	-1.4809574E+000	7.0550575E+000	1.331233966370201E+002
-2.114103462669045E+002	-1.4833586E+000	-1.4829572E+000	7.0164900E+000	1.333233966319676E+002
-2.120821541853222E+002	-1.4853286E+000	-1.4849570E+000	7.0035529E+000	1.335233966269152E+002
-2.127814270763456E+002	-1.4873537E+000	-1.4869571E+000	6.9900541E+000	1.337233966218628E+002
-2.138066840463759E+002	-1.4893358E+000	-1.4889568E+000	6.9658055E+000	1.339233966168104E+002
-2.147500599798436E+002	-1.4913368E+000	-1.4909568E+000	6.9445233E+000	1.341233966117579E+002
-2.159769970857092E+002	-1.4933313E+000	-1.4929565E+000	6.9143071E+000	1.343233966067055E+002
-2.179627024808433E+002	-1.4953223E+000	-1.4949566E+000	6.8604507E+000	1.345233966016531E+002
-2.187587261873967E+002	-1.4973420E+000	-1.4969567E+000	6.8447189E+000	1.347233965966007E+002
-2.197908920365218E+002	-1.4993486E+000	-1.4989572E+000	6.8217049E+000	1.349232965915508E+002
-2.211363281198092E+002	-1.5013309E+000	-1.5009563E+000	6.7891641E+000	1.351231965865009E+002
-2.221352075762753E+002	-1.5033513E+000	-1.5029560E+000	6.7677312E+000	1.353231965814484E+002
-2.232934059588547E+002	-1.5053272E+000	-1.5049560E+000	6.7414765E+000	1.355231965763960E+002
-2.241859955084838E+002	-1.5073317E+000	-1.5069561E+000	6.7235765E+000	1.357231965713436E+002
-2.254274618814861E+002	-1.5093359E+000	-1.5089558E+000	6.6954393E+000	1.359231965662912E+002
-2.272143833026316E+002	-1.5113330E+000	-1.5109558E+000	6.6515727E+000	1.361231965612387E+002
-2.301480329625992E+002	-1.5133505E+000	-1.5129555E+000	6.5755525E+000	1.363231965561863E+002
-2.313581154492422E+002	-1.5153378E+000	-1.5149556E+000	6.5497499E+000	1.365231965511339E+002
-2.328957281588428E+002	-1.5173479E+000	-1.5169554E+000	6.5151386E+000	1.367231965460815E+002
-2.338386209708494E+002	-1.5193378E+000	-1.5189555E+000	6.4973774E+000	1.369231965410290E+002
-2.354465560502204E+002	-1.5213430E+000	-1.5209552E+000	6.4615216E+000	1.371231965359766E+002
-2.369149078100986E+002	-1.5233393E+000	-1.5229551E+000	6.4299006E+000	1.373231965309242E+002
-2.386237786762301E+002	-1.5253464E+000	-1.5249550E+000	6.3922648E+000	1.375231965258718E+002
-2.395602539110080E+002	-1.5273517E+000	-1.5269549E+000	6.3756475E+000	1.377231965208193E+002
-2.402784692284201E+002	-1.5293604E+000	-1.5289549E+000	6.3649497E+000	1.379231965157669E+002
-2.415548609627613E+002	-1.5313460E+000	-1.5309547E+000	6.3395371E+000	1.381231965107145E+002
-2.433399647974367E+002	-1.5333439E+000	-1.5329546E+000	6.3012414E+000	1.383231965056621E+002
-2.445744573848319E+002	-1.5353506E+000	-1.5349545E+000	6.2776408E+000	1.385231965006096E+002
-2.452113366808978E+002	-1.5373584E+000	-1.5369538E+000	6.2695241E+000	1.387230964955597E+002
-2.460351871516895E+002	-1.5393578E+000	-1.5389553E+000	6.2566571E+000	1.389230964905073E+002
-2.473279818017991E+002	-1.5413539E+000	-1.5409542E+000	6.2320242E+000	1.391229964854574E+002
-2.500657286654778E+002	-1.5433632E+000	-1.5429541E+000	6.1718302E+000	1.393229964804050E+002
-2.513393637815043E+002	-1.5453744E+000	-1.5449541E+000	6.1485572E+000	1.395229964753526E+002
-2.517412406073672E+002	-1.5473551E+000	-1.5469539E+000	6.1466093E+000	1.397229964703001E+002
-2.529212429950567E+002	-1.5493637E+000	-1.5489538E+000	6.1258740E+000	1.399229964652477E+002
-2.534520344918001E+002	-1.5513800E+000	-1.5509537E+000	6.1210008E+000	1.401229964601953E+002
-2.547526887495776E+002	-1.5533713E+000	-1.5529536E+000	6.0975661E+000	1.403229964551429E+002
-2.560259346778157E+002	-1.5553782E+000	-1.5549536E+000	6.0750809E+000	1.405229964500904E+002
-2.578782712131942E+002	-1.5573754E+000	-1.5569534E+000	6.0391884E+000	1.407229964450380E+002
-2.597467406288029E+002	-1.5593786E+000	-1.5589533E+000	6.0034580E+000	1.409229964399856E+002
-2.606720680941798E+002	-1.5613694E+000	-1.5609533E+000	5.9897842E+000	1.411229964349332E+002
-2.632155237068127E+002	-1.5633795E+000	-1.5629531E+000	5.9395413E+000	1.413229964298807E+002
-2.646726338328135E+002	-1.5653961E+000	-1.5649531E+000	5.9144616E+000	1.415229964248283E+002
-2.655265739055990E+002	-1.5673890E+000	-1.5669529E+000	5.9029460E+000	1.417229964197759E+002
-2.662544763331498E+002	-1.5693719E+000	-1.5689528E+000	5.8942556E+000	1.419229964147235E+002
-2.671150230399064E+002	-1.5713781E+000	-1.5709529E+000	5.8827772E+000	1.421229964096710E+002
-2.683871059698840E+002	-1.5733974E+000	-1.5729526E+000	5.8624182E+000	1.423229964046186E+002
-2.693447305610121E+002	-1.5753782E+000	-1.5749525E+000	5.8489289E+000	1.425229963995662E+002
-2.701393329262137E+002	-1.5773895E+000	-1.5769526E+000	5.8391700E+000	1.427228963945163E+002
-2.723089532787280E+002	-1.5793775E+000	-1.5789523E+000	5.7999473E+000	1.429227963894664E+002
-2.743410907602620E+002	-1.5813838E+000	-1.5809523E+000	5.7642980E+000	1.431227963844140E+002
-2.755498569449610E+002	-1.5833894E+000	-1.5829521E+000	5.7462902E+000	1.433227963793615E+002
-2.768143373065532E+002	-1.5853848E+000	-1.5849520E+000	5.7272496E+000	1.435227963743091E+002
-2.778845765098695E+002	-1.5873983E+000	-1.5869520E+000	5.7124376E+000	1.437227963692567E+002
-2.791757566188198E+002	-1.5893911E+000	-1.5889518E+000	5.6931558E+000	1.439227963642043E+002
-2.800094063081970E+002	-1.5913917E+000	-1.5909518E+000	5.6833506E+000	1.441227963591518E+002
-2.814779037164188E+002	-1.5933975E+000	-1.5929517E+000	5.6608262E+000	1.443227963540994E+002
-2.822977280887072E+002	-1.5953976E+000	-1.5949515E+000	5.6514716E+000	1.445227963490470E+002
-2.842397464938178E+002	-1.5973738E+000	-1.5969515E+000	5.6198115E+000	1.447227963439946E+002
-2.858558026398105E+002	-1.5993750E+000	-1.5989513E+000	5.5950413E+000	1.449227963389421E+002
-2.861821957586030E+002	-1.6013746E+000	-1.6009513E+000	5.5956473E+000	1.451227963338897E+002
-2.883174339130092E+002	-1.6033798E+000	-1.6029512E+000	5.5611615E+000	1.453227963288373E+002
-2.913321010823156E+002	-1.6053834E+000	-1.6049510E+000	5.5104928E+000	1.455227963237849E+002
-2.928282687366682E+002	-1.6073862E+000	-1.6069508E+000	5.4891772E+000	1.457227963187324E+002
-2.942069986023325E+002	-1.6093813E+000	-1.6089509E+000	5.4702349E+000	1.459227963136800E+002
-2.950656394504372E+002	-1.6113831E+000	-1.6109507E+000	5.4611006E+000	1.461227963086276E+002
-2.960914904190030E+002	-1.6133851E+000	-1.6129507E+000	5.4489412E+000	1.463227963035752E+002
-2.983993499689868E+002	-1.6153994E+000	-1.6149497E+000	5.4135485E+000	1.465226962985253E+002
-2.997113723467241E+002	-1.6173894E+000	-1.6169509E+000	5.3964901E+000	1.467226962934728E+002
-3.000166995249647E+002	-1.6193964E+000	-1.6189502E+000	5.3976879E+000	1.469225962884229E+002
-3.006480764791272E+002	-1.6214116E+000	-1.6209502E+000	5.3930550E+000	1.471225962833705E+002
-3.013784758509407E+002	-1.6233987E+000	-1.6229500E+000	5.3865781E+000	1.473225962783181E+002
-3.021616777800627E+002	-1.6253957E+000	-1.6249501E+000	5.3792248E+000	1.475225962732657E+002
-3.029407685143610E+002	-1.6273816E+000	-1.6269500E+000	5.3719463E+000	1.477225962682132E+002
-3.043500670348701E+002	-1.6294198E+000	-1.6289499E+000	5.3537683E+000	1.479225962631608E+002
-3.072281589378317E+002	-1.6314167E+000	-1.6309497E+000	5.3101144E+000	1.481225962581084E+002
-3.083236096981150E+002	-1.6334027E+000	-1.6329497E+000	5.2976894E+000	1.483225962530560E+002
-3.099126074524966E+002	-1.6354203E+000	-1.6349494E+000	5.2770371E+000	1.485225962480035E+002
-3.120713403316831E+002	-1.6374207E+000	-1.6369493E+000	5.2469435E+000	1.487225962429511E+002
-3.147691918500695E+002	-1.6394089E+000	-1.6389493E+000	5.2082891E+000	1.489225962378987E+002
-3.159588895200877E+002	-1.6414102E+000	-1.6409491E+000	5.1950121E+000	1.491225962328463E+002
-3.168318418277900E+002	-1.6434107E+000	-1.6429490E+000	5.1870122E+000	1.493225962277938E+002
-3.179186700120263E+002	-1.6454084E+000	-1.6449491E+000	5.1755638E+000	1.495225962227414E+002
-3.189943868762516E+002	-1.6474098E+000	-1.6469489E+000	5.1643848E+000	1.497225962176890E+002
-3.196863608219719E+002	-1.6494220E+000	-1.6489489E+000	5.1595011E+000	1.499225962126366E+002
-3.213491823905717E+002	-1.6514297E+000	-1.6509486E+000	5.1390505E+000	1.501225962075841E+002
-3.235104136456162E+002	-1.6534307E+000	-1.6529487E+000	5.1109042E+000	1.503225962025317E+002
-3.239496436389386E+002	-1.6554055E+000	-1.6549485E+000	5.1100707E+000	1.505225961974793E+002
-3.258999947823083E+002	-1.6574053E+000	-1.6569488E+000	5.0856252E+000	1.507225961924269E+002
-3.267548004322371E+002	-1.6594335E+000	-1.6589491E+000	5.0785284E+000	1.509224961873770E+002
-3.281748909420435E+002	-1.6614012E+000	-1.6609482E+000	5.0625482E+000	1.511223961823271E+002
-3.288526661693377E+002	-1.6634222E+000	-1.6629480E+000	5.0582600E+000	1.513223961772746E+002
-3.297855841729651E+002	-1.6654227E+000	-1.6649481E+000	5.0500164E+000	1.515223961722222E+002
-3.299197468400826E+002	-1.6674289E+000	-1.6669478E+000	5.0540438E+000	1.517223961671698E+002
-3.321427402712607E+002	-1.6694351E+000	-1.6689479E+000	5.0262580E+000	1.519223961621174E+002
-3.331616559558447E+002	-1.6714262E+000	-1.6709477E+000	5.0168624E+000	1.521223961570649E+002
-3.345581693454660E+002	-1.6734414E+000	-1.6729475E+000	5.0019445E+000	1.523223961520125E+002
-3.362417927631714E+002	-1.6754318E+000	-1.6749475E+000	4.9828186E+000	1.525223961469601E+002
-3.382937403136102E+002	-1.6774375E+000	-1.6769474E+000	4.9585238E+000	1.527223961419077E+002
-3.392302349786914E+002	-1.6794317E+000	-1.6789472E+000	4.9507136E+000	1.529223961368552E+002
-3.424185420747785E+002	-1.6814303E+000	-1.6809473E+000	4.9104533E+000	1.531223961318028E+002
-3.449093928953411E+002	-1.6834263E+000	-1.6829470E+000	4.8807783E+000	1.533223961267504E+002
-3.462007351592010E+002	-1.6854450E+000	-1.6849470E+000	4.8684039E+000	1.535223961216980E+002
-3.471973568317297E+002	-1.6874348E+000	-1.6869469E+000	4.8601604E+000	1.537223961166455E+002
-3.472087453941654E+002	-1.6894287E+000	-1.6889467E+000	4.8657436E+000	1.539223961115931E+002
-3.484481834900348E+002	-1.6914465E+000	-1.6909467E+000	4.8542271E+000	1.541223961065407E+002
-3.494052464837657E+002	-1.6934246E+000	-1.6929466E+000	4.8465919E+000	1.543223961014883E+002
-3.517689005231096E+002	-1.6954299E+000	-1.6949463E+000	4.8197265E+000	1.545223960964358E+002
-3.544422068997028E+002	-1.6974338E+000	-1.6969460E+000	4.7890286E+000	1.547222960913859E+002
-3.551967431931257E+002	-1.6994420E+000	-1.6989462E+000	4.7845092E+000	1.549221960863360E+002
-3.566101257579394E+002	-1.7014354E+000	-1.7009462E+000	4.7711363E+000	1.551221960812836E+002
-3.570347357099031E+002	-1.7034371E+000	-1.7029461E+000	4.7710681E+000	1.553221960762312E+002
-3.588419548800202E+002	-1.7054379E+000	-1.7049459E+000	4.7526155E+000	1.555221960711788E+002
-3.586124775577291E+002	-1.7074312E+000	-1.7069459E+000	4.7612152E+000	1.557221960661263E+002
-3.599062065483486E+002	-1.7094307E+000	-1.7089458E+000	4.7496562E+000	1.559221960610739E+002
-3.607116771922915E+002	-1.7114381E+000	-1.7109457E+000	4.7446151E+000	1.561221960560215E+002
-3.634737444161838E+002	-1.7134304E+000	-1.7129456E+000	4.7140417E+000	1.563221960509691E+002
-3.646909419771223E+002	-1.7154199E+000	-1.7149454E+000	4.7037635E+000	1.565221960459166E+002
-3.645494253759771E+002	-1.7174397E+000	-1.7169452E+000	4.7111297E+000	1.567221960408642E+002
-3.680705017383948E+002	-1.7194420E+000	-1.7189453E+000	4.6715016E+000	1.569221960358118E+002
-3.706299919141375E+002	-1.7214317E+000	-1.7209452E+000	4.6446099E+000	1.571221960307594E+002
-3.713817907363646E+002	-1.7234464E+000	-1.7229451E+000	4.6406326E+000	1.573221960257069E+002
-3.718251139604063E+002	-1.7254297E+000	-1.7249449E+000	4.6404333E+000	1.575221960206545E+002
-3.742118352016360E+002	-1.7274644E+000	-1.7269449E+000	4.6162744E+000	1.577221960156021E+002
-3.754774380962881E+002	-1.7294353E+000	-1.7289447E+000	4.6059632E+000	1.579221960105497E+002
-3.767455637925341E+002	-1.7314478E+000	-1.7309445E+000	4.5958014E+000	1.581221960054972E+002
-3.768040810431489E+002	-1.7334440E+000	-1.7329444E+000	4.6003852E+000	1.583221960004448E+002
-3.784328202442202E+002	-1.7354302E+000	-1.7349447E+000	4.5858345E+000	1.585221959953924E+002
-3.807500199225542E+002	-1.7374498E+000	-1.7369447E+000	4.5632296E+000	1.587220959903425E+002
-3.808407758033727E+002	-1.7394367E+000	-1.7389443E+000	4.5673594E+000	1.589219959852926E+002
-3.815232911293747E+002	-1.7414545E+000	-1.7409441E+000	4.5644774E+000	1.591219959802402E+002
-3.837017611786905E+002	-1.7434524E+000	-1.7429441E+000	4.5437698E+000	1.593219959751877E+002
-3.858035687318988E+002	-1.7454532E+000	-1.7449439E+000	4.5242019E+000	1.595219959701353E+002
-3.890742353755068E+002	-1.7474444E+000	-1.7469437E+000	4.4912877E+000	1.597219959650829E+002
-3.896142730994034E+002	-1.7494340E+000	-1.7489437E+000	4.4901690E+000	1.599219959600305E+002
-3.900318460680728E+002	-1.7514235E+000	-1.7509435E+000	4.4904628E+000	1.601219959549780E+002
-3.905443272687944E+002	-1.7534406E+000	-1.7529434E+000	4.4897351E+000	1.603219959499256E+002
-3.929396276257739E+002	-1.7554528E+000	-1.7549435E+000	4.4674873E+000	1.605219959448732E+002
-3.937112133692181E+002	-1.7574344E+000	-1.7569435E+000	4.4637651E+000	1.607219959398208E+002
-3.952830147602672E+002	-1.7594311E+000	-1.7589433E+000	4.4510670E+000	1.609219959347683E+002
-3.954873669185342E+002	-1.7614460E+000	-1.7609431E+000	4.4538617E+000	1.611219959297159E+002
-3.943951306310664E+002	-1.7634398E+000	-1.7629431E+000	4.4712515E+000	1.613219959246635E+002
-3.965045598196593E+002	-1.7654210E+000	-1.7649429E+000	4.4524608E+000	1.615219959196111E+002
-3.976106207992475E+002	-1.7674320E+000	-1.7669427E+000	4.4451327E+000	1.617219959145586E+002
-3.975395928532089E+002	-1.7694341E+000	-1.7689426E+000	4.4509630E+000	1.619219959095062E+002
-4.021777593521838E+002	-1.7714496E+000	-1.7709426E+000	4.4046431E+000	1.621219959044538E+002
-4.044992571590701E+002	-1.7734448E+000	-1.7729424E+000	4.3842969E+000	1.623219958994014E+002
-4.072141844824737E+002	-1.7754543E+000	-1.7749418E+000	4.3600011E+000	1.625218958943515E+002
-4.116997902170242E+002	-1.7774479E+000	-1.7769419E+000	4.3173399E+000	1.627217958893016E+002
-4.112347588831053E+002	-1.7794349E+000	-1.7789421E+000	4.3270535E+000	1.629217958842492E+002
-4.106467511053806E+002	-1.7814624E+000	-1.7809421E+000	4.3381872E+000	1.631217958791967E+002
-4.118064421699173E+002	-1.7834438E+000	-1.7829419E+000	4.3307819E+000	1.633217958741443E+002
-4.144998100739194E+002	-1.7854369E+000	-1.7849419E+000	4.3074493E+000	1.635217958690919E+002
-4.151950648604054E+002	-1.7874408E+000	-1.7869418E+000	4.3050628E+000	1.637217958640395E+002
-4.168324448765015E+002	-1.7894460E+000	-1.7889416E+000	4.2929626E+000	1.639217958589870E+002
-4.165113273542765E+002	-1.7914553E+000	-1.7909417E+000	4.3010960E+000	1.641217958539346E+002
-4.174912649098437E+002	-1.7934550E+000	-1.7929415E+000	4.2957907E+000	1.643217958488822E+002
-4.194909116827175E+002	-1.7954553E+000	-1.7949415E+000	4.2800817E+000	1.645217958438298E+002
-4.216432022302306E+002	-1.7974480E+000	-1.7969414E+000	4.2629600E+000	1.647217958387773E+002
-4.209492205146220E+002	-1.7994274E+000	-1.7989414E+000	4.2746902E+000	1.649217958337249E+002
-4.211020202636706E+002	-1.8014416E+000	-1.8009411E+000	4.2779217E+000	1.651217958286725E+002
-4.215987352470675E+002	-1.8034332E+000	-1.8029410E+000	4.2776055E+000	1.653217958236201E+002
-4.235570214848958E+002	-1.8054399E+000	-1.8049407E+000	4.2625666E+000	1.655217958185676E+002
-4.242648759785679E+002	-1.8074559E+000	-1.8069408E+000	4.2602062E+000	1.657217958135152E+002
-4.248479685231928E+002	-1.8094411E+000	-1.8089406E+000	4.2590318E+000	1.659217958084628E+002
-4.247502272988659E+002	-1.8114402E+000	-1.8109406E+000	4.2647185E+000	1.661217958034104E+002
-4.286498624321575E+002	-1.8134351E+000	-1.8129406E+000	4.2305741E+000	1.663217957983579E+002
-4.289002573590387E+002	-1.8154429E+000	-1.8149410E+000	4.2327857E+000	1.665217957933055E+002
-4.329152349701280E+002	-1.8174585E+000	-1.8169403E+000	4.1981854E+000	1.667215957882581E+002
-4.325428886413574E+002	-1.8194368E+000	-1.8189402E+000	4.2063732E+000	1.669215957832057E+002
-4.330096569926291E+002	-1.8214583E+000	-1.8209401E+000	4.2065072E+000	1.671215957781533E+002
-4.342298393422516E+002	-1.8234676E+000	-1.8229400E+000	4.1993146E+000	1.673215957731009E+002
-4.386182583832685E+002	-1.8254554E+000	-1.8249397E+000	4.1618319E+000	1.675215957680484E+002
-4.399819243121847E+002	-1.8274462E+000	-1.8269396E+000	4.1534576E+000	1.677215957629960E+002
-4.407675660451268E+002	-1.8294433E+000	-1.8289397E+000	4.1505852E+000	1.679215957579436E+002
-4.427163216900117E+002	-1.8314605E+000	-1.8309397E+000	4.1368713E+000	1.681215957528912E+002
-4.451082410012236E+002	-1.8334655E+000	-1.8329395E+000	4.1191454E+000	1.683215957478387E+002
-4.456077764731690E+002	-1.8354745E+000	-1.8349396E+000	4.1190362E+000	1.685215957427863E+002
-4.505762452149320E+002	-1.8374672E+000	-1.8369393E+000	4.0780382E+000	1.687215957377339E+002
-4.524827033581396E+002	-1.8394727E+000	-1.8389392E+000	4.0652885E+000	1.689215957326815E+002
-4.523821591184806E+002	-1.8414646E+000	-1.8409389E+000	4.0705953E+000	1.691215957276290E+002
-4.536171684178644E+002	-1.8434799E+000	-1.8429389E+000	4.0639553E+000	1.693215957225766E+002
-4.546512056294487E+002	-1.8454802E+000	-1.8449389E+000	4.0591121E+000	1.695215957175242E+002
-4.555913142682207E+002	-1.8475032E+000	-1.8469388E+000	4.0551763E+000	1.697215957124718E+002
-4.565144091452598E+002	-1.8494791E+000	-1.8489387E+000	4.0513048E+000	1.699215957074193E+002
-4.568113860608210E+002	-1.8514832E+000	-1.8509386E+000	4.0530586E+000	1.701215957023669E+002
-4.573803356931858E+002	-1.8534949E+000	-1.8529385E+000	4.0524149E+000	1.703215956973145E+002
-4.568981617315823E+002	-1.8555014E+000	-1.8549386E+000	4.0610833E+000	1.705214956922646E+002
-4.581898241107970E+002	-1.8574961E+000	-1.8569384E+000	4.0539880E+000	1.707213956872147E+002
-4.604743184675699E+002	-1.8594937E+000	-1.8589381E+000	4.0382137E+000	1.709213956821623E+002
-4.629444172009316E+002	-1.8614825E+000	-1.8609380E+000	4.0209632E+000	1.711213956771098E+002
-4.633832298763200E+002	-1.8634750E+000	-1.8629378E+000	4.0214553E+000	1.713213956720574E+002
-4.652868267889717E+002	-1.8654780E+000	-1.8649379E+000	4.0093079E+000	1.715213956670050E+002
-4.685769018359213E+002	-1.8674803E+000	-1.8669379E+000	3.9854298E+000	1.717213956619526E+002
-4.696239107871543E+002	-1.8694875E+000	-1.8689377E+000	3.9808185E+000	1.719213956569001E+002
-4.724585205822036E+002	-1.8714900E+000	-1.8709376E+000	3.9611731E+000	1.721213956518477E+002
-4.763533196005947E+002	-1.8735087E+000	-1.8729376E+000	3.9330232E+000	1.723213956467953E+002
-4.804396478043127E+002	-1.8755090E+000	-1.8749373E+000	3.9037349E+000	1.725213956417429E+002
-4.813325376056509E+002	-1.8774849E+000	-1.8769372E+000	3.9005983E+000	1.727213956366904E+002
-4.833461521261133E+002	-1.8795063E+000	-1.8789371E+000	3.8885307E+000	1.729213956316380E+002
-4.831159839413867E+002	-1.8815079E+000	-1.8809370E+000	3.8945262E+000	1.731213956265856E+002
-4.817181873494537E+002	-1.8835238E+000	-1.8829368E+000	3.9100118E+000	1.733213956215332E+002
-4.824566443653075E+002	-1.8855108E+000	-1.8849368E+000	3.9081457E+000	1.735213956164807E+002
-4.850169337266125E+002	-1.8874961E+000	-1.8869368E+000	3.8916087E+000	1.737213956114283E+002
-4.855764209332115E+002	-1.8894931E+000	-1.8889368E+000	3.8912373E+000	1.739213956063759E+002
-4.867059888385584E+002	-1.8915042E+000	-1.8909366E+000	3.8863385E+000	1.741213956013235E+002
-4.869626412510593E+002	-1.8935195E+000	-1.8929363E+000	3.8884287E+000	1.743213955962710E+002
-4.890704833825712E+002	-1.8955185E+000	-1.8949361E+000	3.8757575E+000	1.745211955912237E+002
-4.902280408249408E+002	-1.8975210E+000	-1.8969362E+000	3.8706906E+000	1.747211955861712E+002
-4.888878213661865E+002	-1.8995091E+000	-1.8989359E+000	3.8853679E+000	1.749211955811188E+002
-4.885134704832053E+002	-1.9015094E+000	-1.9009361E+000	3.8924401E+000	1.751211955760664E+002
-4.933652782959198E+002	-1.9035089E+000	-1.9029359E+000	3.8582141E+000	1.753211955710140E+002
-4.959912693084223E+002	-1.9055017E+000	-1.9049360E+000	3.8418050E+000	1.755211955659615E+002
-4.983216369222337E+002	-1.9074956E+000	-1.9069357E+000	3.8278403E+000	1.757211955609091E+002
-4.977626374259819E+002	-1.9095008E+000	-1.9089358E+000	3.8361676E+000	1.759211955558567E+002
-4.974817435941459E+002	-1.9114929E+000	-1.9109355E+000	3.8423378E+000	1.761211955508043E+002
-4.993551303534814E+002	-1.9134951E+000	-1.9129354E+000	3.8319323E+000	1.763211955457518E+002
-4.997351512043915E+002	-1.9154919E+000	-1.9149351E+000	3.8330142E+000	1.765211955406994E+002
-5.001981658805762E+002	-1.9174968E+000	-1.9169352E+000	3.8334742E+000	1.767211955356470E+002
-5.006572268393035E+002	-1.9194854E+000	-1.9189351E+000	3.8339314E+000	1.769211955305946E+002
-5.058508500685230E+002	-1.9215001E+000	-1.9209350E+000	3.7985506E+000	1.771211955255421E+002
-5.055543982966419E+002	-1.9235071E+000	-1.9229350E+000	3.8047481E+000	1.773211955204897E+002
-5.060920679996318E+002	-1.9254967E+000	-1.9249350E+000	3.8046372E+000	1.775211955154373E+002
-5.122761198636358E+002	-1.9275103E+000	-1.9269347E+000	3.7626393E+000	1.777211955103849E+002
-5.151039314053742E+002	-1.9294927E+000	-1.9289346E+000	3.7458320E+000	1.779211955053324E+002
-5.151416528230338E+002	-1.9314963E+000	-1.9309345E+000	3.7494469E+000	1.781211955002800E+002
-5.168287544960185E+002	-1.9335028E+000	-1.9329339E+000	3.7410898E+000	1.783210954952301E+002
-5.157412801058881E+002	-1.9354973E+000	-1.9349352E+000	3.7528453E+000	1.785210954901777E+002
-5.165749092145325E+002	-1.9375023E+000	-1.9369340E+000	3.7506704E+000	1.787209954851278E+002
-5.191851052264792E+002	-1.9395075E+000	-1.9389341E+000	3.7356763E+000	1.789209954800754E+002
-5.193785551032242E+002	-1.9415082E+000	-1.9409341E+000	3.7381370E+000	1.791209954750229E+002
-5.209223118347372E+002	-1.9435225E+000	-1.9429339E+000	3.7309258E+000	1.793209954699705E+002
-5.237389462615888E+002	-1.9455007E+000	-1.9449340E+000	3.7146382E+000	1.795209954649181E+002
-5.239619571659823E+002	-1.9475026E+000	-1.9469337E+000	3.7168779E+000	1.797209954598657E+002
-5.240001359969838E+002	-1.9495198E+000	-1.9489336E+000	3.7204566E+000	1.799209954548132E+002
-5.252802051276026E+002	-1.9515271E+000	-1.9509333E+000	3.7152116E+000	1.801209954497608E+002
-5.277200268855700E+002	-1.9535171E+000	-1.9529333E+000	3.7018058E+000	1.803209954447084E+002
-5.295408369873121E+002	-1.9555216E+000	-1.9549333E+000	3.6928627E+000	1.805209954396560E+002
-5.305387157820787E+002	-1.9575044E+000	-1.9569333E+000	3.6896541E+000	1.807209954346035E+002
-5.314420009448659E+002	-1.9595077E+000	-1.9589331E+000	3.6871524E+000	1.809209954295511E+002
-5.316958027275241E+002	-1.9615074E+000	-1.9609331E+000	3.6891534E+000	1.811209954244987E+002
-5.314218255992382E+002	-1.9635147E+000	-1.9629329E+000	3.6948326E+000	1.813209954194463E+002
-5.349323800448115E+002	-1.9654951E+000	-1.9649328E+000	3.6742871E+000	1.815209954143938E+002
-5.365755542097686E+002	-1.9675000E+000	-1.9669328E+000	3.6667717E+000	1.817209954093414E+002
-5.412509583842984E+002	-1.9695133E+000	-1.9689325E+000	3.6388173E+000	1.819209954042890E+002
-5.407119700849194E+002	-1.9715160E+000	-1.9709324E+000	3.6461482E+000	1.821209953992366E+002
-5.418692478989587E+002	-1.9735200E+000	-1.9729325E+000	3.6420596E+000	1.823208953941867E+002
-5.414574166468774E+002	-1.9755218E+000	-1.9749323E+000	3.6485267E+000	1.825207953891368E+002
-5.439221693025938E+002	-1.9775467E+000	-1.9769323E+000	3.6357162E+000	1.827207953840843E+002
-5.458601861508287E+002	-1.9795231E+000	-1.9789321E+000	3.6264288E+000	1.829207953790319E+002
-5.483087136750848E+002	-1.9815238E+000	-1.9809320E+000	3.6138835E+000	1.831207953739795E+002
-5.514421794225291E+002	-1.9835337E+000	-1.9829320E+000	3.5969932E+000	1.833207953689271E+002
-5.541284600644958E+002	-1.9855289E+000	-1.9849317E+000	3.5831563E+000	1.835207953638746E+002
-5.548847098577562E+002	-1.9875237E+000	-1.9869316E+000	3.5818677E+000	1.837207953588222E+002
-5.548142765417128E+002	-1.9895303E+000	-1.9889315E+000	3.5859394E+000	1.839207953537698E+002
-5.555600686278749E+002	-1.9915303E+000	-1.9909314E+000	3.5847254E+000	1.841207953487174E+002
-5.569183523087286E+002	-1.9929352E+000	-1.9923311E+000	3.5785050E+000	1.842607953451807E+002
-5.599883531358510E+002	-1.9934220E+000	-1.9928310E+000	3.5597563E+000	1.842997953441954E+002