EC-Lab ASCII FILE
Nb header lines : 61                          

Linear Sweep Voltammetry

Run on channel : 1 (SN 1340)
User : 
Electrode connection : standard
Potential control : Ewe
Ewe ctrl range : min = -5.00 V, max = 5.00 V
Ewe,I filtering : <None>
Channel : Grounded
Acquisition started on : 02/05/2026 17:13:41.507
Technique started on : 02/05/2026 17:13:44.188
Loaded Setting File :  NONE
Saved on :
	File : Pt_40_PdNiCo_01_02_LSV_C01.mpr
	Directory : C:\Users\volt\Documents\Platalytix\
	Host : 127.0.0.1
Device : SP-200 (SN 0262)
Address : USB
EC-LAB for windows v11.60 (software)
Internet server v11.60 (firmware)
Command interpretor v11.60 (firmware)
Electrode material : PtPdNiCo
Initial state : 
Electrolyte : 1 M KOH
Comments : 
Cable : standard
Reference electrode : Hg/HgO (0.140 V)
Electrode surface area : 1.000 cm˛
Characteristic mass : 0.001 g
Equivalent Weight : 0.000 g/eq.
Density : 0.000 g/cm3
Volume (V) : 0.001 cmł
Cycle Definition : Charge/Discharge alternance
tR (h:m:s)          0:00:5.0000         
dER/dt (mV/h)       0.0                 
dER (mV)            0                   
dtR (s)             0.0000              
dE/dt               10.000              
dE/dt unit          mV/s                
Ei (V)              -0.200              
vs.                 Ref                 
EL (V)              -2.000              
vs.                 Ref                 
record              <I>                 
dI                  0.000               
unit dI             µA                  
tI (s)              0.0000              
step percent        50                  
N                   10                  
E range min (V)     -5.000              
E range max (V)     5.000               
I Range             Auto                
I Range min         Unset               
I Range max         Unset               
I Range init        Unset               
Bandwidth           8                   

Rwe/Ohm	time/s	Ewe/V	<I>/mA	Pwe/W	control/V	error	
0.0000000E+000	2.681400127330562E+000	-1.5578175E-001	0.000000000000000E+000	0.0000000E+000	0.0000000E+000	0
0.0000000E+000	7.681200001024990E+000	-2.9336993E-002	0.000000000000000E+000	0.0000000E+000	-1.9997612E-001	0
1.7788270E+003	7.881199995972565E+000	-2.0175216E-001	-1.134186454862356E-001	2.2882456E-005	-2.0187590E-001	0
1.2461978E+003	8.001199992941110E+000	-2.0288484E-001	-1.628030794207005E-001	3.3030276E-005	-2.0307595E-001	0
1.4805471E+003	8.211199987636064E+000	-2.0504208E-001	-1.384907537171622E-001	2.8396433E-005	-2.0517595E-001	0
1.6884565E+003	8.411199982583639E+000	-2.0706712E-001	-1.226369211367857E-001	2.5394074E-005	-2.0717590E-001	0
1.8625128E+003	8.611199977531214E+000	-2.0906286E-001	-1.122477415298658E-001	2.3466833E-005	-2.0917581E-001	0
2.0128845E+003	8.811199972478789E+000	-2.1108747E-001	-1.048681449721613E-001	2.2136352E-005	-2.1117575E-001	0
2.1455522E+003	9.011199967426364E+000	-2.1310315E-001	-9.932321742759909E-002	2.1166090E-005	-2.1317568E-001	0
2.2664868E+003	9.211199962373939E+000	-2.1506283E-001	-9.488818711493491E-002	2.0406922E-005	-2.1517560E-001	0
2.3770012E+003	9.411199957321514E+000	-2.1698621E-001	-9.128569555680066E-002	1.9807738E-005	-2.1717554E-001	0
2.4821836E+003	9.611199952269089E+000	-2.1900508E-001	-8.823081244589970E-002	1.9322995E-005	-2.1917549E-001	0
2.5800190E+003	9.811199947216664E+000	-2.2106682E-001	-8.568417813360685E-002	1.8941928E-005	-2.2117540E-001	0
2.6749397E+003	1.001119994216424E+001	-2.2310287E-001	-8.340482421001826E-002	1.8607856E-005	-2.2317535E-001	0
2.7610930E+003	1.021119993711181E+001	-2.2502881E-001	-8.149990231504067E-002	1.8339826E-005	-2.2517529E-001	0
2.8466016E+003	1.041119993205939E+001	-2.2708757E-001	-7.977497574182663E-002	1.8115905E-005	-2.2717522E-001	0
2.9300095E+003	1.061119992700696E+001	-2.2908375E-001	-7.818532744876594E-002	1.7910988E-005	-2.2917517E-001	0
3.0120334E+003	1.081119992195454E+001	-2.3109923E-001	-7.672531986049469E-002	1.7731163E-005	-2.3117508E-001	0
3.0885388E+003	1.101119991690211E+001	-2.3309410E-001	-7.547066934552471E-002	1.7591767E-005	-2.3317501E-001	0
3.1661221E+003	1.121119991184969E+001	-2.3511043E-001	-7.425817106311897E-002	1.7458871E-005	-2.3517494E-001	0
3.2420693E+003	1.141119990679726E+001	-2.3707668E-001	-7.312511011288680E-002	1.7336259E-005	-2.3717487E-001	0
3.3135725E+003	1.161119990174484E+001	-2.3908961E-001	-7.215463386134764E-002	1.7251423E-005	-2.3917481E-001	0
3.3866611E+003	1.181119989669241E+001	-2.4106012E-001	-7.117928518932681E-002	1.7158487E-005	-2.4117473E-001	0
3.4592036E+003	1.201119989163999E+001	-2.4305882E-001	-7.026438668788426E-002	1.7078379E-005	-2.4317467E-001	0
3.5312822E+003	1.221119988658756E+001	-2.4504906E-001	-6.939379109308334E-002	1.7004882E-005	-2.4517460E-001	0
3.5995513E+003	1.241119988153514E+001	-2.4704224E-001	-6.863139771387528E-002	1.6954855E-005	-2.4717452E-001	0
3.6712458E+003	1.261119987648271E+001	-2.4904478E-001	-6.783658246268989E-002	1.6894346E-005	-2.4917449E-001	0
3.7388108E+003	1.281119987143029E+001	-2.5104204E-001	-6.714488824252940E-002	1.6856189E-005	-2.5117442E-001	0
3.8070813E+003	1.301119986637787E+001	-2.5306219E-001	-6.647144132050908E-002	1.6821408E-005	-2.5317436E-001	0
3.8740774E+003	1.321119986132544E+001	-2.5509295E-001	-6.584611576094868E-002	1.6796879E-005	-2.5517431E-001	0
3.9423923E+003	1.341119985627302E+001	-2.5709292E-001	-6.521241527046540E-002	1.6765651E-005	-2.5717425E-001	0
4.0069390E+003	1.361109985122312E+001	-2.5905904E-001	-6.465260638239606E-002	1.6748842E-005	-2.5917503E-001	0
4.0737925E+003	1.381099984617322E+001	-2.6105154E-001	-6.408071641275936E-002	1.6728369E-005	-2.6117411E-001	0
4.1401606E+003	1.401099984112079E+001	-2.6310858E-001	-6.355032828887741E-002	1.6720636E-005	-2.6317403E-001	0
4.2081685E+003	1.421099983606837E+001	-2.6506931E-001	-6.298923648021670E-002	1.6696513E-005	-2.6517394E-001	0
4.2737710E+003	1.441099983101594E+001	-2.6706612E-001	-6.248957296736254E-002	1.6688848E-005	-2.6717389E-001	0
4.3382290E+003	1.461099982596352E+001	-2.6906356E-001	-6.202152245751957E-002	1.6687733E-005	-2.6917383E-001	0
4.4045986E+003	1.481099982091109E+001	-2.7107838E-001	-6.154440151466267E-002	1.6683356E-005	-2.7117375E-001	0
4.4703384E+003	1.501099981585867E+001	-2.7303132E-001	-6.107621118289064E-002	1.6675718E-005	-2.7317366E-001	0
4.5351948E+003	1.521099981080624E+001	-2.7506986E-001	-6.065226847711358E-002	1.6683611E-005	-2.7517363E-001	0
4.6009561E+003	1.541099980575382E+001	-2.7705801E-001	-6.021748407946614E-002	1.6683736E-005	-2.7717358E-001	0
4.6644189E+003	1.561099980070139E+001	-2.7903229E-001	-5.982144500863845E-002	1.6692115E-005	-2.7917349E-001	0
4.7320962E+003	1.581099979564897E+001	-2.8107938E-001	-5.939849358275839E-002	1.6695692E-005	-2.8117341E-001	0
4.7927466E+003	1.601099979059654E+001	-2.8308892E-001	-5.906611567684128E-002	1.6720964E-005	-2.8317332E-001	0
4.8601724E+003	1.621099978554412E+001	-2.8504968E-001	-5.865011808606047E-002	1.6718197E-005	-2.8517327E-001	0
4.9234814E+003	1.641099978049169E+001	-2.8704247E-001	-5.830071352806598E-002	1.6734781E-005	-2.8717321E-001	0
4.9865171E+003	1.661099977543927E+001	-2.8905770E-001	-5.796785732148346E-002	1.6756056E-005	-2.8917316E-001	0
5.0511719E+003	1.681099977038684E+001	-2.9109272E-001	-5.762875243829235E-002	1.6775310E-005	-2.9117307E-001	0
5.1141924E+003	1.701099976533442E+001	-2.9304877E-001	-5.730108438110382E-002	1.6792012E-005	-2.9317302E-001	0
5.1783594E+003	1.721099976028199E+001	-2.9504111E-001	-5.697578739252385E-002	1.6810200E-005	-2.9517293E-001	0
5.2438208E+003	1.741099975522957E+001	-2.9706553E-001	-5.665058647694224E-002	1.6828937E-005	-2.9717290E-001	0
5.3096611E+003	1.761099975017714E+001	-2.9907525E-001	-5.632661506660352E-002	1.6845896E-005	-2.9917282E-001	0
5.3738076E+003	1.781099974512472E+001	-3.0108860E-001	-5.602891386281730E-002	1.6869668E-005	-3.0117273E-001	0
5.4373291E+003	1.801099974007229E+001	-3.0307990E-001	-5.574058565045015E-002	1.6893851E-005	-3.0317268E-001	0
5.4972192E+003	1.821099973501987E+001	-3.0506694E-001	-5.549477618409404E-002	1.6929622E-005	-3.0517259E-001	0
5.5605186E+003	1.841099972996744E+001	-3.0711955E-001	-5.523217759093019E-002	1.6962882E-005	-3.0717254E-001	0
5.6187432E+003	1.861099972491502E+001	-3.0910447E-001	-5.501309890023387E-002	1.7004795E-005	-3.0917245E-001	0
5.6838091E+003	1.881099971986259E+001	-3.1102619E-001	-5.472143303471999E-002	1.7019798E-005	-3.1117240E-001	0
5.7504785E+003	1.901099971481017E+001	-3.1305903E-001	-5.444052047148988E-002	1.7043096E-005	-3.1317234E-001	0
5.8096577E+003	1.921099970975774E+001	-3.1507984E-001	-5.423380277180834E-002	1.7087978E-005	-3.1517228E-001	0
5.8695825E+003	1.941089970470784E+001	-3.1710339E-001	-5.402486359401679E-002	1.7131468E-005	-3.1717178E-001	0
5.9323979E+003	1.961079969965795E+001	-3.1904605E-001	-5.378028572021698E-002	1.7158387E-005	-3.1917214E-001	0
5.9845205E+003	1.981079969460552E+001	-3.2102078E-001	-5.364185319780512E-002	1.7220149E-005	-3.2117203E-001	0
6.0550420E+003	2.001079968955310E+001	-3.2305810E-001	-5.335356876446262E-002	1.7236302E-005	-3.2317200E-001	0
6.1079146E+003	2.021079968450067E+001	-3.2504791E-001	-5.321749391524189E-002	1.7298235E-005	-3.2517192E-001	0
6.1720112E+003	2.041079967944825E+001	-3.2709521E-001	-5.299653351737743E-002	1.7334913E-005	-3.2717186E-001	0
6.2315962E+003	2.061079967439582E+001	-3.2909670E-001	-5.281098244042309E-002	1.7379920E-005	-3.2917181E-001	0
6.2927495E+003	2.081079966934340E+001	-3.3115330E-001	-5.262457951850538E-002	1.7426803E-005	-3.3117172E-001	0
6.3509888E+003	2.101079966429097E+001	-3.3312809E-001	-5.245294974633241E-002	1.7473551E-005	-3.3317167E-001	0
6.4039121E+003	2.121079965923855E+001	-3.3504912E-001	-5.231944486380559E-002	1.7529585E-005	-3.3517161E-001	0
6.4675142E+003	2.141079965418612E+001	-3.3707544E-001	-5.211823632309209E-002	1.7567778E-005	-3.3717155E-001	0
6.5246963E+003	2.161079964913370E+001	-3.3906040E-001	-5.196569656611105E-002	1.7619510E-005	-3.3917147E-001	0
6.5864907E+003	2.181079964408127E+001	-3.4102404E-001	-5.177628804925316E-002	1.7656959E-005	-3.4117138E-001	0
6.6384233E+003	2.201079963902885E+001	-3.4304783E-001	-5.167610095095843E-002	1.7727374E-005	-3.4317133E-001	0
6.7015391E+003	2.221079963397642E+001	-3.4506264E-001	-5.149005855752553E-002	1.7767296E-005	-3.4517124E-001	0
6.7573354E+003	2.241079962892400E+001	-3.4703907E-001	-5.135738338415585E-002	1.7823018E-005	-3.4717119E-001	0
6.8166494E+003	2.261079962387157E+001	-3.4909871E-001	-5.121265623249660E-002	1.7878272E-005	-3.4917113E-001	0
6.8717373E+003	2.281079961881915E+001	-3.5108978E-001	-5.109185088202028E-002	1.7937826E-005	-3.5117108E-001	0
6.9294683E+003	2.301079961376672E+001	-3.5306072E-001	-5.095062193000333E-002	1.7988663E-005	-3.5317099E-001	0
6.9753306E+003	2.321079960871430E+001	-3.5505003E-001	-5.090081630868087E-002	1.8072336E-005	-3.5517091E-001	0
7.0363423E+003	2.341079960366187E+001	-3.5706621E-001	-5.074599887140951E-002	1.8119681E-005	-3.5717085E-001	0
7.0920620E+003	2.361079959860945E+001	-3.5910287E-001	-5.063447962639622E-002	1.8182987E-005	-3.5917079E-001	0
7.1452114E+003	2.381079959355702E+001	-3.6108083E-001	-5.053465874219404E-002	1.8247096E-005	-3.6117074E-001	0
7.2008867E+003	2.401079958850460E+001	-3.6306930E-001	-5.042008084694860E-002	1.8305984E-005	-3.6317062E-001	0
7.2560332E+003	2.421079958345217E+001	-3.6507609E-001	-5.031345557957845E-002	1.8368240E-005	-3.6517057E-001	0
7.3054980E+003	2.441079957839975E+001	-3.6704320E-001	-5.024205105930393E-002	1.8441004E-005	-3.6717051E-001	0
7.3642549E+003	2.461079957334732E+001	-3.6905614E-001	-5.011452443141701E-002	1.8495073E-005	-3.6917043E-001	0
7.4062017E+003	2.481079956829490E+001	-3.7108776E-001	-5.010500359465120E-002	1.8593353E-005	-3.7117040E-001	0
7.4606860E+003	2.501079956324247E+001	-3.7307265E-001	-5.000513934587292E-002	1.8655550E-005	-3.7317035E-001	0
7.5096802E+003	2.521079955819005E+001	-3.7506565E-001	-4.994429076299500E-002	1.8732388E-005	-3.7517026E-001	0
7.5713354E+003	2.541069955314015E+001	-3.7701169E-001	-4.979460994564455E-002	1.8773149E-005	-3.7717086E-001	0
7.6106440E+003	2.561059954809025E+001	-3.7905750E-001	-4.980623239203608E-002	1.8879426E-005	-3.7917015E-001	0
7.6689629E+003	2.581059954303782E+001	-3.8105816E-001	-4.968835538160288E-002	1.8934154E-005	-3.8117003E-001	0
7.7187744E+003	2.601059953798540E+001	-3.8304096E-001	-4.962458436128137E-002	1.9008248E-005	-3.8316998E-001	0
7.7673223E+003	2.621059953293297E+001	-3.8501868E-001	-4.956903724662964E-002	1.9085006E-005	-3.8516992E-001	0
7.8169785E+003	2.641059952788055E+001	-3.8705686E-001	-4.951489390277411E-002	1.9165080E-005	-3.8716984E-001	0
7.8670449E+003	2.661059952282812E+001	-3.8900661E-001	-4.944761684681831E-002	1.9235449E-005	-3.8916978E-001	0
7.9169209E+003	2.681059951777570E+001	-3.9110801E-001	-4.940153033759820E-002	1.9321335E-005	-3.9116973E-001	0
7.9593423E+003	2.701059951272327E+001	-3.9310777E-001	-4.938947888885270E-002	1.9415387E-005	-3.9316961E-001	0
8.0040137E+003	2.721059950767085E+001	-3.9507213E-001	-4.935925181579170E-002	1.9500465E-005	-3.9516956E-001	0
8.0658403E+003	2.741059950261842E+001	-3.9706507E-001	-4.922798511418058E-002	1.9546713E-005	-3.9716950E-001	0
8.1085752E+003	2.761059949756600E+001	-3.9905804E-001	-4.921432467739284E-002	1.9639372E-005	-3.9916947E-001	0
8.1565044E+003	2.781059949251357E+001	-4.0106741E-001	-4.917148061312066E-002	1.9721077E-005	-4.0116939E-001	0
8.2113447E+003	2.801059948746115E+001	-4.0314105E-001	-4.909562054744865E-002	1.9792460E-005	-4.0316933E-001	0
8.2511729E+003	2.821059948240872E+001	-4.0504447E-001	-4.908932200706939E-002	1.9883359E-005	-4.0516922E-001	0
8.2993711E+003	2.841059947735630E+001	-4.0705591E-001	-4.904659943551648E-002	1.9964709E-005	-4.0716916E-001	0
8.3445010E+003	2.861059947230387E+001	-4.0899709E-001	-4.901396540677833E-002	2.0046569E-005	-4.0916911E-001	0
8.3903271E+003	2.881059946725145E+001	-4.1109899E-001	-4.899677591527174E-002	2.0142525E-005	-4.1116905E-001	0
8.4301836E+003	2.901059946219902E+001	-4.1310871E-001	-4.900352637359523E-002	2.0243784E-005	-4.1316900E-001	0
8.4874912E+003	2.921059945714660E+001	-4.1507581E-001	-4.890441711381732E-002	2.0299041E-005	-4.1516891E-001	0
8.5328154E+003	2.941059945209417E+001	-4.1706625E-001	-4.887791575923084E-002	2.0385329E-005	-4.1716886E-001	0
8.5810479E+003	2.961059944704175E+001	-4.1910931E-001	-4.884127339864530E-002	2.0469832E-005	-4.1916874E-001	0
8.6241650E+003	2.981059944198933E+001	-4.2103055E-001	-4.881986038460506E-002	2.0554653E-005	-4.2116868E-001	0
8.6772227E+003	3.001059943693690E+001	-4.2303205E-001	-4.875200743181951E-002	2.0623662E-005	-4.2316863E-001	0
8.7175195E+003	3.021059943188448E+001	-4.2508638E-001	-4.876230633632814E-002	2.0728192E-005	-4.2516857E-001	0
8.7658330E+003	3.041059942683205E+001	-4.2705303E-001	-4.871790830120903E-002	2.0805130E-005	-4.2716849E-001	0
8.8150469E+003	3.061059942177963E+001	-4.2906022E-001	-4.867361824275282E-002	2.0883914E-005	-4.2916846E-001	0
8.8666611E+003	3.081059941672720E+001	-4.3105513E-001	-4.861527065220639E-002	2.0955862E-005	-4.3116832E-001	0
8.9097939E+003	3.101059941167478E+001	-4.3310010E-001	-4.860944093005481E-002	2.1052754E-005	-4.3316829E-001	0
8.9605967E+003	3.121059940662235E+001	-4.3515760E-001	-4.856346010852408E-002	2.1132759E-005	-4.3516821E-001	0
9.0001885E+003	3.141049940157245E+001	-4.3715632E-001	-4.857190694004111E-002	2.1233516E-005	-4.3716887E-001	0
9.0483984E+003	3.161039939652255E+001	-4.3919638E-001	-4.853857440193932E-002	2.1317966E-005	-4.3916810E-001	0
9.0971680E+003	3.181039939147013E+001	-4.4110876E-001	-4.848858088206354E-002	2.1388738E-005	-4.4116804E-001	0
9.1399336E+003	3.201039938641770E+001	-4.4309154E-001	-4.847864160718607E-002	2.1480477E-005	-4.4316792E-001	0
9.1875879E+003	3.221039938136528E+001	-4.4513398E-001	-4.844949156750222E-002	2.1566515E-005	-4.4516787E-001	0
9.2290020E+003	3.241039937631285E+001	-4.4709083E-001	-4.844411672541737E-002	2.1658921E-005	-4.4716787E-001	0
9.2870117E+003	3.261039937126043E+001	-4.4912973E-001	-4.836106020191699E-002	2.1720391E-005	-4.4916776E-001	0
9.3287520E+003	3.281039936620800E+001	-4.5108342E-001	-4.835410133007351E-002	2.1811733E-005	-4.5116776E-001	0
9.3824912E+003	3.301039936115558E+001	-4.5305261E-001	-4.828702530146800E-002	2.1876564E-005	-4.5316762E-001	0
9.4333848E+003	3.321039935610315E+001	-4.5507616E-001	-4.824102802604369E-002	2.1953341E-005	-4.5516759E-001	0
9.4860957E+003	3.341039935105073E+001	-4.5712009E-001	-4.818843101318127E-002	2.2027900E-005	-4.5716745E-001	0
9.5314824E+003	3.361039934599830E+001	-4.5918632E-001	-4.817575091166670E-002	2.2121645E-005	-4.5916748E-001	0
9.5912158E+003	3.381039934094588E+001	-4.6111158E-001	-4.807644562142177E-002	2.2168606E-005	-4.6116734E-001	0
9.6374707E+003	3.401039933589345E+001	-4.6316314E-001	-4.805857891321419E-002	2.2258962E-005	-4.6316734E-001	0
9.6837705E+003	3.421039933084103E+001	-4.6510306E-001	-4.802913024473532E-002	2.2338496E-005	-4.6516719E-001	0
9.7414609E+003	3.441039932578860E+001	-4.6708351E-001	-4.794799243448450E-002	2.2395718E-005	-4.6716717E-001	0
9.7919727E+003	3.461039932073618E+001	-4.6905172E-001	-4.790165680201933E-002	2.2468354E-005	-4.6916708E-001	0
9.8486963E+003	3.481039931568375E+001	-4.7106522E-001	-4.783021310257760E-002	2.2531151E-005	-4.7116703E-001	0
9.8924219E+003	3.501039931063133E+001	-4.7310829E-001	-4.782532380609816E-002	2.2626557E-005	-4.7316694E-001	0
9.9465176E+003	3.521039930557890E+001	-4.7507903E-001	-4.776335505757039E-002	2.2691369E-005	-4.7516689E-001	0
1.0006156E+004	3.541039930052648E+001	-4.7720164E-001	-4.769080208747506E-002	2.2758129E-005	-4.7716689E-001	0
1.0066643E+004	3.561039929547405E+001	-4.7910914E-001	-4.759373894708901E-002	2.2802595E-005	-4.7916675E-001	0
1.0116047E+004	3.581039929042163E+001	-4.8110494E-001	-4.755859271662288E-002	2.2880675E-005	-4.8116672E-001	0
1.0174394E+004	3.601039928536920E+001	-4.8309654E-001	-4.748160568807180E-002	2.2938199E-005	-4.8316658E-001	0
1.0240690E+004	3.621039928031678E+001	-4.8516470E-001	-4.737617229053415E-002	2.2985247E-005	-4.8516658E-001	0
1.0288863E+004	3.641039927526435E+001	-4.8713836E-001	-4.734618102000754E-002	2.3064142E-005	-4.8716646E-001	0
1.0337717E+004	3.661039927021193E+001	-4.8911926E-001	-4.731404937037142E-002	2.3142213E-005	-4.8916647E-001	0
1.0400436E+004	3.681039926515950E+001	-4.9111629E-001	-4.722074049265203E-002	2.3190874E-005	-4.9116632E-001	0
1.0456293E+004	3.701039926010708E+001	-4.9298450E-001	-4.714715916741541E-002	2.3242819E-005	-4.9316630E-001	0
1.0516143E+004	3.721029925505718E+001	-4.9504289E-001	-4.707456867620818E-002	2.3303930E-005	-4.9516556E-001	0
1.0582915E+004	3.741019925000728E+001	-4.9708825E-001	-4.697082328896285E-002	2.3348644E-005	-4.9716619E-001	0
1.0640109E+004	3.761019924495486E+001	-4.9913576E-001	-4.691077238043828E-002	2.3414845E-005	-4.9916604E-001	0
1.0708614E+004	3.781019923990243E+001	-5.0107211E-001	-4.679149986892051E-002	2.3445915E-005	-5.0116605E-001	0
1.0776046E+004	3.801019923485001E+001	-5.0305897E-001	-4.668307432993535E-002	2.3484339E-005	-5.0316596E-001	0
1.0833006E+004	3.821019922979758E+001	-5.0506335E-001	-4.662264370287661E-002	2.3547389E-005	-5.0516587E-001	0
1.0899168E+004	3.841019922474516E+001	-5.0706846E-001	-4.652359340838275E-002	2.3590646E-005	-5.0716585E-001	0
1.0962987E+004	3.861019921969273E+001	-5.0908858E-001	-4.643703143660394E-002	2.3640563E-005	-5.0916576E-001	0
1.1042379E+004	3.881019921464031E+001	-5.1109618E-001	-4.628496855848985E-002	2.3656070E-005	-5.1116568E-001	0
1.1095546E+004	3.901019920958788E+001	-5.1312083E-001	-4.624566066901410E-002	2.3729612E-005	-5.1316559E-001	0
1.1167772E+004	3.921019920453546E+001	-5.1514709E-001	-4.612800877888709E-002	2.3762710E-005	-5.1516557E-001	0
1.1233166E+004	3.941019919948303E+001	-5.1712143E-001	-4.603523458063813E-002	2.3805807E-005	-5.1716548E-001	0
1.1303955E+004	3.961019919443061E+001	-5.1913375E-001	-4.592496735654150E-002	2.3841201E-005	-5.1916546E-001	0
1.1373116E+004	3.981019918937818E+001	-5.2115494E-001	-4.582340747187685E-002	2.3881095E-005	-5.2116531E-001	0
1.1448493E+004	4.001019918432576E+001	-5.2310252E-001	-4.569182412164596E-002	2.3901508E-005	-5.2316535E-001	0
1.1507558E+004	4.021019917927333E+001	-5.2515680E-001	-4.563581701653208E-002	2.3965960E-005	-5.2516520E-001	0
1.1581026E+004	4.041019917422091E+001	-5.2713287E-001	-4.551693962151981E-002	2.3993474E-005	-5.2716517E-001	0
1.1656257E+004	4.061019916916848E+001	-5.2908576E-001	-4.539070723397770E-002	2.4015577E-005	-5.2916503E-001	0
1.1724784E+004	4.081019916411606E+001	-5.3116024E-001	-4.530234783576370E-002	2.4062805E-005	-5.3116500E-001	0
1.1805235E+004	4.101019915906363E+001	-5.3307575E-001	-4.515587793485742E-002	2.4071504E-005	-5.3316486E-001	0
1.1879875E+004	4.121019915401121E+001	-5.3515804E-001	-4.504744661364773E-002	2.4107503E-005	-5.3516489E-001	0
1.1954556E+004	4.141019914895878E+001	-5.3709078E-001	-4.492770576170624E-002	2.4130257E-005	-5.3716481E-001	0
1.2011611E+004	4.161019914390636E+001	-5.3906274E-001	-4.487847011032675E-002	2.4192312E-005	-5.3916478E-001	0
1.2177949E+004	4.183019913834869E+001	-5.4131824E-001	-4.445068814257358E-002	2.4061968E-005	-5.4136461E-001	0
1.2357090E+004	4.205019913279102E+001	-5.4352361E-001	-4.398475757318543E-002	2.3906754E-005	-5.4356462E-001	0
1.2448015E+004	4.225019912773860E+001	-5.4547524E-001	-4.382025897386743E-002	2.3902867E-005	-5.4556453E-001	0
1.2520775E+004	4.245019912268617E+001	-5.4749775E-001	-4.372714258875066E-002	2.3940513E-005	-5.4756451E-001	0
1.2591873E+004	4.265019911763375E+001	-5.4946160E-001	-4.363620831961634E-002	2.3976421E-005	-5.4956436E-001	0
1.2658933E+004	4.285019911258132E+001	-5.5151784E-001	-4.356748402111266E-002	2.4028244E-005	-5.5156434E-001	0
1.2750869E+004	4.305019910752890E+001	-5.5344957E-001	-4.340485075082254E-002	2.4022396E-005	-5.5356443E-001	0
1.2823923E+004	4.324999910248152E+001	-5.5556071E-001	-4.332221376095097E-002	2.4068120E-005	-5.5556399E-001	0
1.2899363E+004	4.344999909742910E+001	-5.5751735E-001	-4.322053154174429E-002	2.4096196E-005	-5.5756414E-001	0
1.2971939E+004	4.364999909237667E+001	-5.5954540E-001	-4.313506108002269E-002	2.4136025E-005	-5.5956405E-001	0
1.3056373E+004	4.384999908732425E+001	-5.6148440E-001	-4.300462363880175E-002	2.4146426E-005	-5.6156403E-001	0
1.3136550E+004	4.404999908227182E+001	-5.6352967E-001	-4.289784326134649E-002	2.4174207E-005	-5.6356394E-001	0
1.3193394E+004	4.424999907721940E+001	-5.6552839E-001	-4.286451258642768E-002	2.4241099E-005	-5.6556380E-001	0
1.3287823E+004	4.444999907216697E+001	-5.6745911E-001	-4.270519778742760E-002	2.4233454E-005	-5.6756377E-001	0
1.3374032E+004	4.464999906711455E+001	-5.6949419E-001	-4.258208679586492E-002	2.4250250E-005	-5.6956375E-001	0
1.3439637E+004	4.484999906206212E+001	-5.7151431E-001	-4.252453409283163E-002	2.4303379E-005	-5.7156366E-001	0
1.3530944E+004	4.504999905700970E+001	-5.7350117E-001	-4.238441670783355E-002	2.4307512E-005	-5.7356364E-001	0
1.3582613E+004	4.524999905195727E+001	-5.7553250E-001	-4.237273715826100E-002	2.4386887E-005	-5.7556349E-001	0
1.3668818E+004	4.544999904690485E+001	-5.7757437E-001	-4.225488730585891E-002	2.4405341E-005	-5.7756346E-001	0
1.3754355E+004	4.564999904185242E+001	-5.7958323E-001	-4.213815926291187E-002	2.4422570E-005	-5.7956338E-001	0
1.3820152E+004	4.584999903680000E+001	-5.8149517E-001	-4.207588651939764E-002	2.4466925E-005	-5.8156335E-001	0
1.3898933E+004	4.604999903174757E+001	-5.8356309E-001	-4.198618121777797E-002	2.4501585E-005	-5.8356321E-001	0
1.3984403E+004	4.624999902669515E+001	-5.8555323E-001	-4.187187838712331E-002	2.4518213E-005	-5.8556318E-001	0
1.4033314E+004	4.644999902164273E+001	-5.8756959E-001	-4.186962236457048E-002	2.4601317E-005	-5.8756304E-001	0
1.4145646E+004	4.664999901659030E+001	-5.8952570E-001	-4.167541811087483E-002	2.4568730E-005	-5.8956307E-001	0
1.4203499E+004	4.684999901153788E+001	-5.9153694E-001	-4.164726786841300E-002	2.4635898E-005	-5.9156293E-001	0
1.4281054E+004	4.704999900648545E+001	-5.9343946E-001	-4.155431798175657E-002	2.4659972E-005	-5.9356290E-001	0
1.4314616E+004	4.724999900143303E+001	-5.9548104E-001	-4.159951230058080E-002	2.4771722E-005	-5.9556282E-001	0
1.4419800E+004	4.744999899638060E+001	-5.9745622E-001	-4.143304453873398E-002	2.4754430E-005	-5.9756279E-001	0
1.4482840E+004	4.764999899132818E+001	-5.9948885E-001	-4.139304487800222E-002	2.4814670E-005	-5.9956270E-001	0
1.4543276E+004	4.784999898627575E+001	-6.0146368E-001	-4.135681952290693E-002	2.4874626E-005	-6.0156268E-001	0
1.4608949E+004	4.804999898122333E+001	-6.0351771E-001	-4.131150721121468E-002	2.4932226E-005	-6.0356259E-001	0
1.4701225E+004	4.824999897617090E+001	-6.0550791E-001	-4.118758420535949E-002	2.4939409E-005	-6.0556245E-001	0
1.4759927E+004	4.844999897111848E+001	-6.0751367E-001	-4.115966579622365E-002	2.5005060E-005	-6.0756248E-001	0
1.4815531E+004	4.864999896606605E+001	-6.0946351E-001	-4.113679737815651E-002	2.5071377E-005	-6.0956234E-001	0
1.4899537E+004	4.884999896101363E+001	-6.1151135E-001	-4.104230437314771E-002	2.5097836E-005	-6.1156231E-001	0
1.4945711E+004	4.904989895596373E+001	-6.1352813E-001	-4.105044907963821E-002	2.5185605E-005	-6.1356199E-001	0
1.5016285E+004	4.924979895091383E+001	-6.1553675E-001	-4.099128091451232E-002	2.5231640E-005	-6.1556220E-001	0
1.5079381E+004	4.944979894586140E+001	-6.1745965E-001	-4.094728169716744E-002	2.5283294E-005	-6.1756206E-001	0
1.5130415E+004	4.964979894080898E+001	-6.1957997E-001	-4.094930489726001E-002	2.5371370E-005	-6.1956209E-001	0
1.5204808E+004	4.984979893575655E+001	-6.2155044E-001	-4.087854600210555E-002	2.5408079E-005	-6.2156194E-001	0
1.5251769E+004	5.004979893070413E+001	-6.2352824E-001	-4.088235660714831E-002	2.5491305E-005	-6.2356192E-001	0
1.5332862E+004	5.024979892565170E+001	-6.2552053E-001	-4.079607105866709E-002	2.5518781E-005	-6.2556183E-001	0
1.5365705E+004	5.044979892059928E+001	-6.2751055E-001	-4.083838326119474E-002	2.5626516E-005	-6.2756175E-001	0
1.5428153E+004	5.064979891554685E+001	-6.2960929E-001	-4.080911597253878E-002	2.5693798E-005	-6.2956166E-001	0
1.5486401E+004	5.084979891049443E+001	-6.3149905E-001	-4.077765018897775E-002	2.5751047E-005	-6.3156164E-001	0
1.5548342E+004	5.104979890544200E+001	-6.3354808E-001	-4.074698668200309E-002	2.5815176E-005	-6.3356161E-001	0
1.5586605E+004	5.124979890038958E+001	-6.3555908E-001	-4.077597830287238E-002	2.5915544E-005	-6.3556147E-001	0
1.5641763E+004	5.144979889533715E+001	-6.3755310E-001	-4.075967071207265E-002	2.5986454E-005	-6.3756150E-001	0
1.5695434E+004	5.164979889028473E+001	-6.3957876E-001	-4.074935233241580E-002	2.6062420E-005	-6.3956136E-001	0
1.5742400E+004	5.184979888523230E+001	-6.4157516E-001	-4.075459441193335E-002	2.6147136E-005	-6.4156127E-001	0
1.5789492E+004	5.204979888017988E+001	-6.4359921E-001	-4.076123685610866E-002	2.6233900E-005	-6.4356124E-001	0
1.5828554E+004	5.224979887512745E+001	-6.4551717E-001	-4.078181536341308E-002	2.6325362E-005	-6.4556122E-001	0
1.5875236E+004	5.244979887007503E+001	-6.4758205E-001	-4.079196193015786E-002	2.6416143E-005	-6.4756107E-001	0
1.5932926E+004	5.264979886502260E+001	-6.4951634E-001	-4.076566597285253E-002	2.6477966E-005	-6.4956105E-001	0
1.5982021E+004	5.284979885997018E+001	-6.5161943E-001	-4.077203154073963E-002	2.6567848E-005	-6.5156090E-001	0
1.6028365E+004	5.304979885491775E+001	-6.5357929E-001	-4.077641717332503E-002	2.6650621E-005	-6.5356094E-001	0
1.6057966E+004	5.324979884986533E+001	-6.5560842E-001	-4.082761400209245E-002	2.6766927E-005	-6.5556079E-001	0
1.6106927E+004	5.344979884481290E+001	-6.5752441E-001	-4.082246214576918E-002	2.6841764E-005	-6.5756077E-001	0
1.6151153E+004	5.364979883976048E+001	-6.5952688E-001	-4.083466261510205E-002	2.6931557E-005	-6.5956062E-001	0
1.6202959E+004	5.384979883470805E+001	-6.6153598E-001	-4.082809671994020E-002	2.7009255E-005	-6.6156060E-001	0
1.6231399E+004	5.404979882965563E+001	-6.6348058E-001	-4.087636328187211E-002	2.7120674E-005	-6.6356051E-001	0
1.6274157E+004	5.424979882460320E+001	-6.6552299E-001	-4.089446656607615E-002	2.7216207E-005	-6.6556048E-001	0
1.6317258E+004	5.444979881955078E+001	-6.6753042E-001	-4.090947179464821E-002	2.7308317E-005	-6.6756040E-001	0
1.6361144E+004	5.464979881449835E+001	-6.6947716E-001	-4.091872728367452E-002	2.7394153E-005	-6.6956037E-001	0
1.6403600E+004	5.484979880944593E+001	-6.7156094E-001	-4.093985292240088E-002	2.7493606E-005	-6.7156029E-001	0
1.6438988E+004	5.504969880439603E+001	-6.7347670E-001	-4.096825818143582E-002	2.7591168E-005	-6.7356068E-001	0
1.6466338E+004	5.524959879934613E+001	-6.7553055E-001	-4.102494176572238E-002	2.7713602E-005	-6.7556018E-001	0
1.6525945E+004	5.544959879429371E+001	-6.7752057E-001	-4.099738587970600E-002	2.7776572E-005	-6.7756003E-001	0
1.6551578E+004	5.564959878924128E+001	-6.7946845E-001	-4.105158238999057E-002	2.7893255E-005	-6.7956001E-001	0
1.6579211E+004	5.584959878418886E+001	-6.8153250E-001	-4.110765558627383E-002	2.8016204E-005	-6.8155992E-001	0
1.6640408E+004	5.604959877913643E+001	-6.8353027E-001	-4.107653088535068E-002	2.8077053E-005	-6.8355989E-001	0
1.6668896E+004	5.624959877408401E+001	-6.8547863E-001	-4.112321639601402E-002	2.8189086E-005	-6.8555975E-001	0
1.6709865E+004	5.644959876903158E+001	-6.8756169E-001	-4.114705236267535E-002	2.8291137E-005	-6.8755978E-001	0
1.6728459E+004	5.664959876397916E+001	-6.8952435E-001	-4.121863914050738E-002	2.8421255E-005	-6.8955964E-001	0
1.6769756E+004	5.684959875892673E+001	-6.9146574E-001	-4.123290243654684E-002	2.8511140E-005	-6.9155961E-001	0
1.6812266E+004	5.704959875387431E+001	-6.9349080E-001	-4.124909660344972E-002	2.8605869E-005	-6.9355953E-001	0
1.6845490E+004	5.724959874882188E+001	-6.9554281E-001	-4.128955800113721E-002	2.8718656E-005	-6.9555950E-001	0
1.6862361E+004	5.744959874376946E+001	-6.9749504E-001	-4.136402186538488E-002	2.8851200E-005	-6.9755942E-001	0
1.6911100E+004	5.764959873871703E+001	-6.9956017E-001	-4.136692248247864E-002	2.8938652E-005	-6.9955933E-001	0
1.6939762E+004	5.784959873366461E+001	-7.0155883E-001	-4.141491731230695E-002	2.9055002E-005	-7.0155925E-001	0
1.6997576E+004	5.804959872861218E+001	-7.0357651E-001	-4.139275555979344E-002	2.9122970E-005	-7.0355922E-001	0
1.7009904E+004	5.824959872355976E+001	-7.0554966E-001	-4.147875353207184E-002	2.9265320E-005	-7.0555919E-001	0
1.7048725E+004	5.844959871850733E+001	-7.0751637E-001	-4.149966594834903E-002	2.9361692E-005	-7.0755911E-001	0
1.7107695E+004	5.864959871345491E+001	-7.0959830E-001	-4.147831240458777E-002	2.9432940E-005	-7.0955908E-001	0
1.7116662E+004	5.884959870840248E+001	-7.1154523E-001	-4.157032726502552E-002	2.9579169E-005	-7.1155888E-001	0
1.7166873E+004	5.904959870335006E+001	-7.1355337E-001	-4.156571737429371E-002	2.9659357E-005	-7.1355891E-001	0
1.7193080E+004	5.924959869829763E+001	-7.1549147E-001	-4.161508394644943E-002	2.9775238E-005	-7.1555877E-001	0
1.7219246E+004	5.944959869324521E+001	-7.1751112E-001	-4.166913874417799E-002	2.9898070E-005	-7.1755880E-001	0
1.7275469E+004	5.964959868819278E+001	-7.1949637E-001	-4.164844092278347E-002	2.9965902E-005	-7.1955866E-001	0
1.7277279E+004	5.984959868314036E+001	-7.2151339E-001	-4.176082436070314E-002	3.0130994E-005	-7.2155869E-001	0
1.7348387E+004	6.004959867808793E+001	-7.2354025E-001	-4.170648702061258E-002	3.0176321E-005	-7.2355849E-001	0
1.7341984E+004	6.024959867303551E+001	-7.2547698E-001	-4.183356183562070E-002	3.0349285E-005	-7.2555846E-001	0
1.7367676E+004	6.044959866798308E+001	-7.2755313E-001	-4.189122012444674E-002	3.0478088E-005	-7.2755837E-001	0
1.7451240E+004	6.064959866293066E+001	-7.2954237E-001	-4.180461634636801E-002	3.0498239E-005	-7.2955835E-001	0
1.7450826E+004	6.084959865787823E+001	-7.3151267E-001	-4.191851230723366E-002	3.0663923E-005	-7.3155850E-001	0
1.7487395E+004	6.104939865283086E+001	-7.3354191E-001	-4.194689559865002E-002	3.0769806E-005	-7.3355824E-001	0
1.7523873E+004	6.124939864777843E+001	-7.3560071E-001	-4.197706377937294E-002	3.0878356E-005	-7.3555815E-001	0
1.7541191E+004	6.144939864272601E+001	-7.3750198E-001	-4.204400599846517E-002	3.1007537E-005	-7.3755807E-001	0
1.7573635E+004	6.164939863767358E+001	-7.3958707E-001	-4.208503720665252E-002	3.1125550E-005	-7.3955804E-001	0
1.7618105E+004	6.184939863262116E+001	-7.4154484E-001	-4.208993196673269E-002	3.1211574E-005	-7.4155790E-001	0
1.7611635E+004	6.204939862756873E+001	-7.4360752E-001	-4.222251438296060E-002	3.1396979E-005	-7.4355781E-001	0
1.7639342E+004	6.224939862251631E+001	-7.4560696E-001	-4.226954650717793E-002	3.1516469E-005	-7.4555779E-001	0
1.7695396E+004	6.244939861746388E+001	-7.4751616E-001	-4.224353915216639E-002	3.1577729E-005	-7.4755770E-001	0
1.7732041E+004	6.264939861241146E+001	-7.4959338E-001	-4.227338317367776E-002	3.1687847E-005	-7.4955767E-001	0
1.7748566E+004	6.284939860735903E+001	-7.5153118E-001	-4.234320307604538E-002	3.1822237E-005	-7.5155759E-001	0
1.7745029E+004	6.304939860230661E+001	-7.5358331E-001	-4.246728832842980E-002	3.2002641E-005	-7.5355750E-001	0
1.7753383E+004	6.324939859725419E+001	-7.5556809E-001	-4.255910586067319E-002	3.2156302E-005	-7.5555748E-001	0
1.7791572E+004	6.344939859220176E+001	-7.5762898E-001	-4.258358894579126E-002	3.2262560E-005	-7.5755739E-001	0
1.7865150E+004	6.364939858714934E+001	-7.5956219E-001	-4.251641675469808E-002	3.2293861E-005	-7.5955737E-001	0
1.7810926E+004	6.384939858209691E+001	-7.6150310E-001	-4.275482826018306E-002	3.2557935E-005	-7.6155728E-001	0
1.7858748E+004	6.404939857704449E+001	-7.6356786E-001	-4.275595810018315E-002	3.2647076E-005	-7.6355726E-001	0
1.7867484E+004	6.424939857199206E+001	-7.6554489E-001	-4.284569996756504E-002	3.2800308E-005	-7.6555705E-001	0
1.7881291E+004	6.444939856693964E+001	-7.6749223E-001	-4.292152158107165E-002	3.2941934E-005	-7.6755708E-001	0
1.7855008E+004	6.464939856188721E+001	-7.6951897E-001	-4.309821551451321E-002	3.3164895E-005	-7.6955694E-001	0
1.7893691E+004	6.484939855683479E+001	-7.7149963E-001	-4.311573251663747E-002	3.3263772E-005	-7.7155697E-001	0
1.7889990E+004	6.504939855178236E+001	-7.7352893E-001	-4.323808412867980E-002	3.3445907E-005	-7.7355683E-001	0
1.7885018E+004	6.524939854672994E+001	-7.7545458E-001	-4.335777512450578E-002	3.3621985E-005	-7.7555674E-001	0
1.7903930E+004	6.544939854167751E+001	-7.7747160E-001	-4.342463273816902E-002	3.3761418E-005	-7.7755666E-001	0
1.7898977E+004	6.564939853662509E+001	-7.7948195E-001	-4.354896926814211E-002	3.3945635E-005	-7.7955663E-001	0
1.7914588E+004	6.584939853157266E+001	-7.8153187E-001	-4.362544277075764E-002	3.4094675E-005	-7.8155661E-001	0
1.7872195E+004	6.604939852652024E+001	-7.8348368E-001	-4.383813395917813E-002	3.4346464E-005	-7.8355652E-001	0
1.7884172E+004	6.624939852146781E+001	-7.8548408E-001	-4.392062879406128E-002	3.4498953E-005	-7.8555650E-001	0
1.7875648E+004	6.644939851641539E+001	-7.8749537E-001	-4.405408479112816E-002	3.4692388E-005	-7.8755641E-001	0
1.7890994E+004	6.664939851136296E+001	-7.8939402E-001	-4.412242217895401E-002	3.4829976E-005	-7.8955638E-001	0
1.7842762E+004	6.684929850631306E+001	-7.9152620E-001	-4.436119122023141E-002	3.5113044E-005	-7.9155672E-001	0
1.7857119E+004	6.704919850126316E+001	-7.9349023E-001	-4.443551071754781E-002	3.5259145E-005	-7.9355627E-001	0
1.7828805E+004	6.724919849621074E+001	-7.9554260E-001	-4.462119830822975E-002	3.5498066E-005	-7.9555607E-001	0
1.7796207E+004	6.744919849115831E+001	-7.9752511E-001	-4.481432881378383E-002	3.5740552E-005	-7.9755610E-001	0
1.7777234E+004	6.764919848610589E+001	-7.9951650E-001	-4.497417734456488E-002	3.5957597E-005	-7.9955596E-001	0
1.7764680E+004	6.784919848105346E+001	-8.0146807E-001	-4.511581922938313E-002	3.6158890E-005	-8.0155599E-001	0
1.7699920E+004	6.804919847600104E+001	-8.0347902E-001	-4.539450207701945E-002	3.6473532E-005	-8.0355585E-001	0
1.7683072E+004	6.824919847094861E+001	-8.0552852E-001	-4.555365372456560E-002	3.6694768E-005	-8.0555582E-001	0
1.7626398E+004	6.844919846589619E+001	-8.0752867E-001	-4.581359560182197E-002	3.6995792E-005	-8.0755574E-001	0
1.7588611E+004	6.864919846084376E+001	-8.0953634E-001	-4.602616530491466E-002	3.7259852E-005	-8.0955565E-001	0
1.7549861E+004	6.884919845579134E+001	-8.1146485E-001	-4.623767954129465E-002	3.7520251E-005	-8.1155562E-001	0
1.7527104E+004	6.904919845073891E+001	-8.1347162E-001	-4.641221087534701E-002	3.7755017E-005	-8.1355554E-001	0
1.7487119E+004	6.924919844568649E+001	-8.1552255E-001	-4.663561512594705E-002	3.8032395E-005	-8.1555551E-001	0
1.7407125E+004	6.944919844063406E+001	-8.1752527E-001	-4.696497915982101E-002	3.8395057E-005	-8.1755537E-001	0
1.7375926E+004	6.964919843558164E+001	-8.1952906E-001	-4.716462636094067E-002	3.8652783E-005	-8.1955534E-001	0
1.7287219E+004	6.984919843052921E+001	-8.2156855E-001	-4.752462249948264E-002	3.9044735E-005	-8.2155532E-001	0
1.7222426E+004	7.004919842547679E+001	-8.2347989E-001	-4.781439760990280E-002	3.9374194E-005	-8.2355523E-001	0
1.7158299E+004	7.024919842042436E+001	-8.2551259E-001	-4.811156470943112E-002	3.9716702E-005	-8.2555509E-001	0
1.7041154E+004	7.044919841537194E+001	-8.2749170E-001	-4.855842744459582E-002	4.0181694E-005	-8.2755512E-001	0
1.7035943E+004	7.064919841031951E+001	-8.2948554E-001	-4.869031876931704E-002	4.0387917E-005	-8.2955498E-001	0
1.6938035E+004	7.084919840526709E+001	-8.3148253E-001	-4.908967062106556E-002	4.0817202E-005	-8.3155501E-001	0
1.6868879E+004	7.104919840021466E+001	-8.3352351E-001	-4.941190974554577E-002	4.1185987E-005	-8.3355480E-001	0
1.6759563E+004	7.124919839516224E+001	-8.3546937E-001	-4.985030869110707E-002	4.1648407E-005	-8.3555490E-001	0
1.6692342E+004	7.144919839010981E+001	-8.3751553E-001	-5.017364082610892E-002	4.2021202E-005	-8.3755469E-001	0
1.6594816E+004	7.164919838505739E+001	-8.3949465E-001	-5.058776083098238E-002	4.2468153E-005	-8.3955467E-001	0
1.6520836E+004	7.184919838000496E+001	-8.4148908E-001	-5.093502006736395E-002	4.2861262E-005	-8.4155458E-001	0
1.6347328E+004	7.204919837495254E+001	-8.4348369E-001	-5.159764971622083E-002	4.3521777E-005	-8.4355456E-001	0
1.6273665E+004	7.224919836990011E+001	-8.4551322E-001	-5.195591852117465E-002	4.3929416E-005	-8.4555447E-001	0
1.6142266E+004	7.244919836484769E+001	-8.4753525E-001	-5.250410713643994E-002	4.4499080E-005	-8.4755439E-001	0
1.6028018E+004	7.264919835979526E+001	-8.4954166E-001	-5.300354052761624E-002	4.5028715E-005	-8.4955424E-001	0
1.5902790E+004	7.284909835474537E+001	-8.5150135E-001	-5.354414756458192E-002	4.5592915E-005	-8.5155386E-001	0
1.5756038E+004	7.304909834969294E+001	-8.5349900E-001	-5.416964484714126E-002	4.6233738E-005	-8.5355520E-001	0
1.5590129E+004	7.324899834464304E+001	-8.5554069E-001	-5.487707490787797E-002	4.6949572E-005	-8.5555404E-001	0
1.5461566E+004	7.344899833959062E+001	-8.5754222E-001	-5.546282990856723E-002	4.7561720E-005	-8.5755402E-001	0
1.5257439E+004	7.364899833453819E+001	-8.5955399E-001	-5.633671405406293E-002	4.8424448E-005	-8.5955399E-001	0
1.5114528E+004	7.384899832948577E+001	-8.6151046E-001	-5.699883136304873E-002	4.9105089E-005	-8.6155391E-001	0
1.4915940E+004	7.404899832443334E+001	-8.6356318E-001	-5.789532059172176E-002	4.9996266E-005	-8.6355382E-001	0
1.4693640E+004	7.424899831938092E+001	-8.6555064E-001	-5.890648477170152E-002	5.0986546E-005	-8.6555380E-001	0
1.4499108E+004	7.444899831432849E+001	-8.6752236E-001	-5.983280745290569E-002	5.1906300E-005	-8.6755371E-001	0
1.4257151E+004	7.464899830927607E+001	-8.6959732E-001	-6.099376492540168E-002	5.3040014E-005	-8.6955369E-001	0
1.4005229E+004	7.484899830422364E+001	-8.7157434E-001	-6.223206352727551E-002	5.4239870E-005	-8.7155348E-001	0
1.3747192E+004	7.504899829917122E+001	-8.7359124E-001	-6.354688241541440E-002	5.5514000E-005	-8.7355351E-001	0
1.3437350E+004	7.524899829411879E+001	-8.7554175E-001	-6.515732630316506E-002	5.7047961E-005	-8.7555349E-001	0
1.3130871E+004	7.544899828906637E+001	-8.7750936E-001	-6.682796190522367E-002	5.8642163E-005	-8.7755340E-001	0
1.2772128E+004	7.564899828401394E+001	-8.7956041E-001	-6.886561044550932E-002	6.0571463E-005	-8.7955326E-001	0
1.2401994E+004	7.584899827896152E+001	-8.8154501E-001	-7.108090979959492E-002	6.2661020E-005	-8.8155329E-001	0
1.2040058E+004	7.604899827390909E+001	-8.8351643E-001	-7.338141430963341E-002	6.4833686E-005	-8.8355315E-001	0
1.1609577E+004	7.624899826885667E+001	-8.8550627E-001	-7.627377586435014E-002	6.7540910E-005	-8.8555306E-001	0
1.1189378E+004	7.644899826380424E+001	-8.8754016E-001	-7.931988075789487E-002	7.0399583E-005	-8.8755304E-001	0
1.0720217E+004	7.664899825875182E+001	-8.8954234E-001	-8.297801925959125E-002	7.3812458E-005	-8.8955295E-001	0
1.0248978E+004	7.684899825369939E+001	-8.9152884E-001	-8.698710220783556E-002	7.7551507E-005	-8.9155293E-001	0
9.7439668E+003	7.705899824839435E+001	-8.9365250E-001	-9.171342194713428E-002	8.1959930E-005	-8.9365292E-001	0
9.1958633E+003	7.726899824308930E+001	-8.9569175E-001	-9.740159215823674E-002	8.7241802E-005	-8.9575273E-001	0
8.6665283E+003	7.746899823803687E+001	-8.9772218E-001	-1.035849816776186E-001	9.2990536E-005	-8.9775270E-001	0
8.1459907E+003	7.766899823298445E+001	-8.9968055E-001	-1.104445821286733E-001	9.9364843E-005	-8.9975262E-001	0
7.6409287E+003	7.786899822793202E+001	-9.0171808E-001	-1.180115833143600E-001	1.0641318E-004	-9.0175253E-001	0
7.1313149E+003	7.806899822287960E+001	-9.0370804E-001	-1.267239020096221E-001	1.1452141E-004	-9.0375251E-001	0
6.6262417E+003	7.826899821782717E+001	-9.0572554E-001	-1.366876688492309E-001	1.2380151E-004	-9.0575266E-001	0
6.1378931E+003	7.846899821277475E+001	-9.0768141E-001	-1.478815926640142E-001	1.3422937E-004	-9.0775406E-001	0
5.6646465E+003	7.866899820772232E+001	-9.0972036E-001	-1.605961439337011E-001	1.4609758E-004	-9.0975404E-001	0
5.2159888E+003	7.886899820266990E+001	-9.1169846E-001	-1.747891842567117E-001	1.5935503E-004	-9.1175401E-001	0
4.7930171E+003	7.906899819761747E+001	-9.1374522E-001	-1.906409228955501E-001	1.7419724E-004	-9.1375411E-001	0
4.3928291E+003	7.926899819256505E+001	-9.1565442E-001	-2.084429968727117E-001	1.9086176E-004	-9.1575408E-001	0
4.0176150E+003	7.946899818751263E+001	-9.1771883E-001	-2.284237852197579E-001	2.0962881E-004	-9.1775405E-001	0
3.6706216E+003	7.966899818246020E+001	-9.1970432E-001	-2.505582031939606E-001	2.3043946E-004	-9.1975403E-001	0
3.3123848E+003	7.986899817740778E+001	-9.2173952E-001	-2.782706654020284E-001	2.5649308E-004	-9.2175406E-001	0
3.0059248E+003	8.006899817235535E+001	-9.2372388E-001	-3.073010641549310E-001	2.8386133E-004	-9.2375410E-001	0
2.7600090E+003	8.026899816730293E+001	-9.2566955E-001	-3.353864260000982E-001	3.1045699E-004	-9.2575407E-001	0
2.5285737E+003	8.046899816225050E+001	-9.2768693E-001	-3.668814894348357E-001	3.4035117E-004	-9.2775404E-001	0
2.3147422E+003	8.066899815719808E+001	-9.2971194E-001	-4.016481711320106E-001	3.7341710E-004	-9.2975408E-001	0
2.0808806E+003	8.086899815214565E+001	-9.3171519E-001	-4.477504281339799E-001	4.1717588E-004	-9.3175411E-001	0
1.9230985E+003	8.106899814709323E+001	-9.3373001E-001	-4.855341648476004E-001	4.5335782E-004	-9.3375409E-001	0
1.7716124E+003	8.126899814204080E+001	-9.3576699E-001	-5.282007342588795E-001	4.9427280E-004	-9.3575400E-001	0
1.6071403E+003	8.146899813698838E+001	-9.3774688E-001	-5.834878825090497E-001	5.4716395E-004	-9.3775409E-001	0
1.4913191E+003	8.166899813193595E+001	-9.3968892E-001	-6.301059002508653E-001	5.9210352E-004	-9.3975407E-001	0
1.3786177E+003	8.186899812688353E+001	-9.4169527E-001	-6.830721005856502E-001	6.4324576E-004	-9.4175398E-001	0
1.2671393E+003	8.206899812183110E+001	-9.4377065E-001	-7.448041921190063E-001	7.0292433E-004	-9.4375414E-001	0
1.1818118E+003	8.226899811677868E+001	-9.4572031E-001	-8.002292026011721E-001	7.5679302E-004	-9.4575399E-001	0
1.0887919E+003	8.246899811172625E+001	-9.4775856E-001	-8.704680428922575E-001	8.2499353E-004	-9.4775409E-001	0
1.0198992E+003	8.266899810667383E+001	-9.4975495E-001	-9.312243890650809E-001	8.8443496E-004	-9.4975406E-001	0
9.4548676E+002	8.286899810162140E+001	-9.5171618E-001	-1.006588564007256E+000	9.5798663E-004	-9.5175415E-001	0
8.8221509E+002	8.307899809631635E+001	-9.5383674E-001	-1.081183922757800E+000	1.0312729E-003	-9.5385414E-001	0
8.2588751E+002	8.328899809101131E+001	-9.5592183E-001	-1.157447941314065E+000	1.1064297E-003	-9.5595402E-001	0
7.7740784E+002	8.348899808595888E+001	-9.5788926E-001	-1.232157986830764E+000	1.1802709E-003	-9.5795411E-001	0
7.3049487E+002	8.368899808090646E+001	-9.5990753E-001	-1.314050999924103E+000	1.2613675E-003	-9.5995408E-001	0
6.8799969E+002	8.388899807585403E+001	-9.6189058E-001	-1.398097433698894E+000	1.3448168E-003	-9.6195400E-001	0
6.5117218E+002	8.408899807080161E+001	-9.6390229E-001	-1.480257122272675E+000	1.4268232E-003	-9.6395415E-001	0
6.1389606E+002	8.428899806574918E+001	-9.6589160E-001	-1.573379659961885E+000	1.5197142E-003	-9.6595401E-001	0
5.8203961E+002	8.448899806069676E+001	-9.6790177E-001	-1.662948331527431E+000	1.6095706E-003	-9.6795410E-001	0
5.5328735E+002	8.468899805564433E+001	-9.6992987E-001	-1.753030895781351E+000	1.7003170E-003	-9.6995407E-001	0
5.2442377E+002	8.488899805059191E+001	-9.7192127E-001	-1.853312757837658E+000	1.8012741E-003	-9.7195405E-001	0
4.9971472E+002	8.508899804553948E+001	-9.7388965E-001	-1.948891226481006E+000	1.8980050E-003	-9.7395402E-001	0
4.7644604E+002	8.528899804048706E+001	-9.7595841E-001	-2.048413321325167E+000	1.9991661E-003	-9.7595406E-001	0
4.5423389E+002	8.548899803543463E+001	-9.7791845E-001	-2.152896334305225E+000	2.1053571E-003	-9.7795409E-001	0
4.3356815E+002	8.568899803038221E+001	-9.7990674E-001	-2.260098536454500E+000	2.2146858E-003	-9.7995406E-001	0
4.1460864E+002	8.588899802532978E+001	-9.8188263E-001	-2.368215530874242E+000	2.3253097E-003	-9.8195404E-001	0
3.9695270E+002	8.608899802027736E+001	-9.8389453E-001	-2.478619123143808E+000	2.4386998E-003	-9.8395407E-001	0
3.8074255E+002	8.628899801522493E+001	-9.8584771E-001	-2.589276473318762E+000	2.5526322E-003	-9.8595411E-001	0
3.6494519E+002	8.648899801017251E+001	-9.8791701E-001	-2.707028420519539E+000	2.6743193E-003	-9.8795408E-001	0
3.5016083E+002	8.668899800512008E+001	-9.8990881E-001	-2.827011783461586E+000	2.7984839E-003	-9.8995399E-001	0
3.3642368E+002	8.688899800006766E+001	-9.9187583E-001	-2.948293641277186E+000	2.9243412E-003	-9.9195409E-001	0
3.2352795E+002	8.708899799501523E+001	-9.9390537E-001	-3.072085062105245E+000	3.0533618E-003	-9.9395406E-001	0
3.1157083E+002	8.728899798996281E+001	-9.9594724E-001	-3.196535708851542E+000	3.1835809E-003	-9.9595404E-001	0
2.9993759E+002	8.748899798491038E+001	-9.9786562E-001	-3.326910897075713E+000	3.3198099E-003	-9.9795401E-001	0
2.8904614E+002	8.768899797985796E+001	-9.9990559E-001	-3.459328450887654E+000	3.4590019E-003	-9.9995399E-001	0
2.7889172E+002	8.788899797480553E+001	-1.0019045E+000	-3.592449563025369E+000	3.5992914E-003	-1.0019541E+000	0
2.6916354E+002	8.808899796975311E+001	-1.0038987E+000	-3.729697850657431E+000	3.7442390E-003	-1.0039541E+000	0
2.5975766E+002	8.828899796470068E+001	-1.0059092E+000	-3.872491168124334E+000	3.8953745E-003	-1.0059540E+000	0
2.5100446E+002	8.848899795964826E+001	-1.0079186E+000	-4.015540690142267E+000	4.0473379E-003	-1.0079540E+000	0
2.4262857E+002	8.868899795459583E+001	-1.0099299E+000	-4.162452354283843E+000	4.2037852E-003	-1.0099541E+000	0
2.3465279E+002	8.888899794954341E+001	-1.0119185E+000	-4.312408000399724E+000	4.3638055E-003	-1.0119541E+000	0
2.2719704E+002	8.908899794449098E+001	-1.0138596E+000	-4.462468602185593E+000	4.5243166E-003	-1.0139542E+000	0
2.1999838E+002	8.928899793943856E+001	-1.0158671E+000	-4.617611770862347E+000	4.6908800E-003	-1.0159540E+000	0
2.1309201E+002	8.948899793438613E+001	-1.0178856E+000	-4.776741945216422E+000	4.8621767E-003	-1.0179541E+000	0
2.0631728E+002	8.968899792933371E+001	-1.0198947E+000	-4.943331590551651E+000	5.0416780E-003	-1.0199541E+000	0
1.9999065E+002	8.988899792428128E+001	-1.0218899E+000	-5.109688705868180E+000	5.2215392E-003	-1.0219541E+000	0
1.9394292E+002	9.008899791922886E+001	-1.0239182E+000	-5.279482235308407E+000	5.4057576E-003	-1.0239540E+000	0
1.8800307E+002	9.028899791417643E+001	-1.0259252E+000	-5.456959715472060E+000	5.5984324E-003	-1.0259541E+000	0
1.8230103E+002	9.048899790912401E+001	-1.0278862E+000	-5.638400194967950E+000	5.7956334E-003	-1.0279540E+000	0
1.7692856E+002	9.068899790407158E+001	-1.0299591E+000	-5.821327352503531E+000	5.9957290E-003	-1.0299540E+000	0
1.7179466E+002	9.088899789901916E+001	-1.0319046E+000	-6.006616278131247E+000	6.1982549E-003	-1.0319541E+000	0
1.6682648E+002	9.108899789396673E+001	-1.0339310E+000	-6.197643453605878E+000	6.4079356E-003	-1.0339540E+000	0
1.6196301E+002	9.128899788891431E+001	-1.0358881E+000	-6.395830900828571E+000	6.6253650E-003	-1.0359540E+000	0
1.5726683E+002	9.148899788386188E+001	-1.0379694E+000	-6.600052846059248E+000	6.8506524E-003	-1.0379541E+000	0
1.5300819E+002	9.168899787880946E+001	-1.0398985E+000	-6.796358306459283E+000	7.0675230E-003	-1.0399539E+000	0
1.4880493E+002	9.188899787375703E+001	-1.0418739E+000	-7.001608679624411E+000	7.2947936E-003	-1.0419542E+000	0
1.4472443E+002	9.208899786870461E+001	-1.0439175E+000	-7.213139546363540E+000	7.5299228E-003	-1.0439541E+000	0
1.4077469E+002	9.228899786365218E+001	-1.0459479E+000	-7.429943340232839E+000	7.7713337E-003	-1.0459541E+000	0
1.3694064E+002	9.248899785859976E+001	-1.0479730E+000	-7.652753671280664E+000	8.0198795E-003	-1.0479541E+000	0
1.3319411E+002	9.268899785354733E+001	-1.0499451E+000	-7.882819840426919E+000	8.2765277E-003	-1.0499539E+000	0
1.2947075E+002	9.288899784849491E+001	-1.0519964E+000	-8.125359276524989E+000	8.5478481E-003	-1.0519542E+000	0
1.2604150E+002	9.308899784344248E+001	-1.0540211E+000	-8.362492376309078E+000	8.8142436E-003	-1.0539541E+000	0
1.2267987E+002	9.328899783839006E+001	-1.0560241E+000	-8.607965339946560E+000	9.0902187E-003	-1.0559540E+000	0
1.1948057E+002	9.348899783333763E+001	-1.0579695E+000	-8.854740461930106E+000	9.3680453E-003	-1.0579541E+000	0
1.1627869E+002	9.368899782828521E+001	-1.0599997E+000	-9.116027605303771E+000	9.6629867E-003	-1.0599540E+000	0
1.1323091E+002	9.388899782323278E+001	-1.0619645E+000	-9.378750900697852E+000	9.9599008E-003	-1.0619541E+000	0
1.1020914E+002	9.408899781818036E+001	-1.0640161E+000	-9.654517884359848E+000	1.0272563E-002	-1.0639541E+000	0
1.0727583E+002	9.428899781312793E+001	-1.0659910E+000	-9.936917051233678E+000	1.0592665E-002	-1.0659540E+000	0
1.0438677E+002	9.448899780807551E+001	-1.0679694E+000	-1.023088854524283E+001	1.0926276E-002	-1.0679541E+000	0
1.0160255E+002	9.468899780302309E+001	-1.0699573E+000	-1.053081136975691E+001	1.1267518E-002	-1.0699540E+000	0
9.8712585E+001	9.489899779771804E+001	-1.0720638E+000	-1.086045692520480E+001	1.1643102E-002	-1.0720541E+000	0
9.5911720E+001	9.510899779241299E+001	-1.0741619E+000	-1.119948514126872E+001	1.2030060E-002	-1.0741541E+000	0
9.3472763E+001	9.530899778736057E+001	-1.0761193E+000	-1.151265080175159E+001	1.2388986E-002	-1.0761540E+000	0
9.1103638E+001	9.550899778230814E+001	-1.0781668E+000	-1.183450938899767E+001	1.2759576E-002	-1.0781541E+000	0
8.8730644E+001	9.570899777725572E+001	-1.0801367E+000	-1.217320842294197E+001	1.3148729E-002	-1.0801541E+000	0
8.6301117E+001	9.590899777220329E+001	-1.0821196E+000	-1.253888270677896E+001	1.3568571E-002	-1.0821542E+000	0
8.3919456E+001	9.610899776715087E+001	-1.0841610E+000	-1.291906658186667E+001	1.4006348E-002	-1.0841541E+000	0
8.1784019E+001	9.630899776209844E+001	-1.0861386E+000	-1.328057250684628E+001	1.4424543E-002	-1.0861540E+000	0
7.9726494E+001	9.650899775704602E+001	-1.0881557E+000	-1.364860871089570E+001	1.4851812E-002	-1.0881541E+000	0
7.7703392E+001	9.670899775199359E+001	-1.0901423E+000	-1.402953190530511E+001	1.5294186E-002	-1.0901541E+000	0
7.5398056E+001	9.690899774694117E+001	-1.0921043E+000	-1.448451582104178E+001	1.5818601E-002	-1.0921540E+000	0
7.3544334E+001	9.710899774188874E+001	-1.0941191E+000	-1.487699941969788E+001	1.6277209E-002	-1.0941541E+000	0
7.1881157E+001	9.730899773683632E+001	-1.0961554E+000	-1.524955157709229E+001	1.6715879E-002	-1.0961541E+000	0
7.0218712E+001	9.750899773178389E+001	-1.0981470E+000	-1.563895122899490E+001	1.7173868E-002	-1.0981541E+000	0
6.8376770E+001	9.770899772673147E+001	-1.1001434E+000	-1.608943201287269E+001	1.7700683E-002	-1.1001540E+000	0
6.6686714E+001	9.790899772167904E+001	-1.1021359E+000	-1.652706896299138E+001	1.8215075E-002	-1.1021541E+000	0
6.5089790E+001	9.810899771662662E+001	-1.1041404E+000	-1.696334234846424E+001	1.8729912E-002	-1.1041541E+000	0
6.3543880E+001	9.830899771157419E+001	-1.1061360E+000	-1.740743451567195E+001	1.9254990E-002	-1.1061541E+000	0
6.2096577E+001	9.850899770652177E+001	-1.1080830E+000	-1.784451067190855E+001	1.9773198E-002	-1.1081541E+000	0
6.0495453E+001	9.870899770146934E+001	-1.1101148E+000	-1.835038388397146E+001	2.0371033E-002	-1.1101540E+000	0
5.9101875E+001	9.890899769641692E+001	-1.1120666E+000	-1.881609713936608E+001	2.0924754E-002	-1.1121541E+000	0
5.7792938E+001	9.910899769136449E+001	-1.1141278E+000	-1.927792151971727E+001	2.1478068E-002	-1.1141541E+000	0
5.6353451E+001	9.930899768631207E+001	-1.1161151E+000	-1.980562155654906E+001	2.2105353E-002	-1.1161541E+000	0
5.4927727E+001	9.950899768125964E+001	-1.1181679E+000	-2.035707498286044E+001	2.2762626E-002	-1.1181540E+000	0
5.3572727E+001	9.970899767620722E+001	-1.1201309E+000	-2.090860350359054E+001	2.3420373E-002	-1.1201540E+000	0
5.2483437E+001	9.990899767115479E+001	-1.1221634E+000	-2.138128722903411E+001	2.3993298E-002	-1.1221541E+000	0
5.1205086E+001	1.001089976661024E+002	-1.1241257E+000	-2.195339905864256E+001	2.4678381E-002	-1.1241541E+000	0
5.0033634E+001	1.003089976610499E+002	-1.1261467E+000	-2.250779253190331E+001	2.5347076E-002	-1.1261541E+000	0
4.8835766E+001	1.005089976559975E+002	-1.1281677E+000	-2.310126098753919E+001	2.6062097E-002	-1.1281540E+000	0
4.7718002E+001	1.007089976509451E+002	-1.1301769E+000	-2.368449705758064E+001	2.6767671E-002	-1.1301541E+000	0
4.6593868E+001	1.009089976458927E+002	-1.1321326E+000	-2.429788873160510E+001	2.7508434E-002	-1.1321541E+000	0
4.5303905E+001	1.011089976408402E+002	-1.1341659E+000	-2.503461575967663E+001	2.8393406E-002	-1.1341541E+000	0
4.4342972E+001	1.013089976357878E+002	-1.1361706E+000	-2.562233768758321E+001	2.9111348E-002	-1.1361541E+000	0
4.3419613E+001	1.015089976307354E+002	-1.1381829E+000	-2.621356606240168E+001	2.9835831E-002	-1.1381539E+000	0
4.2484932E+001	1.017089976256830E+002	-1.1401260E+000	-2.683600932778677E+001	3.0596431E-002	-1.1401541E+000	0
4.1598858E+001	1.019089976206305E+002	-1.1421909E+000	-2.745726653615907E+001	3.1361442E-002	-1.1421541E+000	0
4.0585850E+001	1.021089976155781E+002	-1.1441699E+000	-2.819134991266287E+001	3.2255694E-002	-1.1441542E+000	0
3.9692730E+001	1.023089976105257E+002	-1.1461678E+000	-2.887601350981083E+001	3.3096757E-002	-1.1461540E+000	0
3.8822872E+001	1.025089976054733E+002	-1.1481472E+000	-2.957399105052559E+001	3.3955295E-002	-1.1481540E+000	0
3.8077854E+001	1.027089976004208E+002	-1.1500946E+000	-3.020376587968289E+001	3.4737188E-002	-1.1501541E+000	0
3.7209778E+001	1.029089975953684E+002	-1.1521289E+000	-3.096306883937382E+001	3.5673447E-002	-1.1521541E+000	0
3.6275379E+001	1.031089975903160E+002	-1.1541288E+000	-3.181576251875526E+001	3.6719486E-002	-1.1541539E+000	0
3.5542530E+001	1.033089975852636E+002	-1.1561354E+000	-3.252822489560043E+001	3.7607033E-002	-1.1561540E+000	0
3.4749126E+001	1.035089975802111E+002	-1.1581955E+000	-3.333020373753138E+001	3.8602892E-002	-1.1581540E+000	0
3.4205791E+001	1.037089975751587E+002	-1.1601644E+000	-3.391719129620782E+001	3.9349515E-002	-1.1601540E+000	0
3.3667877E+001	1.039089975701063E+002	-1.1621610E+000	-3.451839414340284E+001	4.0115930E-002	-1.1621541E+000	0
3.2952496E+001	1.041089975650539E+002	-1.1641405E+000	-3.532783876173609E+001	4.1126568E-002	-1.1641541E+000	0
3.2269409E+001	1.043089975600014E+002	-1.1661993E+000	-3.613947025880793E+001	4.2145826E-002	-1.1661540E+000	0
3.1566353E+001	1.045089975549490E+002	-1.1681218E+000	-3.700528322109544E+001	4.3226678E-002	-1.1681540E+000	0
3.0921978E+001	1.047089975498966E+002	-1.1701503E+000	-3.784202537190612E+001	4.4280857E-002	-1.1701541E+000	0
3.0405186E+001	1.049089975448442E+002	-1.1721230E+000	-3.855010129237650E+001	4.5185458E-002	-1.1721542E+000	0
2.9932159E+001	1.051089975397917E+002	-1.1741179E+000	-3.922596756049568E+001	4.6055913E-002	-1.1741542E+000	0
2.9401226E+001	1.053089975347393E+002	-1.1761855E+000	-4.000464205595912E+001	4.7052879E-002	-1.1761540E+000	0
2.8816219E+001	1.055089975296869E+002	-1.1781576E+000	-4.088522246878688E+001	4.8169233E-002	-1.1781540E+000	0
2.8351067E+001	1.057089975246345E+002	-1.1801571E+000	-4.162654846676884E+001	4.9125865E-002	-1.1801541E+000	0
2.7942219E+001	1.059089975195820E+002	-1.1821743E+000	-4.230781926887095E+001	5.0015219E-002	-1.1821541E+000	0
2.7550356E+001	1.061089975145296E+002	-1.1841302E+000	-4.298057573452562E+001	5.0894596E-002	-1.1841540E+000	0
2.7034389E+001	1.063089975094772E+002	-1.1861771E+000	-4.387660301677778E+001	5.2045424E-002	-1.1861541E+000	0
2.6431883E+001	1.065089975044248E+002	-1.1881901E+000	-4.495291278719083E+001	5.3412605E-002	-1.1881540E+000	0
2.5825808E+001	1.067089974993723E+002	-1.1902215E+000	-4.608651897426091E+001	5.4853167E-002	-1.1901541E+000	0
2.5384085E+001	1.069089974943199E+002	-1.1921976E+000	-4.696634170663083E+001	5.5993158E-002	-1.1921540E+000	0
2.4845139E+001	1.071089974892675E+002	-1.1942165E+000	-4.806640405395399E+001	5.7401691E-002	-1.1941541E+000	0
2.4295633E+001	1.073089974842151E+002	-1.1962086E+000	-4.923553949959421E+001	5.8895975E-002	-1.1961541E+000	0
2.3882332E+001	1.075089974791626E+002	-1.1981874E+000	-5.017045034870307E+001	6.0113598E-002	-1.1981541E+000	0
2.3037836E+001	1.077089974741102E+002	-1.2002321E+000	-5.209830107710526E+001	6.2530056E-002	-1.2001541E+000	0
2.2288782E+001	1.079089974690578E+002	-1.2022336E+000	-5.393895105764136E+001	6.4847216E-002	-1.2021542E+000	0
2.2056314E+001	1.081089974640054E+002	-1.2041889E+000	-5.459610919887518E+001	6.5744027E-002	-1.2041541E+000	0
2.1684273E+001	1.083089974589529E+002	-1.2062322E+000	-5.562705095500905E+001	6.7099139E-002	-1.2061540E+000	0
2.1036133E+001	1.085089974539005E+002	-1.2082635E+000	-5.743753247412428E+001	6.9399677E-002	-1.2081541E+000	0
2.0469719E+001	1.087089974488481E+002	-1.2102404E+000	-5.912344971265384E+001	7.1553588E-002	-1.2101541E+000	0
1.9887121E+001	1.089089974437957E+002	-1.2121768E+000	-6.095285619629760E+001	7.3885635E-002	-1.2121542E+000	0
1.9498880E+001	1.091089974387432E+002	-1.2142483E+000	-6.227271821439399E+001	7.5614542E-002	-1.2141541E+000	0
1.8709209E+001	1.093089974336908E+002	-1.2162290E+000	-6.500696462892893E+001	7.9063356E-002	-1.2161540E+000	0
1.8423220E+001	1.095089974286384E+002	-1.2181975E+000	-6.612293929740144E+001	8.0550797E-002	-1.2181541E+000	0
1.8277452E+001	1.097089974235860E+002	-1.2202303E+000	-6.676151409819579E+001	8.1464425E-002	-1.2201540E+000	0
1.7850315E+001	1.099089974185335E+002	-1.2222191E+000	-6.847045378295729E+001	8.3685897E-002	-1.2221541E+000	0
1.7261208E+001	1.101089974134811E+002	-1.2242056E+000	-7.092236530753780E+001	8.6823560E-002	-1.2241541E+000	0
1.7115164E+001	1.103089974084287E+002	-1.2261885E+000	-7.164339708092575E+001	8.7848313E-002	-1.2261541E+000	0
1.6727959E+001	1.105089974033763E+002	-1.2282180E+000	-7.342305954784001E+001	9.0179518E-002	-1.2281539E+000	0
1.6425661E+001	1.107089973983238E+002	-1.2302458E+000	-7.489779528036127E+001	9.2142701E-002	-1.2301540E+000	0
1.5796474E+001	1.109089973932714E+002	-1.2322288E+000	-7.800656855782142E+001	9.6121937E-002	-1.2321541E+000	0
1.5378757E+001	1.111089973882190E+002	-1.2342025E+000	-8.025372420957592E+001	9.9049345E-002	-1.2341540E+000	0
1.5186752E+001	1.113089973831666E+002	-1.2362061E+000	-8.140028992315536E+001	1.0062753E-001	-1.2361541E+000	0
1.4706711E+001	1.115089973781141E+002	-1.2382468E+000	-8.419603680591166E+001	1.0425548E-001	-1.2381541E+000	0
1.4462427E+001	1.117089973730617E+002	-1.2401626E+000	-8.575065707565705E+001	1.0634476E-001	-1.2401541E+000	0
1.4105639E+001	1.119089973680093E+002	-1.2422706E+000	-8.806907395440680E+001	1.0940562E-001	-1.2421541E+000	0
1.3923196E+001	1.121089973629569E+002	-1.2442167E+000	-8.936286645952032E+001	1.1118677E-001	-1.2441540E+000	0
1.3716024E+001	1.123089973579044E+002	-1.2463075E+000	-9.086507041059713E+001	1.1324582E-001	-1.2461541E+000	0
1.3306528E+001	1.125089973528520E+002	-1.2482390E+000	-9.380651480594724E+001	1.1709295E-001	-1.2481540E+000	0
1.2974335E+001	1.127089973477996E+002	-1.2502083E+000	-9.636010234642481E+001	1.2047020E-001	-1.2501540E+000	0
1.2758224E+001	1.129089973427472E+002	-1.2522672E+000	-9.815372693511654E+001	1.2291469E-001	-1.2521541E+000	0
1.2680689E+001	1.131089973376947E+002	-1.2542443E+000	-9.890979126359287E+001	1.2405705E-001	-1.2541541E+000	0
1.2565140E+001	1.133089973326423E+002	-1.2562988E+000	-9.998287488327583E+001	1.2560837E-001	-1.2561541E+000	0
1.2314488E+001	1.135089973275899E+002	-1.2582498E+000	-1.021763752171786E+002	1.2856340E-001	-1.2581540E+000	0
1.1991632E+001	1.137089973225375E+002	-1.2602611E+000	-1.050950435424336E+002	1.3244720E-001	-1.2601541E+000	0
1.1800519E+001	1.139089973174850E+002	-1.2622614E+000	-1.069666020864806E+002	1.3501981E-001	-1.2621541E+000	0
1.1650055E+001	1.141089973124326E+002	-1.2642581E+000	-1.085194974432179E+002	1.3719666E-001	-1.2641541E+000	0
1.1527676E+001	1.143189973071276E+002	-1.2663561E+000	-1.098535492652454E+002	1.3911371E-001	-1.2662541E+000	0
1.1219483E+001	1.145289973018225E+002	-1.2684107E+000	-1.130542834794436E+002	1.4339925E-001	-1.2683541E+000	0
1.1116623E+001	1.147289972967701E+002	-1.2703733E+000	-1.142769109959506E+002	1.4517434E-001	-1.2703540E+000	0
1.1042887E+001	1.149289972917177E+002	-1.2724153E+000	-1.152248803861021E+002	1.4661390E-001	-1.2723541E+000	0
1.0946108E+001	1.151289972866653E+002	-1.2744285E+000	-1.164275476245916E+002	1.4837858E-001	-1.2743541E+000	0
1.0813329E+001	1.153289972816128E+002	-1.2763907E+000	-1.180386450825906E+002	1.5066342E-001	-1.2763541E+000	0
1.0668263E+001	1.155289972765604E+002	-1.2784274E+000	-1.198346310126810E+002	1.5319987E-001	-1.2783540E+000	0
1.0405946E+001	1.157289972715080E+002	-1.2804050E+000	-1.230455184491045E+002	1.5754810E-001	-1.2803541E+000	0
1.0035498E+001	1.159289972664556E+002	-1.2824515E+000	-1.277915156995900E+002	1.6388643E-001	-1.2823541E+000	0
9.8841410E+000	1.161289972614031E+002	-1.2844572E+000	-1.299513249224280E+002	1.6691692E-001	-1.2843541E+000	0
9.6818275E+000	1.163289972563507E+002	-1.2863998E+000	-1.328674579845265E+002	1.7092067E-001	-1.2863541E+000	0
9.6241045E+000	1.165289972512983E+002	-1.2884482E+000	-1.338771988842759E+002	1.7249385E-001	-1.2883540E+000	0
9.5060902E+000	1.167289972462459E+002	-1.2904559E+000	-1.357504397692858E+002	1.7517996E-001	-1.2903541E+000	0
9.0974236E+000	1.169289972411934E+002	-1.2924181E+000	-1.420641891021037E+002	1.8360633E-001	-1.2923541E+000	0
8.9707880E+000	1.171289972361410E+002	-1.2943909E+000	-1.442895391154987E+002	1.8676707E-001	-1.2943541E+000	0
8.8953447E+000	1.173289972310886E+002	-1.2964243E+000	-1.457418852057854E+002	1.8894331E-001	-1.2963541E+000	0
8.7491474E+000	1.175289972260362E+002	-1.2983767E+000	-1.484003721191775E+002	1.9267958E-001	-1.2983541E+000	0
8.6397104E+000	1.177289972209837E+002	-1.3004769E+000	-1.505232092680034E+002	1.9575197E-001	-1.3003541E+000	0
8.4934664E+000	1.179289972159313E+002	-1.3024721E+000	-1.533498891410918E+002	1.9973396E-001	-1.3023542E+000	0
8.3506556E+000	1.181289972108789E+002	-1.3044485E+000	-1.562091027236038E+002	2.0376673E-001	-1.3043541E+000	0
8.2437134E+000	1.183289972058265E+002	-1.3064612E+000	-1.584796943253668E+002	2.0704757E-001	-1.3063540E+000	0
8.2349339E+000	1.185289972007740E+002	-1.3084097E+000	-1.588852643534174E+002	2.0788702E-001	-1.3083540E+000	0
8.1820154E+000	1.187289971957216E+002	-1.3104563E+000	-1.601630102393310E+002	2.0988663E-001	-1.3103541E+000	0
7.9608269E+000	1.189289971906692E+002	-1.3124336E+000	-1.648614671246527E+002	2.1636973E-001	-1.3123541E+000	0
7.7471013E+000	1.191289971856168E+002	-1.3144289E+000	-1.696671957288472E+002	2.2301547E-001	-1.3143541E+000	0
7.7014213E+000	1.193289971805643E+002	-1.3164264E+000	-1.709329200353209E+002	2.2502060E-001	-1.3163540E+000	0
7.6035571E+000	1.195289971755119E+002	-1.3184162E+000	-1.733946676102888E+002	2.2860634E-001	-1.3183540E+000	0
7.4939356E+000	1.197289971704595E+002	-1.3204248E+000	-1.761991146492039E+002	2.3265769E-001	-1.3203541E+000	0
7.3361874E+000	1.199289971654071E+002	-1.3224527E+000	-1.802642921871602E+002	2.3839100E-001	-1.3223542E+000	0
7.0769114E+000	1.201289971603546E+002	-1.3244418E+000	-1.871496941443202E+002	2.4786888E-001	-1.3243541E+000	0
7.0488577E+000	1.203289971553022E+002	-1.3264499E+000	-1.881794109366107E+002	2.4961056E-001	-1.3263541E+000	0
7.0083280E+000	1.205289971502498E+002	-1.3284036E+000	-1.895464372224014E+002	2.5179416E-001	-1.3283540E+000	0
6.9635510E+000	1.207289971451974E+002	-1.3304325E+000	-1.910566259868563E+002	2.5418794E-001	-1.3303541E+000	0
6.9368043E+000	1.209289971401449E+002	-1.3324518E+000	-1.920843957935607E+002	2.5594321E-001	-1.3323541E+000	0
6.9006929E+000	1.211289971350925E+002	-1.3344626E+000	-1.933809667401301E+002	2.5805968E-001	-1.3343540E+000	0
6.8775797E+000	1.213289971300401E+002	-1.3364213E+000	-1.943156333423804E+002	2.5968754E-001	-1.3363540E+000	0
6.8356247E+000	1.215289971249877E+002	-1.3384796E+000	-1.958094110175325E+002	2.6208690E-001	-1.3383540E+000	0
6.7717190E+000	1.217289971199352E+002	-1.3404516E+000	-1.979484925594452E+002	2.6534039E-001	-1.3403541E+000	0
6.6710682E+000	1.219289971148828E+002	-1.3424792E+000	-2.012390227955757E+002	2.7015921E-001	-1.3423541E+000	0
6.5608869E+000	1.221290971098279E+002	-1.3444654E+000	-2.049212874222276E+002	2.7550957E-001	-1.3443549E+000	0
6.5119581E+000	1.223296971047603E+002	-1.3464748E+000	-2.067695624130188E+002	2.7840999E-001	-1.3463603E+000	0
6.4541626E+000	1.225102971001979E+002	-1.3482659E+000	-2.088986511200650E+002	2.8165093E-001	-1.3481665E+000	0
6.4333744E+000	1.226904970956457E+002	-1.3501077E+000	-2.098599487228103E+002	2.8333354E-001	-1.3499688E+000	0
6.3816032E+000	1.228908970905832E+002	-1.3520795E+000	-2.118714503373612E+002	2.8646705E-001	-1.3519723E+000	0
6.3312645E+000	1.230912970855206E+002	-1.3540703E+000	-2.138704304738876E+002	2.8959560E-001	-1.3539768E+000	0
6.2000952E+000	1.232918970804531E+002	-1.3561217E+000	-2.187259457605578E+002	2.9661900E-001	-1.3559823E+000	0
6.1512899E+000	1.234922970753905E+002	-1.3581253E+000	-2.207870690235031E+002	2.9985651E-001	-1.3579870E+000	0
6.1319838E+000	1.236924970703330E+002	-1.3600981E+000	-2.218039366594501E+002	3.0167511E-001	-1.3599890E+000	0
5.9207363E+000	1.238827970655257E+002	-1.3620272E+000	-2.300435360950430E+002	3.1332555E-001	-1.3618914E+000	0
5.8535366E+000	1.240730970607183E+002	-1.3638850E+000	-2.330018839111717E+002	3.1778780E-001	-1.3637947E+000	0
5.8305287E+000	1.242733970556583E+002	-1.3659047E+000	-2.342677140523070E+002	3.1998736E-001	-1.3657975E+000	0
5.6797967E+000	1.244638970508458E+002	-1.3677889E+000	-2.408165237591502E+002	3.2938617E-001	-1.3677025E+000	0
5.4809546E+000	1.246540970460410E+002	-1.3697393E+000	-2.499088955907446E+002	3.4231004E-001	-1.3696048E+000	0
5.4567633E+000	1.248542970409835E+002	-1.3717413E+000	-2.513836892552586E+002	3.4483337E-001	-1.3716068E+000	0
5.4505014E+000	1.250544970359260E+002	-1.3737755E+000	-2.520457098756715E+002	3.4625423E-001	-1.3736085E+000	0
5.2148647E+000	1.252547970308660E+002	-1.3757505E+000	-2.638132678809675E+002	3.6294124E-001	-1.3756115E+000	0
5.1563010E+000	1.254452970260536E+002	-1.3776236E+000	-2.671728218863882E+002	3.6806357E-001	-1.3775164E+000	0
5.1773214E+000	1.255957970222516E+002	-1.3791530E+000	-2.663835129573505E+002	3.6738363E-001	-1.3790207E+000	0
5.1864376E+000	1.257562970181971E+002	-1.3807411E+000	-2.662214730743854E+002	3.6758295E-001	-1.3806264E+000	0
5.2296014E+000	1.259461970133998E+002	-1.3827093E+000	-2.644005184767316E+002	3.6558905E-001	-1.3825257E+000	0
5.1736708E+000	1.261164970090977E+002	-1.3843840E+000	-2.675825565551322E+002	3.7043703E-001	-1.3842283E+000	0
5.1371770E+000	1.263169970040326E+002	-1.3863497E+000	-2.698660639104492E+002	3.7412873E-001	-1.3862334E+000	0
5.0740962E+000	1.265175969989650E+002	-1.3883804E+000	-2.736212232499647E+002	3.7989035E-001	-1.3882395E+000	0
5.0462756E+000	1.267180969939000E+002	-1.3903650E+000	-2.755230095987961E+002	3.8307756E-001	-1.3902442E+000	0
5.0271859E+000	1.269186969888324E+002	-1.3923635E+000	-2.769667985538531E+002	3.8563848E-001	-1.3922505E+000	0
5.0358634E+000	1.271187969837774E+002	-1.3943762E+000	-2.768891871724099E+002	3.8608769E-001	-1.3942518E+000	0
5.0060134E+000	1.273191969787149E+002	-1.3963714E+000	-2.789388103623094E+002	3.8950217E-001	-1.3962555E+000	0
4.9895153E+000	1.275094969739075E+002	-1.3982859E+000	-2.802448193453120E+002	3.9186236E-001	-1.3981588E+000	0
4.6869359E+000	1.276996969691027E+002	-1.4002175E+000	-2.987490276106882E+002	4.1831362E-001	-1.4000608E+000	0
4.6396608E+000	1.278799969645479E+002	-1.4020487E+000	-3.021877463748472E+002	4.2368194E-001	-1.4018632E+000	0
4.6437850E+000	1.280305969607434E+002	-1.4035292E+000	-3.022381944959157E+002	4.2420012E-001	-1.4033695E+000	0
4.6757026E+000	1.282009969564388E+002	-1.4052458E+000	-3.005421789904176E+002	4.2233562E-001	-1.4050733E+000	0
4.6883178E+000	1.283314969531421E+002	-1.4064993E+000	-3.000008335680586E+002	4.2195097E-001	-1.4063784E+000	0
4.7034073E+000	1.284717969495978E+002	-1.4078947E+000	-2.993350778551394E+002	4.2143229E-001	-1.4077814E+000	0
4.7013822E+000	1.286421969452931E+002	-1.4096514E+000	-2.998376520152297E+002	4.2266658E-001	-1.4094856E+000	0
4.6740856E+000	1.288424969402331E+002	-1.4116124E+000	-3.020082480233305E+002	4.2631859E-001	-1.4114889E+000	0
4.6670809E+000	1.290427969351731E+002	-1.4136729E+000	-3.029030249328389E+002	4.2820582E-001	-1.4134916E+000	0
4.6775851E+000	1.292430969301131E+002	-1.4156704E+000	-3.026498432465235E+002	4.2845243E-001	-1.4154943E+000	0
4.6832943E+000	1.294434969250506E+002	-1.4176263E+000	-3.026985088740375E+002	4.2911336E-001	-1.4174986E+000	0
4.6711760E+000	1.296439969199855E+002	-1.4196690E+000	-3.039211105982394E+002	4.3146738E-001	-1.4195036E+000	0
4.6724896E+000	1.298442969149255E+002	-1.4216741E+000	-3.042647922481801E+002	4.3256539E-001	-1.4215069E+000	0
4.6563983E+000	1.300444969098680E+002	-1.4237415E+000	-3.057602461663109E+002	4.3532354E-001	-1.4235089E+000	0
4.6639004E+000	1.302445969048131E+002	-1.4257048E+000	-3.056893875874621E+002	4.3582284E-001	-1.4255102E+000	0
4.6805043E+000	1.304445968997607E+002	-1.4276953E+000	-3.050302222229911E+002	4.3549022E-001	-1.4275099E+000	0
4.6534986E+000	1.306446968947057E+002	-1.4297116E+000	-3.072337074003290E+002	4.3925560E-001	-1.4295108E+000	0
4.6097555E+000	1.308349968898983E+002	-1.4316270E+000	-3.105646278243848E+002	4.4461271E-001	-1.4314133E+000	0
4.6065817E+000	1.310255968850834E+002	-1.4335635E+000	-3.111989662701026E+002	4.4612348E-001	-1.4333194E+000	0
4.5928922E+000	1.312261968800158E+002	-1.4355422E+000	-3.125573665944930E+002	4.4868931E-001	-1.4353256E+000	0
4.5401611E+000	1.314262968749608E+002	-1.4375383E+000	-3.166271577836123E+002	4.5516366E-001	-1.4373269E+000	0
4.3761716E+000	1.316065968704061E+002	-1.4393445E+000	-3.289049489805629E+002	4.7340754E-001	-1.4391297E+000	0
4.3709836E+000	1.317669968663540E+002	-1.4408944E+000	-3.296499215389740E+002	4.7499073E-001	-1.4407332E+000	0
4.3666754E+000	1.319472968617993E+002	-1.4427125E+000	-3.303915195660529E+002	4.7665998E-001	-1.4425370E+000	0
4.3552604E+000	1.321475968567393E+002	-1.4447483E+000	-3.317248872122873E+002	4.7925895E-001	-1.4445395E+000	0
4.2716660E+000	1.323479968516767E+002	-1.4467312E+000	-3.386807948391806E+002	4.8998007E-001	-1.4465437E+000	0
4.2649274E+000	1.325481968466192E+002	-1.4487256E+000	-3.396835266403059E+002	4.9210823E-001	-1.4485462E+000	0
4.2602844E+000	1.327482968415643E+002	-1.4507188E+000	-3.405215779991461E+002	4.9400103E-001	-1.4505469E+000	0
4.2501483E+000	1.329487968364992E+002	-1.4527140E+000	-3.418031360830005E+002	4.9654219E-001	-1.4525512E+000	0
4.2445078E+000	1.331491968314367E+002	-1.4547160E+000	-3.427290265901947E+002	4.9857339E-001	-1.4545554E+000	0
4.2337670E+000	1.333395968266268E+002	-1.4565979E+000	-3.440429996884296E+002	5.0113231E-001	-1.4564594E+000	0
4.1701708E+000	1.335297968218219E+002	-1.4585184E+000	-3.497502764768880E+002	5.1011723E-001	-1.4583620E+000	0
4.1264257E+000	1.337299968167645E+002	-1.4605663E+000	-3.539543238167962E+002	5.1697373E-001	-1.4603634E+000	0
4.1271262E+000	1.339302968117045E+002	-1.4625319E+000	-3.543705396638643E+002	5.1827824E-001	-1.4623671E+000	0
4.1000237E+000	1.341305968066445E+002	-1.4645339E+000	-3.572013398086310E+002	5.2313346E-001	-1.4643695E+000	0
4.0910945E+000	1.343307968015870E+002	-1.4665504E+000	-3.584738517923715E+002	5.2571994E-001	-1.4663718E+000	0
4.0960288E+000	1.345308967965320E+002	-1.4685572E+000	-3.585319722976074E+002	5.2652472E-001	-1.4683729E+000	0
4.0253615E+000	1.347311967914720E+002	-1.4705540E+000	-3.653222126153914E+002	5.3722602E-001	-1.4703754E+000	0
4.0336070E+000	1.349313967864146E+002	-1.4725966E+000	-3.650818484710727E+002	5.3761828E-001	-1.4723779E+000	0
4.0166554E+000	1.351313967813621E+002	-1.4745944E+000	-3.671199430219194E+002	5.4135299E-001	-1.4743778E+000	0
4.0241203E+000	1.353313967763097E+002	-1.4765810E+000	-3.669326303594498E+002	5.4180574E-001	-1.4763778E+000	0
4.0000272E+000	1.355313967712573E+002	-1.4786054E+000	-3.696488445913419E+002	5.4656476E-001	-1.4783779E+000	0
3.9517329E+000	1.357313967662049E+002	-1.4806347E+000	-3.746798506799478E+002	5.5476397E-001	-1.4803778E+000	0
3.7400501E+000	1.359313967611524E+002	-1.4826362E+000	-3.964214889305786E+002	5.8774883E-001	-1.4823779E+000	0
3.6742828E+000	1.361313967561000E+002	-1.4845901E+000	-4.040489337471336E+002	5.9984702E-001	-1.4843779E+000	0
3.6870625E+000	1.363213967513002E+002	-1.4865198E+000	-4.031718633668133E+002	5.9932297E-001	-1.4862776E+000	0
3.6967387E+000	1.364914967470031E+002	-1.4882455E+000	-4.025833539352607E+002	5.9914285E-001	-1.4879789E+000	0
3.7157021E+000	1.366913967419532E+002	-1.4902030E+000	-4.010555799575086E+002	5.9765422E-001	-1.4899778E+000	0
3.7203591E+000	1.368913967369008E+002	-1.4922557E+000	-4.011052742523398E+002	5.9855163E-001	-1.4919779E+000	0
3.6970825E+000	1.370913967318484E+002	-1.4942421E+000	-4.041678902156782E+002	6.0392469E-001	-1.4939778E+000	0
3.6946924E+000	1.372913967267959E+002	-1.4962087E+000	-4.049616404812347E+002	6.0590714E-001	-1.4959779E+000	0
3.7092273E+000	1.374913967217435E+002	-1.4982390E+000	-4.039221446368174E+002	6.0517192E-001	-1.4979780E+000	0
3.7029259E+000	1.376913967166911E+002	-1.5002085E+000	-4.051413712058220E+002	6.0779655E-001	-1.4999778E+000	0
3.7289186E+000	1.378913967116387E+002	-1.5022035E+000	-4.028523090604740E+002	6.0516614E-001	-1.5019779E+000	0
3.7334607E+000	1.380913967065862E+002	-1.5041786E+000	-4.028912513239848E+002	6.0602039E-001	-1.5039778E+000	0
3.7461710E+000	1.382913967015338E+002	-1.5062683E+000	-4.020820779130008E+002	6.0564345E-001	-1.5059779E+000	0
3.7785916E+000	1.384913966964814E+002	-1.5082253E+000	-3.991501240719490E+002	6.0200834E-001	-1.5079777E+000	0
3.7934549E+000	1.386913966914290E+002	-1.5102273E+000	-3.981139624870293E+002	6.0124260E-001	-1.5099778E+000	0
3.7909541E+000	1.388913966863765E+002	-1.5122337E+000	-3.989058361572470E+002	6.0323888E-001	-1.5119779E+000	0
3.7924414E+000	1.390913966813241E+002	-1.5141687E+000	-3.992596239384075E+002	6.0454643E-001	-1.5139778E+000	0
3.7911460E+000	1.392913966762717E+002	-1.5162302E+000	-3.999398104890406E+002	6.0640085E-001	-1.5159779E+000	0
3.7362633E+000	1.394913966712193E+002	-1.5181742E+000	-4.063349063380224E+002	6.1688715E-001	-1.5179780E+000	0
3.6506186E+000	1.396913966661668E+002	-1.5201517E+000	-4.164093503497897E+002	6.3300538E-001	-1.5199778E+000	0
3.6541657E+000	1.398913966611144E+002	-1.5222418E+000	-4.165771277291424E+002	6.3413113E-001	-1.5219779E+000	0
3.6587095E+000	1.400913966560620E+002	-1.5242027E+000	-4.165957072813767E+002	6.3497633E-001	-1.5239778E+000	0
3.6670263E+000	1.402913966510096E+002	-1.5262276E+000	-4.162030803178677E+002	6.3522065E-001	-1.5259778E+000	0
3.6315942E+000	1.404913966459571E+002	-1.5281920E+000	-4.208047276062198E+002	6.4307046E-001	-1.5279779E+000	0
3.4650557E+000	1.406913966409047E+002	-1.5302463E+000	-4.416224033718995E+002	6.7579103E-001	-1.5299778E+000	0
3.3500593E+000	1.408913966358523E+002	-1.5322014E+000	-4.573654468519067E+002	7.0077598E-001	-1.5319779E+000	0
3.3701432E+000	1.410913966307999E+002	-1.5342214E+000	-4.552392449843901E+002	6.9843781E-001	-1.5339779E+000	0
3.1658361E+000	1.412913966257474E+002	-1.5366998E+000	-4.854009277880050E+002	7.4591547E-001	-1.5359778E+000	0
3.0365024E+000	1.414913966206950E+002	-1.5387053E+000	-5.067361117987939E+002	7.7971756E-001	-1.5379779E+000	0
3.0659175E+000	1.416913966156426E+002	-1.5407484E+000	-5.025407127631211E+002	7.7428877E-001	-1.5399779E+000	0
3.0958667E+000	1.418913966105902E+002	-1.5427364E+000	-4.983213382902595E+002	7.6877844E-001	-1.5419778E+000	0
3.1097846E+000	1.420913966055377E+002	-1.5447180E+000	-4.967283159589042E+002	7.6730520E-001	-1.5439779E+000	0
3.0361733E+000	1.422913966004853E+002	-1.5467572E+000	-5.094429960012978E+002	7.8798461E-001	-1.5459780E+000	0
3.0078158E+000	1.424813965956855E+002	-1.5486366E+000	-5.148708091800418E+002	7.9734778E-001	-1.5478778E+000	0
3.0349162E+000	1.426713965908857E+002	-1.5505463E+000	-5.109025128552712E+002	7.9217798E-001	-1.5497779E+000	0
3.0733914E+000	1.428713965858333E+002	-1.5525435E+000	-5.051564661878044E+002	7.8427738E-001	-1.5517780E+000	0
3.0820510E+000	1.430713965807809E+002	-1.5544868E+000	-5.043676087169674E+002	7.8403276E-001	-1.5537778E+000	0
3.0886943E+000	1.432713965757284E+002	-1.5565753E+000	-5.039589874198357E+002	7.8445011E-001	-1.5557779E+000	0
3.1171732E+000	1.434713965706760E+002	-1.5585307E+000	-4.999820624846716E+002	7.7923739E-001	-1.5577780E+000	0
3.1374180E+000	1.436713965656236E+002	-1.5605547E+000	-4.974009628079657E+002	7.7622145E-001	-1.5597779E+000	0
3.1333253E+000	1.438713965605712E+002	-1.5625604E+000	-4.986907660425929E+002	7.7923447E-001	-1.5617779E+000	0
3.1149442E+000	1.440713965555187E+002	-1.5645581E+000	-5.022748423120054E+002	7.8583819E-001	-1.5637780E+000	0
3.0065830E+000	1.442713965504663E+002	-1.5665580E+000	-5.210426571385387E+002	8.1624353E-001	-1.5657779E+000	0
3.0166340E+000	1.444713965454139E+002	-1.5685722E+000	-5.199742929411032E+002	8.1561720E-001	-1.5677780E+000	0
3.0341663E+000	1.446713965403615E+002	-1.5705544E+000	-5.176230362310416E+002	8.1295514E-001	-1.5697778E+000	0
3.0543754E+000	1.448713965353090E+002	-1.5725039E+000	-5.148364780192478E+002	8.0958235E-001	-1.5717779E+000	0
3.0596473E+000	1.450713965302566E+002	-1.5745952E+000	-5.146329176074523E+002	8.1033856E-001	-1.5737778E+000	0
3.0383391E+000	1.452713965252042E+002	-1.5766052E+000	-5.189036257348099E+002	8.1810617E-001	-1.5757779E+000	0
3.0425901E+000	1.454713965201518E+002	-1.5785906E+000	-5.188311941055999E+002	8.1902206E-001	-1.5777780E+000	0
3.0634475E+000	1.456713965150993E+002	-1.5805181E+000	-5.159279167106074E+002	8.1543344E-001	-1.5797778E+000	0
2.9919040E+000	1.458713965100469E+002	-1.5825657E+000	-5.289493330222394E+002	8.3709705E-001	-1.5817778E+000	0
2.9743681E+000	1.460713965049945E+002	-1.5845321E+000	-5.327290075738947E+002	8.4412622E-001	-1.5837778E+000	0
2.9862726E+000	1.462713964999421E+002	-1.5865351E+000	-5.312760667563016E+002	8.4288812E-001	-1.5857779E+000	0
2.9558849E+000	1.464713964948896E+002	-1.5885464E+000	-5.374181984189954E+002	8.5371375E-001	-1.5877780E+000	0
2.9575906E+000	1.466713964898372E+002	-1.5905898E+000	-5.377991755262792E+002	8.5541785E-001	-1.5897781E+000	0
2.9615319E+000	1.468713964847848E+002	-1.5925455E+000	-5.377438558202211E+002	8.5638154E-001	-1.5917779E+000	0
2.9954970E+000	1.470713964797324E+002	-1.5945231E+000	-5.323066888493458E+002	8.4877527E-001	-1.5937779E+000	0
3.0063853E+000	1.472713964746799E+002	-1.5966091E+000	-5.310726994841002E+002	8.4791553E-001	-1.5957779E+000	0
2.9959290E+000	1.474713964696275E+002	-1.5985510E+000	-5.335744129059822E+002	8.5294592E-001	-1.5977780E+000	0
2.9925203E+000	1.476713964645751E+002	-1.6005882E+000	-5.348629205751295E+002	8.5609525E-001	-1.5997781E+000	0
2.9941807E+000	1.478713964595227E+002	-1.6025902E+000	-5.352349868739823E+002	8.5776234E-001	-1.6017779E+000	0
3.0237427E+000	1.480613964547229E+002	-1.6045364E+000	-5.306458156029714E+002	8.5144055E-001	-1.6036775E+000	0
3.0052760E+000	1.482513964499231E+002	-1.6064416E+000	-5.345404463527957E+002	8.5870802E-001	-1.6055779E+000	0
2.9798205E+000	1.484513964448706E+002	-1.6084025E+000	-5.397648827126777E+002	8.6815917E-001	-1.6075779E+000	0
2.9769146E+000	1.486513964398182E+002	-1.6103718E+000	-5.409533072058562E+002	8.7113595E-001	-1.6095779E+000	0
2.9795842E+000	1.488513964347658E+002	-1.6123942E+000	-5.411473947036279E+002	8.7254292E-001	-1.6115780E+000	0
2.9964945E+000	1.490513964297134E+002	-1.6144092E+000	-5.387659258074764E+002	8.6978865E-001	-1.6135778E+000	0
3.0168545E+000	1.492513964246609E+002	-1.6163265E+000	-5.357654515913009E+002	8.6597186E-001	-1.6155779E+000	0
3.0253356E+000	1.494513964196085E+002	-1.6183859E+000	-5.349442855679272E+002	8.6574632E-001	-1.6175780E+000	0
2.9965830E+000	1.496513964145561E+002	-1.6203736E+000	-5.407404293916643E+002	8.7620151E-001	-1.6195779E+000	0
2.9699528E+000	1.498413964097563E+002	-1.6222444E+000	-5.462188780900565E+002	8.8610047E-001	-1.6214777E+000	0
2.9761283E+000	1.500313964049565E+002	-1.6241835E+000	-5.457370707280497E+002	8.8637716E-001	-1.6233778E+000	0
2.9925151E+000	1.502313963999040E+002	-1.6261983E+000	-5.434219212564494E+002	8.8371181E-001	-1.6253779E+000	0
2.9920354E+000	1.504313963948516E+002	-1.6281720E+000	-5.441687047486944E+002	8.8600028E-001	-1.6273780E+000	0
2.9750798E+000	1.506313963897992E+002	-1.6301675E+000	-5.479407453515360E+002	8.9323521E-001	-1.6293778E+000	0
3.0187447E+000	1.508313963847468E+002	-1.6321932E+000	-5.406860521666895E+002	8.8250411E-001	-1.6313779E+000	0
2.9882348E+000	1.510313963796943E+002	-1.6341538E+000	-5.468625947299179E+002	8.9365762E-001	-1.6333778E+000	0
3.0116186E+000	1.512313963746419E+002	-1.6361037E+000	-5.432639268498842E+002	8.8883615E-001	-1.6353779E+000	0
3.0443449E+000	1.514313963695895E+002	-1.6380239E+000	-5.380546102545432E+002	8.8134629E-001	-1.6373780E+000	0
3.0324576E+000	1.516313963645371E+002	-1.6401100E+000	-5.408517620839229E+002	8.8705641E-001	-1.6393781E+000	0
3.0741975E+000	1.518313963594846E+002	-1.6421533E+000	-5.341729702116945E+002	8.7719387E-001	-1.6413779E+000	0
3.0744765E+000	1.520313963544322E+002	-1.6441977E+000	-5.347894739207222E+002	8.7929964E-001	-1.6433779E+000	0
3.0567548E+000	1.522313963493798E+002	-1.6461978E+000	-5.385442591470382E+002	8.8655037E-001	-1.6453779E+000	0
3.0553212E+000	1.524313963443274E+002	-1.6481928E+000	-5.394499325698216E+002	8.8911748E-001	-1.6473780E+000	0
3.0678504E+000	1.526313963392749E+002	-1.6501428E+000	-5.378824446585179E+002	8.8758284E-001	-1.6493781E+000	0
2.9673731E+000	1.528313963342225E+002	-1.6521914E+000	-5.567858796973878E+002	9.1991687E-001	-1.6513779E+000	0
2.8685050E+000	1.530114963296728E+002	-1.6540358E+000	-5.766194377766515E+002	9.5374918E-001	-1.6531787E+000	0
2.8442669E+000	1.531915963251231E+002	-1.6558187E+000	-5.821601036659986E+002	9.6395159E-001	-1.6549799E+000	0
2.8119428E+000	1.533915963200707E+002	-1.6578245E+000	-5.895655350328325E+002	9.7739619E-001	-1.6569799E+000	0
2.8485141E+000	1.535915963150183E+002	-1.6598085E+000	-5.826927313209890E+002	9.6715838E-001	-1.6589800E+000	0
2.8531525E+000	1.537415963112289E+002	-1.6613675E+000	-5.822918636458267E+002	9.6740079E-001	-1.6604797E+000	0
2.8653471E+000	1.537819963102083E+002	-1.6617568E+000	-5.799495544433594E+002	9.6373510E-001	-1.6610796E+000	1