EC-Lab ASCII FILE
Nb header lines : 61                          

Linear Sweep Voltammetry

Run on channel : 1 (SN 1340)
User : 
Electrode connection : standard
Potential control : Ewe
Ewe ctrl range : min = -5.00 V, max = 5.00 V
Ewe,I filtering : <None>
Channel : Grounded
Acquisition started on : 02/05/2026 17:50:51.179
Technique started on : 02/05/2026 17:50:53.861
Loaded Setting File :  NONE
Saved on :
	File : Pt_Pd_Ni_40_Co_01_02_LSV_C01.mpr
	Directory : C:\Users\volt\Documents\Platalytix\
	Host : 127.0.0.1
Device : SP-200 (SN 0262)
Address : USB
EC-LAB for windows v11.60 (software)
Internet server v11.60 (firmware)
Command interpretor v11.60 (firmware)
Electrode material : PtPdNiCo
Initial state : 
Electrolyte : 1 M KOH
Comments : 
Cable : standard
Reference electrode : Hg/HgO (0.140 V)
Electrode surface area : 1.000 cm˛
Characteristic mass : 0.001 g
Equivalent Weight : 0.000 g/eq.
Density : 0.000 g/cm3
Volume (V) : 0.001 cmł
Cycle Definition : Charge/Discharge alternance
tR (h:m:s)          0:00:5.0000         
dER/dt (mV/h)       0.0                 
dER (mV)            0                   
dtR (s)             0.0000              
dE/dt               10.000              
dE/dt unit          mV/s                
Ei (V)              -0.200              
vs.                 Ref                 
EL (V)              -2.000              
vs.                 Ref                 
record              <I>                 
dI                  0.000               
unit dI             µA                  
tI (s)              0.0000              
step percent        50                  
N                   10                  
E range min (V)     -5.000              
E range max (V)     5.000               
I Range             Auto                
I Range min         Unset               
I Range max         Unset               
I Range init        Unset               
Bandwidth           8                   

Rwe/Ohm	time/s	Ewe/V	<I>/mA	Pwe/W	control/V	error	
0.0000000E+000	2.682400127378060E+000	-1.6808093E-001	0.000000000000000E+000	0.0000000E+000	0.0000000E+000	0
0.0000000E+000	7.682200001072488E+000	-3.8893864E-002	0.000000000000000E+000	0.0000000E+000	-1.9981110E-001	0
3.3240603E+003	7.882199996020063E+000	-2.0157160E-001	-6.064017502591014E-002	1.2223337E-005	-2.0171088E-001	0
1.4297023E+003	8.002199992988608E+000	-2.0272183E-001	-1.417930467453390E-001	2.8744547E-005	-2.0291094E-001	0
1.5783905E+003	8.212199987683562E+000	-2.0482598E-001	-1.297688934595116E-001	2.6580041E-005	-2.0501092E-001	0
1.7598007E+003	8.412199982631137E+000	-2.0694394E-001	-1.175951029811797E-001	2.4335595E-005	-2.0701084E-001	0
1.9129014E+003	8.612199977578712E+000	-2.0879582E-001	-1.091513749266937E-001	2.2790351E-005	-2.0901074E-001	0
2.0497866E+003	8.812199972526287E+000	-2.1086223E-001	-1.028703331077248E-001	2.1691469E-005	-2.1101061E-001	0
2.1705107E+003	9.012199967473862E+000	-2.1287665E-001	-9.807675568304575E-002	2.0878251E-005	-2.1301052E-001	0
2.2793433E+003	9.212199962421437E+000	-2.1487811E-001	-9.427193853668370E-002	2.0256975E-005	-2.1501039E-001	0
2.3807871E+003	9.412199957369012E+000	-2.1686558E-001	-9.108987165025750E-002	1.9754258E-005	-2.1701030E-001	0
2.4748450E+003	9.612199952316587E+000	-2.1883820E-001	-8.842501242153067E-002	1.9350771E-005	-2.1901019E-001	0
2.5608091E+003	9.812199947264162E+000	-2.2084819E-001	-8.624156708660169E-002	1.9046294E-005	-2.2101009E-001	0
2.6459958E+003	1.001219994221174E+001	-2.2282840E-001	-8.421343423810512E-002	1.8765146E-005	-2.2300997E-001	0
2.7241438E+003	1.021219993715931E+001	-2.2486551E-001	-8.254539029083530E-002	1.8561612E-005	-2.2500987E-001	0
2.8002463E+003	1.041219993210689E+001	-2.2686487E-001	-8.101604344289481E-002	1.8379695E-005	-2.2700977E-001	0
2.8729277E+003	1.061219992705446E+001	-2.2886848E-001	-7.966385125034720E-002	1.8232546E-005	-2.2900963E-001	0
2.9456907E+003	1.081219992200204E+001	-2.3088162E-001	-7.837945374168120E-002	1.8096374E-005	-2.3100956E-001	0
3.0138772E+003	1.101219991694961E+001	-2.3287247E-001	-7.726674014860846E-002	1.7993296E-005	-2.3300943E-001	0
3.0801956E+003	1.121219991189719E+001	-2.3487291E-001	-7.625259697076214E-002	1.7909670E-005	-2.3500934E-001	0
3.1459963E+003	1.141219990684476E+001	-2.3685762E-001	-7.528858638976751E-002	1.7832675E-005	-2.3700921E-001	0
3.2083767E+003	1.161209990179486E+001	-2.3884997E-001	-7.444573702442225E-002	1.7781362E-005	-2.3900957E-001	0
3.2520803E+003	1.181199989674496E+001	-2.4083912E-001	-7.405693986761475E-002	1.7835808E-005	-2.4100898E-001	0
3.3284106E+003	1.201199989169254E+001	-2.4286225E-001	-7.296643574255357E-002	1.7720793E-005	-2.4300890E-001	0
3.3886853E+003	1.221199988664011E+001	-2.4486691E-001	-7.226014875093070E-002	1.7694119E-005	-2.4500878E-001	0
3.4507832E+003	1.241199988158769E+001	-2.4683589E-001	-7.153039408716777E-002	1.7656268E-005	-2.4700868E-001	0
3.5089956E+003	1.261199987653526E+001	-2.4886559E-001	-7.092217424759817E-002	1.7650089E-005	-2.4900857E-001	0
3.5670366E+003	1.281199987148284E+001	-2.5082463E-001	-7.031737109424430E-002	1.7637329E-005	-2.5100848E-001	0
3.6248979E+003	1.301199986643041E+001	-2.5288129E-001	-6.976231839982927E-002	1.7641585E-005	-2.5300837E-001	0
3.6787681E+003	1.321199986137799E+001	-2.5480768E-001	-6.926440586686522E-002	1.7649103E-005	-2.5500825E-001	0
3.7381465E+003	1.341199985632556E+001	-2.5688893E-001	-6.872093819911740E-002	1.7653649E-005	-2.5700817E-001	0
3.7892156E+003	1.361199985127314E+001	-2.5886616E-001	-6.831655498222355E-002	1.7684844E-005	-2.5900805E-001	0
3.8403745E+003	1.381199984622072E+001	-2.6083222E-001	-6.791843456171771E-002	1.7715316E-005	-2.6100791E-001	0
3.8995815E+003	1.401199984116829E+001	-2.6282269E-001	-6.739766284762183E-002	1.7713635E-005	-2.6300782E-001	0
3.9537454E+003	1.421199983611587E+001	-2.6486170E-001	-6.699007772734956E-002	1.7743107E-005	-2.6500773E-001	0
4.0048870E+003	1.441199983106344E+001	-2.6681414E-001	-6.662213900432756E-002	1.7775728E-005	-2.6700759E-001	0
4.0588066E+003	1.461199982601102E+001	-2.6887295E-001	-6.624433559697140E-002	1.7811310E-005	-2.6900750E-001	0
4.1091343E+003	1.481199982095859E+001	-2.7085000E-001	-6.591412545574638E-002	1.7852841E-005	-2.7100742E-001	0
4.1637134E+003	1.501199981590617E+001	-2.7289179E-001	-6.554048519017691E-002	1.7885461E-005	-2.7300730E-001	0
4.2133188E+003	1.521189981085627E+001	-2.7482167E-001	-6.522688347175704E-002	1.7925760E-005	-2.7500719E-001	0
4.2650000E+003	1.541179980580637E+001	-2.7685016E-001	-6.491211308229761E-002	1.7970930E-005	-2.7700710E-001	0
4.3233638E+003	1.561179980075394E+001	-2.7892953E-001	-6.451678212601147E-002	1.7995635E-005	-2.7900696E-001	0
4.3724541E+003	1.581179979570152E+001	-2.8085971E-001	-6.423388519683393E-002	1.8040710E-005	-2.8100687E-001	0
4.4180381E+003	1.601179979064909E+001	-2.8280029E-001	-6.401037630707473E-002	1.8102153E-005	-2.8300676E-001	0
4.4726431E+003	1.621179978559667E+001	-2.8487390E-001	-6.369251713986657E-002	1.8144336E-005	-2.8500664E-001	0
4.5246899E+003	1.641179978054424E+001	-2.8683886E-001	-6.339414531466414E-002	1.8183904E-005	-2.8700653E-001	0
4.5744561E+003	1.661179977549182E+001	-2.8888404E-001	-6.315155976447706E-002	1.8243478E-005	-2.8900641E-001	0
4.6257563E+003	1.681179977043939E+001	-2.9085115E-001	-6.287645434436984E-002	1.8287688E-005	-2.9100633E-001	0
4.6753633E+003	1.701179976538697E+001	-2.9281485E-001	-6.262932647264619E-002	1.8338797E-005	-2.9300621E-001	0
4.7270098E+003	1.721179976033454E+001	-2.9486364E-001	-6.237847350755277E-002	1.8393144E-005	-2.9500610E-001	0
4.7781636E+003	1.741179975528212E+001	-2.9682437E-001	-6.212101284733418E-002	1.8439030E-005	-2.9700601E-001	0
4.8247261E+003	1.761179975022969E+001	-2.9879001E-001	-6.192890488301844E-002	1.8503739E-005	-2.9900590E-001	0
4.8788423E+003	1.781179974517727E+001	-3.0095634E-001	-6.168601696977169E-002	1.8564799E-005	-3.0100578E-001	0
4.9234795E+003	1.801179974012484E+001	-3.0283433E-001	-6.150819364588803E-002	1.8626793E-005	-3.0300567E-001	0
4.9688843E+003	1.821179973507242E+001	-3.0482155E-001	-6.134607284720529E-002	1.8699606E-005	-3.0500555E-001	0
5.0238696E+003	1.841179973001999E+001	-3.0688182E-001	-6.108474623635729E-002	1.8745797E-005	-3.0700547E-001	0
5.0677466E+003	1.861179972496757E+001	-3.0880752E-001	-6.093586478044455E-002	1.8817453E-005	-3.0900535E-001	0
5.1135049E+003	1.881179971991514E+001	-3.1090152E-001	-6.080008613192756E-002	1.8902840E-005	-3.1100523E-001	0
5.1663843E+003	1.901169971486524E+001	-3.1289390E-001	-6.056341747006799E-002	1.8949924E-005	-3.1300604E-001	0
5.2167515E+003	1.921159970981535E+001	-3.1486541E-001	-6.035660784860530E-002	1.9004208E-005	-3.1500503E-001	0
5.2648291E+003	1.941159970476292E+001	-3.1680065E-001	-6.017301816075138E-002	1.9062851E-005	-3.1700492E-001	0
5.3120713E+003	1.961159969971050E+001	-3.1882125E-001	-6.001825438328745E-002	1.9135095E-005	-3.1900480E-001	0
5.3643838E+003	1.981159969465807E+001	-3.2086366E-001	-5.981370217701110E-002	1.9192044E-005	-3.2100472E-001	0
5.4157188E+003	2.001159968960565E+001	-3.2283562E-001	-5.961085594620341E-002	1.9244508E-005	-3.2300457E-001	0
5.4659111E+003	2.021159968455322E+001	-3.2486960E-001	-5.943557979906486E-002	1.9308813E-005	-3.2500449E-001	0
5.5167568E+003	2.041159967950080E+001	-3.2685682E-001	-5.924800215890880E-002	1.9365614E-005	-3.2700434E-001	0
5.5608193E+003	2.061159967444837E+001	-3.2886529E-001	-5.913971653292621E-002	1.9449000E-005	-3.2900426E-001	0
5.6105786E+003	2.081159966939595E+001	-3.3081374E-001	-5.896250110767903E-002	1.9505605E-005	-3.3100414E-001	0
5.6588726E+003	2.101159966434352E+001	-3.3282474E-001	-5.881467414650288E-002	1.9574978E-005	-3.3300403E-001	0
5.7031040E+003	2.121159965929110E+001	-3.3483341E-001	-5.871073356533918E-002	1.9658315E-005	-3.3500391E-001	0
5.7552241E+003	2.141159965423867E+001	-3.3686656E-001	-5.853231138361770E-002	1.9717578E-005	-3.3700383E-001	0
5.7997617E+003	2.161159964918625E+001	-3.3886081E-001	-5.842667653662514E-002	1.9798510E-005	-3.3900371E-001	0
5.8452017E+003	2.181159964413382E+001	-3.4086394E-001	-5.831517346779874E-002	1.9877540E-005	-3.4100363E-001	0
5.8928418E+003	2.201159963908140E+001	-3.4288898E-001	-5.818737016635966E-002	1.9951807E-005	-3.4300351E-001	0
5.9427041E+003	2.221159963402897E+001	-3.4488472E-001	-5.803498218539235E-002	2.0015379E-005	-3.4500340E-001	0
5.9867944E+003	2.241159962897655E+001	-3.4685820E-001	-5.793721712080335E-002	2.0095998E-005	-3.4700328E-001	0
6.0327729E+003	2.261149962392665E+001	-3.4882885E-001	-5.782230623493279E-002	2.0170090E-005	-3.4900296E-001	0
6.0818027E+003	2.281139961887675E+001	-3.5087472E-001	-5.769255106567572E-002	2.0242858E-005	-3.5100308E-001	0
6.1300479E+003	2.301139961382432E+001	-3.5284609E-001	-5.756008704119026E-002	2.0309852E-005	-3.5300300E-001	0
6.1695029E+003	2.321139960877190E+001	-3.5487238E-001	-5.752041499138882E-002	2.0412406E-005	-3.5500285E-001	0
6.2241714E+003	2.341139960371947E+001	-3.5685071E-001	-5.733304921919852E-002	2.0459340E-005	-3.5700276E-001	0
6.2742671E+003	2.361139959866705E+001	-3.5884881E-001	-5.719374033597091E-002	2.0523905E-005	-3.5900262E-001	0
6.3208921E+003	2.381139959361462E+001	-3.6094129E-001	-5.710290502566751E-002	2.0610796E-005	-3.6100256E-001	0
6.3619878E+003	2.401139958856220E+001	-3.6289632E-001	-5.704134203284483E-002	2.0700094E-005	-3.6300242E-001	0
6.4048481E+003	2.421139958350977E+001	-3.6475199E-001	-5.694936018050689E-002	2.0772393E-005	-3.6500233E-001	0
6.4584546E+003	2.441139957845735E+001	-3.6693662E-001	-5.681492560258028E-002	2.0847478E-005	-3.6700222E-001	0
6.5029028E+003	2.461139957340492E+001	-3.6883855E-001	-5.671906023911394E-002	2.0920175E-005	-3.6900213E-001	0
6.5433931E+003	2.481139956835250E+001	-3.7087673E-001	-5.667957208170032E-002	2.1021135E-005	-3.7100199E-001	0
6.5920830E+003	2.501139956330007E+001	-3.7291113E-001	-5.656954136206116E-002	2.1095411E-005	-3.7300187E-001	0
6.6351431E+003	2.521139955824765E+001	-3.7481046E-001	-5.648867760113338E-002	2.1172547E-005	-3.7500179E-001	0
6.6778984E+003	2.541139955319522E+001	-3.7688580E-001	-5.643778457992643E-002	2.1270600E-005	-3.7700167E-001	0
6.7125503E+003	2.561139954814280E+001	-3.7879711E-001	-5.643117899769978E-002	2.1375969E-005	-3.7900156E-001	0
6.7557480E+003	2.581139954309037E+001	-3.8089788E-001	-5.638130355094167E-002	2.1475518E-005	-3.8100144E-001	0
6.7989155E+003	2.601139953803795E+001	-3.8292760E-001	-5.632186456120958E-002	2.1567197E-005	-3.8300136E-001	0
6.8430625E+003	2.621139953298552E+001	-3.8485414E-001	-5.624004296457952E-002	2.1644213E-005	-3.8500124E-001	0
6.8903818E+003	2.641119952793815E+001	-3.8691247E-001	-5.615254163440059E-002	2.1726119E-005	-3.8700116E-001	0
6.9404927E+003	2.661119952288573E+001	-3.8889423E-001	-5.603265480714914E-002	2.1790776E-005	-3.8900101E-001	0
6.9827085E+003	2.681119951783330E+001	-3.9084077E-001	-5.597266145557375E-002	2.1876398E-005	-3.9100096E-001	0
7.0210684E+003	2.701119951278088E+001	-3.9284348E-001	-5.595209487120445E-002	2.1980415E-005	-3.9300081E-001	0
7.0686982E+003	2.721119950772845E+001	-3.9486322E-001	-5.586081121302700E-002	2.2057380E-005	-3.9500067E-001	0
7.1141953E+003	2.741119950267603E+001	-3.9683282E-001	-5.578042412822959E-002	2.2135504E-005	-3.9700061E-001	0
7.1652222E+003	2.761119949762360E+001	-3.9885959E-001	-5.566604506876960E-002	2.2202936E-005	-3.9900047E-001	0
7.2006748E+003	2.781119949257118E+001	-4.0086126E-001	-5.566995814094189E-002	2.2315930E-005	-4.0100038E-001	0
7.2458081E+003	2.801119948751875E+001	-4.0283772E-001	-5.559596809180553E-002	2.2396152E-005	-4.0300030E-001	0
7.2992993E+003	2.821119948246633E+001	-4.0489089E-001	-5.546982900995567E-002	2.2459230E-005	-4.0500018E-001	0
7.3315771E+003	2.841119947741390E+001	-4.0679163E-001	-5.548487422626702E-002	2.2570783E-005	-4.0700009E-001	0
7.3741279E+003	2.861119947236148E+001	-4.0884933E-001	-5.544375165264231E-002	2.2668140E-005	-4.0899995E-001	0
7.4176504E+003	2.881119946730905E+001	-4.1085568E-001	-5.538892367476693E-002	2.2756854E-005	-4.1099983E-001	0
7.4553872E+003	2.901119946225663E+001	-4.1287941E-001	-5.538001024774575E-002	2.2865266E-005	-4.1299972E-001	0
7.4964868E+003	2.921119945720420E+001	-4.1489196E-001	-5.534485221023144E-002	2.2962135E-005	-4.1499966E-001	0
7.5411914E+003	2.941119945215178E+001	-4.1686901E-001	-5.527893197564326E-002	2.3044075E-005	-4.1699952E-001	0
7.5841167E+003	2.961119944709935E+001	-4.1890401E-001	-5.523438240842848E-002	2.3137904E-005	-4.1899940E-001	0
7.6342637E+003	2.981119944204693E+001	-4.2091739E-001	-5.513529730707301E-002	2.3207405E-005	-4.2099932E-001	0
7.6694956E+003	3.001109943699703E+001	-4.2282841E-001	-5.513118712826204E-002	2.3311031E-005	-4.2299876E-001	0
7.6912007E+003	3.021099943194713E+001	-4.2491522E-001	-5.524693125417535E-002	2.3475262E-005	-4.2499912E-001	0
7.7205908E+003	3.041099942689470E+001	-4.2685604E-001	-5.528800305857606E-002	2.3600018E-005	-4.2699897E-001	0
7.7542441E+003	3.061099942184228E+001	-4.2887488E-001	-5.530840399001380E-002	2.3720386E-005	-4.2899889E-001	0
7.8028379E+003	3.081099941678985E+001	-4.3084195E-001	-5.521605667064744E-002	2.3789393E-005	-4.3099877E-001	0
7.8486211E+003	3.101099941173743E+001	-4.3288037E-001	-5.515368362675427E-002	2.3874947E-005	-4.3299863E-001	0
7.8902871E+003	3.121099940668500E+001	-4.3488735E-001	-5.511679748218934E-002	2.3969598E-005	-4.3499857E-001	0
7.9279131E+003	3.141099940163258E+001	-4.3691877E-001	-5.511144726999673E-002	2.4079225E-005	-4.3699840E-001	0
7.9676772E+003	3.161099939658016E+001	-4.3889308E-001	-5.508419524196126E-002	2.4176072E-005	-4.3899834E-001	0
8.0164614E+003	3.181099939152773E+001	-4.4088757E-001	-5.499778005406408E-002	2.4247838E-005	-4.4099820E-001	0
8.0292910E+003	3.201099938647531E+001	-4.4290790E-001	-5.516151893966326E-002	2.4431472E-005	-4.4299814E-001	0
8.0712368E+003	3.221099938142288E+001	-4.4489154E-001	-5.512061565501991E-002	2.4522697E-005	-4.4499800E-001	0
8.0989155E+003	3.241099937637046E+001	-4.4687411E-001	-5.517703126492968E-002	2.4657187E-005	-4.4699791E-001	0
8.1553457E+003	3.261099937131803E+001	-4.4890577E-001	-5.504435906397864E-002	2.4709730E-005	-4.4899780E-001	0
8.1889814E+003	3.281099936626561E+001	-4.5088220E-001	-5.505961779866120E-002	2.4825402E-005	-4.5099768E-001	0
8.2291084E+003	3.301099936121318E+001	-4.5288727E-001	-5.503479452210314E-002	2.4924557E-005	-4.5299762E-001	0
8.2563418E+003	3.321099935616076E+001	-4.5485520E-001	-5.509161334030765E-002	2.5058707E-005	-4.5499748E-001	0
8.2984971E+003	3.341099935110833E+001	-4.5686173E-001	-5.505355223939423E-002	2.5151861E-005	-4.5699736E-001	0
8.3366514E+003	3.361099934605591E+001	-4.5890248E-001	-5.504637893633552E-002	2.5260919E-005	-4.5899725E-001	0
8.3699678E+003	3.381089934100601E+001	-4.6087399E-001	-5.506281489896503E-002	2.5377019E-005	-4.6099806E-001	0
8.3871572E+003	3.401079933595611E+001	-4.6285617E-001	-5.518630211602660E-002	2.5543321E-005	-4.6299708E-001	0
8.4348516E+003	3.421079933090368E+001	-4.6489397E-001	-5.511584155295296E-002	2.5623021E-005	-4.6499693E-001	0
8.4740322E+003	3.441079932585126E+001	-4.6680337E-001	-5.508633528291229E-002	2.5714487E-005	-4.6699688E-001	0
8.4736221E+003	3.461079932079883E+001	-4.6888763E-001	-5.533497244892593E-002	2.5945885E-005	-4.6899670E-001	0
8.5303877E+003	3.481079931574641E+001	-4.7090515E-001	-5.520325532508275E-002	2.5995498E-005	-4.7099659E-001	0
8.5673340E+003	3.501079931069398E+001	-4.7282919E-001	-5.518977114373236E-002	2.6095335E-005	-4.7299650E-001	0
8.6070430E+003	3.521079930564156E+001	-4.7486252E-001	-5.517139131532722E-002	2.6198826E-005	-4.7499636E-001	0
8.6219424E+003	3.541079930058913E+001	-4.7688419E-001	-5.531053010441878E-002	2.6376718E-005	-4.7699630E-001	0
8.6537920E+003	3.561079929553671E+001	-4.7882405E-001	-5.533112689130471E-002	2.6493874E-005	-4.7899616E-001	0
8.6678203E+003	3.581079929048428E+001	-4.8091516E-001	-5.548282272484373E-002	2.6682530E-005	-4.8099607E-001	0
8.7293877E+003	3.601079928543186E+001	-4.8280299E-001	-5.530776946949045E-002	2.6702757E-005	-4.8299596E-001	0
8.7650400E+003	3.621079928037943E+001	-4.8488814E-001	-5.532069589262689E-002	2.6824349E-005	-4.8499584E-001	0
8.7964814E+003	3.641079927532701E+001	-4.8684886E-001	-5.534586139960984E-002	2.6945070E-005	-4.8699579E-001	0
8.8218672E+003	3.661079927027458E+001	-4.8888573E-001	-5.541749131895379E-002	2.7092821E-005	-4.8899558E-001	0
8.8494854E+003	3.681079926522216E+001	-4.9084073E-001	-5.546545247386813E-002	2.7224703E-005	-4.9099559E-001	0
8.8841533E+003	3.701079926016973E+001	-4.9288362E-001	-5.547896217525228E-002	2.7344671E-005	-4.9299538E-001	0
8.9289961E+003	3.721079925511731E+001	-4.9486047E-001	-5.542173394310346E-002	2.7426026E-005	-4.9499533E-001	0
8.9887412E+003	3.741069925006741E+001	-4.9691007E-001	-5.528138618175818E-002	2.7469878E-005	-4.9699479E-001	0
9.0180820E+003	3.761059924501751E+001	-4.9883664E-001	-5.531515969257039E-002	2.7593229E-005	-4.9899510E-001	0
9.0441289E+003	3.781059923996509E+001	-5.0085938E-001	-5.537950725700125E-002	2.7737346E-005	-5.0099504E-001	0
9.0820400E+003	3.801059923491266E+001	-5.0287467E-001	-5.537023010469402E-002	2.7844286E-005	-5.0299489E-001	0
9.1511357E+003	3.821059922986024E+001	-5.0485510E-001	-5.516857479576487E-002	2.7852137E-005	-5.0499481E-001	0
9.1813867E+003	3.841059922480781E+001	-5.0692999E-001	-5.521279351802699E-002	2.7989021E-005	-5.0699466E-001	0
9.2210342E+003	3.861059921975539E+001	-5.0887167E-001	-5.518596832980471E-002	2.8082575E-005	-5.0899458E-001	0
9.2540762E+003	3.881059921470296E+001	-5.1084745E-001	-5.520242322690350E-002	2.8200016E-005	-5.1099449E-001	0
9.2989766E+003	3.901059920965054E+001	-5.1289284E-001	-5.515583509488498E-002	2.8289032E-005	-5.1299435E-001	0
9.3302910E+003	3.921059920459811E+001	-5.1487017E-001	-5.518264558996200E-002	2.8411898E-005	-5.1499426E-001	0
9.3611377E+003	3.941059919954569E+001	-5.1688963E-001	-5.521654221018080E-002	2.8540859E-005	-5.1699412E-001	0
9.3970703E+003	3.961059919449326E+001	-5.1892763E-001	-5.522227801526136E-002	2.8656366E-005	-5.1899403E-001	0
9.4276826E+003	3.981059918944084E+001	-5.2090085E-001	-5.525226773939107E-002	2.8780953E-005	-5.2099389E-001	0
9.4652871E+003	4.001059918438841E+001	-5.2287537E-001	-5.524136608016683E-002	2.8884349E-005	-5.2299380E-001	0
9.4974717E+003	4.021059917933599E+001	-5.2488410E-001	-5.526566720576098E-002	2.9008070E-005	-5.2499372E-001	0
9.5361426E+003	4.041059917428356E+001	-5.2686900E-001	-5.524970043414723E-002	2.9109355E-005	-5.2699357E-001	0
9.5826465E+003	4.061059916923114E+001	-5.2895451E-001	-5.519921156628471E-002	2.9197872E-005	-5.2899349E-001	0
9.6051680E+003	4.081059916417871E+001	-5.3090441E-001	-5.527279019364251E-002	2.9344568E-005	-5.3099340E-001	0
9.6501396E+003	4.101049915912881E+001	-5.3285831E-001	-5.521767709040282E-002	2.9423198E-005	-5.3299290E-001	0
9.6874814E+003	4.121039915407891E+001	-5.3487682E-001	-5.521319459811222E-002	2.9532259E-005	-5.3499317E-001	0
9.7211123E+003	4.141039914902649E+001	-5.3689015E-001	-5.522929444009439E-002	2.9652065E-005	-5.3699303E-001	0
9.7590156E+003	4.161039914397406E+001	-5.3889924E-001	-5.522065550878696E-002	2.9758370E-005	-5.3899300E-001	0
9.7916738E+003	4.181039913892164E+001	-5.4087722E-001	-5.523848484213251E-002	2.9877237E-005	-5.4099280E-001	0
9.8236934E+003	4.201039913386921E+001	-5.4286784E-001	-5.526107344185061E-002	2.9999459E-005	-5.4299271E-001	0
9.8635459E+003	4.221039912881679E+001	-5.4492146E-001	-5.524600069344765E-002	3.0104731E-005	-5.4499263E-001	0
9.9094531E+003	4.241039912376436E+001	-5.4686612E-001	-5.518630521621145E-002	3.0179521E-005	-5.4699248E-001	0
9.9497559E+003	4.261039911871194E+001	-5.4891890E-001	-5.516908061954628E-002	3.0283350E-005	-5.4899246E-001	0
9.9791709E+003	4.281039911365951E+001	-5.5084568E-001	-5.519954359175760E-002	3.0406431E-005	-5.5099225E-001	0
1.0019688E+004	4.301039910860709E+001	-5.5291128E-001	-5.518248501020462E-002	3.0511019E-005	-5.5299222E-001	0
1.0050889E+004	4.321039910355466E+001	-5.5482149E-001	-5.520123757882345E-002	3.0626834E-005	-5.5499208E-001	0
1.0077849E+004	4.341039909850224E+001	-5.5688095E-001	-5.525791792245460E-002	3.0772080E-005	-5.5699199E-001	0
1.0109021E+004	4.361039909344981E+001	-5.5883288E-001	-5.528061606133550E-002	3.0892625E-005	-5.5899185E-001	0
1.0137990E+004	4.381039908839739E+001	-5.6090420E-001	-5.532696236467705E-002	3.1033127E-005	-5.6099176E-001	0
1.0149314E+004	4.401039908334496E+001	-5.6281507E-001	-5.545350370026902E-002	3.1210067E-005	-5.6299168E-001	0
1.0190841E+004	4.421039907829254E+001	-5.6492096E-001	-5.543418609602629E-002	3.1315933E-005	-5.6499153E-001	0
1.0220010E+004	4.441039907324011E+001	-5.6682563E-001	-5.546233614393503E-002	3.1437474E-005	-5.6699145E-001	0
1.0255025E+004	4.461039906818769E+001	-5.6885916E-001	-5.547125879020487E-002	3.1555333E-005	-5.6899136E-001	0
1.0268646E+004	4.481029906313779E+001	-5.7089597E-001	-5.559603706949667E-002	3.1739553E-005	-5.7099187E-001	0
1.0303097E+004	4.501019905808789E+001	-5.7284129E-001	-5.559894497149381E-002	3.1849369E-005	-5.7299113E-001	0
1.0330050E+004	4.521019905303547E+001	-5.7487118E-001	-5.565038044744786E-002	3.1991800E-005	-5.7499093E-001	0
1.0314001E+004	4.541019904798304E+001	-5.7685280E-001	-5.592910054429145E-002	3.2262858E-005	-5.7699096E-001	0
1.0331786E+004	4.561019904293062E+001	-5.7888818E-001	-5.602982468098472E-002	3.2435004E-005	-5.7899076E-001	0
1.0348327E+004	4.581019903787819E+001	-5.8084166E-001	-5.612904145466807E-002	3.2602085E-005	-5.8099073E-001	0
1.0324850E+004	4.601019903282577E+001	-5.8287460E-001	-5.645356900713339E-002	3.2905351E-005	-5.8299059E-001	0
1.0296673E+004	4.621019902777334E+001	-5.8481044E-001	-5.679605853936026E-002	3.3214928E-005	-5.8499044E-001	0
1.0384416E+004	4.641019902272092E+001	-5.8695120E-001	-5.652231044799128E-002	3.3175838E-005	-5.8699036E-001	0
1.0472983E+004	4.661019901766849E+001	-5.8886862E-001	-5.622739971946911E-002	3.3110551E-005	-5.8899021E-001	0
1.0575702E+004	4.681019901261607E+001	-5.9087813E-001	-5.587129129515023E-002	3.3013122E-005	-5.9099013E-001	0
1.0622175E+004	4.701019900756364E+001	-5.9288806E-001	-5.581606891113911E-002	3.3092681E-005	-5.9299004E-001	0
1.0678606E+004	4.721019900251122E+001	-5.9482163E-001	-5.570217768256203E-002	3.3132859E-005	-5.9498990E-001	0
1.0660328E+004	4.741019899745879E+001	-5.9688109E-001	-5.599087601012298E-002	3.3419896E-005	-5.9698981E-001	0
1.0659153E+004	4.761019899240637E+001	-5.9882605E-001	-5.617951386071784E-002	3.3641758E-005	-5.9898967E-001	0
1.0653896E+004	4.781019898735394E+001	-6.0081780E-001	-5.639418337996771E-002	3.3882628E-005	-6.0098964E-001	0
1.0768010E+004	4.801019898230152E+001	-6.0285234E-001	-5.598549293185218E-002	3.3750985E-005	-6.0298944E-001	0
1.0932898E+004	4.821019897724909E+001	-6.0487193E-001	-5.532585334005324E-002	3.3465054E-005	-6.0498941E-001	0
1.1007602E+004	4.841009897219919E+001	-6.0686600E-001	-5.513153847175611E-002	3.3457458E-005	-6.0698891E-001	0
1.1061793E+004	4.860999896714929E+001	-6.0885167E-001	-5.504095679478482E-002	3.3511780E-005	-6.0898918E-001	0
1.1112971E+004	4.880999896209687E+001	-6.1087507E-001	-5.496955665552785E-002	3.3579530E-005	-6.1098909E-001	0
1.1167362E+004	4.900999895704445E+001	-6.1286014E-001	-5.487958146966654E-002	3.3633507E-005	-6.1298895E-001	0
1.1203199E+004	4.920999895199202E+001	-6.1484784E-001	-5.488145389423069E-002	3.3743745E-005	-6.1498886E-001	0
1.1233348E+004	4.940999894693960E+001	-6.1692339E-001	-5.491892460209957E-002	3.3880769E-005	-6.1698872E-001	0
1.1270825E+004	4.960999894188717E+001	-6.1890256E-001	-5.491191346954372E-002	3.3985125E-005	-6.1898869E-001	0
1.1320776E+004	4.980999893683475E+001	-6.2085927E-001	-5.484246351025457E-002	3.4049452E-005	-6.2098855E-001	0
1.1360035E+004	5.000999893178232E+001	-6.2290019E-001	-5.483259136742102E-002	3.4155233E-005	-6.2298840E-001	0
1.1394055E+004	5.020999892672990E+001	-6.2486243E-001	-5.484109318259750E-002	3.4268138E-005	-6.2498832E-001	0
1.1432254E+004	5.040999892167747E+001	-6.2692261E-001	-5.483805860948188E-002	3.4379220E-005	-6.2698823E-001	0
1.1480641E+004	5.060999891662505E+001	-6.2888211E-001	-5.477761415513382E-002	3.4448662E-005	-6.2898815E-001	0
1.1515486E+004	5.080999891157262E+001	-6.3084239E-001	-5.478208632178860E-002	3.4558863E-005	-6.3098800E-001	0
1.1548152E+004	5.100999890652020E+001	-6.3286680E-001	-5.480242748966513E-002	3.4682638E-005	-6.3298792E-001	0
1.1588874E+004	5.120999890146777E+001	-6.3486594E-001	-5.478236680932735E-002	3.4779459E-005	-6.3498777E-001	0
1.1599138E+004	5.140999889641535E+001	-6.3691348E-001	-5.491041783148379E-002	3.4973185E-005	-6.3698763E-001	0
1.1659163E+004	5.160999889136292E+001	-6.3891679E-001	-5.479954332884085E-002	3.5012348E-005	-6.3898754E-001	0
1.1681680E+004	5.180999888631050E+001	-6.4088738E-001	-5.486260522515996E-002	3.5160752E-005	-6.4098740E-001	0
1.1721865E+004	5.200999888125807E+001	-6.4292252E-001	-5.484813952062462E-002	3.5263103E-005	-6.4298731E-001	0
1.1759133E+004	5.220979887621070E+001	-6.4491278E-001	-5.484356782243199E-002	3.5369318E-005	-6.4498699E-001	0
1.1786809E+004	5.240979887115827E+001	-6.4686799E-001	-5.488067316978962E-002	3.5500550E-005	-6.4698708E-001	0
1.1807816E+004	5.260979886610585E+001	-6.4886928E-001	-5.495251848334903E-002	3.5657002E-005	-6.4898700E-001	0
1.1845658E+004	5.280979886105342E+001	-6.5090805E-001	-5.494908081492222E-002	3.5766800E-005	-6.5098685E-001	0
1.1888657E+004	5.300979885600100E+001	-6.5288877E-001	-5.491694923048907E-002	3.5854660E-005	-6.5298682E-001	0
1.1889952E+004	5.320979885094857E+001	-6.5489399E-001	-5.507961660201172E-002	3.6071309E-005	-6.5498668E-001	0
1.1920104E+004	5.340979884589615E+001	-6.5692222E-001	-5.511044470758053E-002	3.6203277E-005	-6.5698659E-001	0
1.1944585E+004	5.360979884084372E+001	-6.5884012E-001	-5.515805837675036E-002	3.6340341E-005	-6.5898651E-001	0
1.1973566E+004	5.380979883579130E+001	-6.6088992E-001	-5.519574699245478E-002	3.6478312E-005	-6.6098636E-001	0
1.1913886E+004	5.400979883073887E+001	-6.6292924E-001	-5.564341109400162E-002	3.6887643E-005	-6.6298628E-001	0
1.2017354E+004	5.420979882568645E+001	-6.6484112E-001	-5.532342069961804E-002	3.6781286E-005	-6.6498613E-001	0
1.2053591E+004	5.440979882063402E+001	-6.6691881E-001	-5.532946993117438E-002	3.6900263E-005	-6.6698611E-001	0
1.2085053E+004	5.460979881558160E+001	-6.6881967E-001	-5.534271750379527E-002	3.7014299E-005	-6.6898590E-001	0
1.2131805E+004	5.480979881052917E+001	-6.7093724E-001	-5.530399342527925E-002	3.7105510E-005	-6.7098588E-001	0
1.2158495E+004	5.500979880547675E+001	-6.7281520E-001	-5.533704536760024E-002	3.7231606E-005	-6.7298573E-001	0
1.2190756E+004	5.520979880042432E+001	-6.7484385E-001	-5.535701546361871E-002	3.7357342E-005	-6.7498565E-001	0
1.2225392E+004	5.540979879537190E+001	-6.7695880E-001	-5.537318096225871E-002	3.7485363E-005	-6.7698550E-001	0
1.2244576E+004	5.560979879031947E+001	-6.7882580E-001	-5.543889597009721E-002	3.7633352E-005	-6.7898536E-001	0
1.2269606E+004	5.580969878526957E+001	-6.8087500E-001	-5.549281550081397E-002	3.7783670E-005	-6.8098468E-001	0
1.2302799E+004	5.600959878021968E+001	-6.8292129E-001	-5.550942308208218E-002	3.7908569E-005	-6.8298519E-001	0
1.2315197E+004	5.620959877516725E+001	-6.8485308E-001	-5.561040222059832E-002	3.8084956E-005	-6.8498504E-001	0
1.2333955E+004	5.640959877011483E+001	-6.8688303E-001	-5.569041020906362E-002	3.8252798E-005	-6.8698496E-001	0
1.2364981E+004	5.660959876506240E+001	-6.8884224E-001	-5.570912227993330E-002	3.8374797E-005	-6.8898481E-001	0
1.2395879E+004	5.680959876000998E+001	-6.9085598E-001	-5.573271610298935E-002	3.8503280E-005	-6.9098473E-001	0
1.2419263E+004	5.700959875495755E+001	-6.9285369E-001	-5.578863122257616E-002	3.8653357E-005	-6.9298458E-001	0
1.2399632E+004	5.720959874990513E+001	-6.9488847E-001	-5.604105619576383E-002	3.8942286E-005	-6.9498450E-001	0
1.2361662E+004	5.740959874485270E+001	-6.9693094E-001	-5.637841773126484E-002	3.9291863E-005	-6.9698441E-001	0
1.2426307E+004	5.760959873980028E+001	-6.9886959E-001	-5.624113604056811E-002	3.9305218E-005	-6.9898432E-001	0
1.2470714E+004	5.780959873474785E+001	-7.0087147E-001	-5.620139293148763E-002	3.9389954E-005	-7.0098424E-001	0
1.2498255E+004	5.800959872969543E+001	-7.0295250E-001	-5.624405174070568E-002	3.9536895E-005	-7.0298409E-001	0
1.2508601E+004	5.820959872464300E+001	-7.0486647E-001	-5.635054555854579E-002	3.9719609E-005	-7.0498401E-001	0
1.2517605E+004	5.840959871959058E+001	-7.0687628E-001	-5.647056856796617E-002	3.9917704E-005	-7.0698392E-001	0
1.2539229E+004	5.860959871453815E+001	-7.0887613E-001	-5.653266979132258E-002	4.0074661E-005	-7.0898372E-001	0
1.2549452E+004	5.880959870948573E+001	-7.1084595E-001	-5.664358244968079E-002	4.0264862E-005	-7.1098369E-001	0
1.2595621E+004	5.900959870443330E+001	-7.1290296E-001	-5.659926963110556E-002	4.0349787E-005	-7.1298355E-001	0
1.2608735E+004	5.920959869938088E+001	-7.1491438E-001	-5.669992652620282E-002	4.0535593E-005	-7.1498346E-001	0
1.2621131E+004	5.940959869432845E+001	-7.1691322E-001	-5.680261296167322E-002	4.0722545E-005	-7.1698332E-001	0
1.2638867E+004	5.960949868927855E+001	-7.1895975E-001	-5.688482417103613E-002	4.0897899E-005	-7.1898395E-001	0
1.2660569E+004	5.980939868422865E+001	-7.2086054E-001	-5.693745124576188E-002	4.1043961E-005	-7.2098315E-001	0
1.2690210E+004	6.000939867917623E+001	-7.2291696E-001	-5.696650744096932E-002	4.1182055E-005	-7.2298294E-001	0
1.2694061E+004	6.020939867412380E+001	-7.2484815E-001	-5.710136059084547E-002	4.1389816E-005	-7.2498298E-001	0
1.2705561E+004	6.040939866907138E+001	-7.2685224E-001	-5.720741053950251E-002	4.1581334E-005	-7.2698277E-001	0
1.2715633E+004	6.060939866401895E+001	-7.2886062E-001	-5.732004240455113E-002	4.1778323E-005	-7.2898275E-001	0
1.2730328E+004	6.080939865896653E+001	-7.3087078E-001	-5.741177727267677E-002	4.1960589E-005	-7.3098254E-001	0
1.2718496E+004	6.100939865391410E+001	-7.3283666E-001	-5.761975608185343E-002	4.2225871E-005	-7.3298246E-001	0
1.2748642E+004	6.120939864886168E+001	-7.3489451E-001	-5.764492569478580E-002	4.2362939E-005	-7.3498237E-001	0
1.2758296E+004	6.140939864380925E+001	-7.3687112E-001	-5.775623286962328E-002	4.2558899E-005	-7.3698229E-001	0
1.2727401E+004	6.160939863875683E+001	-7.3890817E-001	-5.805648272949993E-002	4.2898409E-005	-7.3898220E-001	0
1.2708214E+004	6.180939863370440E+001	-7.4083960E-001	-5.829612171233067E-002	4.3188076E-005	-7.4098206E-001	0
1.2727880E+004	6.200939862865198E+001	-7.4287850E-001	-5.836624130258228E-002	4.3359025E-005	-7.4298197E-001	0
1.2786348E+004	6.220939862359955E+001	-7.4490201E-001	-5.825760598978655E-002	4.3396209E-005	-7.4498188E-001	0
1.2770297E+004	6.240939861854713E+001	-7.4685341E-001	-5.848363821622840E-002	4.3678705E-005	-7.4698168E-001	0
1.2735915E+004	6.260939861349470E+001	-7.4882871E-001	-5.879661599923858E-002	4.4028595E-005	-7.4898160E-001	0
1.2765497E+004	6.280939860844228E+001	-7.5088227E-001	-5.882123128306159E-002	4.4167820E-005	-7.5098151E-001	0
1.2744638E+004	6.300939860338985E+001	-7.5284994E-001	-5.907189619068531E-002	4.4472272E-005	-7.5298142E-001	0
1.2729990E+004	6.320929859833996E+001	-7.5489599E-001	-5.930059632887119E-002	4.4765780E-005	-7.5498086E-001	0
1.2742784E+004	6.340919859329006E+001	-7.5686854E-001	-5.939585551970084E-002	4.4954853E-005	-7.5698113E-001	0
1.2725289E+004	6.360919858823763E+001	-7.5883991E-001	-5.963242797407009E-002	4.5251465E-005	-7.5898111E-001	0
1.2740391E+004	6.380919858318521E+001	-7.6088995E-001	-5.972265262291865E-002	4.5442364E-005	-7.6098090E-001	0
1.2717183E+004	6.400919857813278E+001	-7.6286536E-001	-5.998697730209945E-002	4.5761986E-005	-7.6298094E-001	0
1.2705273E+004	6.420919857308036E+001	-7.6491350E-001	-6.020440892295270E-002	4.6051166E-005	-7.6498073E-001	0
1.2671682E+004	6.440919856802793E+001	-7.6690036E-001	-6.052080434937090E-002	4.6413428E-005	-7.6698065E-001	0
1.2646458E+004	6.460919856297551E+001	-7.6886421E-001	-6.079680281385047E-002	4.6744484E-005	-7.6898056E-001	0
1.2642944E+004	6.480919855792308E+001	-7.7086729E-001	-6.097213454151740E-002	4.7001424E-005	-7.7098042E-001	0
1.2616301E+004	6.500919855287066E+001	-7.7286863E-001	-6.125952648854222E-002	4.7345566E-005	-7.7298033E-001	0
1.2592229E+004	6.520919854781823E+001	-7.7488720E-001	-6.153694170689748E-002	4.7684189E-005	-7.7498013E-001	0
1.2544815E+004	6.540919854276581E+001	-7.7689874E-001	-6.192986406185275E-002	4.8113234E-005	-7.7698016E-001	0
1.2510992E+004	6.560919853771338E+001	-7.7888304E-001	-6.225589591779568E-002	4.8490063E-005	-7.7897996E-001	0
1.2488582E+004	6.580919853266096E+001	-7.8089130E-001	-6.252841755500727E-002	4.8827897E-005	-7.8097993E-001	0
1.2441134E+004	6.600919852760853E+001	-7.8283232E-001	-6.292291104639380E-002	4.9258088E-005	-7.8297985E-001	0
1.2374830E+004	6.620919852255611E+001	-7.8486079E-001	-6.342396287663588E-002	4.9778981E-005	-7.8497976E-001	0
1.2351045E+004	6.640919851750368E+001	-7.8688246E-001	-6.370978906820346E-002	5.0132116E-005	-7.8697968E-001	0
1.2290912E+004	6.660919851245126E+001	-7.8886628E-001	-6.418288996983779E-002	5.0631719E-005	-7.8897947E-001	0
1.2264534E+004	6.680919850739883E+001	-7.9089105E-001	-6.448602590122815E-002	5.1001422E-005	-7.9097939E-001	0
1.2207271E+004	6.700909850234893E+001	-7.9283321E-001	-6.494762012978116E-002	5.1492629E-005	-7.9297996E-001	0
1.2158042E+004	6.720899849729904E+001	-7.9481941E-001	-6.537396590069100E-002	5.1960498E-005	-7.9497916E-001	0
1.2117624E+004	6.740899849224661E+001	-7.9687452E-001	-6.576161741600073E-002	5.2403757E-005	-7.9697907E-001	0
1.2057444E+004	6.760899848719419E+001	-7.9881382E-001	-6.625067472696525E-002	5.2921954E-005	-7.9897887E-001	0
1.1988479E+004	6.780899848214176E+001	-8.0089504E-001	-6.680539249898657E-002	5.3504107E-005	-8.0097890E-001	0
1.1921319E+004	6.800899847708934E+001	-8.0282205E-001	-6.734339182070831E-002	5.4064760E-005	-8.0297875E-001	0
1.1841794E+004	6.820899847203691E+001	-8.0488056E-001	-6.796947696305322E-002	5.4707310E-005	-8.0497867E-001	0
1.1774470E+004	6.840899846698449E+001	-8.0684537E-001	-6.852498771823390E-002	5.5289071E-005	-8.0697852E-001	0
1.1706737E+004	6.860899846193206E+001	-8.0886698E-001	-6.909414510983924E-002	5.5887973E-005	-8.0897838E-001	0
1.1647994E+004	6.880899845687964E+001	-8.1087422E-001	-6.961492243298872E-002	5.6448946E-005	-8.1097829E-001	0
1.1563408E+004	6.900899845182721E+001	-8.1286460E-001	-7.029628022858983E-002	5.7141358E-005	-8.1297821E-001	0
1.1481295E+004	6.920899844677479E+001	-8.1488967E-001	-7.097541652472028E-002	5.7837133E-005	-8.1497812E-001	0
1.1407124E+004	6.940899844172236E+001	-8.1686515E-001	-7.161008607640509E-002	5.8495785E-005	-8.1697792E-001	0
1.1343721E+004	6.960899843666994E+001	-8.1885970E-001	-7.218616396081007E-002	5.9110342E-005	-8.1897783E-001	0
1.1245026E+004	6.980899843161751E+001	-8.2082993E-001	-7.299493090935927E-002	5.9916423E-005	-8.2097775E-001	0
1.1161669E+004	7.000899842656509E+001	-8.2282871E-001	-7.371914880603625E-002	6.0658233E-005	-8.2297760E-001	0
1.1078505E+004	7.020899842151266E+001	-8.2489657E-001	-7.445919626158015E-002	6.1421139E-005	-8.2497752E-001	0
1.0982641E+004	7.040899841646024E+001	-8.2687277E-001	-7.528906439002314E-002	6.2254476E-005	-8.2697743E-001	0
1.0892417E+004	7.060889841141034E+001	-8.2886153E-001	-7.609528341978802E-002	6.3072453E-005	-8.2897645E-001	0
1.0789098E+004	7.080889840635791E+001	-8.3087665E-001	-7.701076569317655E-002	6.3986445E-005	-8.3097792E-001	0
1.0706611E+004	7.100879840130801E+001	-8.3293009E-001	-7.779586135859595E-002	6.4798514E-005	-8.3297712E-001	0
1.0638529E+004	7.120879839625559E+001	-8.3488190E-001	-7.847718976051576E-002	6.5519183E-005	-8.3497703E-001	0
1.0547170E+004	7.140879839120316E+001	-8.3689821E-001	-7.934813150268083E-002	6.6406312E-005	-8.3697683E-001	0
1.0464133E+004	7.160879838615074E+001	-8.3890414E-001	-8.016948469506907E-002	6.7254514E-005	-8.3897686E-001	0
1.0361573E+004	7.180879838109831E+001	-8.4085155E-001	-8.115095428250219E-002	6.8235902E-005	-8.4097666E-001	0
1.0263659E+004	7.200879837604589E+001	-8.4288210E-001	-8.212296020286058E-002	6.9219976E-005	-8.4297663E-001	0
1.0175851E+004	7.220879837099346E+001	-8.4487885E-001	-8.302783253475957E-002	7.0148461E-005	-8.4497648E-001	0
1.0073506E+004	7.240879836594104E+001	-8.4687716E-001	-8.406975733585098E-002	7.1196759E-005	-8.4697634E-001	0
9.9766455E+003	7.260879836088861E+001	-8.4889966E-001	-8.508868704079053E-002	7.2231756E-005	-8.4897625E-001	0
9.8864971E+003	7.280879835583619E+001	-8.5087097E-001	-8.606394393002109E-002	7.3229312E-005	-8.5097617E-001	0
9.7867236E+003	7.300879835078376E+001	-8.5290742E-001	-8.714943068617309E-002	7.4330397E-005	-8.5297608E-001	0
9.6670352E+003	7.320879834573134E+001	-8.5486329E-001	-8.843076585785647E-002	7.5596217E-005	-8.5497588E-001	0
9.5571094E+003	7.340879834067891E+001	-8.5687900E-001	-8.965880731479725E-002	7.6826749E-005	-8.5697579E-001	0
9.4506182E+003	7.360879833562649E+001	-8.5887980E-001	-9.088080707206725E-002	7.8055687E-005	-8.5897571E-001	0
9.3427041E+003	7.380879833057406E+001	-8.6089146E-001	-9.214585670586839E-002	7.9327583E-005	-8.6097556E-001	0
9.2112656E+003	7.400879832552164E+001	-8.6289304E-001	-9.367800793397230E-002	8.0834099E-005	-8.6297548E-001	0
9.0943340E+003	7.420879832046921E+001	-8.6489379E-001	-9.510248367117180E-002	8.2253551E-005	-8.6497539E-001	0
8.9617861E+003	7.440869831541931E+001	-8.6686736E-001	-9.672930856552583E-002	8.3851482E-005	-8.6697507E-001	0
8.8175840E+003	7.460859831036942E+001	-8.6890268E-001	-9.854204110408415E-002	8.5623447E-005	-8.6897522E-001	0
8.6696709E+003	7.480859830531699E+001	-8.7077129E-001	-1.004387898932375E-001	8.7459215E-005	-8.7097502E-001	0
8.5257656E+003	7.500859830026457E+001	-8.7286317E-001	-1.023794442738346E-001	8.9363246E-005	-8.7297499E-001	0
8.3594395E+003	7.520859829521214E+001	-8.7482756E-001	-1.046514642201026E-001	9.1551985E-005	-8.7497479E-001	0
8.2027441E+003	7.540859829015972E+001	-8.7682050E-001	-1.068935604193701E-001	9.3726463E-005	-8.7697470E-001	0
8.0271084E+003	7.560859828510729E+001	-8.7887144E-001	-1.094879271397091E-001	9.6225813E-005	-8.7897462E-001	0
7.8394282E+003	7.580859828005487E+001	-8.8083446E-001	-1.123595298616354E-001	9.8970144E-005	-8.8097453E-001	0
7.6499956E+003	7.600859827500244E+001	-8.8285720E-001	-1.154062341584017E-001	1.0188723E-004	-8.8297445E-001	0
7.4457690E+003	7.620859826995002E+001	-8.8491613E-001	-1.188481797721828E-001	1.0517067E-004	-8.8497424E-001	0
7.2263521E+003	7.640859826489759E+001	-8.8683611E-001	-1.227225179904381E-001	1.0883476E-004	-8.8697422E-001	0
7.0073208E+003	7.660859825984517E+001	-8.8883984E-001	-1.268444651750480E-001	1.1274441E-004	-8.8897407E-001	0
6.7682407E+003	7.680859825479274E+001	-8.9086634E-001	-1.316245034972711E-001	1.1725984E-004	-8.9097500E-001	0
6.5297720E+003	7.700859824974032E+001	-8.9282900E-001	-1.367320306461868E-001	1.2207832E-004	-8.9297503E-001	0
6.2902612E+003	7.720859824468789E+001	-8.9484525E-001	-1.422588341751148E-001	1.2729965E-004	-8.9497507E-001	0
6.0377241E+003	7.740859823963547E+001	-8.9689666E-001	-1.485487941426564E-001	1.3323291E-004	-8.9697504E-001	0
5.7848760E+003	7.760859823458304E+001	-8.9882660E-001	-1.553752567194602E-001	1.3965541E-004	-8.9897501E-001	0
5.5304834E+003	7.780859822953062E+001	-9.0089500E-001	-1.628962431647842E-001	1.4675241E-004	-9.0097505E-001	0
5.2879453E+003	7.800859822447819E+001	-9.0276247E-001	-1.707208453838096E-001	1.5412037E-004	-9.0297508E-001	0
5.0432173E+003	7.820859821942577E+001	-9.0489048E-001	-1.794272311350702E-001	1.6236199E-004	-9.0497500E-001	0
4.8019141E+003	7.840859821437334E+001	-9.0686315E-001	-1.888545075750359E-001	1.7126520E-004	-9.0697509E-001	0
4.5678926E+003	7.860859820932092E+001	-9.0888757E-001	-1.989730538582846E-001	1.8084413E-004	-9.0897506E-001	0
4.3298608E+003	7.880859820426849E+001	-9.1085541E-001	-2.103659708471022E-001	1.9161298E-004	-9.1097504E-001	0
4.1033882E+003	7.900859819921607E+001	-9.1288269E-001	-2.224704611037012E-001	2.0308942E-004	-9.1297501E-001	0
3.8901296E+003	7.920859819416364E+001	-9.1487485E-001	-2.351784945809849E-001	2.1515889E-004	-9.1497511E-001	0
3.6783760E+003	7.940859818911122E+001	-9.1684180E-001	-2.492517892550050E-001	2.2852446E-004	-9.1697514E-001	0
3.4319580E+003	7.960859818405879E+001	-9.1884458E-001	-2.677318782032445E-001	2.4600400E-004	-9.1897506E-001	0
3.2499033E+003	7.980859817900637E+001	-9.2088884E-001	-2.833588476506095E-001	2.6094200E-004	-9.2097503E-001	0
3.0685771E+003	8.000859817395394E+001	-9.2287105E-001	-3.007488611308431E-001	2.7755240E-004	-9.2297512E-001	0
2.9065537E+003	8.020859816890152E+001	-9.2481869E-001	-3.181839293701033E-001	2.9426246E-004	-9.2497498E-001	0
2.7526575E+003	8.040859816384909E+001	-9.2690820E-001	-3.367321142006050E-001	3.1211975E-004	-9.2697501E-001	0
2.6073643E+003	8.060859815879667E+001	-9.2886370E-001	-3.562462264756383E-001	3.3090418E-004	-9.2897505E-001	0
2.4695066E+003	8.080859815374424E+001	-9.3090159E-001	-3.769585357560796E-001	3.5091129E-004	-9.3097502E-001	0
2.3115510E+003	8.100859814869182E+001	-9.3288726E-001	-4.035763029735602E-001	3.7649120E-004	-9.3297499E-001	0
2.1971262E+003	8.120859814363939E+001	-9.3484902E-001	-4.254871500643347E-001	3.9776624E-004	-9.3497503E-001	0
2.0868359E+003	8.140859813858697E+001	-9.3690223E-001	-4.489582669826202E-001	4.2063001E-004	-9.3697500E-001	0
1.9825862E+003	8.160859813353454E+001	-9.3888044E-001	-4.735635038287853E-001	4.4461951E-004	-9.3897504E-001	0
1.8868065E+003	8.180859812848212E+001	-9.4087023E-001	-4.986574889673854E-001	4.6917200E-004	-9.4097507E-001	0
1.7802078E+003	8.200859812342969E+001	-9.4287932E-001	-5.296456659183111E-001	4.9939193E-004	-9.4297510E-001	0
1.6958623E+003	8.220859811837727E+001	-9.4483799E-001	-5.571431007084184E-001	5.2640995E-004	-9.4497502E-001	0
1.6186061E+003	8.240859811332484E+001	-9.4687408E-001	-5.849935215878812E-001	5.5391522E-004	-9.4697505E-001	0
1.5451196E+003	8.260859810827242E+001	-9.4887978E-001	-6.141141066475522E-001	5.8272044E-004	-9.4897509E-001	0
1.4715046E+003	8.280859810321999E+001	-9.5086294E-001	-6.461841279763263E-001	6.1443256E-004	-9.5097512E-001	0
1.4030305E+003	8.300859809816757E+001	-9.5289421E-001	-6.791685387669570E-001	6.4717577E-004	-9.5297503E-001	0
1.3447352E+003	8.320859809311514E+001	-9.5485330E-001	-7.100678859468648E-001	6.7801063E-004	-9.5497501E-001	0
1.2902167E+003	8.340859808806272E+001	-9.5688802E-001	-7.416490826823328E-001	7.0967514E-004	-9.5697510E-001	0
1.2345237E+003	8.360859808301029E+001	-9.5884883E-001	-7.766953729126873E-001	7.4473344E-004	-9.5897508E-001	0
1.1810466E+003	8.380859807795787E+001	-9.6084219E-001	-8.135514499497098E-001	7.8169454E-004	-9.6097499E-001	0
1.1365785E+003	8.400859807290544E+001	-9.6290398E-001	-8.471953246463724E-001	8.1576774E-004	-9.6297503E-001	0
1.0943062E+003	8.420859806785302E+001	-9.6485913E-001	-8.817085810596943E-001	8.5072458E-004	-9.6497500E-001	0
1.0472548E+003	8.440859806280059E+001	-9.6695000E-001	-9.233187727140191E-001	8.9280307E-004	-9.6697509E-001	0
1.0089194E+003	8.460859805774817E+001	-9.6883178E-001	-9.602668061176729E-001	9.3033700E-004	-9.6897507E-001	0
9.7363470E+002	8.480859805269574E+001	-9.7094244E-001	-9.972348445751837E-001	9.6825761E-004	-9.7097504E-001	0
9.3522919E+002	8.501859804739070E+001	-9.7296059E-001	-1.040344562155365E+000	1.0122142E-003	-9.7307509E-001	0
8.9984601E+002	8.522859804208565E+001	-9.7498751E-001	-1.083504812669460E+000	1.0564036E-003	-9.7517502E-001	0
8.7081769E+002	8.542859803703323E+001	-9.7704238E-001	-1.121982707280889E+000	1.0962246E-003	-9.7717512E-001	0
8.4124872E+002	8.562859803198080E+001	-9.7899914E-001	-1.163745154388026E+000	1.1393055E-003	-9.7917497E-001	0
8.1311853E+002	8.582859802692838E+001	-9.8104793E-001	-1.206525088243541E+000	1.1836590E-003	-9.8117501E-001	0
7.8840790E+002	8.602859802187595E+001	-9.8305702E-001	-1.246888890516122E+000	1.2257629E-003	-9.8317504E-001	0
7.6385779E+002	8.622859801682353E+001	-9.8505616E-001	-1.289580563205776E+000	1.2703093E-003	-9.8517501E-001	0
7.3881946E+002	8.642859801177110E+001	-9.8707247E-001	-1.336013043244403E+000	1.3187417E-003	-9.8717505E-001	0
7.1766736E+002	8.662859800671868E+001	-9.8900920E-001	-1.378088630744326E+000	1.3629424E-003	-9.8917502E-001	0
6.9601526E+002	8.682859800166625E+001	-9.9108690E-001	-1.423944272489500E+000	1.4112525E-003	-9.9117506E-001	0
6.7458209E+002	8.702859799661383E+001	-9.9304378E-001	-1.472087377923074E+000	1.4618472E-003	-9.9317503E-001	0
6.5588562E+002	8.722859799156140E+001	-9.9504340E-001	-1.517098914274351E+000	1.5095792E-003	-9.9517506E-001	0
6.3597156E+002	8.742859798650898E+001	-9.9707395E-001	-1.567796405261209E+000	1.5632090E-003	-9.9717504E-001	0
6.1836066E+002	8.762859798145655E+001	-9.9905092E-001	-1.615644382578985E+000	1.6141110E-003	-9.9917501E-001	0
6.0179132E+002	8.782859797640413E+001	-1.0010084E+000	-1.663381304836868E+000	1.6650587E-003	-1.0011750E+000	0
5.8360687E+002	8.802859797135170E+001	-1.0030510E+000	-1.718710201819871E+000	1.7239541E-003	-1.0031751E+000	0
5.6859326E+002	8.822859796629928E+001	-1.0049633E+000	-1.767455398833668E+000	1.7762277E-003	-1.0051751E+000	0
5.5260974E+002	8.842859796124685E+001	-1.0070271E+000	-1.822311666699088E+000	1.8351173E-003	-1.0071751E+000	0
5.3830615E+002	8.862859795619443E+001	-1.0090709E+000	-1.874529682505298E+000	1.8915333E-003	-1.0091751E+000	0
5.2468909E+002	8.882859795114200E+001	-1.0110407E+000	-1.926932869128500E+000	1.9482075E-003	-1.0111750E+000	0
5.1015573E+002	8.902859794608958E+001	-1.0130464E+000	-1.985759055432013E+000	2.0116661E-003	-1.0131750E+000	0
4.9819617E+002	8.922859794103715E+001	-1.0150353E+000	-2.037420912326859E+000	2.0680542E-003	-1.0151750E+000	0
4.8473782E+002	8.942859793598473E+001	-1.0170768E+000	-2.098199866255920E+000	2.1340305E-003	-1.0171751E+000	0
4.7391049E+002	8.962859793093230E+001	-1.0189930E+000	-2.150180363601020E+000	2.1910188E-003	-1.0191751E+000	0
4.6207950E+002	8.982859792587988E+001	-1.0210582E+000	-2.209702423877182E+000	2.2562349E-003	-1.0211749E+000	0
4.5002328E+002	9.002859792082745E+001	-1.0231181E+000	-2.273478188685004E+000	2.3260368E-003	-1.0231750E+000	0
4.3938773E+002	9.022859791577503E+001	-1.0250213E+000	-2.332840145394513E+000	2.3912108E-003	-1.0251751E+000	0
4.2898358E+002	9.042859791072260E+001	-1.0270543E+000	-2.394157637780754E+000	2.4589300E-003	-1.0271751E+000	0
4.1886011E+002	9.062859790567018E+001	-1.0290828E+000	-2.456865064681510E+000	2.5283175E-003	-1.0291750E+000	0
4.0881354E+002	9.082859790061775E+001	-1.0310384E+000	-2.522026009114278E+000	2.6003057E-003	-1.0311750E+000	0
3.9984763E+002	9.102859789556533E+001	-1.0330703E+000	-2.583660116271368E+000	2.6691025E-003	-1.0331750E+000	0
3.9066968E+002	9.122859789051290E+001	-1.0350926E+000	-2.649534019905555E+000	2.7425131E-003	-1.0351750E+000	0
3.8150739E+002	9.142859788546048E+001	-1.0370113E+000	-2.718194535411811E+000	2.8187984E-003	-1.0371751E+000	0
3.7245163E+002	9.162859788040805E+001	-1.0390680E+000	-2.789806482489823E+000	2.8987986E-003	-1.0391750E+000	0
3.6378510E+002	9.182859787535563E+001	-1.0410463E+000	-2.861706744397980E+000	2.9791691E-003	-1.0411750E+000	0
3.5560858E+002	9.202859787030320E+001	-1.0430430E+000	-2.933121145379776E+000	3.0593716E-003	-1.0431750E+000	0
3.4761530E+002	9.222859786525078E+001	-1.0450528E+000	-3.006348739304229E+000	3.1417930E-003	-1.0451751E+000	0
3.4025195E+002	9.242859786019835E+001	-1.0470488E+000	-3.077274836684307E+000	3.2220569E-003	-1.0471752E+000	0
3.3223019E+002	9.262859785514593E+001	-1.0490700E+000	-3.157659921414982E+000	3.3126064E-003	-1.0491750E+000	0
3.2539600E+002	9.282859785009350E+001	-1.0510509E+000	-3.230067125422337E+000	3.3949648E-003	-1.0511750E+000	0
3.1808542E+002	9.302859784504108E+001	-1.0530366E+000	-3.310546657429526E+000	3.4861267E-003	-1.0531750E+000	0
3.1065790E+002	9.322859783998865E+001	-1.0550894E+000	-3.396306322308895E+000	3.5834066E-003	-1.0551751E+000	0
3.0426212E+002	9.342859783493623E+001	-1.0570344E+000	-3.474091204791392E+000	3.6722338E-003	-1.0571750E+000	0
2.9760614E+002	9.362859782988380E+001	-1.0590779E+000	-3.558656118725708E+000	3.7688939E-003	-1.0591750E+000	0
2.9100638E+002	9.382859782483138E+001	-1.0610965E+000	-3.646299893387035E+000	3.8690763E-003	-1.0611750E+000	0
2.8514145E+002	9.402859781977895E+001	-1.0629997E+000	-3.727973345320791E+000	3.9628348E-003	-1.0631750E+000	0
2.7863232E+002	9.422859781472653E+001	-1.0650839E+000	-3.822542422448956E+000	4.0713283E-003	-1.0651751E+000	0
2.7265250E+002	9.442859780967410E+001	-1.0670607E+000	-3.913629185754679E+000	4.1760798E-003	-1.0671751E+000	0
2.6676346E+002	9.462859780462168E+001	-1.0690987E+000	-4.007665719068235E+000	4.2845905E-003	-1.0691751E+000	0
2.6114478E+002	9.482859779956925E+001	-1.0710435E+000	-4.101339692938382E+000	4.3927133E-003	-1.0711751E+000	0
2.5549205E+002	9.502859779451683E+001	-1.0730494E+000	-4.199932704031326E+000	4.5067356E-003	-1.0731751E+000	0
2.5003159E+002	9.522859778946440E+001	-1.0750602E+000	-4.299697788563165E+000	4.6224343E-003	-1.0751750E+000	0
2.4485493E+002	9.542859778441198E+001	-1.0770142E+000	-4.398580877857967E+000	4.7373343E-003	-1.0771751E+000	0
2.3975726E+002	9.562859777935955E+001	-1.0790676E+000	-4.500667065990216E+000	4.8565241E-003	-1.0791751E+000	0
2.3414050E+002	9.582859777430713E+001	-1.0809779E+000	-4.616791695728050E+000	4.9906499E-003	-1.0811751E+000	0
2.2864236E+002	9.602859776925470E+001	-1.0830885E+000	-4.737041997869007E+000	5.1306356E-003	-1.0831751E+000	0
2.2345303E+002	9.622859776420228E+001	-1.0850272E+000	-4.855728274739263E+000	5.2685975E-003	-1.0851750E+000	0
2.1854030E+002	9.642859775914985E+001	-1.0870472E+000	-4.974127167679541E+000	5.4071113E-003	-1.0871751E+000	0
2.1410094E+002	9.662859775409743E+001	-1.0890551E+000	-5.086643243626666E+000	5.5396347E-003	-1.0891751E+000	0
2.0980096E+002	9.682859774904500E+001	-1.0910624E+000	-5.200464390370328E+000	5.6740311E-003	-1.0911750E+000	0
2.0529720E+002	9.702859774399258E+001	-1.0930464E+000	-5.324215246807952E+000	5.8196145E-003	-1.0931751E+000	0
2.0099236E+002	9.722859773894015E+001	-1.0951101E+000	-5.448515994816411E+000	5.9667248E-003	-1.0951751E+000	0
1.9649304E+002	9.742859773388773E+001	-1.0970646E+000	-5.583223902516899E+000	6.1251572E-003	-1.0971751E+000	0
1.9254396E+002	9.762859772883530E+001	-1.0990709E+000	-5.708155482230296E+000	6.2736678E-003	-1.0991751E+000	0
1.8832462E+002	9.782859772378288E+001	-1.1010584E+000	-5.846598123713385E+000	6.4374460E-003	-1.1011751E+000	0
1.8418518E+002	9.802859771873045E+001	-1.1030666E+000	-5.988899776758515E+000	6.6061551E-003	-1.1031749E+000	0
1.8044757E+002	9.822859771367803E+001	-1.1050698E+000	-6.124049007487145E+000	6.7675011E-003	-1.1051751E+000	0
1.7666203E+002	9.842859770862560E+001	-1.1070509E+000	-6.266490277587138E+000	6.9373236E-003	-1.1071751E+000	0
1.7273894E+002	9.862859770357318E+001	-1.1090766E+000	-6.420536301506360E+000	7.1208668E-003	-1.1091750E+000	0
1.6909210E+002	9.882859769852075E+001	-1.1110452E+000	-6.570651519257987E+000	7.3002912E-003	-1.1111751E+000	0
1.6547467E+002	9.902859769346833E+001	-1.1130358E+000	-6.726321411578823E+000	7.4866368E-003	-1.1131750E+000	0
1.6152757E+002	9.922859768841590E+001	-1.1150774E+000	-6.903325283270590E+000	7.6977420E-003	-1.1151751E+000	0
1.5802618E+002	9.942859768336348E+001	-1.1170269E+000	-7.068619250169943E+000	7.8958385E-003	-1.1171751E+000	0
1.5450850E+002	9.962859767831105E+001	-1.1190692E+000	-7.242767809740245E+000	8.1051588E-003	-1.1191750E+000	0
1.5109393E+002	9.982859767325863E+001	-1.1210787E+000	-7.419746500091485E+000	8.3181197E-003	-1.1211751E+000	0
1.4726431E+002	1.000285976682062E+002	-1.1230910E+000	-7.626361839287409E+000	8.5650980E-003	-1.1231750E+000	0
1.4448445E+002	1.002285976631538E+002	-1.1250910E+000	-7.786934539641919E+000	8.7610092E-003	-1.1251750E+000	0
1.4117299E+002	1.004285976581014E+002	-1.1270498E+000	-7.983466435587076E+000	8.9977644E-003	-1.1271751E+000	0
1.3825922E+002	1.006285976530489E+002	-1.1290957E+000	-8.166512664618679E+000	9.2207743E-003	-1.1291751E+000	0
1.3501109E+002	1.008285976479965E+002	-1.1310284E+000	-8.377299468938986E+000	9.4749639E-003	-1.1311750E+000	0
1.3159151E+002	1.010285976429441E+002	-1.1330948E+000	-8.610698645752837E+000	9.7567374E-003	-1.1331750E+000	0
1.2852707E+002	1.012285976378917E+002	-1.1350228E+000	-8.831001352628626E+000	1.0023387E-002	-1.1351751E+000	0
1.2567980E+002	1.014285976328392E+002	-1.1370596E+000	-9.047273848062176E+000	1.0287290E-002	-1.1371751E+000	0
1.2271947E+002	1.016285976277868E+002	-1.1390082E+000	-9.281397653950577E+000	1.0571588E-002	-1.1391751E+000	0
1.2006483E+002	1.018285976227344E+002	-1.1411102E+000	-9.504116748060540E+000	1.0845244E-002	-1.1411750E+000	0
1.1713383E+002	1.020285976176820E+002	-1.1430701E+000	-9.758666815333328E+000	1.1154841E-002	-1.1431750E+000	0
1.1461746E+002	1.022285976126295E+002	-1.1450986E+000	-9.990611732411537E+000	1.1440235E-002	-1.1451751E+000	0
1.1182904E+002	1.024285976075771E+002	-1.1470662E+000	-1.025732011089519E+001	1.1765826E-002	-1.1471751E+000	0
1.0906191E+002	1.026285976025247E+002	-1.1490766E+000	-1.053600284112548E+001	1.2106674E-002	-1.1491750E+000	0
1.0649422E+002	1.028285975974723E+002	-1.1510657E+000	-1.080871516425597E+001	1.2441541E-002	-1.1511751E+000	0
1.0328870E+002	1.030485975919146E+002	-1.1532410E+000	-1.116521986568861E+001	1.2876189E-002	-1.1533750E+000	0
1.0080003E+002	1.032485975868622E+002	-1.1552705E+000	-1.146101336968454E+001	1.3240570E-002	-1.1553751E+000	0
9.8626297E+001	1.034485975818097E+002	-1.1572410E+000	-1.173359445034779E+001	1.3578597E-002	-1.1573751E+000	0
9.6045326E+001	1.036485975767573E+002	-1.1591996E+000	-1.206929689632251E+001	1.3990724E-002	-1.1593751E+000	0
9.3643028E+001	1.038485975717049E+002	-1.1612583E+000	-1.240090522305229E+001	1.4400654E-002	-1.1613750E+000	0
9.1430359E+001	1.040485975666525E+002	-1.1632059E+000	-1.272231487568273E+001	1.4798671E-002	-1.1633750E+000	0
8.9186386E+001	1.042485975616000E+002	-1.1652617E+000	-1.306546617594978E+001	1.5224688E-002	-1.1653751E+000	0
8.6978035E+001	1.044485975565476E+002	-1.1672299E+000	-1.341982379913871E+001	1.5664019E-002	-1.1673751E+000	0
8.4970169E+001	1.046485975514952E+002	-1.1692426E+000	-1.376062474053467E+001	1.6089508E-002	-1.1693751E+000	0
8.2911636E+001	1.048485975464428E+002	-1.1713251E+000	-1.412739135281032E+001	1.6547767E-002	-1.1713750E+000	0
8.0691765E+001	1.050485975413903E+002	-1.1732392E+000	-1.453976485545408E+001	1.7058622E-002	-1.1733750E+000	0
7.8542351E+001	1.052485975363379E+002	-1.1752222E+000	-1.496291095545496E+001	1.7584745E-002	-1.1753751E+000	0
7.6599403E+001	1.054485975312855E+002	-1.1772194E+000	-1.536851953081535E+001	1.8092120E-002	-1.1773751E+000	0
7.4729218E+001	1.056485975262331E+002	-1.1792005E+000	-1.577964515872557E+001	1.8607367E-002	-1.1793751E+000	0
7.2849686E+001	1.058485975211806E+002	-1.1812781E+000	-1.621528034226426E+001	1.9154755E-002	-1.1813750E+000	0
7.0800568E+001	1.060485975161282E+002	-1.1832056E+000	-1.671180954785035E+001	1.9773507E-002	-1.1833751E+000	0
6.9157631E+001	1.062485975110758E+002	-1.1852435E+000	-1.713828866998087E+001	2.0313045E-002	-1.1853751E+000	0
6.7409676E+001	1.064485975060234E+002	-1.1872571E+000	-1.761256161028018E+001	2.0910637E-002	-1.1873751E+000	0
6.5550514E+001	1.066485975009709E+002	-1.1892284E+000	-1.814216823318375E+001	2.1575183E-002	-1.1893750E+000	0
6.3678333E+001	1.068485974959185E+002	-1.1912459E+000	-1.870724045541004E+001	2.2284923E-002	-1.1913749E+000	0
6.2135658E+001	1.070485974908661E+002	-1.1932702E+000	-1.920427372179881E+001	2.2915889E-002	-1.1933750E+000	0
6.0496384E+001	1.072485974858137E+002	-1.1952522E+000	-1.975741532357102E+001	2.3615094E-002	-1.1953751E+000	0
5.9043411E+001	1.074485974807612E+002	-1.1972860E+000	-2.027806272744593E+001	2.4278641E-002	-1.1973752E+000	0
5.7371574E+001	1.076485974757088E+002	-1.1992801E+000	-2.090373368571397E+001	2.5069432E-002	-1.1993750E+000	0
5.5770218E+001	1.078485974706564E+002	-1.2013334E+000	-2.154076949268779E+001	2.5877645E-002	-1.2013750E+000	0
5.4398647E+001	1.080485974656040E+002	-1.2033298E+000	-2.212058285331506E+001	2.6618356E-002	-1.2033751E+000	0
5.2900879E+001	1.082485974605515E+002	-1.2053055E+000	-2.278422445842739E+001	2.7461950E-002	-1.2053751E+000	0
5.1317818E+001	1.084485974554991E+002	-1.2073301E+000	-2.352652894423395E+001	2.8404286E-002	-1.2073749E+000	0
5.0028912E+001	1.086485974504467E+002	-1.2093052E+000	-2.417212540168077E+001	2.9231476E-002	-1.2093750E+000	0
4.8649540E+001	1.088485974453943E+002	-1.2113055E+000	-2.489860037651732E+001	3.0159812E-002	-1.2113750E+000	0
4.7326130E+001	1.090485974403418E+002	-1.2132370E+000	-2.563567092737628E+001	3.1102145E-002	-1.2133750E+000	0
4.6140026E+001	1.092485974352894E+002	-1.2152559E+000	-2.633843041304275E+001	3.2007933E-002	-1.2153751E+000	0
4.4961769E+001	1.094485974302370E+002	-1.2172872E+000	-2.707382657630649E+001	3.2956623E-002	-1.2173750E+000	0
4.3733368E+001	1.096485974251846E+002	-1.2192998E+000	-2.788030945849255E+001	3.3994455E-002	-1.2193750E+000	0
4.2663109E+001	1.098485974201321E+002	-1.2212994E+000	-2.862659301671306E+001	3.4961641E-002	-1.2213750E+000	0
4.1620651E+001	1.100485974150797E+002	-1.2233266E+000	-2.939229880601096E+001	3.5956379E-002	-1.2233751E+000	0
4.0408791E+001	1.102485974100273E+002	-1.2253191E+000	-3.032308471365036E+001	3.7155457E-002	-1.2253752E+000	0
3.9176769E+001	1.104485974049749E+002	-1.2273183E+000	-3.132770416444674E+001	3.8449064E-002	-1.2273750E+000	0
3.8172756E+001	1.106485973999224E+002	-1.2292851E+000	-3.220320624694273E+001	3.9586924E-002	-1.2293750E+000	0
3.7209545E+001	1.108485973948700E+002	-1.2313439E+000	-3.309215167887899E+001	4.0747818E-002	-1.2313751E+000	0
3.6297348E+001	1.110485973898176E+002	-1.2333200E+000	-3.397823992391818E+001	4.1906044E-002	-1.2333751E+000	0
3.5340126E+001	1.112485973847652E+002	-1.2353084E+000	-3.495483845702114E+001	4.3180007E-002	-1.2353750E+000	0
3.4489693E+001	1.114485973797127E+002	-1.2373250E+000	-3.587520940990407E+001	4.4389293E-002	-1.2373750E+000	0
3.3733566E+001	1.116485973746603E+002	-1.2392913E+000	-3.673763249817878E+001	4.5528628E-002	-1.2393751E+000	0
3.2973064E+001	1.118485973696079E+002	-1.2412813E+000	-3.764531265202538E+001	4.6728421E-002	-1.2413750E+000	0
3.2037903E+001	1.120485973645555E+002	-1.2433513E+000	-3.880876262766446E+001	4.8252925E-002	-1.2433751E+000	0
3.1012209E+001	1.122485973595030E+002	-1.2452875E+000	-4.015475051689577E+001	5.0004210E-002	-1.2453750E+000	0
3.0171391E+001	1.124485973544506E+002	-1.2473613E+000	-4.134251846504867E+001	5.1569059E-002	-1.2473751E+000	0
2.9574770E+001	1.126485973493982E+002	-1.2493954E+000	-4.224531221957437E+001	5.2781098E-002	-1.2493751E+000	0
2.8893198E+001	1.128485973443458E+002	-1.2512430E+000	-4.330579774801421E+001	5.4186076E-002	-1.2513751E+000	0
2.8018555E+001	1.130485973392933E+002	-1.2532982E+000	-4.473100755517459E+001	5.6061290E-002	-1.2533751E+000	0
2.7216413E+001	1.132485973342409E+002	-1.2552420E+000	-4.612077043602534E+001	5.7892729E-002	-1.2553751E+000	0
2.6420971E+001	1.134485973291885E+002	-1.2574013E+000	-4.759103402880585E+001	5.9841029E-002	-1.2573751E+000	0
2.5761786E+001	1.136485973241361E+002	-1.2592936E+000	-4.888223105628481E+001	6.1557077E-002	-1.2593750E+000	0
2.4990295E+001	1.138485973190836E+002	-1.2613407E+000	-5.047322239356799E+001	6.3663930E-002	-1.2613751E+000	0
2.4270178E+001	1.140485973140312E+002	-1.2633122E+000	-5.205203856254138E+001	6.5757975E-002	-1.2633752E+000	0
2.3774582E+001	1.142485973089788E+002	-1.2653232E+000	-5.322167704975789E+001	6.7342624E-002	-1.2653751E+000	0
2.3281363E+001	1.144485973039264E+002	-1.2672952E+000	-5.443389277231142E+001	6.8983816E-002	-1.2673751E+000	0
2.2725052E+001	1.146485972988739E+002	-1.2693135E+000	-5.585524980497507E+001	7.0897818E-002	-1.2693751E+000	0
2.2210827E+001	1.148485972938215E+002	-1.2713258E+000	-5.723901508346444E+001	7.2769441E-002	-1.2713751E+000	0
2.1325052E+001	1.150485972887691E+002	-1.2733427E+000	-5.971111670427032E+001	7.6032713E-002	-1.2733752E+000	0
2.0787457E+001	1.152485972837167E+002	-1.2753335E+000	-6.135111019724877E+001	7.8243129E-002	-1.2753751E+000	0
2.0425365E+001	1.154485972786642E+002	-1.2773674E+000	-6.253828416768108E+001	7.9884365E-002	-1.2773751E+000	0
1.9905777E+001	1.156485972736118E+002	-1.2793442E+000	-6.426999500657439E+001	8.2223445E-002	-1.2793751E+000	0
1.9252657E+001	1.158485972685594E+002	-1.2813407E+000	-6.655396898263177E+001	8.5278310E-002	-1.2813749E+000	0
1.8876514E+001	1.160485972635070E+002	-1.2833210E+000	-6.798505986628868E+001	8.7246656E-002	-1.2833750E+000	0
1.8242287E+001	1.162485972584545E+002	-1.2853516E+000	-7.046000467027943E+001	9.0565883E-002	-1.2853751E+000	0
1.7283173E+001	1.164485972534021E+002	-1.2873287E+000	-7.448451433808896E+001	9.5886052E-002	-1.2873750E+000	0
1.6909697E+001	1.166485972483497E+002	-1.2892768E+000	-7.624482784249636E+001	9.8300688E-002	-1.2893751E+000	0
1.6603971E+001	1.168485972432973E+002	-1.2912881E+000	-7.776983426487618E+001	1.0042326E-001	-1.2913750E+000	0
1.6180231E+001	1.170485972382448E+002	-1.2934012E+000	-7.993713274996833E+001	1.0339078E-001	-1.2933750E+000	0
1.5824122E+001	1.172485972331924E+002	-1.2953427E+000	-8.185873562462484E+001	1.0603511E-001	-1.2953751E+000	0
1.5526880E+001	1.174485972281400E+002	-1.2973368E+000	-8.355425136538076E+001	1.0839801E-001	-1.2973751E+000	0
1.5074876E+001	1.176485972230876E+002	-1.2993332E+000	-8.619196827503538E+001	1.1199209E-001	-1.2993751E+000	0
1.4367355E+001	1.178485972180351E+002	-1.3013574E+000	-9.057737826814480E+001	1.1787354E-001	-1.3013750E+000	0
1.4070943E+001	1.180485972129827E+002	-1.3033718E+000	-9.262860136832236E+001	1.2072951E-001	-1.3033750E+000	0
1.3751197E+001	1.182485972079303E+002	-1.3053634E+000	-9.492725717291546E+001	1.2391457E-001	-1.3053751E+000	0
1.3340410E+001	1.184485972028779E+002	-1.3073472E+000	-9.799902464581180E+001	1.2811875E-001	-1.3073751E+000	0
1.3011302E+001	1.186485971978254E+002	-1.3093866E+000	-1.006345552181708E+002	1.3176954E-001	-1.3093750E+000	0
1.2568849E+001	1.188485971927730E+002	-1.3113403E+000	-1.043325706944715E+002	1.3681550E-001	-1.3113750E+000	0
1.1901984E+001	1.190585971874680E+002	-1.3134729E+000	-1.103574669575204E+002	1.4495154E-001	-1.3134751E+000	0
1.1513430E+001	1.192685971821629E+002	-1.3155229E+000	-1.142598677773594E+002	1.5031147E-001	-1.3155751E+000	0
1.1359168E+001	1.194685971771105E+002	-1.3175625E+000	-1.159911025159752E+002	1.5282552E-001	-1.3175751E+000	0
1.1309689E+001	1.196685971720581E+002	-1.3195170E+000	-1.166713795824119E+002	1.5394987E-001	-1.3195751E+000	0
1.1176503E+001	1.198685971670056E+002	-1.3215457E+000	-1.182432184900553E+002	1.5626381E-001	-1.3215750E+000	0
1.0967399E+001	1.200685971619532E+002	-1.3235178E+000	-1.206774580894953E+002	1.5971877E-001	-1.3235750E+000	0
1.0689350E+001	1.202685971569008E+002	-1.3255203E+000	-1.240038262300213E+002	1.6436958E-001	-1.3255751E+000	0
1.0219835E+001	1.204685971518484E+002	-1.3275360E+000	-1.298979802304655E+002	1.7244424E-001	-1.3275751E+000	0
9.9349260E+000	1.206685971467959E+002	-1.3295403E+000	-1.338248707658850E+002	1.7792556E-001	-1.3295751E+000	0
9.8119764E+000	1.208685971417435E+002	-1.3315209E+000	-1.357036391580455E+002	1.8069224E-001	-1.3315750E+000	0
9.6781206E+000	1.210685971366911E+002	-1.3335416E+000	-1.377893216323419E+002	1.8374780E-001	-1.3335751E+000	0
9.6378546E+000	1.212685971316387E+002	-1.3355472E+000	-1.385730786950680E+002	1.8507089E-001	-1.3355751E+000	0
9.5844221E+000	1.214685971265862E+002	-1.3375410E+000	-1.395536333882076E+002	1.8665871E-001	-1.3375751E+000	0
9.4884586E+000	1.216685971215338E+002	-1.3395339E+000	-1.411750754661302E+002	1.8910880E-001	-1.3395751E+000	0
9.2770996E+000	1.218685971164814E+002	-1.3414977E+000	-1.446031334881338E+002	1.9398476E-001	-1.3415750E+000	0
9.0814552E+000	1.220685971114290E+002	-1.3435862E+000	-1.479483443777040E+002	1.9878136E-001	-1.3435751E+000	0
8.8723717E+000	1.222685971063765E+002	-1.3455784E+000	-1.516593774040812E+002	2.0406958E-001	-1.3455751E+000	0
8.6544008E+000	1.224685971013241E+002	-1.3474900E+000	-1.556999786251520E+002	2.0980416E-001	-1.3475751E+000	0
8.5469007E+000	1.226685970962717E+002	-1.3495911E+000	-1.579041571660375E+002	2.1310605E-001	-1.3495750E+000	0
8.2569866E+000	1.228685970912193E+002	-1.3514792E+000	-1.636770480484648E+002	2.2120613E-001	-1.3515751E+000	0
8.1059141E+000	1.230685970861668E+002	-1.3535591E+000	-1.669841497955406E+002	2.2602293E-001	-1.3535751E+000	0
8.0169258E+000	1.232685970811144E+002	-1.3555460E+000	-1.690855106269422E+002	2.2920319E-001	-1.3555752E+000	0
7.8653603E+000	1.234685970760620E+002	-1.3575636E+000	-1.726003143587343E+002	2.3431590E-001	-1.3575751E+000	0
7.6134186E+000	1.236685970710096E+002	-1.3595200E+000	-1.785689198208502E+002	2.4276800E-001	-1.3595750E+000	0
7.4552517E+000	1.238685970659571E+002	-1.3615549E+000	-1.826303015512135E+002	2.4866118E-001	-1.3615750E+000	0
7.2910028E+000	1.240685970609047E+002	-1.3636229E+000	-1.870281750112435E+002	2.5503591E-001	-1.3635751E+000	0
7.1119351E+000	1.242686970558498E+002	-1.3655251E+000	-1.920047253042640E+002	2.6218727E-001	-1.3655759E+000	0
7.0769701E+000	1.244688970507923E+002	-1.3675734E+000	-1.932427759700909E+002	2.6427367E-001	-1.3675778E+000	0
7.0744319E+000	1.246690970457348E+002	-1.3695949E+000	-1.935978677647474E+002	2.6515067E-001	-1.3695798E+000	0
6.9564481E+000	1.248692970406773E+002	-1.3715526E+000	-1.971627664547176E+002	2.7041909E-001	-1.3715818E+000	0
6.6059093E+000	1.250695970356173E+002	-1.3735631E+000	-2.079294392714878E+002	2.8560421E-001	-1.3735845E+000	0
6.5441947E+000	1.252697970305599E+002	-1.3755877E+000	-2.101996956844723E+002	2.8914812E-001	-1.3755871E+000	0
6.4906754E+000	1.254698970255049E+002	-1.3775231E+000	-2.122310850366166E+002	2.9235321E-001	-1.3775879E+000	0
6.3739667E+000	1.256699970204500E+002	-1.3795671E+000	-2.164377678548935E+002	2.9859042E-001	-1.3795891E+000	0
6.1638379E+000	1.258701970153925E+002	-1.3816136E+000	-2.241482754402186E+002	3.0968630E-001	-1.3815907E+000	0
6.0506434E+000	1.260704970103325E+002	-1.3836207E+000	-2.286733306744673E+002	3.1639716E-001	-1.3835939E+000	0
6.0461059E+000	1.262705970052775E+002	-1.3855703E+000	-2.291673833410214E+002	3.1752750E-001	-1.3855951E+000	0
5.9328303E+000	1.264705970002251E+002	-1.3875805E+000	-2.338817162048790E+002	3.2452971E-001	-1.3875951E+000	0
5.6755176E+000	1.266706969951701E+002	-1.3896127E+000	-2.448433426479223E+002	3.4023741E-001	-1.3895959E+000	0
5.5304112E+000	1.268707969901152E+002	-1.3915905E+000	-2.516251261364177E+002	3.5015914E-001	-1.3915969E+000	0
5.5472708E+000	1.270707969850628E+002	-1.3936346E+000	-2.512288730582404E+002	3.5012123E-001	-1.3935971E+000	0
5.4988623E+000	1.272708969800078E+002	-1.3956057E+000	-2.537989893018012E+002	3.5420331E-001	-1.3955979E+000	0
5.4362841E+000	1.274710969749503E+002	-1.3976264E+000	-2.570922309437901E+002	3.5931888E-001	-1.3975999E+000	0
5.3941345E+000	1.276711969698954E+002	-1.3996165E+000	-2.594700697771300E+002	3.6315858E-001	-1.3996011E+000	0
5.3839364E+000	1.278712969648404E+002	-1.4015998E+000	-2.603299231635829E+002	3.6487836E-001	-1.4016019E+000	0
5.3871050E+000	1.280713969597855E+002	-1.4035910E+000	-2.605464465623538E+002	3.6570066E-001	-1.4036031E+000	0
5.3412476E+000	1.282713969547331E+002	-1.4056292E+000	-2.631649442919256E+002	3.6991233E-001	-1.4056029E+000	0
5.2905951E+000	1.284713969496806E+002	-1.4075685E+000	-2.660510593682459E+002	3.7448508E-001	-1.4076030E+000	0
5.2599707E+000	1.286713969446282E+002	-1.4096379E+000	-2.679934920659134E+002	3.7777379E-001	-1.4096031E+000	0
5.1998782E+000	1.288713969395758E+002	-1.4115663E+000	-2.714614158768773E+002	3.8318577E-001	-1.4116030E+000	0
5.1573329E+000	1.290714969345208E+002	-1.4135848E+000	-2.740922307953197E+002	3.8745263E-001	-1.4136038E+000	0
5.0621948E+000	1.292715969294659E+002	-1.4156388E+000	-2.796492095674785E+002	3.9588228E-001	-1.4156052E+000	0
4.9077706E+000	1.294715969244135E+002	-1.4176420E+000	-2.888566003959463E+002	4.0949523E-001	-1.4176050E+000	0
4.7446852E+000	1.296718969193535E+002	-1.4196491E+000	-2.992082901831436E+002	4.2477077E-001	-1.4196078E+000	0
4.7364688E+000	1.298719969142985E+002	-1.4216458E+000	-3.001488859712954E+002	4.2670539E-001	-1.4216092E+000	0
4.7415266E+000	1.300719969092461E+002	-1.4236695E+000	-3.002554971971754E+002	4.2746457E-001	-1.4236090E+000	0
4.6343389E+000	1.302721969041886E+002	-1.4255894E+000	-3.076144068890501E+002	4.3853185E-001	-1.4256109E+000	0
4.4951119E+000	1.304721968991362E+002	-1.4276090E+000	-3.175914096551151E+002	4.5339635E-001	-1.4276110E+000	0
4.4395318E+000	1.306721968940838E+002	-1.4296125E+000	-3.220187640006307E+002	4.6036205E-001	-1.4296111E+000	0
4.4470539E+000	1.308721968890313E+002	-1.4316159E+000	-3.219245617924900E+002	4.6087232E-001	-1.4316112E+000	0
4.4456544E+000	1.310721968839789E+002	-1.4336746E+000	-3.224889765412895E+002	4.6234426E-001	-1.4336110E+000	0
4.4603610E+000	1.312721968789265E+002	-1.4356678E+000	-3.218725518618039E+002	4.6210206E-001	-1.4356111E+000	0
4.4491029E+000	1.314723968738690E+002	-1.4376305E+000	-3.231281805318877E+002	4.6453893E-001	-1.4376124E+000	0
4.4402609E+000	1.316727968688065E+002	-1.4396952E+000	-3.242366423573576E+002	4.6680194E-001	-1.4396170E+000	0
4.4333038E+000	1.318727968637540E+002	-1.4416573E+000	-3.251880257037756E+002	4.6880969E-001	-1.4416171E+000	0
4.4346991E+000	1.320729968586966E+002	-1.4436376E+000	-3.255322483076716E+002	4.6995059E-001	-1.4436187E+000	0
4.4391489E+000	1.322732968536366E+002	-1.4457021E+000	-3.256710176945526E+002	4.7082326E-001	-1.4456218E+000	0
4.4518375E+000	1.324734968485791E+002	-1.4476035E+000	-3.251698919362532E+002	4.7071707E-001	-1.4476238E+000	0
4.4516492E+000	1.326735968435241E+002	-1.4497137E+000	-3.256576744023350E+002	4.7211039E-001	-1.4496250E+000	0
4.4757481E+000	1.328736968384692E+002	-1.4516166E+000	-3.243293797125593E+002	4.7080192E-001	-1.4516258E+000	0
4.4912262E+000	1.330739968334092E+002	-1.4536806E+000	-3.236712070413337E+002	4.7051457E-001	-1.4536287E+000	0
4.4431481E+000	1.332743968283467E+002	-1.4556429E+000	-3.276152042629386E+002	4.7689077E-001	-1.4556329E+000	0
4.4124217E+000	1.334744968232917E+002	-1.4576706E+000	-3.303561191329927E+002	4.8155040E-001	-1.4576339E+000	0
4.3960767E+000	1.336745968182368E+002	-1.4596971E+000	-3.320454134553079E+002	4.8468575E-001	-1.4596349E+000	0
4.3832078E+000	1.338746968131818E+002	-1.4616719E+000	-3.334708306004609E+002	4.8742497E-001	-1.4616358E+000	0
4.1982784E+000	1.340747968081268E+002	-1.4636720E+000	-3.486362600283280E+002	5.1028913E-001	-1.4636369E+000	0
4.1702046E+000	1.342747968030744E+002	-1.4656831E+000	-3.514654924280258E+002	5.1513702E-001	-1.4656367E+000	0
4.1240811E+000	1.344747967980220E+002	-1.4676380E+000	-3.558702864095467E+002	5.2228874E-001	-1.4676368E+000	0
4.1246862E+000	1.346747967929696E+002	-1.4697268E+000	-3.563244914165166E+002	5.2369964E-001	-1.4696369E+000	0
4.0397100E+000	1.348747967879171E+002	-1.4717315E+000	-3.643161508469366E+002	5.3617555E-001	-1.4716368E+000	0
4.0237632E+000	1.350747967828647E+002	-1.4736956E+000	-3.662481202841336E+002	5.3973824E-001	-1.4736369E+000	0
4.0388160E+000	1.352747967778123E+002	-1.4757103E+000	-3.653819096299248E+002	5.3919786E-001	-1.4756368E+000	0
4.0355086E+000	1.354747967727599E+002	-1.4777390E+000	-3.661840721831049E+002	5.4112446E-001	-1.4776368E+000	0
4.0767593E+000	1.356747967677074E+002	-1.4797016E+000	-3.629602450394559E+002	5.3707290E-001	-1.4796369E+000	0
4.1121168E+000	1.358747967626550E+002	-1.4816962E+000	-3.603244387784512E+002	5.3389138E-001	-1.4816369E+000	0
4.0133252E+000	1.360747967576026E+002	-1.4836735E+000	-3.696868378602449E+002	5.4849452E-001	-1.4836367E+000	0
3.9522531E+000	1.362747967525502E+002	-1.4857414E+000	-3.759226305652364E+002	5.5852383E-001	-1.4856368E+000	0
4.0039210E+000	1.364747967474977E+002	-1.4877021E+000	-3.715613215180492E+002	5.5277258E-001	-1.4876368E+000	0
4.0149250E+000	1.366747967424453E+002	-1.4897710E+000	-3.710582201799825E+002	5.5279177E-001	-1.4896369E+000	0
3.9642961E+000	1.368747967373929E+002	-1.4917213E+000	-3.762890712776971E+002	5.6131840E-001	-1.4916369E+000	0
3.9707389E+000	1.370747967323405E+002	-1.4937320E+000	-3.761848961425767E+002	5.6191939E-001	-1.4936368E+000	0
3.9668179E+000	1.372747967272880E+002	-1.4957578E+000	-3.770674393496001E+002	5.6400156E-001	-1.4956368E+000	0
3.9243565E+000	1.374747967222356E+002	-1.4976876E+000	-3.816390235948447E+002	5.7157600E-001	-1.4976369E+000	0
3.7949119E+000	1.376747967171832E+002	-1.4996998E+000	-3.951869908244153E+002	5.9266186E-001	-1.4996369E+000	0
3.6317089E+000	1.378747967121308E+002	-1.5016998E+000	-4.134967489999435E+002	6.2094802E-001	-1.5016369E+000	0
3.4606626E+000	1.380747967070783E+002	-1.5037179E+000	-4.345173344341808E+002	6.5339148E-001	-1.5036370E+000	0
3.4799862E+000	1.382747967020259E+002	-1.5057355E+000	-4.326843462963488E+002	6.5150821E-001	-1.5056368E+000	0
3.4170299E+000	1.384747966969735E+002	-1.5076824E+000	-4.412259993304460E+002	6.6522866E-001	-1.5076369E+000	0
3.3820024E+000	1.386747966919211E+002	-1.5101132E+000	-4.465145463965109E+002	6.7428756E-001	-1.5096369E+000	0
3.4417629E+000	1.388747966868686E+002	-1.5122513E+000	-4.393827630300348E+002	6.6445714E-001	-1.5116369E+000	0
3.3154373E+000	1.390747966818162E+002	-1.5142677E+000	-4.567324067070358E+002	6.9161510E-001	-1.5136369E+000	0
3.1829946E+000	1.392747966767638E+002	-1.5162725E+000	-4.763666752839017E+002	7.2230172E-001	-1.5156368E+000	0
3.1970711E+000	1.394747966717114E+002	-1.5182474E+000	-4.748869573502284E+002	7.2099584E-001	-1.5176369E+000	0
3.1546285E+000	1.396747966666589E+002	-1.5203208E+000	-4.819333725062061E+002	7.3269331E-001	-1.5196370E+000	0
3.0320899E+000	1.398747966616065E+002	-1.5222828E+000	-5.020572700240991E+002	7.6427317E-001	-1.5216368E+000	0
3.0181475E+000	1.400747966565541E+002	-1.5242646E+000	-5.050331630750061E+002	7.6980418E-001	-1.5236369E+000	0
3.0313950E+000	1.402747966515017E+002	-1.5262674E+000	-5.034868361890440E+002	7.6845556E-001	-1.5256368E+000	0
3.0504553E+000	1.404747966464492E+002	-1.5282680E+000	-5.009966836354088E+002	7.6565719E-001	-1.5276369E+000	0
3.0699589E+000	1.406747966413968E+002	-1.5302616E+000	-4.984632417242010E+002	7.6277918E-001	-1.5296370E+000	0
3.0785687E+000	1.408747966363444E+002	-1.5322682E+000	-4.977209696088512E+002	7.6264203E-001	-1.5316368E+000	0
3.0642033E+000	1.410747966312920E+002	-1.5342848E+000	-5.007124774785789E+002	7.6823556E-001	-1.5336368E+000	0
3.0619354E+000	1.412747966262395E+002	-1.5362647E+000	-5.017299310723138E+002	7.7078998E-001	-1.5356368E+000	0
3.0533960E+000	1.414747966211871E+002	-1.5382743E+000	-5.037913003259782E+002	7.7496922E-001	-1.5376369E+000	0
3.0711358E+000	1.416747966161347E+002	-1.5402420E+000	-5.015219280173742E+002	7.7246511E-001	-1.5396367E+000	0
3.0536599E+000	1.418747966110823E+002	-1.5422851E+000	-5.050611680997454E+002	7.7894831E-001	-1.5416368E+000	0
3.0566089E+000	1.420747966060299E+002	-1.5442442E+000	-5.052148500170001E+002	7.8017509E-001	-1.5436368E+000	0
3.0789783E+000	1.422747966009774E+002	-1.5462605E+000	-5.021992284813696E+002	7.7653080E-001	-1.5456368E+000	0
2.9963932E+000	1.424747965959250E+002	-1.5482106E+000	-5.166914255743432E+002	7.9994714E-001	-1.5476369E+000	0
2.8682425E+000	1.426747965908726E+002	-1.5503207E+000	-5.405124438365847E+002	8.3796763E-001	-1.5496370E+000	0
2.9086926E+000	1.428747965858202E+002	-1.5522851E+000	-5.336710788052080E+002	8.2840967E-001	-1.5516368E+000	0
2.9520075E+000	1.430747965807677E+002	-1.5542852E+000	-5.265180165297334E+002	8.1835914E-001	-1.5536368E+000	0
2.9746747E+000	1.432747965757153E+002	-1.5562807E+000	-5.231767620034771E+002	8.1420994E-001	-1.5556369E+000	0
2.9613745E+000	1.434747965706629E+002	-1.5582997E+000	-5.262082339911776E+002	8.1999010E-001	-1.5576369E+000	0
2.9119670E+000	1.436747965656105E+002	-1.5603248E+000	-5.358319001749269E+002	8.3607179E-001	-1.5596370E+000	0
2.9142358E+000	1.438747965605580E+002	-1.5623028E+000	-5.360934859122281E+002	8.3754039E-001	-1.5616368E+000	0
2.9753149E+000	1.440747965555056E+002	-1.5642632E+000	-5.257471225894242E+002	8.2240689E-001	-1.5636369E+000	0
2.9845233E+000	1.442747965504532E+002	-1.5663049E+000	-5.248090826929848E+002	8.2201105E-001	-1.5656369E+000	0
2.8888216E+000	1.444747965454008E+002	-1.5682755E+000	-5.428772081085344E+002	8.5138100E-001	-1.5676368E+000	0
2.8594253E+000	1.446747965403483E+002	-1.5702888E+000	-5.491623702319575E+002	8.6234349E-001	-1.5696369E+000	0
2.8179047E+000	1.448747965352959E+002	-1.5723283E+000	-5.579778440696066E+002	8.7732434E-001	-1.5716369E+000	0
2.7693393E+000	1.450747965302435E+002	-1.5743116E+000	-5.684791266772224E+002	8.9496326E-001	-1.5736369E+000	0
2.7539115E+000	1.452747965251911E+002	-1.5763812E+000	-5.724153248058119E+002	9.0234476E-001	-1.5756369E+000	0
2.7869608E+000	1.454747965201386E+002	-1.5782846E+000	-5.663103173530581E+002	8.9379889E-001	-1.5776370E+000	0
2.8113708E+000	1.456547965155914E+002	-1.5800961E+000	-5.620376209503738E+002	8.8807344E-001	-1.5794368E+000	0
2.7909932E+000	1.457251965138130E+002	-1.5809970E+000	-5.664639282226563E+002	8.9557779E-001	-1.5803366E+000	1