EC-Lab ASCII FILE
Nb header lines : 63                          

Linear Sweep Voltammetry

Run on channel : 1 (SN 1340)
User : 
Electrode connection : standard
Potential control : Ewe
Ewe ctrl range : min = -5.00 V, max = 5.00 V
Ewe,I filtering : <None>
Safety Limits :
	Do not start on E overload
Channel : Floating
Acquisition started on : 03/03/2026 16:20:08.160
Technique started on : 03/03/2026 16:20:10.842
Loaded Setting File :  NONE
Saved on :
	File : X18_75_N52magB_up_3-3_02_LSV_C01.mpr
	Directory : C:\Users\volt\Documents\Platalytix\
	Host : 127.0.0.1
Device : SP-200 (SN 0262)
Address : USB
EC-LAB for windows v11.60 (software)
Internet server v11.60 (firmware)
Command interpretor v11.60 (firmware)
Electrode material : Ni40
Initial state : 
Electrolyte : KOH (1 M)
Comments : with magnet side B (-), N52 Nd magnet, alloy placed straight up
Cable : standard
Reference electrode : Hg/HgO (0.140 V)
Electrode surface area : 1.000 cm˛
Characteristic mass : 0.001 g
Equivalent Weight : 0.000 g/eq.
Density : 0.000 g/cm3
Volume (V) : 0.001 cmł
Cycle Definition : Charge/Discharge alternance
tR (h:m:s)          0:00:5.0000         
dER/dt (mV/h)       0.0                 
dER (mV)            0                   
dtR (s)             0.0000              
dE/dt               10.000              
dE/dt unit          mV/s                
Ei (V)              -0.200              
vs.                 Ref                 
EL (V)              -2.500              
vs.                 Ref                 
record              <I>                 
dI                  0.000               
unit dI             µA                  
tI (s)              0.0000              
step percent        50                  
N                   10                  
E range min (V)     -5.000              
E range max (V)     5.000               
I Range             Auto                
I Range min         Unset               
I Range max         Unset               
I Range init        Unset               
Bandwidth           8                   

Rwe/Ohm	time/s	Ewe/V	<I>/mA	Pwe/W	control/V	error	
0.0000000E+000	2.682400127378060E+000	-1.5422086E-001	0.000000000000000E+000	0.0000000E+000	0.0000000E+000	0
0.0000000E+000	7.682200001072488E+000	-4.3911841E-002	0.000000000000000E+000	0.0000000E+000	-1.9987875E-001	0
9.6799268E+003	7.882199996020063E+000	-2.0151952E-001	-2.081828911032063E-002	4.1952917E-006	-2.0177853E-001	0
1.5039083E+003	8.002199992988608E+000	-2.0271680E-001	-1.347933159314332E-001	2.7324870E-005	-2.0297860E-001	0
1.5977158E+003	8.212199987683562E+000	-2.0484047E-001	-1.282083215741034E-001	2.6262253E-005	-2.0507856E-001	0
1.7463591E+003	8.412199982631137E+000	-2.0687398E-001	-1.184601585460983E-001	2.4506326E-005	-2.0707843E-001	0
1.8849346E+003	8.612199977578712E+000	-2.0890260E-001	-1.108275057997155E-001	2.3152154E-005	-2.0907830E-001	0
2.0109366E+003	8.812199972526287E+000	-2.1087244E-001	-1.048627969620921E-001	2.2112674E-005	-2.1107817E-001	0
2.1278035E+003	9.012199967473862E+000	-2.1288221E-001	-1.000478732201130E-001	2.1298412E-005	-2.1307805E-001	0
2.2356951E+003	9.212199962421437E+000	-2.1485165E-001	-9.610060153923916E-002	2.0647372E-005	-2.1507795E-001	0
2.3382261E+003	9.412199957369012E+000	-2.1685675E-001	-9.274413679301974E-002	2.0112191E-005	-2.1707779E-001	0
2.4336482E+003	9.612199952316587E+000	-2.1885119E-001	-8.992720822921885E-002	1.9680678E-005	-2.1907769E-001	0
2.5263589E+003	9.812199947264162E+000	-2.2087368E-001	-8.742767147341879E-002	1.9310472E-005	-2.2107758E-001	0
2.6135527E+003	1.001219994221174E+001	-2.2285753E-001	-8.526995934940951E-002	1.9003053E-005	-2.2307746E-001	0
2.6990928E+003	1.021219993715931E+001	-2.2482462E-001	-8.329636552064879E-002	1.8727074E-005	-2.2507732E-001	0
2.7832878E+003	1.041219993210689E+001	-2.2688636E-001	-8.151739065338956E-002	1.8495184E-005	-2.2707720E-001	0
2.8620818E+003	1.061219992705446E+001	-2.2881083E-001	-7.994559307449611E-002	1.8292418E-005	-2.2907709E-001	0
2.9410945E+003	1.081219992200204E+001	-2.3082246E-001	-7.848182553583816E-002	1.8115368E-005	-2.3107696E-001	0
3.0208557E+003	1.101219991694961E+001	-2.3286852E-001	-7.708693807997435E-002	1.7951121E-005	-2.3307686E-001	0
3.0946968E+003	1.121199991190224E+001	-2.3486997E-001	-7.589434244327153E-002	1.7825301E-005	-2.3507673E-001	0
3.1700564E+003	1.141199990684981E+001	-2.3684280E-001	-7.471248747985770E-002	1.7695114E-005	-2.3707658E-001	0
3.2432058E+003	1.161199990179739E+001	-2.3886040E-001	-7.364947305170680E-002	1.7591943E-005	-2.3907647E-001	0
3.3151196E+003	1.181199989674496E+001	-2.4087758E-001	-7.266029875774094E-002	1.7502238E-005	-2.4107637E-001	0
3.3879968E+003	1.201199989169254E+001	-2.4283300E-001	-7.167450892643967E-002	1.7404936E-005	-2.4307622E-001	0
3.4589412E+003	1.221199988664011E+001	-2.4484678E-001	-7.078662419495241E-002	1.7331877E-005	-2.4507609E-001	0
3.5288296E+003	1.241199988158769E+001	-2.4686226E-001	-6.995584622190232E-002	1.7269458E-005	-2.4707599E-001	0
3.5980317E+003	1.261199987653526E+001	-2.4888240E-001	-6.917181722671994E-002	1.7215647E-005	-2.4907587E-001	0
3.6691250E+003	1.281199987148284E+001	-2.5088564E-001	-6.837751228328548E-002	1.7154936E-005	-2.5107577E-001	0
3.7345618E+003	1.301199986643041E+001	-2.5288475E-001	-6.771470493976983E-002	1.7124015E-005	-2.5307563E-001	0
3.8056284E+003	1.321199986137799E+001	-2.5483593E-001	-6.696290526562311E-002	1.7064554E-005	-2.5507551E-001	0
3.8749028E+003	1.341199985632556E+001	-2.5685692E-001	-6.628731833908152E-002	1.7026356E-005	-2.5707540E-001	0
3.9398923E+003	1.361199985127314E+001	-2.5884968E-001	-6.569968327582132E-002	1.7006341E-005	-2.5907528E-001	0
4.0097676E+003	1.381199984622072E+001	-2.6083925E-001	-6.505096676260999E-002	1.6967846E-005	-2.6107517E-001	0
4.0761790E+003	1.401199984116829E+001	-2.6286560E-001	-6.448823870624282E-002	1.6951739E-005	-2.6307502E-001	0
4.1434556E+003	1.421199983611587E+001	-2.6481995E-001	-6.391282495831363E-002	1.6925391E-005	-2.6507491E-001	0
4.2083945E+003	1.441189983106597E+001	-2.6681572E-001	-6.340083618415027E-002	1.6916340E-005	-2.6707500E-001	0
4.2761543E+003	1.461179982601607E+001	-2.6883203E-001	-6.286771070579600E-002	1.6900854E-005	-2.6907465E-001	0
4.3429604E+003	1.481179982096364E+001	-2.7086365E-001	-6.236843821009758E-002	1.6893344E-005	-2.7107453E-001	0
4.4063750E+003	1.501179981591122E+001	-2.7283370E-001	-6.191795187856552E-002	1.6893304E-005	-2.7307442E-001	0
4.4752144E+003	1.521179981085879E+001	-2.7482945E-001	-6.141146060180680E-002	1.6877677E-005	-2.7507430E-001	0
4.5418501E+003	1.541179980580637E+001	-2.7683455E-001	-6.095193378846919E-002	1.6873601E-005	-2.7707416E-001	0
4.6086206E+003	1.561179980075394E+001	-2.7883407E-001	-6.050271867740639E-002	1.6870219E-005	-2.7907407E-001	0
4.6747725E+003	1.581179979570152E+001	-2.8084806E-001	-6.007737290407732E-002	1.6872613E-005	-2.8107396E-001	0
4.7405498E+003	1.601179979064909E+001	-2.8283682E-001	-5.966329525115049E-002	1.6874978E-005	-2.8307381E-001	0
4.8045215E+003	1.621179978559667E+001	-2.8485379E-001	-5.928868769938339E-002	1.6888607E-005	-2.8507370E-001	0
4.8706558E+003	1.641179978054424E+001	-2.8688347E-001	-5.890038001082853E-002	1.6897546E-005	-2.8707358E-001	0
4.9372905E+003	1.661179977549182E+001	-2.8887519E-001	-5.850885311128984E-002	1.6901757E-005	-2.8907344E-001	0
5.0031025E+003	1.681179977043939E+001	-2.9086584E-001	-5.813709049075921E-002	1.6910093E-005	-2.9107332E-001	0
5.0686982E+003	1.701179976538697E+001	-2.9282573E-001	-5.777138760397826E-002	1.6916949E-005	-2.9307321E-001	0
5.1358638E+003	1.721179976033454E+001	-2.9488021E-001	-5.741589703246586E-002	1.6930811E-005	-2.9507309E-001	0
5.2033154E+003	1.741179975528212E+001	-2.9686621E-001	-5.705327753773737E-002	1.6937191E-005	-2.9707295E-001	0
5.2654370E+003	1.761169975023222E+001	-2.9884261E-001	-5.675551835488424E-002	1.6960967E-005	-2.9907194E-001	0
5.3328867E+003	1.781159974518232E+001	-3.0079255E-001	-5.640332725969754E-002	1.6965700E-005	-3.0107272E-001	0
5.3965889E+003	1.801159974012990E+001	-3.0283752E-001	-5.611647161509392E-002	1.6994172E-005	-3.0307260E-001	0
5.4619385E+003	1.821159973507747E+001	-3.0482626E-001	-5.580917290937704E-002	1.7012102E-005	-3.0507249E-001	0
5.5295527E+003	1.841159973002505E+001	-3.0681694E-001	-5.548675283113819E-002	1.7024275E-005	-3.0707234E-001	0
5.5946387E+003	1.861159972497262E+001	-3.0883875E-001	-5.520262806824172E-002	1.7048711E-005	-3.0907223E-001	0
5.6588335E+003	1.881159971992020E+001	-3.1090391E-001	-5.494134183529603E-002	1.7081478E-005	-3.1107211E-001	0
5.7246606E+003	1.901159971486777E+001	-3.1281710E-001	-5.464378150777627E-002	1.7093509E-005	-3.1307197E-001	0
5.7917495E+003	1.921159970981535E+001	-3.1484002E-001	-5.436008967894246E-002	1.7114731E-005	-3.1507185E-001	0
5.8561519E+003	1.941159970476292E+001	-3.1686312E-001	-5.410773536325542E-002	1.7144746E-005	-3.1707174E-001	0
5.9198760E+003	1.961159969971050E+001	-3.1884697E-001	-5.386041219308235E-002	1.7173230E-005	-3.1907162E-001	0
5.9894326E+003	1.981159969465807E+001	-3.2084569E-001	-5.356863011181590E-002	1.7187263E-005	-3.2107151E-001	0
6.0555400E+003	2.001159968960565E+001	-3.2288215E-001	-5.332012472002683E-002	1.7216116E-005	-3.2307139E-001	0
6.1209917E+003	2.021159968455322E+001	-3.2484394E-001	-5.307047444188773E-002	1.7239623E-005	-3.2507125E-001	0
6.1844175E+003	2.041159967950080E+001	-3.2688785E-001	-5.285669289911543E-002	1.7278211E-005	-3.2707113E-001	0
6.2493599E+003	2.061159967444837E+001	-3.2887855E-001	-5.262595656657343E-002	1.7307548E-005	-3.2907102E-001	0
6.3178638E+003	2.081159966939595E+001	-3.3085686E-001	-5.236847176904980E-002	1.7326469E-005	-3.3107087E-001	0
6.3845801E+003	2.101149966434605E+001	-3.3283710E-001	-5.213140281583867E-002	1.7351265E-005	-3.3307165E-001	0
6.4467969E+003	2.121139965929615E+001	-3.3480844E-001	-5.193407460202424E-002	1.7387967E-005	-3.3507064E-001	0
6.5132583E+003	2.141139965424372E+001	-3.3681670E-001	-5.171247353078290E-002	1.7417624E-005	-3.3707052E-001	0
6.5782031E+003	2.161139964919130E+001	-3.3886150E-001	-5.151277293330780E-002	1.7455695E-005	-3.3907041E-001	0
6.6460283E+003	2.181139964413887E+001	-3.4082729E-001	-5.128285280363351E-002	1.7478596E-005	-3.4107029E-001	0
6.7096523E+003	2.201139963908645E+001	-3.4284768E-001	-5.109768193331288E-002	1.7518722E-005	-3.4307018E-001	0
6.7808813E+003	2.221139963403402E+001	-3.4488481E-001	-5.086135381384993E-002	1.7541308E-005	-3.4507003E-001	0
6.8456865E+003	2.241139962898160E+001	-3.4687883E-001	-5.067115192050226E-002	1.7576749E-005	-3.4706992E-001	0
6.9118394E+003	2.261139962392917E+001	-3.4885654E-001	-5.047231509673367E-002	1.7607597E-005	-3.4906983E-001	0
6.9802441E+003	2.281139961887675E+001	-3.5083020E-001	-5.026044941859953E-002	1.7632883E-005	-3.5106969E-001	0
7.0426665E+003	2.301139961382432E+001	-3.5289431E-001	-5.010805159802978E-002	1.7682845E-005	-3.5306954E-001	0
7.1067212E+003	2.321139960877190E+001	-3.5487008E-001	-4.993443056157498E-002	1.7720235E-005	-3.5506940E-001	0
7.1728799E+003	2.341139960371947E+001	-3.5688198E-001	-4.975435060824851E-002	1.7756431E-005	-3.5706931E-001	0
7.2404941E+003	2.361139959866705E+001	-3.5889021E-001	-4.956708617282457E-002	1.7789142E-005	-3.5906923E-001	0
7.3049502E+003	2.381139959361462E+001	-3.6087388E-001	-4.940127895124946E-002	1.7827631E-005	-3.6106908E-001	0
7.3706270E+003	2.401139958856220E+001	-3.6281997E-001	-4.922511534767493E-002	1.7859855E-005	-3.6306894E-001	0
7.4387617E+003	2.421129958351230E+001	-3.6484367E-001	-4.904629055549503E-002	1.7894228E-005	-3.6506861E-001	0
7.5049111E+003	2.441119957846240E+001	-3.6682549E-001	-4.887805983969051E-002	1.7929719E-005	-3.6706871E-001	0
7.5667944E+003	2.461119957340998E+001	-3.6881652E-001	-4.874144823083437E-002	1.7976652E-005	-3.6906856E-001	0
7.6339990E+003	2.481119956835755E+001	-3.7084278E-001	-4.857778652542621E-002	1.8014722E-005	-3.7106845E-001	0
7.7095146E+003	2.501119956330513E+001	-3.7284303E-001	-4.836141317607634E-002	1.8031216E-005	-3.7306833E-001	0
7.7722114E+003	2.521119955825270E+001	-3.7484449E-001	-4.822880710905958E-002	1.8078303E-005	-3.7506822E-001	0
7.8394253E+003	2.541119955320028E+001	-3.7684298E-001	-4.807023075250860E-002	1.8114928E-005	-3.7706807E-001	0
7.9050083E+003	2.561119954814785E+001	-3.7882173E-001	-4.792173679489353E-002	1.8153794E-005	-3.7906799E-001	0
7.9720942E+003	2.581119954309543E+001	-3.8083276E-001	-4.777072985416875E-002	1.8192659E-005	-3.8106784E-001	0
8.0380171E+003	2.601119953804300E+001	-3.8285482E-001	-4.763050514559486E-002	1.8235569E-005	-3.8306776E-001	0
8.1025737E+003	2.621119953299058E+001	-3.8486457E-001	-4.749905255511239E-002	1.8280702E-005	-3.8506761E-001	0
8.1699731E+003	2.641119952793815E+001	-3.8683957E-001	-4.734894015236024E-002	1.8316443E-005	-3.8706747E-001	0
8.2346455E+003	2.661119952288573E+001	-3.8887751E-001	-4.722456063952774E-002	1.8364570E-005	-3.8906735E-001	0
8.3021113E+003	2.681119951783330E+001	-3.9085609E-001	-4.707911744837323E-002	1.8401159E-005	-3.9106727E-001	0
8.3719150E+003	2.701119951278088E+001	-3.9285776E-001	-4.692567207733300E-002	1.8435114E-005	-3.9306712E-001	0
8.4338604E+003	2.721119950772845E+001	-3.9487007E-001	-4.681961291180298E-002	1.8487664E-005	-3.9506698E-001	0
8.5034180E+003	2.741119950267603E+001	-3.9683890E-001	-4.666816343473112E-002	1.8519742E-005	-3.9706689E-001	0
8.5712842E+003	2.761099949762865E+001	-3.9887959E-001	-4.653673332965225E-002	1.8562552E-005	-3.9906675E-001	0
8.6389902E+003	2.781099949257623E+001	-4.0085050E-001	-4.640015715293910E-002	1.8599527E-005	-4.0106666E-001	0
8.7088457E+003	2.801099948752380E+001	-4.0285003E-001	-4.625757053376191E-002	1.8634864E-005	-4.0306652E-001	0
8.7708506E+003	2.821099948247138E+001	-4.0487745E-001	-4.616170975616174E-002	1.8689836E-005	-4.0506637E-001	0
8.8380234E+003	2.841099947741895E+001	-4.0684238E-001	-4.603318682140012E-002	1.8728251E-005	-4.0706632E-001	0
8.8919189E+003	2.861099947236653E+001	-4.0884894E-001	-4.597983280589579E-002	1.8798806E-005	-4.0906614E-001	0
8.9669619E+003	2.881099946731410E+001	-4.1086805E-001	-4.582020486525462E-002	1.8826058E-005	-4.1106603E-001	0
9.0335186E+003	2.901099946226168E+001	-4.1284278E-001	-4.570121550853368E-002	1.8867417E-005	-4.1306594E-001	0
9.0971895E+003	2.921099945720925E+001	-4.1487375E-001	-4.560460550884782E-002	1.8920153E-005	-4.1506580E-001	0
9.1579873E+003	2.941099945215683E+001	-4.1689074E-001	-4.552209098631199E-002	1.8977738E-005	-4.1706571E-001	0
9.2280146E+003	2.961099944710440E+001	-4.1886482E-001	-4.539056675104192E-002	1.9012512E-005	-4.1906556E-001	0
9.2893086E+003	2.981099944205198E+001	-4.2083970E-001	-4.530366016245613E-002	1.9065579E-005	-4.2106542E-001	0
9.3658291E+003	3.001099943699955E+001	-4.2286399E-001	-4.514966012203603E-002	1.9092166E-005	-4.2306530E-001	0
9.4347969E+003	3.021099943194713E+001	-4.2486265E-001	-4.503145957890431E-002	1.9132185E-005	-4.2506519E-001	0
9.4969424E+003	3.041099942689470E+001	-4.2687157E-001	-4.494831779767899E-002	1.9187159E-005	-4.2706507E-001	0
9.6072676E+003	3.063099942133704E+001	-4.2907953E-001	-4.466197264643387E-002	1.9163539E-005	-4.2926493E-001	0
9.6845049E+003	3.085089941578190E+001	-4.3128386E-001	-4.453339215417795E-002	1.9206533E-005	-4.3146479E-001	0
9.7489648E+003	3.105079941073200E+001	-4.3326789E-001	-4.444245037399941E-002	1.9255487E-005	-4.3346468E-001	0
9.8167188E+003	3.125079940567957E+001	-4.3524855E-001	-4.433747904735252E-002	1.9297824E-005	-4.3546456E-001	0
9.8837813E+003	3.145079940062715E+001	-4.3728143E-001	-4.424232160757013E-002	1.9346346E-005	-4.3746439E-001	0
9.9491680E+003	3.165079939557472E+001	-4.3930757E-001	-4.415520571743486E-002	1.9397716E-005	-4.3946430E-001	0
1.0016994E+004	3.185079939052230E+001	-4.4131261E-001	-4.405639191763155E-002	1.9442641E-005	-4.4146419E-001	0
1.0086021E+004	3.205079938546987E+001	-4.4333509E-001	-4.395539722645067E-002	1.9486970E-005	-4.4346407E-001	0
1.0149006E+004	3.225079938041745E+001	-4.4531068E-001	-4.387727319954549E-002	1.9539018E-005	-4.4546396E-001	0
1.0222654E+004	3.245079937536502E+001	-4.4731432E-001	-4.375716131296681E-002	1.9573205E-005	-4.4746381E-001	0
1.0286719E+004	3.265079937031260E+001	-4.4930580E-001	-4.367824424667455E-002	1.9624889E-005	-4.4946373E-001	0
1.0349353E+004	3.285079936526017E+001	-4.5130134E-001	-4.360672227469153E-002	1.9679772E-005	-4.5146358E-001	0
1.0415542E+004	3.305079936020775E+001	-4.5324680E-001	-4.351639204532920E-002	1.9723666E-005	-4.5346344E-001	0
1.0487645E+004	3.325079935515532E+001	-4.5527646E-001	-4.341074620777974E-002	1.9763891E-005	-4.5546338E-001	0
1.0556219E+004	3.345079935010290E+001	-4.5731124E-001	-4.332150189446748E-002	1.9811410E-005	-4.5746320E-001	0
1.0618317E+004	3.365079934505047E+001	-4.5928326E-001	-4.325386488180846E-002	1.9865776E-005	-4.5946309E-001	0
1.0684506E+004	3.385079933999805E+001	-4.6126521E-001	-4.317141226661769E-002	1.9913470E-005	-4.6146300E-001	0
1.0749710E+004	3.405069933494815E+001	-4.6329299E-001	-4.309818644909869E-002	1.9967087E-005	-4.6346220E-001	0
1.0824381E+004	3.425059932989825E+001	-4.6527216E-001	-4.298372066378087E-002	1.9999128E-005	-4.6546277E-001	0
1.0890500E+004	3.445059932484583E+001	-4.6722925E-001	-4.290245956389660E-002	2.0045283E-005	-4.6746260E-001	0
1.0955836E+004	3.465059931979340E+001	-4.6932435E-001	-4.283783851426859E-002	2.0104841E-005	-4.6946248E-001	0
1.1026822E+004	3.485059931474098E+001	-4.7126636E-001	-4.273818397990584E-002	2.0141068E-005	-4.7146240E-001	0
1.1086776E+004	3.505059930968855E+001	-4.7325662E-001	-4.268658434805328E-002	2.0201709E-005	-4.7346219E-001	0
1.1153428E+004	3.525059930463613E+001	-4.7527656E-001	-4.261260061913380E-002	2.0252770E-005	-4.7546211E-001	0
1.1227370E+004	3.545059929958370E+001	-4.7722098E-001	-4.250514504521906E-002	2.0284348E-005	-4.7746202E-001	0
1.1288464E+004	3.565059929453128E+001	-4.7924128E-001	-4.245407240467414E-002	2.0345744E-005	-4.7946188E-001	0
1.1354900E+004	3.585059928947885E+001	-4.8125231E-001	-4.238278685188301E-002	2.0396814E-005	-4.8146176E-001	0
1.1414032E+004	3.605059928442643E+001	-4.8328331E-001	-4.234115684868511E-002	2.0462774E-005	-4.8346162E-001	0
1.1481684E+004	3.625059927937400E+001	-4.8522213E-001	-4.226053776346173E-002	2.0505748E-005	-4.8546150E-001	0
1.1555304E+004	3.645059927432158E+001	-4.8729265E-001	-4.217047500582460E-002	2.0549362E-005	-4.8746139E-001	0
1.1614386E+004	3.665059926926915E+001	-4.8926121E-001	-4.212544850853005E-002	2.0610349E-005	-4.8946124E-001	0
1.1678438E+004	3.685059926421673E+001	-4.9129152E-001	-4.206825746513704E-002	2.0667778E-005	-4.9146116E-001	0
1.1754462E+004	3.705059925916430E+001	-4.9325609E-001	-4.196330563739678E-002	2.0698657E-005	-4.9346101E-001	0
1.1812545E+004	3.725059925411188E+001	-4.9531803E-001	-4.193152488967455E-002	2.0769439E-005	-4.9546087E-001	0
1.1878126E+004	3.745049924906198E+001	-4.9728912E-001	-4.186595854369646E-002	2.0819485E-005	-4.9746147E-001	0
1.1944442E+004	3.765039924401208E+001	-4.9927640E-001	-4.179989116091071E-002	2.0869698E-005	-4.9946064E-001	0
1.2009162E+004	3.785039923895965E+001	-5.0122696E-001	-4.173704520524668E-002	2.0919731E-005	-5.0146061E-001	0
1.2078826E+004	3.805039923390723E+001	-5.0327855E-001	-4.166618084018658E-002	2.0969695E-005	-5.0346047E-001	0
1.2144617E+004	3.825039922885480E+001	-5.0529104E-001	-4.160617321308349E-002	2.1023227E-005	-5.0546032E-001	0
1.2206166E+004	3.845039922380238E+001	-5.0725520E-001	-4.155729042446393E-002	2.1080152E-005	-5.0746024E-001	0
1.2268743E+004	3.865039921874995E+001	-5.0926006E-001	-4.150873739346278E-002	2.1138741E-005	-5.0946009E-001	0
1.2333807E+004	3.885039921369753E+001	-5.1127577E-001	-4.145320087788487E-002	2.1194017E-005	-5.1145995E-001	0
1.2411758E+004	3.905039920864510E+001	-5.1327640E-001	-4.135404475367999E-002	2.1226055E-005	-5.1345986E-001	0
1.2470115E+004	3.925039920359268E+001	-5.1527208E-001	-4.132055391292477E-002	2.1291327E-005	-5.1545972E-001	0
1.2536876E+004	3.945039919854025E+001	-5.1728499E-001	-4.126107597579987E-002	2.1343736E-005	-5.1745957E-001	0
1.2592036E+004	3.965039919348783E+001	-5.1926249E-001	-4.123737281209491E-002	2.1413021E-005	-5.1945949E-001	0
1.2659997E+004	3.985039918843540E+001	-5.2122968E-001	-4.117139163236982E-002	2.1459751E-005	-5.2145934E-001	0
1.2721255E+004	4.005039918338298E+001	-5.2320939E-001	-4.112875562207685E-002	2.1518952E-005	-5.2345926E-001	0
1.2786449E+004	4.025039917833055E+001	-5.2526605E-001	-4.107989829383124E-002	2.1577876E-005	-5.2545911E-001	0
1.2849910E+004	4.045039917327813E+001	-5.2727580E-001	-4.103342389826220E-002	2.1635931E-005	-5.2745903E-001	0
1.2909800E+004	4.065029916822823E+001	-5.2927083E-001	-4.099760164798780E-002	2.1698834E-005	-5.2945894E-001	0
1.2978790E+004	4.085019916317833E+001	-5.3129023E-001	-4.093526630391006E-002	2.1748507E-005	-5.3145874E-001	0
1.3043687E+004	4.105019915812591E+001	-5.3325373E-001	-4.088213265785851E-002	2.1800550E-005	-5.3345871E-001	0
1.3105848E+004	4.125019915307348E+001	-5.3526282E-001	-4.084152660687401E-002	2.1860951E-005	-5.3545851E-001	0
1.3162014E+004	4.145019914802106E+001	-5.3726065E-001	-4.081903140497756E-002	2.1930460E-005	-5.3745836E-001	0
1.3231683E+004	4.165019914296863E+001	-5.3927410E-001	-4.075627392786183E-002	2.1978803E-005	-5.3945827E-001	0
1.3292925E+004	4.185019913791621E+001	-5.4125327E-001	-4.071739357193960E-002	2.2038423E-005	-5.4145813E-001	0
1.3355909E+004	4.205019913286378E+001	-5.4327810E-001	-4.067698237697370E-002	2.2098913E-005	-5.4345804E-001	0
1.3419425E+004	4.225019912781136E+001	-5.4526687E-001	-4.063265464694166E-002	2.2155640E-005	-5.4545796E-001	0
1.3474218E+004	4.245019912275893E+001	-5.4724610E-001	-4.061431364793011E-002	2.2226024E-005	-5.4745775E-001	0
1.3536063E+004	4.265019911770651E+001	-5.4928100E-001	-4.057908338144034E-002	2.2289320E-005	-5.4945767E-001	0
1.3612806E+004	4.285019911265408E+001	-5.5129147E-001	-4.049800331477291E-002	2.2326203E-005	-5.5145752E-001	0
1.3655588E+004	4.305019910760166E+001	-5.5325598E-001	-4.051498797206865E-002	2.2415159E-005	-5.5345744E-001	0
1.3724894E+004	4.325019910254923E+001	-5.5525464E-001	-4.045602583506946E-002	2.2463397E-005	-5.5545729E-001	0
1.3779047E+004	4.345019909749681E+001	-5.5726290E-001	-4.044277565379553E-002	2.2537259E-005	-5.5745715E-001	0
1.3857062E+004	4.365019909244438E+001	-5.5928540E-001	-4.036104045000533E-002	2.2573340E-005	-5.5945706E-001	0
1.3897953E+004	4.385009908739448E+001	-5.6126875E-001	-4.038499270353896E-002	2.2666834E-005	-5.6145608E-001	0
1.3964292E+004	4.405009908234206E+001	-5.6325799E-001	-4.033559279274790E-002	2.2719345E-005	-5.6345773E-001	0
1.4028176E+004	4.424999907729216E+001	-5.6529027E-001	-4.029677836583453E-002	2.2779377E-005	-5.6545669E-001	0
1.4090241E+004	4.444999907223973E+001	-5.6725943E-001	-4.025902984481164E-002	2.2837314E-005	-5.6745654E-001	0
1.4142765E+004	4.464999906718731E+001	-5.6925821E-001	-4.025084408429858E-002	2.2913124E-005	-5.6945646E-001	0
1.4203446E+004	4.484999906213488E+001	-5.7124859E-001	-4.021901185275839E-002	2.2975053E-005	-5.7145637E-001	0
1.4254302E+004	4.504999905708246E+001	-5.7325137E-001	-4.021602598163609E-002	2.3053892E-005	-5.7345617E-001	0
1.4323022E+004	4.524999905203003E+001	-5.7523692E-001	-4.016169794104441E-002	2.3102491E-005	-5.7545614E-001	0
1.4373532E+004	4.544999904697761E+001	-5.7724047E-001	-4.015996046454073E-002	2.3181954E-005	-5.7745594E-001	0
1.4435328E+004	4.564999904192518E+001	-5.7921612E-001	-4.012490109336739E-002	2.3240989E-005	-5.7945585E-001	0
1.4492009E+004	4.584999903687276E+001	-5.8125502E-001	-4.010865824242156E-002	2.3313360E-005	-5.8145577E-001	0
1.4552578E+004	4.604999903182033E+001	-5.8326298E-001	-4.007970216122292E-002	2.3377006E-005	-5.8345556E-001	0
1.4605648E+004	4.624999902676791E+001	-5.8523351E-001	-4.006898529271119E-002	2.3449713E-005	-5.8545548E-001	0
1.4670250E+004	4.644999902171548E+001	-5.8724636E-001	-4.002974544337131E-002	2.3507322E-005	-5.8745539E-001	0
1.4719074E+004	4.664999901666306E+001	-5.8925277E-001	-4.003327626200659E-002	2.3589719E-005	-5.8945519E-001	0
1.4783301E+004	4.684999901161063E+001	-5.9127057E-001	-3.999584182001904E-002	2.3648365E-005	-5.9145510E-001	0
1.4825187E+004	4.704999900655821E+001	-5.9322786E-001	-4.001486758108080E-002	2.3737934E-005	-5.9345496E-001	0
1.4888053E+004	4.724989900150831E+001	-5.9521937E-001	-3.997966556447208E-002	2.3796672E-005	-5.9545511E-001	0
1.4932818E+004	4.744979899645841E+001	-5.9724635E-001	-3.999555555315865E-002	2.3887200E-005	-5.9745473E-001	0
1.4990585E+004	4.764979899140599E+001	-5.9924448E-001	-3.997472268919916E-002	2.3954632E-005	-5.9945458E-001	0
1.5053093E+004	4.784979898635356E+001	-6.0125375E-001	-3.994220799936499E-002	2.4015402E-005	-6.0145450E-001	0
1.5110097E+004	4.804979898130114E+001	-6.0324210E-001	-3.992311352607314E-002	2.4083303E-005	-6.0345435E-001	0
1.5154291E+004	4.824979897624871E+001	-6.0526812E-001	-3.994037981948620E-002	2.4174638E-005	-6.0545421E-001	0
1.5213510E+004	4.844979897119629E+001	-6.0725683E-001	-3.991562894718668E-002	2.4239038E-005	-6.0745412E-001	0
1.5256081E+004	4.864979896614386E+001	-6.0925627E-001	-3.993530625576702E-002	2.4330835E-005	-6.0945398E-001	0
1.5327161E+004	4.884979896109144E+001	-6.1127448E-001	-3.988178049387356E-002	2.4378714E-005	-6.1145389E-001	0
1.5377626E+004	4.904979895603901E+001	-6.1327362E-001	-3.988090262309030E-002	2.4457906E-005	-6.1345375E-001	0
1.5416639E+004	4.924979895098659E+001	-6.1524224E-001	-3.990767831315417E-002	2.4552890E-005	-6.1545360E-001	0
1.5475983E+004	4.944979894593416E+001	-6.1730075E-001	-3.988766023686441E-002	2.4622683E-005	-6.1745358E-001	0
1.5522485E+004	4.964979894088174E+001	-6.1931795E-001	-3.989811706707269E-002	2.4709620E-005	-6.1945337E-001	0
1.5573996E+004	4.984979893582931E+001	-6.2130201E-001	-3.989355193816391E-002	2.4785944E-005	-6.2145334E-001	0
1.5640530E+004	5.004979893077689E+001	-6.2327802E-001	-3.985018387744144E-002	2.4837744E-005	-6.2345320E-001	0
1.5673474E+004	5.024979892572446E+001	-6.2526613E-001	-3.989327220904026E-002	2.4943913E-005	-6.2545305E-001	0
1.5739277E+004	5.044969892067456E+001	-6.2731993E-001	-3.985697111023634E-002	2.5003072E-005	-6.2745243E-001	0
1.5792946E+004	5.064959891562467E+001	-6.2930256E-001	-3.984706445682634E-002	2.5075860E-005	-6.2945282E-001	0
1.5854972E+004	5.084959891057224E+001	-6.3131398E-001	-3.981804544694267E-002	2.5137690E-005	-6.3145268E-001	0
1.5890089E+004	5.104959890551982E+001	-6.3328493E-001	-3.985408243254385E-002	2.5238989E-005	-6.3345253E-001	0
1.5945526E+004	5.124959890046739E+001	-6.3528240E-001	-3.984079139741116E-002	2.5310153E-005	-6.3545239E-001	0
1.5989114E+004	5.144959889541497E+001	-6.3723314E-001	-3.985418727523229E-002	2.5396408E-005	-6.3745230E-001	0
1.6042106E+004	5.164959889036254E+001	-6.3929039E-001	-3.985077548004440E-002	2.5476218E-005	-6.3945216E-001	0
1.6087527E+004	5.184959888531012E+001	-6.4130241E-001	-3.986332988574509E-002	2.5564450E-005	-6.4145201E-001	0
1.6144277E+004	5.204959888025769E+001	-6.4327133E-001	-3.984516061992371E-002	2.5631249E-005	-6.4345193E-001	0
1.6188696E+004	5.224959887520527E+001	-6.4524710E-001	-3.985787930216245E-002	2.5718182E-005	-6.4545178E-001	0
1.6230263E+004	5.244959887015284E+001	-6.4731216E-001	-3.988303665875281E-002	2.5816775E-005	-6.4745170E-001	0
1.6293580E+004	5.264959886510042E+001	-6.4929885E-001	-3.984998055794975E-002	2.5874546E-005	-6.4945161E-001	0
1.6342250E+004	5.284959886004799E+001	-6.5126425E-001	-3.985156546412311E-002	2.5953899E-005	-6.5145141E-001	0
1.6384164E+004	5.304959885499557E+001	-6.5328819E-001	-3.987314884710311E-002	2.6048658E-005	-6.5345138E-001	0
1.6447346E+004	5.324959884994314E+001	-6.5527844E-001	-3.984098509323606E-002	2.6106938E-005	-6.5545118E-001	0
1.6482324E+004	5.344959884489072E+001	-6.5729070E-001	-3.987852018062532E-002	2.6211781E-005	-6.5745115E-001	0
1.6535693E+004	5.364959883983829E+001	-6.5932357E-001	-3.987274964444565E-002	2.6289044E-005	-6.5945095E-001	0
1.6593781E+004	5.384949883478839E+001	-6.6124994E-001	-3.984926186034393E-002	2.6350323E-005	-6.6145152E-001	0
1.6635230E+004	5.404939882973849E+001	-6.6326630E-001	-3.987118144505902E-002	2.6445212E-005	-6.6345072E-001	0
1.6684758E+004	5.424939882468607E+001	-6.6527307E-001	-3.987310089085403E-002	2.6526501E-005	-6.6545063E-001	0
1.6741023E+004	5.444939881963364E+001	-6.6726983E-001	-3.985836412683713E-002	2.6596284E-005	-6.6745049E-001	0
1.6786197E+004	5.464939881458122E+001	-6.6926640E-001	-3.987004254208638E-002	2.6683680E-005	-6.6945040E-001	0
1.6838305E+004	5.484939880952879E+001	-6.7126834E-001	-3.986555230756261E-002	2.6760483E-005	-6.7145026E-001	0
1.6882791E+004	5.504939880447637E+001	-6.7322487E-001	-3.987639709697849E-002	2.6845782E-005	-6.7345011E-001	0
1.6926648E+004	5.524939879942394E+001	-6.7522949E-001	-3.989150732029180E-002	2.6935923E-005	-6.7545003E-001	0
1.6971682E+004	5.544939879437152E+001	-6.7728525E-001	-3.990678510511424E-002	2.7028276E-005	-6.7744982E-001	0
1.7021084E+004	5.564939878931909E+001	-6.7924368E-001	-3.990601809154737E-002	2.7105911E-005	-6.7944974E-001	0
1.7063449E+004	5.584939878426667E+001	-6.8127167E-001	-3.992578686244536E-002	2.7200307E-005	-6.8144959E-001	0
1.7112201E+004	5.604939877921424E+001	-6.8324965E-001	-3.992763224222579E-002	2.7280541E-005	-6.8344951E-001	0
1.7152957E+004	5.624939877416182E+001	-6.8524659E-001	-3.994918231537677E-002	2.7375041E-005	-6.8544936E-001	0
1.7202760E+004	5.644939876910939E+001	-6.8725109E-001	-3.995004649825247E-002	2.7455713E-005	-6.8744922E-001	0
1.7254404E+004	5.664939876405697E+001	-6.8928349E-001	-3.994826169878812E-002	2.7535678E-005	-6.8944913E-001	0
1.7296582E+004	5.684939875900454E+001	-6.9125468E-001	-3.996481404316668E-002	2.7625865E-005	-6.9144905E-001	0
1.7344898E+004	5.704929875395464E+001	-6.9330496E-001	-3.997169517048388E-002	2.7712575E-005	-6.9344854E-001	0
1.7399379E+004	5.724919874890475E+001	-6.9529915E-001	-3.996114876536261E-002	2.7784952E-005	-6.9544888E-001	0
1.7437697E+004	5.744919874385232E+001	-6.9729835E-001	-3.998798144666596E-002	2.7883554E-005	-6.9744867E-001	0
1.7461904E+004	5.764919873879990E+001	-6.9927579E-001	-4.004579415685305E-002	2.8003054E-005	-6.9944859E-001	0
1.7510057E+004	5.784919873374747E+001	-7.0128828E-001	-4.005059957015375E-002	2.8087015E-005	-7.0144844E-001	0
1.7565482E+004	5.804919872869505E+001	-7.0327604E-001	-4.003738877738350E-002	2.8157336E-005	-7.0344830E-001	0
1.7594197E+004	5.824919872364262E+001	-7.0527834E-001	-4.008584906153856E-002	2.8271681E-005	-7.0544821E-001	0
1.7654398E+004	5.844919871859020E+001	-7.0729321E-001	-4.006328798203276E-002	2.8336492E-005	-7.0744807E-001	0
1.7702617E+004	5.864919871353777E+001	-7.0927811E-001	-4.006628606778884E-002	2.8418139E-005	-7.0944792E-001	0
1.7731074E+004	5.884919870848535E+001	-7.1128887E-001	-4.011538352494193E-002	2.8533626E-005	-7.1144783E-001	0
1.7778545E+004	5.904919870343292E+001	-7.1326876E-001	-4.011963697228497E-002	2.8616083E-005	-7.1344769E-001	0
1.7808191E+004	5.924919869838050E+001	-7.1526641E-001	-4.016502223150760E-002	2.8728691E-005	-7.1544760E-001	0
1.7857643E+004	5.944919869332807E+001	-7.1725744E-001	-4.016529308402861E-002	2.8808856E-005	-7.1744752E-001	0
1.7892768E+004	5.964919868827565E+001	-7.1928692E-001	-4.019986930469066E-002	2.8915239E-005	-7.1944731E-001	0
1.7943994E+004	5.984919868322322E+001	-7.2129822E-001	-4.019719377648959E-002	2.8994164E-005	-7.2144723E-001	0
1.7992967E+004	6.004919867817080E+001	-7.2326338E-001	-4.019700686759881E-002	2.9073024E-005	-7.2344702E-001	0
1.8033545E+004	6.024909867312090E+001	-7.2526705E-001	-4.021766448823347E-002	2.9168546E-005	-7.2544611E-001	0
1.8054285E+004	6.044899866807100E+001	-7.2726631E-001	-4.028219780668746E-002	2.9295885E-005	-7.2744668E-001	0
1.8095926E+004	6.064899866301857E+001	-7.2926456E-001	-4.029993076683103E-002	2.9389312E-005	-7.2944665E-001	0
1.8153941E+004	6.084899865796615E+001	-7.3126245E-001	-4.028119552720025E-002	2.9456125E-005	-7.3144656E-001	0
1.8181469E+004	6.104899865291372E+001	-7.3325866E-001	-4.033000339556453E-002	2.9572324E-005	-7.3344648E-001	0
1.8227492E+004	6.124899864786130E+001	-7.3524565E-001	-4.033718140803211E-002	2.9657736E-005	-7.3544627E-001	0
1.8258533E+004	6.144899864280887E+001	-7.3727345E-001	-4.037966682071958E-002	2.9770856E-005	-7.3744631E-001	0
1.8289941E+004	6.164899863775645E+001	-7.3923033E-001	-4.041731753148972E-002	2.9877707E-005	-7.3944610E-001	0
1.8334377E+004	6.184899863270402E+001	-7.4124271E-001	-4.042911782618930E-002	2.9967789E-005	-7.4144602E-001	0
1.8362121E+004	6.204899862765160E+001	-7.4327147E-001	-4.047851919517542E-002	3.0086529E-005	-7.4344587E-001	0
1.8411027E+004	6.224899862259917E+001	-7.4525601E-001	-4.047878405217575E-002	3.0167057E-005	-7.4544573E-001	0
1.8425865E+004	6.244899861754675E+001	-7.4730414E-001	-4.055734324615329E-002	3.0308671E-005	-7.4744564E-001	0
1.8461314E+004	6.264899861249432E+001	-7.4922228E-001	-4.058336377378269E-002	3.0405959E-005	-7.4944550E-001	0
1.8528439E+004	6.284899860744190E+001	-7.5126064E-001	-4.054635145164021E-002	3.0460878E-005	-7.5144535E-001	0
1.8560072E+004	6.304899860238947E+001	-7.5325114E-001	-4.058449417236537E-002	3.0570318E-005	-7.5344533E-001	0
1.8573434E+004	6.324899859733705E+001	-7.5525832E-001	-4.066336519441766E-002	3.0711344E-005	-7.5544512E-001	0
1.8637357E+004	6.344899859228462E+001	-7.5725317E-001	-4.063093007643559E-002	3.0767900E-005	-7.5744504E-001	0
1.8673291E+004	6.364889858723473E+001	-7.5930548E-001	-4.066264898647909E-002	3.0875373E-005	-7.5944513E-001	0
1.8682469E+004	6.384879858218483E+001	-7.6128310E-001	-4.074852872173154E-002	3.1021165E-005	-7.6144475E-001	0
1.8728396E+004	6.404879857713240E+001	-7.6328474E-001	-4.075547627647469E-002	3.1108033E-005	-7.6344466E-001	0
1.8762523E+004	6.424879857207998E+001	-7.6528579E-001	-4.078799883186673E-002	3.1214477E-005	-7.6544452E-001	0
1.8811902E+004	6.444879856702755E+001	-7.6726323E-001	-4.078605287584791E-002	3.1293639E-005	-7.6744437E-001	0
1.8864219E+004	6.464879856197513E+001	-7.6927596E-001	-4.077963649201299E-002	3.1370793E-005	-7.6944429E-001	0
1.8901041E+004	6.484879855692270E+001	-7.7126449E-001	-4.080539885612716E-002	3.1471754E-005	-7.7144408E-001	0
1.8921258E+004	6.504879855187028E+001	-7.7327895E-001	-4.086826348892691E-002	3.1602569E-005	-7.7344412E-001	0
1.8970789E+004	6.524879854681785E+001	-7.7529037E-001	-4.086758491061532E-002	3.1684245E-005	-7.7544391E-001	0
1.9004838E+004	6.544879854176543E+001	-7.7730119E-001	-4.090017358067088E-002	3.1791755E-005	-7.7744383E-001	0
1.9029910E+004	6.564879853671300E+001	-7.7928203E-001	-4.095038055899483E-002	3.1911895E-005	-7.7944374E-001	0
1.9080625E+004	6.584879853166058E+001	-7.8129756E-001	-4.094716954327987E-002	3.1991924E-005	-7.8144360E-001	0
1.9090988E+004	6.604879852660815E+001	-7.8325087E-001	-4.102725534786431E-002	3.2134634E-005	-7.8344351E-001	0
1.9144240E+004	6.624879852155573E+001	-7.8525746E-001	-4.101794933010092E-002	3.2209649E-005	-7.8544337E-001	0
1.9146861E+004	6.644879851650330E+001	-7.8725713E-001	-4.111677128003283E-002	3.2369473E-005	-7.8744316E-001	0
1.9199076E+004	6.664879851145088E+001	-7.8927702E-001	-4.111015399582180E-002	3.2447300E-005	-7.8944308E-001	0
1.9217783E+004	6.684869850640098E+001	-7.9129511E-001	-4.117514832401381E-002	3.2581695E-005	-7.9144228E-001	0
1.9260021E+004	6.704859850135108E+001	-7.9328769E-001	-4.118830820993280E-002	3.2674179E-005	-7.9344285E-001	0
1.9305643E+004	6.724859849629865E+001	-7.9527968E-001	-4.119415867169840E-002	3.2760876E-005	-7.9544276E-001	0
1.9336922E+004	6.744859849124623E+001	-7.9728001E-001	-4.123096656642411E-002	3.2872627E-005	-7.9744256E-001	0
1.9385447E+004	6.764859848619381E+001	-7.9927409E-001	-4.123062351634083E-002	3.2954569E-005	-7.9944247E-001	0
1.9406373E+004	6.784859848114138E+001	-8.0125034E-001	-4.128800224736651E-002	3.3082026E-005	-8.0144238E-001	0
1.9417117E+004	6.804859847608896E+001	-8.0328083E-001	-4.136972622539370E-002	3.3231507E-005	-8.0344230E-001	0
1.9483775E+004	6.824859847103653E+001	-8.0525148E-001	-4.132933424423546E-002	3.3280507E-005	-8.0544209E-001	0
1.9483416E+004	6.844859846598411E+001	-8.0725157E-001	-4.143275251208689E-002	3.3446653E-005	-8.0744201E-001	0
1.9499883E+004	6.864859846093168E+001	-8.0930293E-001	-4.150296257446628E-002	3.3588469E-005	-8.0944180E-001	0
1.9545475E+004	6.884859845587926E+001	-8.1124806E-001	-4.150567265901106E-002	3.3671397E-005	-8.1144178E-001	0
1.9596389E+004	6.904859845082683E+001	-8.1327599E-001	-4.150132105058540E-002	3.3752029E-005	-8.1344163E-001	0
1.9601531E+004	6.924859844577441E+001	-8.1526297E-001	-4.159180161806131E-002	3.3908254E-005	-8.1544155E-001	0
1.9592613E+004	6.944859844072198E+001	-8.1728065E-001	-4.171371113249178E-002	3.4091809E-005	-8.1744134E-001	0
1.9592627E+004	6.964859843566956E+001	-8.1931394E-001	-4.181746055600130E-002	3.4261629E-005	-8.1944126E-001	0
1.9637209E+004	6.984859843061713E+001	-8.2128376E-001	-4.182283467609993E-002	3.4348413E-005	-8.2144117E-001	0
1.9635719E+004	7.004859842556471E+001	-8.2328135E-001	-4.192774316249531E-002	3.4518329E-005	-8.2344103E-001	0
1.9677445E+004	7.024849842051481E+001	-8.2525450E-001	-4.193910583567236E-002	3.4610435E-005	-8.2544070E-001	0
1.9688168E+004	7.044839841546491E+001	-8.2728183E-001	-4.201923783017469E-002	3.4761753E-005	-8.2744080E-001	0
1.9722090E+004	7.064839841041248E+001	-8.2926804E-001	-4.204767692729616E-002	3.4868794E-005	-8.2944065E-001	0
1.9701043E+004	7.084839840536006E+001	-8.3128619E-001	-4.219503387150958E-002	3.5076147E-005	-8.3144051E-001	0
1.9694713E+004	7.104839840030763E+001	-8.3328623E-001	-4.231014851741546E-002	3.5256464E-005	-8.3344048E-001	0
1.9727980E+004	7.124839839525521E+001	-8.3528095E-001	-4.233991358030070E-002	3.5365723E-005	-8.3544028E-001	0
1.9760600E+004	7.144839839020278E+001	-8.3729613E-001	-4.237200215811543E-002	3.5477915E-005	-8.3744019E-001	0
1.9696357E+004	7.164839838515036E+001	-8.3927202E-001	-4.261052147210781E-002	3.5761819E-005	-8.3943999E-001	0
1.9723967E+004	7.184839838009793E+001	-8.4128153E-001	-4.265275552748468E-002	3.5882975E-005	-8.4143990E-001	0
1.9681318E+004	7.204839837504551E+001	-8.4333217E-001	-4.284937584206716E-002	3.6136258E-005	-8.4343982E-001	0
1.9641283E+004	7.224839836999308E+001	-8.4530497E-001	-4.303715378468409E-002	3.6379519E-005	-8.4543973E-001	0
1.9605115E+004	7.244839836494066E+001	-8.4730458E-001	-4.321854525428398E-002	3.6619273E-005	-8.4743965E-001	0
1.9549748E+004	7.264839835988823E+001	-8.4931105E-001	-4.344358103130175E-002	3.6897112E-005	-8.4943944E-001	0
1.9543121E+004	7.284839835483581E+001	-8.5125059E-001	-4.355755734469652E-002	3.7078396E-005	-8.5143924E-001	0
1.9340824E+004	7.304839834978338E+001	-8.5330433E-001	-4.411933599266926E-002	3.7647220E-005	-8.5343927E-001	0
1.9356213E+004	7.324839834473096E+001	-8.5528839E-001	-4.418676476920336E-002	3.7792426E-005	-8.5543907E-001	0
1.9202385E+004	7.344839833967853E+001	-8.5731810E-001	-4.464644006698437E-002	3.8276201E-005	-8.5743904E-001	0
1.9067615E+004	7.364829833462863E+001	-8.5927987E-001	-4.506488351875759E-002	3.8723349E-005	-8.5943973E-001	0
1.8880008E+004	7.384819832957874E+001	-8.6128134E-001	-4.561869584418898E-002	3.9290531E-005	-8.6143869E-001	0
1.8749311E+004	7.404819832452631E+001	-8.6330158E-001	-4.604444398556318E-002	3.9750241E-005	-8.6343861E-001	0
1.8473980E+004	7.424819831947389E+001	-8.6528939E-001	-4.683827401942375E-002	4.0528663E-005	-8.6543846E-001	0
1.8216201E+004	7.444819831442146E+001	-8.6730170E-001	-4.761155689654707E-002	4.1293584E-005	-8.6743838E-001	0
1.7865834E+004	7.464819830936904E+001	-8.6929697E-001	-4.865695113292956E-002	4.2297339E-005	-8.6943823E-001	0
1.7528389E+004	7.484819830431661E+001	-8.7128091E-001	-4.970684414043147E-002	4.3308624E-005	-8.7143809E-001	0
1.7078525E+004	7.504819829926419E+001	-8.7329149E-001	-5.113389325231028E-002	4.4654793E-005	-8.7343800E-001	0
1.6566541E+004	7.524819829421176E+001	-8.7525034E-001	-5.283241314800824E-002	4.6241588E-005	-8.7543786E-001	0
1.6089976E+004	7.544819828915934E+001	-8.7731504E-001	-5.452556807078945E-002	4.7836100E-005	-8.7743771E-001	0
1.5444063E+004	7.564819828410691E+001	-8.7925833E-001	-5.693180355784011E-002	5.0057763E-005	-8.7943763E-001	0
1.4748939E+004	7.584819827905449E+001	-8.8126153E-001	-5.975084008528595E-002	5.2656116E-005	-8.8143742E-001	0
1.4064630E+004	7.604819827400206E+001	-8.8331133E-001	-6.280373977581699E-002	5.5475255E-005	-8.8343745E-001	0
1.3332373E+004	7.624819826894964E+001	-8.8525838E-001	-6.639916247629074E-002	5.8780413E-005	-8.8543725E-001	0
1.2580546E+004	7.644819826389721E+001	-8.8729650E-001	-7.052925323683124E-002	6.2580359E-005	-8.8743716E-001	0
1.1869298E+004	7.664819825884479E+001	-8.8928181E-001	-7.492286475668841E-002	6.6627537E-005	-8.8943708E-001	0
1.0792911E+004	7.685809825354227E+001	-8.9137053E-001	-8.258851779670506E-002	7.3616968E-005	-8.9153725E-001	0
9.9985107E+003	7.706799824823975E+001	-8.9349276E-001	-8.936258146271148E-002	7.9844816E-005	-8.9363676E-001	0
9.3686084E+003	7.726799824318732E+001	-8.9547551E-001	-9.558254796821553E-002	8.5591833E-005	-8.9563668E-001	0
8.7703623E+003	7.746799823813490E+001	-8.9747220E-001	-1.023301119639490E-001	9.1838432E-005	-8.9763647E-001	0
8.2203359E+003	7.766799823308247E+001	-8.9944619E-001	-1.094172099233519E-001	9.8414894E-005	-8.9963639E-001	0
7.6963096E+003	7.786799822803005E+001	-9.0144390E-001	-1.171267738517230E-001	1.0558322E-004	-9.0163630E-001	0
7.1976392E+003	7.806799822297762E+001	-9.0345919E-001	-1.255216005251928E-001	1.1340364E-004	-9.0363610E-001	0
6.7140698E+003	7.826799821792520E+001	-9.0547144E-001	-1.348617858973566E-001	1.2211350E-004	-9.0563637E-001	0
6.2352383E+003	7.846799821287277E+001	-9.0745908E-001	-1.455371970513544E-001	1.3206905E-004	-9.0763670E-001	0
5.7751230E+003	7.866799820782035E+001	-9.0949434E-001	-1.574848437451603E-001	1.4323158E-004	-9.0963674E-001	0
5.3306523E+003	7.886799820276792E+001	-9.1146952E-001	-1.709864907855772E-001	1.5584897E-004	-9.1163671E-001	0
4.8987998E+003	7.906799819771550E+001	-9.1348231E-001	-1.864706295755716E-001	1.7033762E-004	-9.1363668E-001	0
4.4966548E+003	7.926799819266307E+001	-9.1542321E-001	-2.035787263209345E-001	1.8636069E-004	-9.1563672E-001	0
4.1100166E+003	7.946799818761065E+001	-9.1748470E-001	-2.232313759945958E-001	2.0481137E-004	-9.1763675E-001	0
3.7467749E+003	7.966799818255822E+001	-9.1945654E-001	-2.453994594848039E-001	2.2563414E-004	-9.1963673E-001	0
3.3464893E+003	7.986799817750580E+001	-9.2150670E-001	-2.753652095511683E-001	2.5375088E-004	-9.2163664E-001	0
3.0121040E+003	8.006799817245337E+001	-9.2351782E-001	-3.066022427321788E-001	2.8315262E-004	-9.2363673E-001	0
2.7222668E+003	8.026799816740095E+001	-9.2544663E-001	-3.399544070219269E-001	3.1460967E-004	-9.2563671E-001	0
2.4468887E+003	8.046799816234852E+001	-9.2744726E-001	-3.790312584831694E-001	3.5153149E-004	-9.2763662E-001	0
2.1367251E+003	8.066799815729610E+001	-9.2948294E-001	-4.350035050271446E-001	4.0432834E-004	-9.2963678E-001	0
1.9261520E+003	8.086799815224367E+001	-9.3147433E-001	-4.835933695870396E-001	4.5045480E-004	-9.3163663E-001	0
1.7005068E+003	8.106799814719125E+001	-9.3351710E-001	-5.489640215247054E-001	5.1246729E-004	-9.3363672E-001	0
1.5136984E+003	8.126799814213882E+001	-9.3544465E-001	-6.179861825576154E-001	5.7809189E-004	-9.3563670E-001	0
1.3356669E+003	8.146799813708640E+001	-9.3746150E-001	-7.018677260211383E-001	6.5797399E-004	-9.3763679E-001	0
1.1931733E+003	8.166799813203397E+001	-9.3952501E-001	-7.874170224564558E-001	7.3979801E-004	-9.3963677E-001	0
1.0580287E+003	8.186799812698155E+001	-9.4152564E-001	-8.898867006221458E-001	8.3785114E-004	-9.4163668E-001	0
9.3754926E+002	8.206799812192912E+001	-9.4350189E-001	-1.006349113328454E+000	9.4949227E-004	-9.4363672E-001	0
8.3219324E+002	8.227799811662408E+001	-9.4558626E-001	-1.136258026277240E+000	1.0744300E-003	-9.4573677E-001	0
7.3786920E+002	8.248799811131903E+001	-9.4766051E-001	-1.284320488090623E+000	1.2170998E-003	-9.4783664E-001	0
6.6029578E+002	8.268799810626660E+001	-9.4970578E-001	-1.438303614301345E+000	1.3659652E-003	-9.4983667E-001	0
5.9052417E+002	8.288799810121418E+001	-9.5168191E-001	-1.611588369421403E+000	1.5337195E-003	-9.5183665E-001	0
5.3052252E+002	8.308799809616175E+001	-9.5370269E-001	-1.797666782019089E+000	1.7144396E-003	-9.5383674E-001	0
4.7583578E+002	8.328799809110933E+001	-9.5567745E-001	-2.008418612536932E+000	1.9194004E-003	-9.5583671E-001	0
4.3009125E+002	8.348799808605690E+001	-9.5768088E-001	-2.226692257047784E+000	2.1324607E-003	-9.5783669E-001	0
3.8861444E+002	8.368799808100448E+001	-9.5965552E-001	-2.469428325912453E+000	2.3698006E-003	-9.5983666E-001	0
3.5181586E+002	8.388799807595205E+001	-9.6168965E-001	-2.733502885770235E+000	2.6287814E-003	-9.6183670E-001	0
3.1887338E+002	8.408799807089963E+001	-9.6364594E-001	-3.022033156805968E+000	2.9121700E-003	-9.6383673E-001	0
2.9084659E+002	8.428799806584721E+001	-9.6569955E-001	-3.320305551497306E+000	3.2064177E-003	-9.6583670E-001	0
2.6524619E+002	8.448799806079478E+001	-9.6765637E-001	-3.648144242140432E+000	3.5301500E-003	-9.6783668E-001	0
2.4270161E+002	8.468799805574236E+001	-9.6967077E-001	-3.995320591256185E+000	3.8741457E-003	-9.6983671E-001	0
2.2263339E+002	8.488799805068993E+001	-9.7164083E-001	-4.364308462797112E+000	4.2405403E-003	-9.7183675E-001	0
2.0469598E+002	8.508799804563751E+001	-9.7365600E-001	-4.756595585858452E+000	4.6312879E-003	-9.7383666E-001	0
1.8882211E+002	8.528799804058508E+001	-9.7564775E-001	-5.167020679195979E+000	5.0411923E-003	-9.7583663E-001	0
1.7433815E+002	8.548799803553266E+001	-9.7767770E-001	-5.607938939853341E+000	5.4827570E-003	-9.7783673E-001	0
1.6138972E+002	8.568799803048023E+001	-9.7969002E-001	-6.070336709656424E+000	5.9470483E-003	-9.7983670E-001	0
1.4994077E+002	8.588799802542781E+001	-9.8163927E-001	-6.546846939119874E+000	6.4266422E-003	-9.8183668E-001	0
1.3944168E+002	8.608799802037538E+001	-9.8367506E-001	-7.054383454341746E+000	6.9392212E-003	-9.8383677E-001	0
1.2997177E+002	8.628799801532296E+001	-9.8566645E-001	-7.583696647971664E+000	7.4749952E-003	-9.8583663E-001	0
1.2144711E+002	8.648799801027053E+001	-9.8766053E-001	-8.132433891837032E+000	8.0320835E-003	-9.8783666E-001	0
1.1374384E+002	8.668799800521811E+001	-9.8967654E-001	-8.700923843516279E+000	8.6110998E-003	-9.8983663E-001	0
1.0678714E+002	8.688799800016568E+001	-9.9167895E-001	-9.286501784984210E+000	9.2092287E-003	-9.9183661E-001	0
1.0033978E+002	8.708799799511326E+001	-9.9370879E-001	-9.903437544767030E+000	9.8411329E-003	-9.9383658E-001	0
9.4525024E+001	8.728799799006083E+001	-9.9567831E-001	-1.053348919161324E+001	1.0487966E-002	-9.9583668E-001	0
8.8571960E+001	8.749799798475578E+001	-9.9776495E-001	-1.126502042497908E+001	1.1239843E-002	-9.9793673E-001	0
8.3402122E+001	8.770799797945074E+001	-9.9987596E-001	-1.198861562611026E+001	1.1987128E-002	-1.0000367E+000	0
7.9011963E+001	8.790799797439831E+001	-1.0018047E+000	-1.267915263035401E+001	1.2702035E-002	-1.0020367E+000	0
7.4900566E+001	8.810809796934336E+001	-1.0038985E+000	-1.340308339412192E+001	1.3455335E-002	-1.0040375E+000	0
7.1080032E+001	8.830829796428588E+001	-1.0058510E+000	-1.415096422121474E+001	1.4233762E-002	-1.0060395E+000	0
6.7619621E+001	8.850839795923093E+001	-1.0078793E+000	-1.490513052813324E+001	1.5022572E-002	-1.0080408E+000	0
6.4393715E+001	8.870849795417598E+001	-1.0098941E+000	-1.568311705862618E+001	1.5838288E-002	-1.0100415E+000	0
6.1482555E+001	8.890879794911598E+001	-1.0118830E+000	-1.645805111505416E+001	1.6653622E-002	-1.0120442E+000	0
5.8743561E+001	8.910909794405598E+001	-1.0138949E+000	-1.725967755560350E+001	1.7499499E-002	-1.0140475E+000	0
5.6179581E+001	8.930939793899597E+001	-1.0159197E+000	-1.808343344402968E+001	1.8371316E-002	-1.0160506E+000	0
5.3826588E+001	8.950989793393092E+001	-1.0178610E+000	-1.891000423201677E+001	1.9247755E-002	-1.0180548E+000	0
5.1606327E+001	8.971019792887091E+001	-1.0199279E+000	-1.976362052796377E+001	2.0157468E-002	-1.0200586E+000	0
4.9521431E+001	8.991019792381849E+001	-1.0219219E+000	-2.063595260622287E+001	2.1088332E-002	-1.0220587E+000	0
4.7598679E+001	9.011019791876606E+001	-1.0238956E+000	-2.151100887435902E+001	2.2025028E-002	-1.0240587E+000	0
4.5745159E+001	9.031049791370606E+001	-1.0259136E+000	-2.242671361601839E+001	2.3007870E-002	-1.0260613E+000	0
4.4043148E+001	9.051059790865111E+001	-1.0279249E+000	-2.333904144931535E+001	2.3990782E-002	-1.0280627E+000	0
4.2438534E+001	9.071079790359363E+001	-1.0299079E+000	-2.426822567422391E+001	2.4994038E-002	-1.0300645E+000	0
4.0924320E+001	9.091089789853868E+001	-1.0319157E+000	-2.521521858665625E+001	2.6019979E-002	-1.0320654E+000	0
3.9497288E+001	9.111129789347615E+001	-1.0339276E+000	-2.617717880780231E+001	2.7065307E-002	-1.0340695E+000	0
3.8173344E+001	9.131159788841615E+001	-1.0358973E+000	-2.713666461179719E+001	2.8110797E-002	-1.0360721E+000	0
3.6918259E+001	9.151189788335614E+001	-1.0379217E+000	-2.811404808124701E+001	2.9180180E-002	-1.0380756E+000	0
3.5703140E+001	9.171199787830119E+001	-1.0399693E+000	-2.912823217174639E+001	3.0292468E-002	-1.0400766E+000	0
3.4546726E+001	9.191199787324877E+001	-1.0419236E+000	-3.015983652771206E+001	3.1424247E-002	-1.0420767E+000	0
3.3440773E+001	9.211209786819381E+001	-1.0439290E+000	-3.121724953871433E+001	3.2588590E-002	-1.0440775E+000	0
3.2430233E+001	9.231229786313634E+001	-1.0459265E+000	-3.225158698941892E+001	3.3732787E-002	-1.0460796E+000	0
3.1485079E+001	9.251269785807381E+001	-1.0479182E+000	-3.328300942715060E+001	3.4877870E-002	-1.0480831E+000	0
3.0528931E+001	9.271299785301380E+001	-1.0499361E+000	-3.439151013519214E+001	3.6108885E-002	-1.0500867E+000	0
2.9598730E+001	9.291309784795885E+001	-1.0519385E+000	-3.553998907036788E+001	3.7385885E-002	-1.0520875E+000	0
2.8766497E+001	9.311329784290137E+001	-1.0539515E+000	-3.663815975940116E+001	3.8614843E-002	-1.0540894E+000	0
2.7984200E+001	9.331349783784390E+001	-1.0559798E+000	-3.773486064764393E+001	3.9847251E-002	-1.0560914E+000	0
2.7202660E+001	9.351369783278642E+001	-1.0579591E+000	-3.889175144426645E+001	4.1145880E-002	-1.0580934E+000	0
2.6439749E+001	9.371379782773147E+001	-1.0599610E+000	-4.008967722354305E+001	4.2493492E-002	-1.0600948E+000	0
2.5661736E+001	9.391379782267904E+001	-1.0619640E+000	-4.138317238879040E+001	4.3947440E-002	-1.0620947E+000	0
2.4980003E+001	9.411409781761904E+001	-1.0639250E+000	-4.259106902098290E+001	4.5313705E-002	-1.0640974E+000	0
2.4327028E+001	9.431429781256156E+001	-1.0659750E+000	-4.381854276260776E+001	4.6709470E-002	-1.0660995E+000	0
2.3604759E+001	9.451439780750661E+001	-1.0679762E+000	-4.524410502629473E+001	4.8319630E-002	-1.0681006E+000	0
2.2906227E+001	9.471449780245166E+001	-1.0699412E+000	-4.670961931365491E+001	4.9976543E-002	-1.0701015E+000	0
2.2322258E+001	9.491459779739671E+001	-1.0719711E+000	-4.802252061242712E+001	5.1478751E-002	-1.0721028E+000	0
2.1751123E+001	9.511469779234176E+001	-1.0739571E+000	-4.937478576814806E+001	5.3026401E-002	-1.0741035E+000	0
2.1253969E+001	9.531479778728681E+001	-1.0759532E+000	-5.062363633763516E+001	5.4468665E-002	-1.0761046E+000	0
2.0768982E+001	9.551479778223438E+001	-1.0779636E+000	-5.190257230745692E+001	5.5949084E-002	-1.0781046E+000	0
2.0287354E+001	9.571489777717943E+001	-1.0799809E+000	-5.323419025251565E+001	5.7491906E-002	-1.0801055E+000	0
1.9807407E+001	9.591509777212195E+001	-1.0819854E+000	-5.462528767666527E+001	5.9103761E-002	-1.0821077E+000	0
1.9294735E+001	9.611529776706448E+001	-1.0839791E+000	-5.618004795272805E+001	6.0897999E-002	-1.0841095E+000	0
1.8826366E+001	9.631549776200700E+001	-1.0859568E+000	-5.768276069662363E+001	6.2640987E-002	-1.0861115E+000	0
1.8409491E+001	9.651569775694952E+001	-1.0879481E+000	-5.909713276471234E+001	6.4294614E-002	-1.0881135E+000	0
1.7988089E+001	9.671589775189204E+001	-1.0899711E+000	-6.059404510395802E+001	6.6045754E-002	-1.0901154E+000	0
1.7616005E+001	9.691609774683457E+001	-1.0919585E+000	-6.198672619188869E+001	6.7686930E-002	-1.0921177E+000	0
1.7101183E+001	9.711629774177709E+001	-1.0939513E+000	-6.396933899152941E+001	6.9979347E-002	-1.0941195E+000	0
1.6764254E+001	9.731649773671961E+001	-1.0960289E+000	-6.537893001731112E+001	7.1657196E-002	-1.0961215E+000	0
1.6429890E+001	9.751669773166213E+001	-1.0979972E+000	-6.682924753333589E+001	7.3378325E-002	-1.0981236E+000	0
1.6130816E+001	9.771689772660466E+001	-1.1000060E+000	-6.819283261885818E+001	7.5012527E-002	-1.1001257E+000	0
1.5778035E+001	9.791709772154718E+001	-1.1019846E+000	-6.984295795898811E+001	7.6965868E-002	-1.1021277E+000	0
1.5424354E+001	9.811729771648970E+001	-1.1040138E+000	-7.157601667765334E+001	7.9020910E-002	-1.1041294E+000	0
1.5119034E+001	9.831759771142970E+001	-1.1059943E+000	-7.315245013658549E+001	8.0906197E-002	-1.1061323E+000	0
1.4807428E+001	9.851779770637222E+001	-1.1080227E+000	-7.482883991459835E+001	8.2912050E-002	-1.1081347E+000	0
1.4515829E+001	9.871779770131980E+001	-1.1100194E+000	-7.646958677460498E+001	8.4882729E-002	-1.1101347E+000	0
1.4245375E+001	9.891799769626232E+001	-1.1120026E+000	-7.806060596421480E+001	8.6803600E-002	-1.1121362E+000	0
1.3932992E+001	9.911839769119979E+001	-1.1140802E+000	-7.995986974443099E+001	8.9081705E-002	-1.1141403E+000	0
1.3666224E+001	9.931869768613979E+001	-1.1161145E+000	-8.166955439140077E+001	9.1152571E-002	-1.1161433E+000	0
1.3474792E+001	9.951879768108483E+001	-1.1180923E+000	-8.297659132972581E+001	9.2775486E-002	-1.1181446E+000	0
1.3212818E+001	9.971879767603241E+001	-1.1200541E+000	-8.477027015350825E+001	9.4947293E-002	-1.1201447E+000	0
1.2932565E+001	9.991899767097493E+001	-1.1221135E+000	-8.676650988224203E+001	9.7361870E-002	-1.1221462E+000	0
1.2696219E+001	1.001191976659175E+002	-1.1241180E+000	-8.853958187460069E+001	9.9528939E-002	-1.1241487E+000	0
1.2489678E+001	1.003192976608625E+002	-1.1260878E+000	-9.016147334581638E+001	1.0152973E-001	-1.1261494E+000	0
1.2289109E+001	1.005195976558025E+002	-1.1281172E+000	-9.179812463334326E+001	1.0355905E-001	-1.1281523E+000	0
1.2114823E+001	1.007198976507425E+002	-1.1301197E+000	-9.328403998253089E+001	1.0542213E-001	-1.1301556E+000	0
1.1946772E+001	1.009200976456850E+002	-1.1320935E+000	-9.476146029582742E+001	1.0727884E-001	-1.1321576E+000	0
1.1644755E+001	1.011202976406275E+002	-1.1341107E+000	-9.739239783095627E+001	1.1045376E-001	-1.1341596E+000	0
1.1251494E+001	1.013204976355701E+002	-1.1361305E+000	-1.009759642188856E+002	1.1472186E-001	-1.1361616E+000	0
1.1011843E+001	1.015205976305151E+002	-1.1381263E+000	-1.033547503834676E+002	1.1763076E-001	-1.1381627E+000	0
1.0848237E+001	1.017205976254627E+002	-1.1401024E+000	-1.050956417600583E+002	1.1981979E-001	-1.1401626E+000	0
1.0633562E+001	1.019206976204077E+002	-1.1420465E+000	-1.074001802948540E+002	1.2265600E-001	-1.1421634E+000	0
1.0385287E+001	1.021307976151002E+002	-1.1441784E+000	-1.101730095045909E+002	1.2605758E-001	-1.1442648E+000	0
1.0192343E+001	1.023407976097951E+002	-1.1462559E+000	-1.124624521964806E+002	1.2891075E-001	-1.1463647E+000	0
1.0020514E+001	1.025408976047402E+002	-1.1482749E+000	-1.145924096432741E+002	1.3158359E-001	-1.1483655E+000	0
9.8705950E+000	1.027409975996852E+002	-1.1502769E+000	-1.165357180874366E+002	1.3404834E-001	-1.1503667E+000	0
9.6790152E+000	1.029409975946328E+002	-1.1523082E+000	-1.190522188913258E+002	1.3718486E-001	-1.1523666E+000	0
9.5031662E+000	1.031409975895804E+002	-1.1542908E+000	-1.214638157982947E+002	1.4020456E-001	-1.1543667E+000	0
9.3778992E+000	1.033411975845229E+002	-1.1562661E+000	-1.232969222487154E+002	1.4256404E-001	-1.1563684E+000	0
9.2101984E+000	1.035414975794629E+002	-1.1583185E+000	-1.257647695222104E+002	1.4567566E-001	-1.1583716E+000	0
8.9991388E+000	1.037418975744004E+002	-1.1603106E+000	-1.289357450764241E+002	1.4960551E-001	-1.1603750E+000	0
8.8595963E+000	1.039423975693353E+002	-1.1622936E+000	-1.311903481526811E+002	1.5248169E-001	-1.1623802E+000	0
8.7155657E+000	1.041426975642753E+002	-1.1643291E+000	-1.335919048205985E+002	1.5554494E-001	-1.1643834E+000	0
8.5694771E+000	1.043429975592153E+002	-1.1662902E+000	-1.360981741054782E+002	1.5872996E-001	-1.1663862E+000	0
8.4392099E+000	1.045433975541528E+002	-1.1682959E+000	-1.384366350121441E+002	1.6173495E-001	-1.1683903E+000	0
8.2972155E+000	1.047437975490902E+002	-1.1703269E+000	-1.410505673487164E+002	1.6507529E-001	-1.1703943E+000	0
8.2083483E+000	1.049440975440302E+002	-1.1723372E+000	-1.428225370378632E+002	1.6743617E-001	-1.1723975E+000	0
8.1852903E+000	1.051443975389702E+002	-1.1742839E+000	-1.434627047084625E+002	1.6846594E-001	-1.1744006E+000	0
8.0457659E+000	1.053443975339178E+002	-1.1762943E+000	-1.462004234925951E+002	1.7197473E-001	-1.1764007E+000	0
7.8743501E+000	1.055443975288654E+002	-1.1783060E+000	-1.496385041126583E+002	1.7631994E-001	-1.1784008E+000	0
7.7672663E+000	1.057443975238130E+002	-1.1802974E+000	-1.519578846274052E+002	1.7935549E-001	-1.1804007E+000	0
7.6419883E+000	1.059445975187555E+002	-1.1823087E+000	-1.547121787352053E+002	1.8291755E-001	-1.1824024E+000	0
7.5382762E+000	1.061448975136955E+002	-1.1843168E+000	-1.571071042623764E+002	1.8606457E-001	-1.1844056E+000	0
7.4578280E+000	1.063450975086380E+002	-1.1862477E+000	-1.590607484059640E+002	1.8868545E-001	-1.1864076E+000	0
7.2922831E+000	1.065452975035805E+002	-1.1882985E+000	-1.629528698484919E+002	1.9363664E-001	-1.1884094E+000	0
7.2092280E+000	1.067455974985205E+002	-1.1903577E+000	-1.651158343780239E+002	1.9654690E-001	-1.1904122E+000	0
7.0507669E+000	1.069457974934630E+002	-1.1923406E+000	-1.691079267471554E+002	2.0163424E-001	-1.1924148E+000	0
6.9460707E+000	1.071457974884106E+002	-1.1943508E+000	-1.719462579491458E+002	2.0536415E-001	-1.1944147E+000	0
6.9048643E+000	1.073458974833557E+002	-1.1963400E+000	-1.732604559364795E+002	2.0727840E-001	-1.1964155E+000	0
6.8346863E+000	1.075462974782931E+002	-1.1983248E+000	-1.753298953796478E+002	2.1010216E-001	-1.1984189E+000	0
6.7084908E+000	1.077468974732255E+002	-1.2003419E+000	-1.789287538177243E+002	2.1477568E-001	-1.2004254E+000	0
6.6508012E+000	1.079469974681706E+002	-1.2023520E+000	-1.807830444809533E+002	2.1736486E-001	-1.2024267E+000	0
6.5801101E+000	1.081471974631131E+002	-1.2043630E+000	-1.830308274182607E+002	2.2043556E-001	-1.2044286E+000	0
6.4924707E+000	1.083472974580582E+002	-1.2063581E+000	-1.858087758029523E+002	2.2415192E-001	-1.2064296E+000	0
6.3620625E+000	1.085474974530007E+002	-1.2083282E+000	-1.899271317018774E+002	2.2949432E-001	-1.2084315E+000	0
6.2892418E+000	1.087477974479407E+002	-1.2103555E+000	-1.924485589764827E+002	2.3293118E-001	-1.2104346E+000	0
6.2801147E+000	1.089478974428857E+002	-1.2123437E+000	-1.930448318610937E+002	2.3403668E-001	-1.2124354E+000	0
6.2400556E+000	1.091482974378232E+002	-1.2143776E+000	-1.946100676875694E+002	2.3633012E-001	-1.2144394E+000	0
6.1631951E+000	1.093483974327683E+002	-1.2163984E+000	-1.973648871542921E+002	2.4007432E-001	-1.2164407E+000	0
6.0720649E+000	1.095484974277133E+002	-1.2183590E+000	-2.006498700036800E+002	2.4446358E-001	-1.2184416E+000	0
5.9740863E+000	1.097485974226583E+002	-1.2203918E+000	-2.042809012817415E+002	2.4930273E-001	-1.2204428E+000	0
5.8957329E+000	1.099486974176034E+002	-1.2223736E+000	-2.073319194679466E+002	2.5343707E-001	-1.2224435E+000	0
5.8332772E+000	1.101488974125459E+002	-1.2243471E+000	-2.098901008848657E+002	2.5697833E-001	-1.2244455E+000	0
5.7703943E+000	1.103489974074910E+002	-1.2263683E+000	-2.125276401978226E+002	2.6063716E-001	-1.2264466E+000	0
5.7357121E+000	1.105490974024360E+002	-1.2283821E+000	-2.141638470675816E+002	2.6307502E-001	-1.2284476E+000	0
5.6272883E+000	1.107491973973811E+002	-1.2303742E+000	-2.186442454201833E+002	2.6901424E-001	-1.2304487E+000	0
5.5696235E+000	1.109491973923286E+002	-1.2323760E+000	-2.212673854092618E+002	2.7268460E-001	-1.2324487E+000	0
5.4915090E+000	1.111494973872686E+002	-1.2343731E+000	-2.247784969182067E+002	2.7746052E-001	-1.2344514E+000	0
5.4201665E+000	1.113495973822137E+002	-1.2364113E+000	-2.281131738848690E+002	2.8204170E-001	-1.2364527E+000	0
5.4062443E+000	1.115498973771537E+002	-1.2383866E+000	-2.290659708802364E+002	2.8367224E-001	-1.2384554E+000	0
5.3607268E+000	1.117499973720987E+002	-1.2404014E+000	-2.313867852714870E+002	2.8701249E-001	-1.2404567E+000	0
5.2970705E+000	1.119500973670438E+002	-1.2423886E+000	-2.345425764576557E+002	2.9139301E-001	-1.2424576E+000	0
5.2417250E+000	1.121503973619838E+002	-1.2444365E+000	-2.374097215906786E+002	2.9544133E-001	-1.2444606E+000	0
5.2329159E+000	1.123504973569288E+002	-1.2464092E+000	-2.381863547389358E+002	2.9687765E-001	-1.2464615E+000	0
5.1616907E+000	1.125505973518739E+002	-1.2484044E+000	-2.418595873925688E+002	3.0193856E-001	-1.2484627E+000	0
5.1255136E+000	1.127505973468215E+002	-1.2504076E+000	-2.439575178877295E+002	3.0504632E-001	-1.2504628E+000	0
5.0655055E+000	1.129506973417665E+002	-1.2524185E+000	-2.472445330601136E+002	3.0965364E-001	-1.2524636E+000	0
5.0116186E+000	1.131507973367115E+002	-1.2544405E+000	-2.503064703887278E+002	3.1399459E-001	-1.2544649E+000	0
4.9652505E+000	1.133507973316591E+002	-1.2564563E+000	-2.530499168145152E+002	3.1794617E-001	-1.2564647E+000	0
4.9249201E+000	1.135408973268568E+002	-1.2583368E+000	-2.555040039827818E+002	3.2151008E-001	-1.2583653E+000	0
4.8833780E+000	1.136914973230523E+002	-1.2599033E+000	-2.579983211871917E+002	3.2505295E-001	-1.2598703E+000	0
4.8794861E+000	1.138419973192504E+002	-1.2612917E+000	-2.584886556939600E+002	3.2602960E-001	-1.2613759E+000	0
4.8694248E+000	1.139724973159537E+002	-1.2626572E+000	-2.593031373183180E+002	3.2741097E-001	-1.2626805E+000	0
4.8476067E+000	1.141028973126595E+002	-1.2639503E+000	-2.607369759724443E+002	3.2955858E-001	-1.2639846E+000	0
4.7770839E+000	1.142331973093678E+002	-1.2652750E+000	-2.648634705164914E+002	3.3512512E-001	-1.2652873E+000	0
4.7029643E+000	1.143637973060686E+002	-1.2665273E+000	-2.693040381722176E+002	3.4108090E-001	-1.2665941E+000	0
4.6754098E+000	1.145040973025243E+002	-1.2679937E+000	-2.712048098948753E+002	3.4388599E-001	-1.2679968E+000	0
4.6626182E+000	1.146445972989750E+002	-1.2693938E+000	-2.722491551561743E+002	3.4559140E-001	-1.2694013E+000	0
4.6627197E+000	1.147754972956682E+002	-1.2707292E+000	-2.725296007155280E+002	3.4631133E-001	-1.2707105E+000	0
4.6400180E+000	1.148961972926190E+002	-1.2718997E+000	-2.741152661835681E+002	3.4864712E-001	-1.2719175E+000	0
4.6283660E+000	1.150170972895648E+002	-1.2731090E+000	-2.750665995874360E+002	3.5018975E-001	-1.2731267E+000	0
4.5972357E+000	1.151777972855052E+002	-1.2747082E+000	-2.772771007446585E+002	3.5344738E-001	-1.2747338E+000	0
4.5900006E+000	1.153481972812006E+002	-1.2764314E+000	-2.780895893279203E+002	3.5496229E-001	-1.2764382E+000	0
4.5480285E+000	1.154786972779038E+002	-1.2777332E+000	-2.809422074630911E+002	3.5896918E-001	-1.2777423E+000	0
4.4951982E+000	1.156091972746071E+002	-1.2790043E+000	-2.845267933527681E+002	3.6391100E-001	-1.2790475E+000	0
4.3923278E+000	1.157395972713130E+002	-1.2803055E+000	-2.914867908999563E+002	3.7319213E-001	-1.2803516E+000	0
4.3798590E+000	1.158702972680112E+002	-1.2815989E+000	-2.926119200566454E+002	3.7501112E-001	-1.2816589E+000	0
4.3808846E+000	1.160204972642168E+002	-1.2831877E+000	-2.929060916399731E+002	3.7585351E-001	-1.2831612E+000	0
4.3822718E+000	1.161610972606650E+002	-1.2846055E+000	-2.931368731299676E+002	3.7656525E-001	-1.2845669E+000	0
4.3485985E+000	1.163014972571182E+002	-1.2859606E+000	-2.957183811056441E+002	3.8028216E-001	-1.2859706E+000	0
4.3223929E+000	1.164420972535663E+002	-1.2873477E+000	-2.978321777437927E+002	3.8341355E-001	-1.2873769E+000	0
4.3097215E+000	1.166123972492642E+002	-1.2890986E+000	-2.991141402411199E+002	3.8558763E-001	-1.2890798E+000	0
4.3192568E+000	1.167829972449545E+002	-1.2907631E+000	-2.988391636727865E+002	3.8573056E-001	-1.2907863E+000	0
4.3196120E+000	1.169332972411576E+002	-1.2923232E+000	-2.991757494572837E+002	3.8663176E-001	-1.2922893E+000	0
4.3262739E+000	1.170735972376133E+002	-1.2936530E+000	-2.990224451483336E+002	3.8683128E-001	-1.2936920E+000	0
4.2778931E+000	1.172140972340640E+002	-1.2950592E+000	-3.027329481570036E+002	3.9205709E-001	-1.2950972E+000	0
4.2226248E+000	1.173545972305146E+002	-1.2965326E+000	-3.070442503383986E+002	3.9809290E-001	-1.2965020E+000	0
4.1693034E+000	1.174950972269653E+002	-1.2979064E+000	-3.113005256036186E+002	4.0403894E-001	-1.2979071E+000	0
4.1720948E+000	1.176354972234185E+002	-1.2993100E+000	-3.114286631428804E+002	4.0464237E-001	-1.2993109E+000	0
4.1887345E+000	1.177858972196191E+002	-1.3008262E+000	-3.105535003516109E+002	4.0397611E-001	-1.3008146E+000	0
4.1856489E+000	1.179365972158121E+002	-1.3023516E+000	-3.111468625846801E+002	4.0522262E-001	-1.3023216E+000	0
4.1269455E+000	1.180673972125078E+002	-1.3035904E+000	-3.158729382103738E+002	4.1176894E-001	-1.3036302E+000	0
4.0496950E+000	1.182178972087058E+002	-1.3051561E+000	-3.222850217457508E+002	4.2063227E-001	-1.3051349E+000	0
4.0377536E+000	1.183682972049064E+002	-1.3066522E+000	-3.236087084014603E+002	4.2284402E-001	-1.3066390E+000	0
4.0349188E+000	1.184990972016021E+002	-1.3079100E+000	-3.241477708287025E+002	4.2395610E-001	-1.3079472E+000	0
4.0114570E+000	1.186297971983004E+002	-1.3092492E+000	-3.263774607213099E+002	4.2730942E-001	-1.3092542E+000	0
3.9723101E+000	1.187902971942458E+002	-1.3108159E+000	-3.299883290900034E+002	4.3255395E-001	-1.3108588E+000	0
3.9805007E+000	1.189407971904438E+002	-1.3123658E+000	-3.296986747180745E+002	4.3268526E-001	-1.3123641E+000	0
3.9755304E+000	1.191007971864019E+002	-1.3139381E+000	-3.305063855416165E+002	4.3426496E-001	-1.3139638E+000	0
3.9743571E+000	1.192114971836054E+002	-1.3150498E+000	-3.308836489779496E+002	4.3512848E-001	-1.3150699E+000	0
3.9277771E+000	1.193221971808089E+002	-1.3161854E+000	-3.350967663241327E+002	4.4104946E-001	-1.3161781E+000	0
3.8773694E+000	1.194524971775172E+002	-1.3175101E+000	-3.397948511087734E+002	4.4768316E-001	-1.3174808E+000	0
3.8953393E+000	1.195531971749733E+002	-1.3185126E+000	-3.384846543929489E+002	4.4629627E-001	-1.3184876E+000	0
3.8760195E+000	1.196934971714290E+002	-1.3199059E+000	-3.405312884028262E+002	4.4946924E-001	-1.3198909E+000	0
3.8676634E+000	1.198343971678696E+002	-1.3213513E+000	-3.416407258127319E+002	4.5142740E-001	-1.3212997E+000	0
3.8520272E+000	1.199651971645653E+002	-1.3225819E+000	-3.433469728266373E+002	4.5410448E-001	-1.3226080E+000	0
3.8356063E+000	1.201255971605133E+002	-1.3242170E+000	-3.452431922929813E+002	4.5717689E-001	-1.3242118E+000	0
3.8459613E+000	1.202862971564537E+002	-1.3258315E+000	-3.447334524355215E+002	4.5705849E-001	-1.3258189E+000	0
3.8601115E+000	1.204070971534020E+002	-1.3270971E+000	-3.437975988779781E+002	4.5625278E-001	-1.3270273E+000	0
3.8761833E+000	1.204981971511006E+002	-1.3278726E+000	-3.425721985888995E+002	4.5489225E-001	-1.3279369E+000	0
3.8751898E+000	1.205100971508000E+002	-1.3280591E+000	-3.427081491284880E+002	4.5513666E-001	-1.3280556E+000	0
3.8733118E+000	1.205218971505019E+002	-1.3282259E+000	-3.429173605442024E+002	4.5547169E-001	-1.3281745E+000	0
3.8550453E+000	1.206229971479479E+002	-1.3291863E+000	-3.447913504712969E+002	4.5829195E-001	-1.3291858E+000	0
3.8301456E+000	1.207835971438908E+002	-1.3308022E+000	-3.474547305797096E+002	4.6239352E-001	-1.3307920E+000	0
3.7956767E+000	1.208942971410943E+002	-1.3319209E+000	-3.509047258739495E+002	4.6737733E-001	-1.3318986E+000	0
3.7703259E+000	1.210046971383053E+002	-1.3329700E+000	-3.535423933275779E+002	4.7126141E-001	-1.3330026E+000	0
3.7393672E+000	1.211349971350137E+002	-1.3343357E+000	-3.568346136826922E+002	4.7613716E-001	-1.3343061E+000	0
3.6829154E+000	1.212752971314694E+002	-1.3357385E+000	-3.626850979701449E+002	4.8445246E-001	-1.3357084E+000	0
3.6776192E+000	1.213962971284127E+002	-1.3369571E+000	-3.635387421995802E+002	4.8603570E-001	-1.3369182E+000	0
3.6999726E+000	1.215370971248558E+002	-1.3383787E+000	-3.617266376827611E+002	4.8412722E-001	-1.3383267E+000	0
3.6611936E+000	1.216576971218092E+002	-1.3395709E+000	-3.658836401880992E+002	4.9012706E-001	-1.3395327E+000	0
3.6058342E+000	1.217881971185125E+002	-1.3408848E+000	-3.718653381822451E+002	4.9862859E-001	-1.3408381E+000	0
3.5961387E+000	1.219186971152158E+002	-1.3422093E+000	-3.732362535867269E+002	5.0096118E-001	-1.3421428E+000	0
3.5201998E+000	1.220591971116664E+002	-1.3436124E+000	-3.816864180264483E+002	5.1283860E-001	-1.3435481E+000	0
3.4807391E+000	1.221997971081146E+002	-1.3450085E+000	-3.864146174018165E+002	5.1973093E-001	-1.3449537E+000	0
3.4960580E+000	1.223403971045627E+002	-1.3464566E+000	-3.851356782349167E+002	5.1856852E-001	-1.3463597E+000	0
3.4678524E+000	1.224809971010109E+002	-1.3477831E+000	-3.886506628264478E+002	5.2381676E-001	-1.3477657E+000	0
3.4283702E+000	1.226414970969563E+002	-1.3494170E+000	-3.936030335528135E+002	5.3113461E-001	-1.3493706E+000	0
3.4526572E+000	1.227918970931569E+002	-1.3509167E+000	-3.912687115691720E+002	5.2857143E-001	-1.3508751E+000	0
3.4634335E+000	1.229423970893549E+002	-1.3524430E+000	-3.904919806654152E+002	5.2811813E-001	-1.3523797E+000	0
3.4310045E+000	1.230727970860607E+002	-1.3537605E+000	-3.945668029388119E+002	5.3414893E-001	-1.3536835E+000	0
3.4220824E+000	1.231932970830167E+002	-1.3549528E+000	-3.959439436894058E+002	5.3648537E-001	-1.3548887E+000	0
3.4190230E+000	1.233237970797200E+002	-1.3562523E+000	-3.966783237365871E+002	5.3799587E-001	-1.3561937E+000	0
3.3795848E+000	1.234344970769234E+002	-1.3573576E+000	-4.016344378340746E+002	5.4516155E-001	-1.3573010E+000	0
3.3916028E+000	1.235647970736318E+002	-1.3586587E+000	-4.005948636451794E+002	5.4427171E-001	-1.3586035E+000	0
3.3957169E+000	1.236852970705877E+002	-1.3598722E+000	-4.004669010330363E+002	5.4458380E-001	-1.3598093E+000	0
3.3944368E+000	1.238254970670459E+002	-1.3612545E+000	-4.010251242732738E+002	5.4589725E-001	-1.3612107E+000	0
3.3350732E+000	1.239759970632440E+002	-1.3628412E+000	-4.086390814835468E+002	5.5691022E-001	-1.3627160E+000	0
3.3104980E+000	1.241264970594420E+002	-1.3642066E+000	-4.120850095484084E+002	5.6216908E-001	-1.3642206E+000	0
3.2977550E+000	1.242374970566379E+002	-1.3654134E+000	-4.140433231658299E+002	5.6534034E-001	-1.3653305E+000	0
3.3116558E+000	1.243782970530810E+002	-1.3668247E+000	-4.127315196258896E+002	5.6413168E-001	-1.3667394E+000	0
3.2591934E+000	1.245389970490214E+002	-1.3683788E+000	-4.198519497885982E+002	5.7451648E-001	-1.3683456E+000	0
3.2373567E+000	1.247191970444692E+002	-1.3701717E+000	-4.232377728053480E+002	5.7990843E-001	-1.3701485E+000	0
3.2555680E+000	1.249191970394168E+002	-1.3721924E+000	-4.214909361408951E+002	5.7836664E-001	-1.3721485E+000	0
3.2697864E+000	1.251191970343643E+002	-1.3741963E+000	-4.202709697628238E+002	5.7753479E-001	-1.3741485E+000	0
3.2479877E+000	1.253191970293119E+002	-1.3761793E+000	-4.237021398522684E+002	5.8309013E-001	-1.3761485E+000	0
3.2184560E+000	1.255191970242595E+002	-1.3781816E+000	-4.282120199484643E+002	5.9015393E-001	-1.3781484E+000	0
3.2166939E+000	1.257191970192071E+002	-1.3802086E+000	-4.290767672575548E+002	5.9221548E-001	-1.3801485E+000	0
3.1924841E+000	1.259191970141546E+002	-1.3822032E+000	-4.329553927639972E+002	5.9843236E-001	-1.3821485E+000	0
3.1640935E+000	1.261191970091022E+002	-1.3842485E+000	-4.374865918062169E+002	6.0559016E-001	-1.3841485E+000	0
3.1721170E+000	1.263191970040498E+002	-1.3862177E+000	-4.370008215482530E+002	6.0577828E-001	-1.3861485E+000	0
3.1633222E+000	1.265191969989974E+002	-1.3882182E+000	-4.388481606334262E+002	6.0921699E-001	-1.3881485E+000	0
3.1465430E+000	1.267191969939449E+002	-1.3902138E+000	-4.418226219315638E+002	6.1422795E-001	-1.3901485E+000	0
3.1528988E+000	1.269191969888925E+002	-1.3922582E+000	-4.415803442282458E+002	6.1479384E-001	-1.3921486E+000	0
3.1125042E+000	1.271191969838401E+002	-1.3942341E+000	-4.479460772430008E+002	6.2454170E-001	-1.3941485E+000	0
3.1177592E+000	1.273191969787877E+002	-1.3962363E+000	-4.478332639464970E+002	6.2528104E-001	-1.3961483E+000	0
3.0399771E+000	1.275191969737352E+002	-1.3982050E+000	-4.599393513608147E+002	6.4308953E-001	-1.3981484E+000	0
3.0100477E+000	1.277191969686828E+002	-1.4002537E+000	-4.651931667846902E+002	6.5138841E-001	-1.4001485E+000	0
2.9955006E+000	1.279191969636304E+002	-1.4022555E+000	-4.681206033235248E+002	6.5642470E-001	-1.4021486E+000	0
2.9750097E+000	1.281191969585780E+002	-1.4042434E+000	-4.720130190557338E+002	6.6282111E-001	-1.4041485E+000	0
2.9660041E+000	1.283191969535255E+002	-1.4062551E+000	-4.741244677632258E+002	6.6673994E-001	-1.4061486E+000	0
2.9378147E+000	1.285191969484731E+002	-1.4082372E+000	-4.793485609257859E+002	6.7503649E-001	-1.4081484E+000	0
2.8890491E+000	1.287191969434207E+002	-1.4102290E+000	-4.881291036194971E+002	6.8837380E-001	-1.4101485E+000	0
2.9001729E+000	1.289191969383683E+002	-1.4122256E+000	-4.869452951738340E+002	6.8767661E-001	-1.4121486E+000	0
2.9005573E+000	1.291191969333158E+002	-1.4142212E+000	-4.875687708346486E+002	6.8953007E-001	-1.4141484E+000	0
2.9119136E+000	1.293191969282634E+002	-1.4162494E+000	-4.863638067656366E+002	6.8881243E-001	-1.4161485E+000	0
2.8933995E+000	1.295191969232110E+002	-1.4182327E+000	-4.901613666248995E+002	6.9516289E-001	-1.4181484E+000	0
2.8834651E+000	1.297191969181586E+002	-1.4202476E+000	-4.925488925855987E+002	6.9954139E-001	-1.4201485E+000	0
2.8994088E+000	1.299191969131061E+002	-1.4222239E+000	-4.905220204264651E+002	6.9763213E-001	-1.4221485E+000	0
2.8984568E+000	1.301191969080537E+002	-1.4242246E+000	-4.913734264590021E+002	6.9982612E-001	-1.4241484E+000	0
2.8349900E+000	1.303191969030013E+002	-1.4262180E+000	-5.030768965420530E+002	7.1749735E-001	-1.4261485E+000	0
2.7873051E+000	1.305191968979489E+002	-1.4282284E+000	-5.124047706413703E+002	7.3183101E-001	-1.4281484E+000	0
2.7994890E+000	1.307191968928964E+002	-1.4302346E+000	-5.108912825249217E+002	7.3069435E-001	-1.4301485E+000	0
2.8333147E+000	1.309191968878440E+002	-1.4322588E+000	-5.055064496712912E+002	7.2401607E-001	-1.4321486E+000	0
2.8090370E+000	1.311191968827916E+002	-1.4344902E+000	-5.106697286272811E+002	7.3255074E-001	-1.4341484E+000	0
2.7952347E+000	1.313191968777392E+002	-1.4367810E+000	-5.140108650492953E+002	7.3852110E-001	-1.4361485E+000	0
2.7969909E+000	1.315191968726867E+002	-1.4387298E+000	-5.143848754683868E+002	7.4006081E-001	-1.4381485E+000	0
2.7538681E+000	1.317191968676343E+002	-1.4407611E+000	-5.231772347361584E+002	7.5377339E-001	-1.4401485E+000	0
2.7345436E+000	1.319191968625819E+002	-1.4427855E+000	-5.276147419719746E+002	7.6123488E-001	-1.4421486E+000	0
2.7379022E+000	1.321191968575295E+002	-1.4447805E+000	-5.276961714210406E+002	7.6240510E-001	-1.4441487E+000	0
2.7402813E+000	1.323191968524770E+002	-1.4467769E+000	-5.279665360785948E+002	7.6384979E-001	-1.4461485E+000	0
2.7435992E+000	1.325191968474246E+002	-1.4487590E+000	-5.280505316727817E+002	7.6501793E-001	-1.4481485E+000	0
2.7519224E+000	1.327191968423722E+002	-1.4507507E+000	-5.271771711016445E+002	7.6480263E-001	-1.4501485E+000	0
2.7512064E+000	1.329191968373198E+002	-1.4527602E+000	-5.280448044497966E+002	7.6712251E-001	-1.4521486E+000	0
2.6980081E+000	1.331191968322673E+002	-1.4547974E+000	-5.392116728672358E+002	7.8444374E-001	-1.4541485E+000	0
2.6806936E+000	1.333191968272149E+002	-1.4568161E+000	-5.434474314129511E+002	7.9170293E-001	-1.4561485E+000	0
2.6915145E+000	1.335191968221625E+002	-1.4588319E+000	-5.420115191574259E+002	7.9070371E-001	-1.4581485E+000	0
2.6762862E+000	1.337191968171101E+002	-1.4607514E+000	-5.458128488328712E+002	7.9729688E-001	-1.4601486E+000	0
2.6522775E+000	1.339191968120576E+002	-1.4627929E+000	-5.515233168915563E+002	8.0676436E-001	-1.4621485E+000	0
2.6168573E+000	1.341191968070052E+002	-1.4648261E+000	-5.597653616734351E+002	8.1995893E-001	-1.4641485E+000	0
2.5986972E+000	1.343191968019528E+002	-1.4668039E+000	-5.644381785619807E+002	8.2792014E-001	-1.4661486E+000	0
2.6009238E+000	1.345191967969004E+002	-1.4688007E+000	-5.647226748823341E+002	8.2946503E-001	-1.4681485E+000	0
2.6252635E+000	1.347191967918479E+002	-1.4708127E+000	-5.602533583176098E+002	8.2402772E-001	-1.4701486E+000	0
2.6261888E+000	1.348791967878060E+002	-1.4724522E+000	-5.606802486497545E+002	8.2557487E-001	-1.4717484E+000	0
2.6363957E+000	1.349301967865176E+002	-1.4730691E+000	-5.587435546875004E+002	8.2306784E-001	-1.4724482E+000	1