EC-Lab ASCII FILE
Nb header lines : 63                          

Linear Sweep Voltammetry

Run on channel : 1 (SN 1340)
User : 
Electrode connection : standard
Potential control : Ewe
Ewe ctrl range : min = -5.00 V, max = 5.00 V
Ewe,I filtering : <None>
Safety Limits :
	Do not start on E overload
Channel : Floating
Acquisition started on : 03/03/2026 16:40:59.806
Technique started on : 03/03/2026 16:41:02.643
Loaded Setting File :  NONE
Saved on :
	File : X18_75_N52magB_flat_3-3_02_LSV_C01.mpr
	Directory : C:\Users\volt\Documents\Platalytix\
	Host : 127.0.0.1
Device : SP-200 (SN 0262)
Address : USB
EC-LAB for windows v11.60 (software)
Internet server v11.60 (firmware)
Command interpretor v11.60 (firmware)
Electrode material : Ni40
Initial state : 
Electrolyte : KOH (1 M)
Comments : with magnet side B (-), N52 Nd magnet, alloy placed lying flat on magnet
Cable : standard
Reference electrode : Hg/HgO (0.140 V)
Electrode surface area : 1.000 cm˛
Characteristic mass : 0.001 g
Equivalent Weight : 0.000 g/eq.
Density : 0.000 g/cm3
Volume (V) : 0.001 cmł
Cycle Definition : Charge/Discharge alternance
tR (h:m:s)          0:00:5.0000         
dER/dt (mV/h)       0.0                 
dER (mV)            0                   
dtR (s)             0.0000              
dE/dt               10.000              
dE/dt unit          mV/s                
Ei (V)              -0.200              
vs.                 Ref                 
EL (V)              -2.500              
vs.                 Ref                 
record              <I>                 
dI                  0.000               
unit dI             µA                  
tI (s)              0.0000              
step percent        50                  
N                   10                  
E range min (V)     -5.000              
E range max (V)     5.000               
I Range             Auto                
I Range min         Unset               
I Range max         Unset               
I Range init        Unset               
Bandwidth           8                   

Rwe/Ohm	time/s	Ewe/V	<I>/mA	Pwe/W	control/V	error	
0.0000000E+000	2.837400134740165E+000	-1.6583820E-001	0.000000000000000E+000	0.0000000E+000	0.0000000E+000	0
0.0000000E+000	7.837200008434593E+000	-7.6156937E-002	0.000000000000000E+000	0.0000000E+000	-1.9987875E-001	0
2.5407781E+003	8.037200003382168E+000	-2.0154323E-001	7.932342579588295E-002	-1.5987100E-005	-2.0177853E-001	0
2.9213069E+003	8.157200000350713E+000	-2.0277520E-001	-6.941249228548274E-002	1.4075132E-005	-2.0297860E-001	0
2.5029319E+003	8.367199995045667E+000	-2.0486395E-001	-8.184958829189670E-002	1.6768030E-005	-2.0507857E-001	0
2.5833638E+003	8.567199989993242E+000	-2.0688103E-001	-8.008203701466718E-002	1.6567454E-005	-2.0707859E-001	0
2.6947373E+003	8.767199984940817E+000	-2.0890832E-001	-7.752455983103990E-002	1.6195525E-005	-2.0907858E-001	0
2.8052644E+003	8.967199979888392E+000	-2.1090226E-001	-7.518088167729664E-002	1.5855818E-005	-2.1107858E-001	0
2.9121912E+003	9.167199974835967E+000	-2.1286735E-001	-7.309525282029272E-002	1.5559594E-005	-2.1307859E-001	0
3.0140405E+003	9.367199969783542E+000	-2.1487996E-001	-7.129298771790693E-002	1.5319434E-005	-2.1507856E-001	0
3.1102695E+003	9.567199964731117E+000	-2.1688943E-001	-6.973332063983395E-002	1.5124420E-005	-2.1707858E-001	0
3.1999485E+003	9.767199959678692E+000	-2.1886939E-001	-6.839778481469483E-002	1.4970181E-005	-2.1907859E-001	0
3.2884624E+003	9.967199954626267E+000	-2.2090025E-001	-6.717432839183490E-002	1.4838826E-005	-2.2107857E-001	0
3.3698132E+003	1.016719994957384E+001	-2.2286747E-001	-6.613644706919519E-002	1.4739663E-005	-2.2307858E-001	0
3.4514124E+003	1.036719994452142E+001	-2.2487502E-001	-6.515449032297260E-002	1.4651617E-005	-2.2507860E-001	0
3.5298894E+003	1.056719993946899E+001	-2.2687003E-001	-6.427114213396545E-002	1.4581196E-005	-2.2707857E-001	0
3.6041853E+003	1.076719993441657E+001	-2.2887501E-001	-6.350256682293354E-002	1.4534151E-005	-2.2907858E-001	0
3.6812891E+003	1.096719992936414E+001	-2.3089591E-001	-6.272148351658076E-002	1.4482134E-005	-2.3107859E-001	0
3.7516079E+003	1.116719992431172E+001	-2.3289073E-001	-6.207757412779069E-002	1.4457291E-005	-2.3307855E-001	0
3.8232476E+003	1.136719991925929E+001	-2.3492308E-001	-6.144594932724701E-002	1.4435072E-005	-2.3507859E-001	0
3.8932185E+003	1.156719991420687E+001	-2.3690154E-001	-6.084979112447986E-002	1.4415409E-005	-2.3707859E-001	0
3.9594810E+003	1.176719990915444E+001	-2.3888808E-001	-6.033318115096276E-002	1.4412878E-005	-2.3907858E-001	0
4.0282793E+003	1.196719990410202E+001	-2.4088541E-001	-5.979858615484246E-002	1.4404607E-005	-2.4107859E-001	0
4.0964531E+003	1.216719989904959E+001	-2.4290527E-001	-5.929648478266239E-002	1.4403429E-005	-2.4307859E-001	0
4.1609185E+003	1.236719989399717E+001	-2.4490581E-001	-5.885859446910557E-002	1.4414812E-005	-2.4507859E-001	0
4.2249653E+003	1.256719988894474E+001	-2.4688977E-001	-5.843592668110598E-002	1.4427233E-005	-2.4707857E-001	0
4.2908418E+003	1.276719988389232E+001	-2.4889585E-001	-5.800629835871479E-002	1.4437527E-005	-2.4907860E-001	0
4.3567480E+003	1.296719987883989E+001	-2.5086793E-001	-5.758146705241052E-002	1.4445343E-005	-2.5107858E-001	0
4.4170586E+003	1.316719987378747E+001	-2.5290751E-001	-5.725699815795671E-002	1.4480725E-005	-2.5307858E-001	0
4.4821465E+003	1.336719986873504E+001	-2.5486603E-001	-5.686249490563333E-002	1.4492319E-005	-2.5507858E-001	0
4.5453906E+003	1.356719986368262E+001	-2.5689945E-001	-5.651867106744840E-002	1.4519615E-005	-2.5707856E-001	0
4.6063115E+003	1.376719985863019E+001	-2.5887027E-001	-5.619903564212336E-002	1.4548260E-005	-2.5907856E-001	0
4.6685566E+003	1.396719985357777E+001	-2.6087061E-001	-5.587821258094716E-002	1.4576983E-005	-2.6107860E-001	0
4.7330732E+003	1.416719984852534E+001	-2.6286137E-001	-5.553714391065845E-002	1.4598570E-005	-2.6307857E-001	0
4.7899761E+003	1.436719984347292E+001	-2.6488483E-001	-5.529982159062041E-002	1.4648083E-005	-2.6507857E-001	0
4.8524473E+003	1.456719983842049E+001	-2.6687667E-001	-5.499836795724707E-002	1.4677781E-005	-2.6707858E-001	0
4.9136499E+003	1.476719983336807E+001	-2.6889417E-001	-5.472391647183206E-002	1.4714942E-005	-2.6907858E-001	0
4.9728872E+003	1.496719982831564E+001	-2.7088770E-001	-5.447292254758296E-002	1.4756045E-005	-2.7107859E-001	0
5.0328887E+003	1.516719982326322E+001	-2.7288613E-001	-5.422057951441520E-002	1.4796044E-005	-2.7307859E-001	0
5.0983252E+003	1.536719981821079E+001	-2.7489236E-001	-5.391816961021523E-002	1.4821693E-005	-2.7507856E-001	0
5.1572300E+003	1.556719981315837E+001	-2.7688527E-001	-5.368875855867183E-002	1.4865626E-005	-2.7707860E-001	0
5.2163330E+003	1.576719980810594E+001	-2.7889559E-001	-5.346583295930329E-002	1.4911385E-005	-2.7907857E-001	0
5.2748921E+003	1.596719980305352E+001	-2.8088424E-001	-5.324928538584450E-002	1.4956885E-005	-2.8107858E-001	0
5.3362236E+003	1.616719979800109E+001	-2.8287157E-001	-5.300969487191309E-002	1.4994936E-005	-2.8307858E-001	0
5.3948521E+003	1.636719979294867E+001	-2.8487360E-001	-5.280471306458934E-002	1.5042669E-005	-2.8507859E-001	0
5.4524893E+003	1.656719978789624E+001	-2.8689152E-001	-5.261661263622008E-002	1.5095260E-005	-2.8707859E-001	0
5.5149346E+003	1.676719978284382E+001	-2.8886449E-001	-5.237858868130130E-002	1.5130315E-005	-2.8907859E-001	0
5.5735400E+003	1.696719977779139E+001	-2.9088709E-001	-5.219072369486932E-002	1.5181608E-005	-2.9107860E-001	0
5.6309932E+003	1.716719977273897E+001	-2.9285392E-001	-5.200750623141182E-002	1.5230602E-005	-2.9307857E-001	0
5.6924922E+003	1.736719976768654E+001	-2.9488435E-001	-5.180232846357624E-002	1.5275697E-005	-2.9507858E-001	0
5.7526040E+003	1.756719976263412E+001	-2.9690379E-001	-5.161206817091825E-002	1.5323818E-005	-2.9707861E-001	0
5.8099653E+003	1.776719975758169E+001	-2.9888052E-001	-5.144273565000856E-002	1.5375232E-005	-2.9907855E-001	0
5.8728955E+003	1.796719975252927E+001	-3.0090523E-001	-5.123626587483765E-002	1.5417259E-005	-3.0107859E-001	0
5.9310010E+003	1.816719974747684E+001	-3.0287924E-001	-5.106713870527613E-002	1.5467176E-005	-3.0307859E-001	0
5.9915615E+003	1.836719974242442E+001	-3.0488193E-001	-5.088522119390593E-002	1.5513984E-005	-3.0507857E-001	0
6.0492983E+003	1.856719973737199E+001	-3.0688965E-001	-5.073144759976500E-002	1.5568956E-005	-3.0707860E-001	0
6.1063374E+003	1.876719973231957E+001	-3.0889696E-001	-5.058628984604469E-002	1.5625950E-005	-3.0907857E-001	0
6.1681777E+003	1.896719972726714E+001	-3.1091028E-001	-5.040553421977401E-002	1.5671600E-005	-3.1107861E-001	0
6.2261538E+003	1.916719972221472E+001	-3.1290442E-001	-5.025645504365628E-002	1.5725467E-005	-3.1307861E-001	0
6.2847944E+003	1.936719971716229E+001	-3.1488672E-001	-5.010294709132901E-002	1.5776752E-005	-3.1507862E-001	0
6.3441724E+003	1.956719971210987E+001	-3.1687468E-001	-4.994736394428922E-002	1.5827056E-005	-3.1707856E-001	0
6.3937827E+003	1.976719970705744E+001	-3.1886697E-001	-4.987141297171394E-002	1.5902346E-005	-3.1907859E-001	0
6.4559429E+003	1.996719970200502E+001	-3.2084164E-001	-4.969709956978363E-002	1.5944899E-005	-3.2107857E-001	0
6.5159438E+003	2.016719969695259E+001	-3.2288563E-001	-4.955316217333250E-002	1.6000004E-005	-3.2307857E-001	0
6.5814673E+003	2.036719969190017E+001	-3.2487646E-001	-4.936231480427766E-002	1.6036654E-005	-3.2507858E-001	0
6.6423071E+003	2.056719968684774E+001	-3.2690731E-001	-4.921592925115559E-002	1.6089047E-005	-3.2707858E-001	0
6.7005962E+003	2.076719968179532E+001	-3.2888344E-001	-4.908271267104170E-002	1.6142490E-005	-3.2907858E-001	0
6.7565073E+003	2.096719967674289E+001	-3.3087292E-001	-4.897099966764051E-002	1.6203177E-005	-3.3107859E-001	0
6.8184307E+003	2.116719967169047E+001	-3.3288577E-001	-4.882146373930729E-002	1.6251970E-005	-3.3307862E-001	0
6.8798057E+003	2.136719966663804E+001	-3.3492255E-001	-4.868197766931986E-002	1.6304692E-005	-3.3507857E-001	0
6.9397983E+003	2.156719966158562E+001	-3.3690929E-001	-4.854741770733995E-002	1.6356076E-005	-3.3707860E-001	0
7.0002100E+003	2.176719965653319E+001	-3.3891559E-001	-4.841506015852537E-002	1.6408618E-005	-3.3907858E-001	0
7.0607690E+003	2.196719965148077E+001	-3.4090760E-001	-4.828193608978693E-002	1.6459679E-005	-3.4107858E-001	0
7.1210620E+003	2.216719964642834E+001	-3.4288189E-001	-4.815038801735816E-002	1.6509895E-005	-3.4307858E-001	0
7.1810630E+003	2.236719964137592E+001	-3.4488916E-001	-4.802759286425906E-002	1.6564196E-005	-3.4507859E-001	0
7.2394492E+003	2.256719963632349E+001	-3.4688738E-001	-4.791626681799657E-002	1.6621549E-005	-3.4707859E-001	0
7.2974658E+003	2.276719963127107E+001	-3.4891382E-001	-4.781301099333968E-002	1.6682619E-005	-3.4907860E-001	0
7.3390757E+003	2.296719962621864E+001	-3.5089141E-001	-4.781138892296079E-002	1.6776607E-005	-3.5107860E-001	0
7.3804575E+003	2.316719962116622E+001	-3.5289645E-001	-4.781498209480384E-002	1.6873737E-005	-3.5307860E-001	0
7.4373716E+003	2.336719961611379E+001	-3.5489121E-001	-4.771729067042951E-002	1.6934448E-005	-3.5507861E-001	0
7.4963174E+003	2.356719961106137E+001	-3.5691699E-001	-4.761231143941957E-002	1.6993643E-005	-3.5707858E-001	0
7.5540708E+003	2.376719960600894E+001	-3.5891521E-001	-4.751281936752205E-002	1.7053073E-005	-3.5907856E-001	0
7.6104336E+003	2.396719960095652E+001	-3.6090198E-001	-4.742199872845315E-002	1.7114693E-005	-3.6107859E-001	0
7.6687651E+003	2.416719959590409E+001	-3.6288914E-001	-4.732041456446250E-002	1.7172064E-005	-3.6307859E-001	0
7.7308335E+003	2.436719959085167E+001	-3.6486271E-001	-4.719578061261268E-002	1.7219980E-005	-3.6507860E-001	0
7.7920957E+003	2.456719958579924E+001	-3.6689675E-001	-4.708576044769930E-002	1.7275612E-005	-3.6707860E-001	0
7.8496499E+003	2.476719958074682E+001	-3.6887053E-001	-4.699197051863993E-002	1.7333952E-005	-3.6907861E-001	0
7.9054346E+003	2.496719957569439E+001	-3.7086046E-001	-4.691208989698403E-002	1.7397839E-005	-3.7107861E-001	0
7.9656675E+003	2.516719957064197E+001	-3.7287143E-001	-4.680981690934150E-002	1.7454044E-005	-3.7307858E-001	0
8.0215972E+003	2.536719956558954E+001	-3.7490654E-001	-4.673714397048523E-002	1.7522061E-005	-3.7507862E-001	0
8.0822642E+003	2.556719956053712E+001	-3.7690300E-001	-4.663334414547683E-002	1.7576247E-005	-3.7707859E-001	0
8.1443594E+003	2.576719955548469E+001	-3.7888363E-001	-4.652098585537884E-002	1.7626040E-005	-3.7907857E-001	0
8.2007793E+003	2.596719955043227E+001	-3.8087103E-001	-4.644327214364691E-002	1.7688897E-005	-3.8107860E-001	0
8.2636064E+003	2.616719954537984E+001	-3.8287598E-001	-4.633279644452304E-002	1.7739714E-005	-3.8307858E-001	0
8.3246650E+003	2.636719954032742E+001	-3.8491809E-001	-4.623826776019802E-002	1.7797945E-005	-3.8507861E-001	0
8.3810947E+003	2.656719953527499E+001	-3.8688406E-001	-4.616151971963200E-002	1.7859156E-005	-3.8707861E-001	0
8.4423037E+003	2.676719953022257E+001	-3.8889414E-001	-4.606493341402818E-002	1.7914383E-005	-3.8907859E-001	0
8.5002168E+003	2.696719952517014E+001	-3.9088643E-001	-4.598546417798545E-002	1.7975093E-005	-3.9107862E-001	0
8.5645146E+003	2.716719952011772E+001	-3.9291689E-001	-4.587730926951439E-002	1.8025970E-005	-3.9307863E-001	0
8.6201455E+003	2.736719951506529E+001	-3.9487621E-001	-4.580852974395189E-002	1.8088698E-005	-3.9507863E-001	0
8.6828145E+003	2.756719951001287E+001	-3.9689142E-001	-4.570999543199472E-002	1.8141905E-005	-3.9707860E-001	0
8.7367393E+003	2.776719950496044E+001	-3.9888194E-001	-4.565570024401799E-002	1.8211234E-005	-3.9907858E-001	0
8.8010449E+003	2.796719949990802E+001	-4.0089312E-001	-4.555062701753521E-002	1.8260933E-005	-4.0107861E-001	0
8.8659160E+003	2.816719949485559E+001	-4.0289876E-001	-4.544355852403770E-002	1.8309152E-005	-4.0307865E-001	0
8.9195947E+003	2.836719948980317E+001	-4.0490180E-001	-4.539464162968820E-002	1.8380371E-005	-4.0507862E-001	0
8.9810088E+003	2.856719948475074E+001	-4.0690678E-001	-4.530746983908007E-002	1.8435916E-005	-4.0707859E-001	0
9.0433145E+003	2.876719947969832E+001	-4.0890288E-001	-4.521604399133428E-002	1.8488970E-005	-4.0907863E-001	0
9.0991914E+003	2.896719947464590E+001	-4.1092506E-001	-4.516061106374680E-002	1.8557626E-005	-4.1107857E-001	0
9.1545020E+003	2.916719946959347E+001	-4.1292343E-001	-4.510605209079399E-002	1.8625346E-005	-4.1307861E-001	0
9.2156494E+003	2.936719946454105E+001	-4.1493165E-001	-4.502467687617662E-002	1.8682163E-005	-4.1507864E-001	0
9.3189697E+003	2.958719945898338E+001	-4.1714144E-001	-4.476261508664803E-002	1.8672341E-005	-4.1727859E-001	0
9.4161807E+003	2.980719945342571E+001	-4.1933084E-001	-4.453300886371414E-002	1.8674064E-005	-4.1947860E-001	0
9.4742959E+003	3.000719944837329E+001	-4.2133155E-001	-4.447101285473121E-002	1.8737041E-005	-4.2147863E-001	0
9.5403896E+003	3.020719944332086E+001	-4.2334229E-001	-4.437368738574809E-002	1.8785258E-005	-4.2347857E-001	0
9.5985146E+003	3.040719943826844E+001	-4.2536718E-001	-4.431593917228938E-002	1.8850546E-005	-4.2547861E-001	0
9.6612305E+003	3.060719943321601E+001	-4.2733869E-001	-4.423232622948314E-002	1.8902185E-005	-4.2747864E-001	0
9.7190273E+003	3.080719942816359E+001	-4.2936146E-001	-4.417741253006952E-002	1.8968078E-005	-4.2947862E-001	0
9.7309609E+003	3.100719942311116E+001	-4.3136710E-001	-4.432934277919021E-002	1.9122221E-005	-4.3147859E-001	0
9.8019766E+003	3.120719941805874E+001	-4.3336046E-001	-4.421153702232522E-002	1.9159532E-005	-4.3347862E-001	0
9.8644854E+003	3.140719941300631E+001	-4.3536714E-001	-4.413480526274549E-002	1.9214844E-005	-4.3547866E-001	0
9.9301484E+003	3.160719940795389E+001	-4.3736026E-001	-4.404367562071931E-002	1.9262954E-005	-4.3747860E-001	0
9.9879082E+003	3.180719940290146E+001	-4.3933085E-001	-4.398627051145954E-002	1.9324525E-005	-4.3947861E-001	0
1.0055162E+004	3.200719939784904E+001	-4.4132993E-001	-4.389088217785701E-002	1.9370360E-005	-4.4147864E-001	0
1.0115059E+004	3.220719939279661E+001	-4.4336075E-001	-4.383175214462165E-002	1.9433279E-005	-4.4347858E-001	0
1.0175059E+004	3.240719938774419E+001	-4.4535708E-001	-4.376948774578948E-002	1.9493051E-005	-4.4547862E-001	0
1.0232634E+004	3.260719938269176E+001	-4.4732875E-001	-4.371589312066959E-002	1.9555375E-005	-4.4747862E-001	0
1.0305209E+004	3.280719937763934E+001	-4.4936132E-001	-4.360526188856417E-002	1.9594518E-005	-4.4947866E-001	0
1.0363220E+004	3.300719937258691E+001	-4.5134929E-001	-4.355299645715960E-002	1.9657615E-005	-4.5147860E-001	0
1.0424563E+004	3.320719936753449E+001	-4.5335072E-001	-4.348870097023883E-002	1.9715633E-005	-4.5347860E-001	0
1.0485399E+004	3.340719936248206E+001	-4.5530692E-001	-4.342294567213939E-002	1.9770767E-005	-4.5547867E-001	0
1.0545272E+004	3.360719935742964E+001	-4.5731401E-001	-4.336673438431857E-002	1.9832216E-005	-4.5747861E-001	0
1.0606286E+004	3.380719935237721E+001	-4.5931435E-001	-4.330586233781317E-002	1.9891004E-005	-4.5947862E-001	0
1.0667627E+004	3.400719934732479E+001	-4.6135944E-001	-4.324855216062889E-002	1.9953128E-005	-4.6147862E-001	0
1.0735625E+004	3.420719934227236E+001	-4.6333748E-001	-4.315887353923645E-002	1.9997124E-005	-4.6347862E-001	0
1.0795716E+004	3.440719933721994E+001	-4.6532357E-001	-4.310261529829146E-002	2.0056663E-005	-4.6547857E-001	0
1.0867720E+004	3.460719933216751E+001	-4.6733999E-001	-4.300258040973026E-002	2.0096826E-005	-4.6747860E-001	0
1.0926252E+004	3.480719932711509E+001	-4.6932462E-001	-4.295385160901588E-002	2.0159299E-005	-4.6947864E-001	0
1.0982095E+004	3.500719932206266E+001	-4.7132477E-001	-4.291756552788739E-002	2.0228112E-005	-4.7147861E-001	0
1.1047595E+004	3.520719931701024E+001	-4.7332147E-001	-4.284384763375126E-002	2.0278912E-005	-4.7347859E-001	0
1.1105428E+004	3.540719931195781E+001	-4.7527063E-001	-4.279624558050743E-002	2.0339799E-005	-4.7547862E-001	0
1.1173483E+004	3.560719930690539E+001	-4.7732934E-001	-4.271983259960455E-002	2.0391430E-005	-4.7747859E-001	0
1.1227927E+004	3.580719930185296E+001	-4.7934043E-001	-4.269180123988842E-002	2.0463907E-005	-4.7947860E-001	0
1.1288313E+004	3.600719929680054E+001	-4.8132658E-001	-4.263937584670419E-002	2.0523465E-005	-4.8147863E-001	0
1.1348177E+004	3.620719929174811E+001	-4.8331776E-001	-4.258990580191763E-002	2.0584457E-005	-4.8347864E-001	0
1.1402474E+004	3.640719928669569E+001	-4.8532978E-001	-4.256355129219291E-002	2.0657359E-005	-4.8547858E-001	0
1.1465604E+004	3.660719928164326E+001	-4.8732033E-001	-4.250280475803569E-002	2.0712481E-005	-4.8747861E-001	0
1.1530198E+004	3.680719927659084E+001	-4.8933506E-001	-4.243943121578830E-002	2.0767102E-005	-4.8947865E-001	0
1.1590880E+004	3.700719927153841E+001	-4.9132898E-001	-4.238927492195033E-002	2.0827079E-005	-4.9147859E-001	0
1.1648877E+004	3.720719926648599E+001	-4.9333209E-001	-4.235018401373963E-002	2.0892705E-005	-4.9347860E-001	0
1.1705754E+004	3.740719926143356E+001	-4.9532986E-001	-4.231507443535720E-002	2.0959920E-005	-4.9547863E-001	0
1.1778729E+004	3.760719925638114E+001	-4.9731410E-001	-4.222137519224958E-002	2.0997286E-005	-4.9747866E-001	0
1.1827796E+004	3.780719925132871E+001	-4.9931866E-001	-4.221569786250559E-002	2.1079086E-005	-4.9947864E-001	0
1.1890922E+004	3.800719924627629E+001	-5.0130475E-001	-4.215861115680660E-002	2.1134312E-005	-5.0147861E-001	0
1.1942243E+004	3.820719924122386E+001	-5.0335091E-001	-4.214877283645176E-002	2.1215623E-005	-5.0347865E-001	0
1.2009292E+004	3.840719923617144E+001	-5.0535065E-001	-4.207997098211375E-002	2.1265141E-005	-5.0547862E-001	0
1.2068499E+004	3.860719923111901E+001	-5.0732696E-001	-4.203728567560718E-002	2.1326648E-005	-5.0747859E-001	0
1.2128961E+004	3.880719922606659E+001	-5.0934631E-001	-4.199422489299426E-002	2.1389604E-005	-5.0947869E-001	0
1.2185237E+004	3.900719922101416E+001	-5.1135451E-001	-4.196508309372055E-002	2.1459035E-005	-5.1147860E-001	0
1.2239915E+004	3.920719921596174E+001	-5.1333219E-001	-4.193919618184272E-002	2.1528740E-005	-5.1347858E-001	0
1.2303630E+004	3.940719921090931E+001	-5.1536727E-001	-4.188741645944682E-002	2.1587404E-005	-5.1547861E-001	0
1.2362689E+004	3.960719920585689E+001	-5.1733214E-001	-4.184624594963599E-002	2.1648408E-005	-5.1747864E-001	0
1.2413317E+004	3.980719920080446E+001	-5.1930338E-001	-4.183437633370374E-002	2.1724733E-005	-5.1947862E-001	0
1.2477679E+004	4.000719919575204E+001	-5.2129930E-001	-4.177854962429454E-002	2.1779129E-005	-5.2147859E-001	0
1.2535115E+004	4.020719919069961E+001	-5.2330148E-001	-4.174684244551186E-002	2.1846185E-005	-5.2347863E-001	0
1.2593496E+004	4.040719918564719E+001	-5.2532244E-001	-4.171379033186784E-002	2.1913191E-005	-5.2547866E-001	0
1.2651473E+004	4.060719918059476E+001	-5.2731764E-001	-4.168033591590933E-002	2.1978776E-005	-5.2747858E-001	0
1.2707371E+004	4.080719917554234E+001	-5.2930397E-001	-4.165330160670024E-002	2.2047258E-005	-5.2947861E-001	0
1.2766505E+004	4.100719917048991E+001	-5.3131127E-001	-4.161759943446830E-002	2.2111899E-005	-5.3147864E-001	0
1.2816510E+004	4.120719916543749E+001	-5.3332883E-001	-4.161264304263851E-002	2.2193222E-005	-5.3347862E-001	0
1.2869835E+004	4.140719916038506E+001	-5.3529263E-001	-4.159281273713522E-002	2.2264327E-005	-5.3547865E-001	0
1.2930063E+004	4.160719915533264E+001	-5.3729129E-001	-4.155365076990963E-002	2.2326414E-005	-5.3747863E-001	0
1.2973520E+004	4.180719915028021E+001	-5.3931153E-001	-4.157017857916528E-002	2.2419277E-005	-5.3947866E-001	0
1.3038596E+004	4.200719914522779E+001	-5.4135752E-001	-4.151961901526086E-002	2.2476957E-005	-5.4147857E-001	0
1.3095009E+004	4.220719914017536E+001	-5.4332042E-001	-4.149064811130318E-002	2.2542716E-005	-5.4347861E-001	0
1.3154607E+004	4.240719913512294E+001	-5.4532862E-001	-4.145533229301464E-002	2.2606779E-005	-5.4547864E-001	0
1.3211137E+004	4.260719913007051E+001	-5.4732788E-001	-4.142927863347923E-002	2.2675398E-005	-5.4747856E-001	0
1.3267492E+004	4.280719912501809E+001	-5.4933071E-001	-4.140426110515316E-002	2.2744633E-005	-5.4947865E-001	0
1.3350385E+004	4.300719911996566E+001	-5.5129677E-001	-4.129444895673323E-002	2.2765496E-005	-5.5147868E-001	0
1.3418169E+004	4.320719911491324E+001	-5.5332589E-001	-4.123706360692862E-002	2.2817536E-005	-5.5347866E-001	0
1.3466298E+004	4.340719910986081E+001	-5.5530220E-001	-4.123644147209750E-002	2.2898686E-005	-5.5547857E-001	0
1.3526547E+004	4.360719910480839E+001	-5.5730826E-001	-4.120107462113332E-002	2.2961700E-005	-5.5747861E-001	0
1.3581641E+004	4.380719909975596E+001	-5.5930728E-001	-4.118112889261027E-002	2.3032904E-005	-5.5947870E-001	0
1.3638678E+004	4.400719909470354E+001	-5.6129342E-001	-4.115453454409251E-002	2.3099770E-005	-5.6147856E-001	0
1.3697254E+004	4.420719908965111E+001	-5.6333148E-001	-4.112733154697017E-002	2.3168321E-005	-5.6347859E-001	0
1.3749340E+004	4.440719908459869E+001	-5.6533390E-001	-4.111716564313897E-002	2.3244927E-005	-5.6547868E-001	0
1.3797724E+004	4.460719907954626E+001	-5.6729460E-001	-4.111508628070501E-002	2.3324366E-005	-5.6747860E-001	0
1.3855434E+004	4.480719907449384E+001	-5.6931585E-001	-4.108971714431760E-002	2.3393028E-005	-5.6947863E-001	0
1.3907646E+004	4.500719906944141E+001	-5.7127231E-001	-4.107613517145689E-002	2.3465658E-005	-5.7147861E-001	0
1.3955560E+004	4.520719906438899E+001	-5.7327545E-001	-4.107864270574890E-002	2.3549377E-005	-5.7347870E-001	0
1.4009756E+004	4.540719905933656E+001	-5.7528633E-001	-4.106326488716755E-002	2.3623135E-005	-5.7547861E-001	0
1.4066432E+004	4.560719905428414E+001	-5.7726860E-001	-4.103873669441215E-002	2.3690374E-005	-5.7747859E-001	0
1.4113537E+004	4.580719904923171E+001	-5.7930034E-001	-4.104572252709371E-002	2.3777800E-005	-5.7947868E-001	0
1.4166951E+004	4.600719904417929E+001	-5.8132595E-001	-4.103394910928621E-002	2.3854100E-005	-5.8147860E-001	0
1.4216240E+004	4.620719903912686E+001	-5.8333218E-001	-4.103280188222236E-002	2.3935754E-005	-5.8347863E-001	0
1.4264696E+004	4.640719903407444E+001	-5.8531505E-001	-4.103242240998199E-002	2.4016894E-005	-5.8547866E-001	0
1.4322669E+004	4.660719902902201E+001	-5.8727765E-001	-4.100336590406939E-002	2.4080360E-005	-5.8747864E-001	0
1.4368711E+004	4.680719902396959E+001	-5.8931661E-001	-4.101388258495220E-002	2.4170162E-005	-5.8947861E-001	0
1.4424643E+004	4.700719901891716E+001	-5.9130353E-001	-4.099259452599707E-002	2.4239065E-005	-5.9147859E-001	0
1.4470132E+004	4.720719901386474E+001	-5.9330446E-001	-4.100200796474507E-002	2.4326673E-005	-5.9347868E-001	0
1.4523014E+004	4.740719900881231E+001	-5.9529012E-001	-4.098943583751746E-002	2.4400606E-005	-5.9547859E-001	0
1.4571023E+004	4.760719900375989E+001	-5.9731019E-001	-4.099301509759767E-002	2.4485546E-005	-5.9747857E-001	0
1.4615277E+004	4.780719899870746E+001	-5.9928977E-001	-4.100433693667593E-002	2.4573479E-005	-5.9947866E-001	0
1.4661347E+004	4.800719899365504E+001	-6.0127902E-001	-4.101117202497873E-002	2.4659157E-005	-6.0147858E-001	0
1.4710370E+004	4.820719898860261E+001	-6.0329723E-001	-4.101169559166945E-002	2.4742243E-005	-6.0347861E-001	0
1.4759734E+004	4.840719898355019E+001	-6.0528374E-001	-4.100911996682122E-002	2.4822153E-005	-6.0547858E-001	0
1.4810573E+004	4.860719897849776E+001	-6.0731459E-001	-4.100547385240461E-002	2.4903222E-005	-6.0747862E-001	0
1.4858675E+004	4.880719897344534E+001	-6.0929412E-001	-4.100595355876496E-002	2.4984687E-005	-6.0947859E-001	0
1.4899858E+004	4.900719896839291E+001	-6.1129230E-001	-4.102671939600888E-002	2.5079318E-005	-6.1147863E-001	0
1.4948839E+004	4.920719896334049E+001	-6.1330277E-001	-4.102678254247766E-002	2.5161838E-005	-6.1347866E-001	0
1.4999647E+004	4.940719895828806E+001	-6.1528909E-001	-4.102023568108870E-002	2.5239304E-005	-6.1547863E-001	0
1.5044667E+004	4.960719895323564E+001	-6.1732483E-001	-4.103280149364319E-002	2.5330568E-005	-6.1747861E-001	0
1.5084073E+004	4.980719894818321E+001	-6.1929107E-001	-4.105595855518560E-002	2.5425588E-005	-6.1947864E-001	0
1.5132131E+004	5.000719894313079E+001	-6.2130129E-001	-4.105841321078729E-002	2.5509646E-005	-6.2147862E-001	0
1.5171787E+004	5.020719893807836E+001	-6.2333071E-001	-4.108485708788201E-002	2.5609454E-005	-6.2347865E-001	0
1.5217846E+004	5.040719893302594E+001	-6.2533677E-001	-4.109233164290776E-002	2.5696545E-005	-6.2547863E-001	0
1.5257594E+004	5.060719892797351E+001	-6.2732267E-001	-4.111544043248077E-002	2.5792648E-005	-6.2747866E-001	0
1.5304746E+004	5.080719892292109E+001	-6.2932444E-001	-4.111955963342318E-002	2.5877544E-005	-6.2947863E-001	0
1.5349072E+004	5.100719891786866E+001	-6.3132131E-001	-4.113091125713692E-002	2.5966821E-005	-6.3147861E-001	0
1.5396222E+004	5.120719891281624E+001	-6.3328570E-001	-4.113253942202951E-002	2.6048649E-005	-6.3347864E-001	0
1.5434282E+004	5.140719890776381E+001	-6.3530231E-001	-4.116176481674441E-002	2.6150165E-005	-6.3547868E-001	0
1.5471808E+004	5.160719890271139E+001	-6.3734353E-001	-4.119386199820585E-002	2.6254642E-005	-6.3747859E-001	0
1.5505205E+004	5.180719889765896E+001	-6.3932210E-001	-4.123274111553232E-002	2.6361004E-005	-6.3947862E-001	0
1.5556967E+004	5.200719889260654E+001	-6.4129478E-001	-4.122235251156631E-002	2.6435679E-005	-6.4147872E-001	0
1.5594535E+004	5.220719888755411E+001	-6.4335114E-001	-4.125490899212536E-002	2.6541393E-005	-6.4347863E-001	0
1.5622601E+004	5.240719888250169E+001	-6.4534569E-001	-4.130846646016731E-002	2.6658241E-005	-6.4547861E-001	0
1.5668598E+004	5.260719887744926E+001	-6.4736807E-001	-4.131627477739269E-002	2.6746837E-005	-6.4747864E-001	0
1.5705996E+004	5.280719887239684E+001	-6.4932555E-001	-4.134252593274990E-002	2.6844758E-005	-6.4947867E-001	0
1.5739184E+004	5.300719886734441E+001	-6.5132838E-001	-4.138260258651028E-002	2.6953663E-005	-6.5147859E-001	0
1.5775888E+004	5.320719886229199E+001	-6.5328777E-001	-4.141052330547390E-002	2.7052989E-005	-6.5347862E-001	0
1.5824064E+004	5.340719885723956E+001	-6.5530509E-001	-4.141193277692497E-002	2.7137450E-005	-6.5547866E-001	0
1.5862565E+004	5.360719885218714E+001	-6.5730458E-001	-4.143746998139963E-002	2.7237040E-005	-6.5747857E-001	0
1.5890804E+004	5.380719884713471E+001	-6.5932971E-001	-4.149127459600194E-002	2.7356431E-005	-6.5947866E-001	0
1.5919340E+004	5.400719884208229E+001	-6.6131300E-001	-4.154148439046790E-002	2.7471924E-005	-6.6147864E-001	0
1.5947506E+004	5.420719883702986E+001	-6.6334605E-001	-4.159559963493809E-002	2.7592278E-005	-6.6347867E-001	0
1.5962082E+004	5.440719883197744E+001	-6.6531712E-001	-4.168109945021561E-002	2.7731148E-005	-6.6547859E-001	0
1.5956427E+004	5.460719882692501E+001	-6.6731423E-001	-4.182103166278539E-002	2.7907770E-005	-6.6747862E-001	0
1.5963223E+004	5.480719882187259E+001	-6.6932088E-001	-4.192893210504949E-002	2.8063911E-005	-6.6947865E-001	0
1.5983166E+004	5.500719881682016E+001	-6.7129385E-001	-4.200005626819114E-002	2.8194379E-005	-6.7147857E-001	0
1.6019296E+004	5.520719881176774E+001	-6.7329586E-001	-4.203030191517110E-002	2.8298828E-005	-6.7347860E-001	0
1.6058676E+004	5.540719880671531E+001	-6.7530811E-001	-4.205254120081683E-002	2.8398423E-005	-6.7547870E-001	0
1.6097815E+004	5.560719880166289E+001	-6.7731994E-001	-4.207527159677305E-002	2.8498420E-005	-6.7747861E-001	0
1.6104698E+004	5.580719879661046E+001	-6.7932248E-001	-4.218163371509537E-002	2.8654933E-005	-6.7947859E-001	0
1.6135789E+004	5.600719879155804E+001	-6.8130165E-001	-4.222301473627765E-002	2.8766610E-005	-6.8147862E-001	0
1.6167643E+004	5.620719878650561E+001	-6.8328452E-001	-4.226247121499715E-002	2.8877292E-005	-6.8347865E-001	0
1.6195387E+004	5.640719878145319E+001	-6.8526357E-001	-4.231226895017182E-002	2.8995057E-005	-6.8547863E-001	0
1.6211311E+004	5.660719877640076E+001	-6.8731362E-001	-4.239716427479895E-002	2.9140148E-005	-6.8747860E-001	0
1.6235450E+004	5.680719877134834E+001	-6.8929696E-001	-4.245628913771571E-002	2.9264991E-005	-6.8947870E-001	0
1.6248250E+004	5.700719876629591E+001	-6.9133210E-001	-4.254809510075785E-002	2.9414865E-005	-6.9147861E-001	0
1.6266852E+004	5.720719876124349E+001	-6.9333285E-001	-4.262243628807053E-002	2.9551535E-005	-6.9347864E-001	0
1.6288147E+004	5.740719875619106E+001	-6.9532138E-001	-4.268879472788034E-002	2.9682431E-005	-6.9547868E-001	0
1.6302555E+004	5.760719875113864E+001	-6.9730395E-001	-4.277267945189112E-002	2.9825558E-005	-6.9747865E-001	0
1.6322250E+004	5.780719874608621E+001	-6.9931388E-001	-4.284420933800398E-002	2.9961549E-005	-6.9947863E-001	0
1.6338052E+004	5.800719874103379E+001	-7.0130593E-001	-4.292469776405511E-002	3.0103345E-005	-7.0147860E-001	0
1.6346332E+004	5.820719873598136E+001	-7.0332563E-001	-4.302651107009264E-002	3.0261648E-005	-7.0347875E-001	0
1.6350566E+004	5.840719873092894E+001	-7.0533735E-001	-4.313840402887875E-002	3.0427127E-005	-7.0547867E-001	0
1.6358327E+004	5.860719872587651E+001	-7.0732385E-001	-4.323937672891504E-002	3.0584244E-005	-7.0747864E-001	0
1.6363926E+004	5.880719872082409E+001	-7.0929444E-001	-4.334500557141163E-002	3.0744370E-005	-7.0947868E-001	0
1.6385137E+004	5.900719871577166E+001	-7.1130908E-001	-4.341184772585910E-002	3.0879241E-005	-7.1147859E-001	0
1.6384305E+004	5.920719871071924E+001	-7.1333730E-001	-4.353784294556096E-002	3.1057167E-005	-7.1347868E-001	0
1.6407039E+004	5.940719870566681E+001	-7.1533185E-001	-4.359908087301556E-002	3.1187810E-005	-7.1547866E-001	0
1.6408156E+004	5.960719870061439E+001	-7.1732742E-001	-4.371773581022631E-002	3.1359930E-005	-7.1747875E-001	0
1.6404859E+004	5.980719869556197E+001	-7.1932596E-001	-4.384834714267670E-002	3.1541254E-005	-7.1947861E-001	0
1.6425906E+004	6.000719869050954E+001	-7.2131890E-001	-4.391348988552712E-002	3.1675630E-005	-7.2147858E-001	0
1.6441959E+004	6.020719868545712E+001	-7.2333151E-001	-4.399302350795375E-002	3.1821539E-005	-7.2347867E-001	0
1.6444240E+004	6.040719868040469E+001	-7.2533584E-001	-4.410880769797229E-002	3.1993699E-005	-7.2547865E-001	0
1.6455373E+004	6.060719867535227E+001	-7.2732425E-001	-4.419980073810181E-002	3.2147585E-005	-7.2747862E-001	0
1.6459740E+004	6.080719867029984E+001	-7.2931910E-001	-4.430927197573509E-002	3.2315598E-005	-7.2947866E-001	0
1.6477320E+004	6.100719866524742E+001	-7.3129922E-001	-4.438216856056754E-002	3.2456646E-005	-7.3147869E-001	0
1.6522482E+004	6.120719866019499E+001	-7.3335308E-001	-4.438516220828648E-002	3.2549997E-005	-7.3347861E-001	0
1.6568482E+004	6.140719865514257E+001	-7.3531431E-001	-4.438030589377173E-002	3.2633474E-005	-7.3547858E-001	0
1.6585594E+004	6.160719865009014E+001	-7.3731667E-001	-4.445524721922789E-002	3.2777596E-005	-7.3747873E-001	0
1.6605094E+004	6.180719864503772E+001	-7.3935080E-001	-4.452554001066356E-002	3.2919994E-005	-7.3947865E-001	0
1.6616104E+004	6.200719863998529E+001	-7.4126774E-001	-4.461140778995953E-002	3.3068998E-005	-7.4147862E-001	0
1.6629336E+004	6.220719863493287E+001	-7.4335295E-001	-4.470130141382078E-002	3.3228844E-005	-7.4347866E-001	0
1.6630775E+004	6.240719862988044E+001	-7.4535435E-001	-4.481777704089596E-002	3.3405126E-005	-7.4547869E-001	0
1.6652365E+004	6.260719862482802E+001	-7.4734175E-001	-4.487901665360094E-002	3.3539964E-005	-7.4747866E-001	0
1.6662768E+004	6.280719861977559E+001	-7.4932152E-001	-4.496981040257841E-002	3.3696848E-005	-7.4947864E-001	0
1.6655803E+004	6.300719861472317E+001	-7.5130910E-001	-4.510794767303206E-002	3.3890010E-005	-7.5147873E-001	0
1.6679660E+004	6.320719860967074E+001	-7.5333101E-001	-4.516465055847074E-002	3.4023931E-005	-7.5347871E-001	0
1.6683498E+004	6.340719860461832E+001	-7.5529671E-001	-4.527208408738903E-002	3.4193858E-005	-7.5547856E-001	0
1.6680063E+004	6.360719859956589E+001	-7.5733513E-001	-4.540361699256490E-002	3.4385754E-005	-7.5747865E-001	0
1.6694895E+004	6.380719859451347E+001	-7.5932240E-001	-4.548231296161054E-002	3.4535740E-005	-7.5947863E-001	0
1.6702406E+004	6.400719858946104E+001	-7.6134294E-001	-4.558283127997445E-002	3.4704168E-005	-7.6147860E-001	0
1.6698545E+004	6.420719858440862E+001	-7.6331478E-001	-4.571145536302001E-002	3.4892229E-005	-7.6347870E-001	0
1.6715074E+004	6.440719857935619E+001	-7.6534945E-001	-4.578798047853994E-002	3.5043806E-005	-7.6547867E-001	0
1.6709092E+004	6.460719857430377E+001	-7.6731974E-001	-4.592229087405172E-002	3.5237081E-005	-7.6747864E-001	0
1.6712984E+004	6.480719856925134E+001	-7.6933801E-001	-4.603235539584272E-002	3.5414439E-005	-7.6947862E-001	0
1.6710021E+004	6.500719856419892E+001	-7.7133501E-001	-4.616002219596105E-002	3.5604840E-005	-7.7147871E-001	0
1.6720596E+004	6.520719855914649E+001	-7.7331936E-001	-4.624950859585866E-002	3.5765639E-005	-7.7347863E-001	0
1.6723494E+004	6.540719855409407E+001	-7.7533048E-001	-4.636174911430413E-002	3.5945679E-005	-7.7547860E-001	0
1.6700525E+004	6.560719854904164E+001	-7.7731407E-001	-4.654428554337731E-002	3.6179528E-005	-7.7747869E-001	0
1.6717340E+004	6.580719854398922E+001	-7.7930635E-001	-4.661664894709139E-002	3.6328649E-005	-7.7947867E-001	0
1.6686422E+004	6.600719853893679E+001	-7.8129137E-001	-4.682198372699098E-002	3.6581612E-005	-7.8147864E-001	0
1.6684881E+004	6.620719853388437E+001	-7.8335774E-001	-4.695015214278020E-002	3.6778765E-005	-7.8347862E-001	0
1.6696607E+004	6.640719852883194E+001	-7.8533578E-001	-4.703565125639786E-002	3.6938778E-005	-7.8547871E-001	0
1.6679730E+004	6.660719852377952E+001	-7.8732735E-001	-4.720263963706733E-002	3.7163929E-005	-7.8747874E-001	0
1.6674654E+004	6.680719851872709E+001	-7.8932548E-001	-4.733684387474069E-002	3.7364178E-005	-7.8947866E-001	0
1.6657973E+004	6.700719851367467E+001	-7.9133081E-001	-4.750463121402770E-002	3.7591879E-005	-7.9147869E-001	0
1.6649967E+004	6.720719850862224E+001	-7.9333109E-001	-4.764760812758229E-002	3.7800328E-005	-7.9347873E-001	0
1.6632748E+004	6.740719850356982E+001	-7.9530889E-001	-4.781584536985128E-002	3.8028367E-005	-7.9547858E-001	0
1.6586008E+004	6.760719849851739E+001	-7.9732412E-001	-4.807209358693143E-002	3.8329039E-005	-7.9747868E-001	0
1.6550770E+004	6.780719849346497E+001	-7.9933244E-001	-4.829578472896898E-002	3.8604387E-005	-7.9947877E-001	0
1.6540246E+004	6.800719848841254E+001	-8.0131680E-001	-4.844648680040431E-002	3.8820985E-005	-8.0147862E-001	0
1.6536383E+004	6.820719848336012E+001	-8.0330414E-001	-4.857798549214665E-002	3.9022896E-005	-8.0347872E-001	0
1.6523258E+004	6.840719847830769E+001	-8.0532885E-001	-4.873910566338911E-002	3.9251008E-005	-8.0547869E-001	0
1.6522854E+004	6.860719847325527E+001	-8.0729175E-001	-4.885909908272701E-002	3.9443548E-005	-8.0747867E-001	0
1.6519100E+004	6.880719846820284E+001	-8.0933291E-001	-4.899376523026322E-002	3.9652266E-005	-8.0947864E-001	0
1.6518342E+004	6.900719846315042E+001	-8.1133848E-001	-4.911742739953826E-002	3.9850860E-005	-8.1147867E-001	0
1.6486967E+004	6.920719845809799E+001	-8.1337857E-001	-4.933463989982978E-002	4.0127739E-005	-8.1347877E-001	0
1.6477570E+004	6.940719845304557E+001	-8.1533235E-001	-4.948134835737683E-002	4.0343744E-005	-8.1547868E-001	0
1.6463861E+004	6.960719844799314E+001	-8.1735343E-001	-4.964530710268189E-002	4.0577761E-005	-8.1747860E-001	0
1.6437697E+004	6.980719844294072E+001	-8.1934422E-001	-4.984543827318021E-002	4.0840572E-005	-8.1947875E-001	0
1.6400043E+004	7.000719843788829E+001	-8.2133925E-001	-5.008153037681251E-002	4.1133928E-005	-8.2147872E-001	0
1.6393156E+004	7.020719843283587E+001	-8.2335311E-001	-5.022541584675100E-002	4.1353251E-005	-8.2347864E-001	0
1.6387809E+004	7.040719842778344E+001	-8.2533896E-001	-5.036298776269321E-002	4.1566534E-005	-8.2547867E-001	0
1.6342377E+004	7.060719842273102E+001	-8.2733661E-001	-5.062523195805124E-002	4.1884108E-005	-8.2747871E-001	0
1.6309557E+004	7.080719841767859E+001	-8.2932901E-001	-5.084926883590812E-002	4.2170774E-005	-8.2947868E-001	0
1.6326628E+004	7.100719841262617E+001	-8.3133048E-001	-5.091868893268714E-002	4.2330259E-005	-8.3147866E-001	0
1.6274480E+004	7.120719840757374E+001	-8.3331889E-001	-5.120402460288509E-002	4.2669282E-005	-8.3347875E-001	0
1.6252905E+004	7.140719840252132E+001	-8.3536446E-001	-5.139785400030061E-002	4.2935939E-005	-8.3547860E-001	0
1.6209034E+004	7.160719839746889E+001	-8.3733582E-001	-5.165858856453032E-002	4.3255586E-005	-8.3747870E-001	0
1.6167737E+004	7.180719839241647E+001	-8.3936375E-001	-5.191596801648291E-002	4.3576383E-005	-8.3947867E-001	0
1.6104984E+004	7.200719838736404E+001	-8.4134060E-001	-5.224100645481622E-002	4.3952481E-005	-8.4147865E-001	0
1.6070237E+004	7.220719838231162E+001	-8.4333682E-001	-5.247818082866673E-002	4.4256783E-005	-8.4347874E-001	0
1.6013490E+004	7.240719837725919E+001	-8.4531677E-001	-5.278778991655608E-002	4.4622404E-005	-8.4547865E-001	0
1.5924752E+004	7.260719837220677E+001	-8.4735501E-001	-5.320993374585448E-002	4.5087705E-005	-8.4747881E-001	0
1.5854822E+004	7.280719836715434E+001	-8.4936410E-001	-5.357134258934210E-002	4.5501576E-005	-8.4947866E-001	0
1.5786740E+004	7.300719836210192E+001	-8.5133493E-001	-5.392721413725521E-002	4.5910121E-005	-8.5147858E-001	0
1.5690043E+004	7.320719835704949E+001	-8.5334885E-001	-5.438792167702355E-002	4.6411871E-005	-8.5347873E-001	0
1.5580157E+004	7.340719835199707E+001	-8.5537797E-001	-5.490175573748707E-002	4.6961752E-005	-8.5547870E-001	0
1.5440818E+004	7.360719834694464E+001	-8.5736239E-001	-5.552571042664700E-002	4.7605656E-005	-8.5747868E-001	0
1.5295209E+004	7.380719834189222E+001	-8.5936213E-001	-5.618505367994442E-002	4.8283306E-005	-8.5947871E-001	0
1.5143145E+004	7.400719833683979E+001	-8.6136490E-001	-5.688150748536591E-002	4.8995735E-005	-8.6147869E-001	0
1.4971721E+004	7.420719833178737E+001	-8.6336547E-001	-5.766641584493226E-002	4.9787192E-005	-8.6347866E-001	0
1.4758730E+004	7.440719832673494E+001	-8.6533755E-001	-5.863224941225542E-002	5.0736686E-005	-8.6547863E-001	0
1.4513772E+004	7.460719832168252E+001	-8.6735249E-001	-5.976065211029732E-002	5.1833551E-005	-8.6747873E-001	0
1.4219633E+004	7.480719831663009E+001	-8.6932361E-001	-6.113544549178457E-002	5.3146487E-005	-8.6947870E-001	0
1.3917415E+004	7.500719831157767E+001	-8.7131375E-001	-6.260600674299797E-002	5.4549473E-005	-8.7147868E-001	0
1.3570934E+004	7.520719830652524E+001	-8.7333405E-001	-6.435327835343019E-002	5.6201909E-005	-8.7347865E-001	0
1.3181414E+004	7.540719830147282E+001	-8.7532580E-001	-6.640606285220690E-002	5.8126941E-005	-8.7547863E-001	0
1.2766027E+004	7.560719829642039E+001	-8.7735099E-001	-6.872545221087667E-002	6.0296345E-005	-8.7747872E-001	0
1.2278565E+004	7.580719829136797E+001	-8.7931925E-001	-7.161417059693309E-002	6.2971718E-005	-8.7947863E-001	0
1.1771854E+004	7.600719828631554E+001	-8.8134575E-001	-7.486889568419358E-002	6.5985383E-005	-8.8147879E-001	0
1.1235769E+004	7.620719828126312E+001	-8.8330442E-001	-7.861539788803940E-002	6.9441325E-005	-8.8347876E-001	0
1.0685913E+004	7.640719827621069E+001	-8.8533992E-001	-8.285112106853709E-002	7.3351403E-005	-8.8547862E-001	0
9.9335283E+003	7.661719827090565E+001	-8.8741463E-001	-8.933528751375652E-002	7.9277444E-005	-8.8757879E-001	0
9.3260781E+003	7.682719826560060E+001	-8.8948596E-001	-9.537620478216757E-002	8.4835796E-005	-8.8967872E-001	0
8.8068604E+003	7.702719826054818E+001	-8.9149010E-001	-1.012267761012692E-001	9.0242669E-005	-8.9167869E-001	0
8.2988740E+003	7.722719825549575E+001	-8.9349538E-001	-1.076646565825019E-001	9.6197873E-005	-8.9367872E-001	0
7.8114561E+003	7.742719825044333E+001	-8.9553636E-001	-1.146439735528477E-001	1.0266784E-004	-8.9567864E-001	0
7.3385586E+003	7.762719824539090E+001	-8.9753401E-001	-1.223038577309927E-001	1.0977187E-004	-8.9767873E-001	0
6.8998848E+003	7.782719824033848E+001	-8.9952177E-001	-1.303676495786816E-001	1.1726854E-004	-8.9967871E-001	0
6.4760547E+003	7.802719823528605E+001	-9.0151906E-001	-1.392080645159293E-001	1.2549873E-004	-9.0167880E-001	0
6.0088081E+003	7.822719823023363E+001	-9.0354699E-001	-1.503704176062631E-001	1.3586674E-004	-9.0367877E-001	0
5.6158320E+003	7.842719822518120E+001	-9.0549910E-001	-1.612404137923715E-001	1.4600305E-004	-9.0567869E-001	0
5.2427974E+003	7.862719822012878E+001	-9.0751153E-001	-1.730968224353533E-001	1.5708736E-004	-9.0767872E-001	0
4.8882412E+003	7.882719821507635E+001	-9.0952110E-001	-1.860630558814234E-001	1.6922828E-004	-9.0967870E-001	0
4.5387407E+003	7.902719821002393E+001	-9.1153252E-001	-2.008337945806171E-001	1.8306654E-004	-9.1167867E-001	0
4.2037808E+003	7.922719820497150E+001	-9.1349977E-001	-2.173043286677041E-001	1.9850745E-004	-9.1367871E-001	0
3.8766162E+003	7.942719819991908E+001	-9.1549110E-001	-2.361572743023910E-001	2.1619989E-004	-9.1567874E-001	0
3.5631563E+003	7.962719819486665E+001	-9.1751665E-001	-2.575010965301602E-001	2.3626155E-004	-9.1767871E-001	0
3.2635085E+003	7.982719818981423E+001	-9.1950405E-001	-2.817532111322527E-001	2.5907322E-004	-9.1967863E-001	0
2.9820029E+003	8.002719818476180E+001	-9.2151630E-001	-3.090259481491757E-001	2.8477245E-004	-9.2167872E-001	0
2.6759116E+003	8.022719817970938E+001	-9.2356801E-001	-3.451414481016588E-001	3.1876159E-004	-9.2367870E-001	0
2.4260391E+003	8.042719817465695E+001	-9.2550468E-001	-3.814879698940730E-001	3.5306890E-004	-9.2567867E-001	0
2.2052844E+003	8.062719816960453E+001	-9.2749804E-001	-4.205797614060895E-001	3.9008691E-004	-9.2767876E-001	0
1.9953158E+003	8.082719816455210E+001	-9.2952323E-001	-4.658526930484923E-001	4.3302090E-004	-9.2967862E-001	0
1.7923457E+003	8.102719815949968E+001	-9.3152332E-001	-5.197230130856418E-001	4.8413410E-004	-9.3167871E-001	0
1.6022275E+003	8.122719815444725E+001	-9.3352008E-001	-5.826389071723748E-001	5.4390513E-004	-9.3367869E-001	0
1.4501741E+003	8.142719814939483E+001	-9.3553919E-001	-6.451219789802058E-001	6.0353690E-004	-9.3567878E-001	0
1.2983442E+003	8.162719814434240E+001	-9.3754339E-001	-7.221069169524270E-001	6.7700655E-004	-9.3767875E-001	0
1.1681932E+003	8.182719813928998E+001	-9.3952435E-001	-8.042541937881484E-001	7.5561641E-004	-9.3967867E-001	0
1.0541516E+003	8.202719813423755E+001	-9.4153941E-001	-8.931726422372037E-001	8.4095722E-004	-9.4167870E-001	0
9.4773889E+002	8.222719812918513E+001	-9.4354409E-001	-9.955739122466980E-001	9.3936786E-004	-9.4367880E-001	0
8.4864038E+002	8.243719812388008E+001	-9.4560105E-001	-1.114254124907855E+000	1.0536399E-003	-9.4577879E-001	0
7.6869781E+002	8.264719811857503E+001	-9.4771683E-001	-1.232886101822462E+000	1.1684269E-003	-9.4787878E-001	0
6.9289447E+002	8.284719811352261E+001	-9.4971025E-001	-1.370641934087757E+000	1.3017127E-003	-9.4987863E-001	0
6.2865979E+002	8.304719810847018E+001	-9.5168531E-001	-1.513832011840851E+000	1.4406916E-003	-9.5187873E-001	0
5.7171399E+002	8.324719810341776E+001	-9.5368969E-001	-1.668123742519057E+000	1.5908724E-003	-9.5387870E-001	0
5.2054016E+002	8.344719809836533E+001	-9.5569724E-001	-1.835972251045327E+000	1.7546336E-003	-9.5587879E-001	0
4.7534122E+002	8.364719809331291E+001	-9.5772320E-001	-2.014811965191313E+000	1.9296322E-003	-9.5787877E-001	0
4.3397391E+002	8.384719808826048E+001	-9.5972168E-001	-2.211473247631874E+000	2.1223989E-003	-9.5987868E-001	0
3.9783585E+002	8.404719808320806E+001	-9.6171027E-001	-2.417354532194370E+000	2.3247947E-003	-9.6187872E-001	0
3.6576053E+002	8.424719807815563E+001	-9.6369213E-001	-2.634762556290010E+000	2.5390999E-003	-9.6387869E-001	0
3.3674194E+002	8.444719807310321E+001	-9.6571529E-001	-2.867820089737862E+000	2.7694977E-003	-9.6587867E-001	0
3.1020337E+002	8.464719806805078E+001	-9.6768737E-001	-3.119525768183792E+000	3.0187257E-003	-9.6787870E-001	0
2.8704480E+002	8.484719806299836E+001	-9.6970731E-001	-3.378243800632802E+000	3.2759076E-003	-9.6987873E-001	0
2.6601358E+002	8.504719805794593E+001	-9.7171026E-001	-3.652859764980334E+000	3.5495213E-003	-9.7187871E-001	0
2.4747253E+002	8.524719805289351E+001	-9.7369611E-001	-3.934562236307155E+000	3.8310681E-003	-9.7387862E-001	0
2.3005022E+002	8.544719804784108E+001	-9.7569758E-001	-4.241237511271237E+000	4.1381652E-003	-9.7587872E-001	0
2.1471014E+002	8.564719804278866E+001	-9.7770435E-001	-4.553601183791280E+000	4.4520758E-003	-9.7787869E-001	0
2.0050223E+002	8.584719803773623E+001	-9.7969961E-001	-4.886227925246814E+000	4.7870358E-003	-9.7987866E-001	0
1.8759677E+002	8.604719803268381E+001	-9.8170888E-001	-5.233079986507398E+000	5.1373611E-003	-9.8187876E-001	0
1.7596428E+002	8.624719802763138E+001	-9.8369849E-001	-5.590330722752370E+000	5.4992000E-003	-9.8387873E-001	0
1.6541266E+002	8.644719802257896E+001	-9.8570913E-001	-5.959091368209442E+000	5.8739306E-003	-9.8587871E-001	0
1.5563071E+002	8.664719801752653E+001	-9.8773795E-001	-6.346677622455857E+000	6.2688543E-003	-9.8787868E-001	0
1.4677876E+002	8.684719801247411E+001	-9.8974198E-001	-6.743087111011349E+000	6.6739162E-003	-9.8987877E-001	0
1.3870717E+002	8.704719800742168E+001	-9.9171543E-001	-7.149705684914920E+000	7.0904735E-003	-9.9187875E-001	0
1.3113470E+002	8.724719800236926E+001	-9.9371934E-001	-7.577852090470145E+000	7.5302580E-003	-9.9387866E-001	0
1.2435474E+002	8.744719799731683E+001	-9.9570817E-001	-8.006997777558752E+000	7.9726335E-003	-9.9587870E-001	0
1.1789814E+002	8.764719799226441E+001	-9.9771029E-001	-8.462476870437897E+000	8.4431004E-003	-9.9787861E-001	0
1.1213717E+002	8.784729798720946E+001	-9.9970293E-001	-8.915000703178535E+000	8.9123519E-003	-9.9987942E-001	0
1.0662688E+002	8.804749798215198E+001	-1.0017266E+000	-9.394691294399507E+000	9.4109122E-003	-1.0018815E+000	0
1.0165177E+002	8.824759797709703E+001	-1.0037327E+000	-9.874227305118197E+000	9.9110845E-003	-1.0038826E+000	0
9.6929352E+001	8.844769797204208E+001	-1.0057344E+000	-1.037595374073641E+001	1.0435454E-002	-1.0058835E+000	0
9.2287132E+001	8.865789796673198E+001	-1.0078508E+000	-1.092081605246773E+001	1.1006553E-002	-1.0079856E+000	0
8.7849747E+001	8.886819796141936E+001	-1.0099063E+000	-1.149583594667396E+001	1.1609717E-002	-1.0100887E+000	0
8.4109688E+001	8.906839795636188E+001	-1.0119220E+000	-1.203098057869346E+001	1.2174414E-002	-1.0120906E+000	0
8.0573357E+001	8.926839795130945E+001	-1.0139159E+000	-1.258376127143567E+001	1.2758875E-002	-1.0140907E+000	0
7.7348557E+001	8.946839794625703E+001	-1.0159392E+000	-1.313456007939615E+001	1.3343915E-002	-1.0160906E+000	0
7.4257874E+001	8.966849794120208E+001	-1.0179530E+000	-1.370835188864081E+001	1.3954459E-002	-1.0180916E+000	0
7.1402931E+001	8.986869793614460E+001	-1.0199431E+000	-1.428433082559530E+001	1.4569205E-002	-1.0200934E+000	0
6.8668953E+001	9.006889793108712E+001	-1.0219407E+000	-1.488213583732357E+001	1.5208661E-002	-1.0220954E+000	0
6.6153534E+001	9.026909792602964E+001	-1.0239573E+000	-1.547849664952613E+001	1.5849318E-002	-1.0240974E+000	0
6.3764565E+001	9.046919792097469E+001	-1.0259444E+000	-1.608956905719644E+001	1.6507002E-002	-1.0260987E+000	0
6.1474899E+001	9.066929791591974E+001	-1.0279474E+000	-1.672141674114516E+001	1.7188737E-002	-1.0280994E+000	0
5.9350372E+001	9.086949791086226E+001	-1.0299345E+000	-1.735346397662205E+001	1.7872931E-002	-1.0301015E+000	0
5.7286545E+001	9.106969790580479E+001	-1.0319514E+000	-1.801385366285558E+001	1.8589422E-002	-1.0321035E+000	0
5.5350471E+001	9.126979790074984E+001	-1.0339566E+000	-1.868017765521461E+001	1.9314494E-002	-1.0341047E+000	0
5.3551270E+001	9.146999789569236E+001	-1.0359696E+000	-1.934537880936355E+001	2.0041225E-002	-1.0361062E+000	0
5.1837410E+001	9.167029789063236E+001	-1.0379653E+000	-2.002347910517861E+001	2.0783676E-002	-1.0381095E+000	0
5.0188065E+001	9.187039788557740E+001	-1.0399445E+000	-2.072095356871489E+001	2.1548642E-002	-1.0401106E+000	0
4.8640259E+001	9.207039788052498E+001	-1.0419633E+000	-2.142182930459239E+001	2.2320760E-002	-1.0421107E+000	0
4.7149025E+001	9.227079787546245E+001	-1.0439609E+000	-2.214172960807383E+001	2.3115100E-002	-1.0441144E+000	0
4.5726082E+001	9.247099787040497E+001	-1.0459870E+000	-2.287506355314827E+001	2.3927020E-002	-1.0461167E+000	0
4.4400677E+001	9.267099786535255E+001	-1.0479742E+000	-2.360266327520081E+001	2.4734983E-002	-1.0481167E+000	0
4.3115051E+001	9.287139786029002E+001	-1.0499750E+000	-2.435286558741609E+001	2.5569901E-002	-1.0501201E+000	0
4.1875317E+001	9.307159785523254E+001	-1.0519865E+000	-2.512187535057262E+001	2.6427872E-002	-1.0521227E+000	0
4.0718334E+001	9.327159785018011E+001	-1.0539594E+000	-2.588414863961634E+001	2.7280841E-002	-1.0541227E+000	0
3.9582382E+001	9.347199784511758E+001	-1.0559864E+000	-2.667819339704590E+001	2.8171809E-002	-1.0561262E+000	0
3.8513958E+001	9.367239784005506E+001	-1.0579683E+000	-2.746973508522228E+001	2.9062107E-002	-1.0581303E+000	0
3.7499214E+001	9.387259783499758E+001	-1.0599731E+000	-2.826654175241526E+001	2.9961774E-002	-1.0601327E+000	0
3.6529346E+001	9.407259782994515E+001	-1.0619569E+000	-2.907133688245499E+001	3.0872507E-002	-1.0621327E+000	0
3.5632580E+001	9.427259782489273E+001	-1.0639637E+000	-2.985929285614939E+001	3.1769201E-002	-1.0641327E+000	0
3.4743446E+001	9.447269781983778E+001	-1.0659733E+000	-3.068127622494585E+001	3.2705422E-002	-1.0661335E+000	0
3.3915096E+001	9.467279781478283E+001	-1.0679866E+000	-3.149000548667641E+001	3.3630904E-002	-1.0681348E+000	0
3.3077602E+001	9.487299780972535E+001	-1.0699779E+000	-3.234750279601138E+001	3.4611113E-002	-1.0701363E+000	0
3.2257450E+001	9.507329780466534E+001	-1.0719901E+000	-3.323232631809981E+001	3.5624728E-002	-1.0721396E+000	0
3.1501102E+001	9.527359779960534E+001	-1.0740329E+000	-3.409508874726524E+001	3.6619246E-002	-1.0741422E+000	0
3.0761187E+001	9.547379779454786E+001	-1.0759788E+000	-3.497845401407091E+001	3.7636075E-002	-1.0761447E+000	0
3.0072107E+001	9.567379778949544E+001	-1.0780160E+000	-3.584770539315102E+001	3.8644403E-002	-1.0781447E+000	0
2.9402315E+001	9.587399778443796E+001	-1.0799751E+000	-3.673095452667394E+001	3.9668519E-002	-1.0801462E+000	0
2.8756939E+001	9.607459777937038E+001	-1.0820153E+000	-3.762623228614177E+001	4.0712159E-002	-1.0821522E+000	0
2.8125488E+001	9.627479777431290E+001	-1.0839931E+000	-3.854130574094457E+001	4.1778509E-002	-1.0841547E+000	0
2.7485395E+001	9.647479776926048E+001	-1.0859936E+000	-3.951166088700023E+001	4.2909414E-002	-1.0861547E+000	0
2.6888527E+001	9.667499776420300E+001	-1.0880197E+000	-4.046408879287645E+001	4.4025727E-002	-1.0881566E+000	0
2.6304300E+001	9.687509775914805E+001	-1.0899795E+000	-4.143731417249217E+001	4.5165826E-002	-1.0901576E+000	0
2.5744452E+001	9.707519775409310E+001	-1.0919800E+000	-4.241613024811102E+001	4.6317566E-002	-1.0921588E+000	0
2.5241777E+001	9.727519774904067E+001	-1.0939908E+000	-4.334048212034111E+001	4.7414090E-002	-1.0941588E+000	0
2.4665146E+001	9.747519774398825E+001	-1.0960037E+000	-4.443531922445288E+001	4.8701271E-002	-1.0961586E+000	0
2.4145939E+001	9.767539773893077E+001	-1.0979927E+000	-4.547318032116823E+001	4.9929217E-002	-1.0981601E+000	0
2.3711592E+001	9.787559773387329E+001	-1.1000084E+000	-4.639116694218990E+001	5.1030673E-002	-1.1001626E+000	0
2.3285992E+001	9.807569772881834E+001	-1.1020293E+000	-4.732584835375212E+001	5.2154474E-002	-1.1021634E+000	0
2.2830744E+001	9.827589772376086E+001	-1.1040192E+000	-4.835669047734177E+001	5.3386714E-002	-1.1041656E+000	0
2.2449480E+001	9.847599771870591E+001	-1.1060364E+000	-4.926779890303703E+001	5.4491982E-002	-1.1061667E+000	0
2.1950218E+001	9.867599771365349E+001	-1.1080340E+000	-5.047940662226210E+001	5.5932898E-002	-1.1081667E+000	0
2.1565144E+001	9.887619770859601E+001	-1.1100448E+000	-5.147402773582701E+001	5.7138480E-002	-1.1101682E+000	0
2.1126791E+001	9.907649770353601E+001	-1.1120418E+000	-5.263657186120190E+001	5.8534071E-002	-1.1121714E+000	0
2.0758007E+001	9.927669769847853E+001	-1.1140512E+000	-5.366850464701429E+001	5.9789464E-002	-1.1141735E+000	0
2.0312824E+001	9.947679769342358E+001	-1.1160561E+000	-5.494342206881402E+001	6.1319940E-002	-1.1161747E+000	0
1.9873594E+001	9.967709768836357E+001	-1.1180747E+000	-5.625931027842148E+001	6.2902108E-002	-1.1181772E+000	0
1.9474163E+001	9.987739768330357E+001	-1.1200672E+000	-5.751555320032605E+001	6.4421289E-002	-1.1201807E+000	0
1.9113123E+001	1.000773976782511E+002	-1.1220366E+000	-5.870503691210513E+001	6.5869197E-002	-1.1221807E+000	0
1.8822172E+001	1.002774976731962E+002	-1.1240494E+000	-5.971943077223159E+001	6.7127593E-002	-1.1241814E+000	0
1.8540258E+001	1.004775976681412E+002	-1.1260285E+000	-6.073424272958937E+001	6.8388492E-002	-1.1261828E+000	0
1.8232368E+001	1.006776976630863E+002	-1.1280770E+000	-6.187221721246249E+001	6.9796629E-002	-1.1281835E+000	0
1.7791748E+001	1.008779976580263E+002	-1.1300668E+000	-6.351634030246942E+001	7.1777701E-002	-1.1301867E+000	0
1.7532314E+001	1.010781976529688E+002	-1.1320637E+000	-6.457012416820135E+001	7.3097497E-002	-1.1321886E+000	0
1.7312786E+001	1.012783976479113E+002	-1.1340677E+000	-6.550462919178995E+001	7.4286684E-002	-1.1341906E+000	0
1.7082478E+001	1.014783976428589E+002	-1.1360694E+000	-6.650495779919765E+001	7.5554252E-002	-1.1361907E+000	0
1.6780800E+001	1.016783976378065E+002	-1.1380485E+000	-6.781849495083293E+001	7.7180736E-002	-1.1381907E+000	0
1.6384409E+001	1.018783976327541E+002	-1.1400783E+000	-6.958312050771804E+001	7.9330206E-002	-1.1401907E+000	0
1.6148081E+001	1.020784976276991E+002	-1.1420735E+000	-7.072502882852383E+001	8.0773182E-002	-1.1421915E+000	0
1.5962349E+001	1.022785976226442E+002	-1.1440609E+000	-7.167246325540424E+001	8.1997663E-002	-1.1441927E+000	0
1.5624469E+001	1.024787976175867E+002	-1.1460738E+000	-7.335121818522441E+001	8.4065914E-002	-1.1461941E+000	0
1.5328423E+001	1.026789976125292E+002	-1.1480834E+000	-7.489899505617393E+001	8.5990295E-002	-1.1481967E+000	0
1.5093957E+001	1.028789976074768E+002	-1.1501245E+000	-7.619768270992108E+001	8.7636828E-002	-1.1501968E+000	0
1.4906286E+001	1.030792976024168E+002	-1.1521164E+000	-7.729064060397457E+001	8.9047819E-002	-1.1521994E+000	0
1.4680085E+001	1.032797975973517E+002	-1.1541317E+000	-7.861886622954196E+001	9.0736523E-002	-1.1542041E+000	0
1.4389754E+001	1.034799975922942E+002	-1.1561458E+000	-8.034507149147078E+001	9.2890620E-002	-1.1562067E+000	0
1.4125061E+001	1.036799975872418E+002	-1.1581408E+000	-8.199191051167418E+001	9.4958179E-002	-1.1582067E+000	0
1.3986236E+001	1.038799975821894E+002	-1.1601280E+000	-8.294783948284135E+001	9.6230112E-002	-1.1602068E+000	0
1.3676039E+001	1.040801975771319E+002	-1.1621526E+000	-8.497728768482750E+001	9.8756582E-002	-1.1622087E+000	0
1.3381011E+001	1.042801975720795E+002	-1.1641452E+000	-8.699979557796428E+001	1.0128040E-001	-1.1642088E+000	0
1.3276917E+001	1.044802975670245E+002	-1.1661488E+000	-8.783280400573244E+001	1.0242612E-001	-1.1662095E+000	0
1.3120348E+001	1.046803975619696E+002	-1.1681257E+000	-8.903161024452641E+001	1.0400011E-001	-1.1682106E+000	0
1.3006579E+001	1.048804975569146E+002	-1.1701430E+000	-8.996547006303990E+001	1.0527246E-001	-1.1702114E+000	0
1.2820216E+001	1.050806975518572E+002	-1.1721491E+000	-9.142974477407961E+001	1.0716929E-001	-1.1722136E+000	0
1.2667938E+001	1.052809975467972E+002	-1.1741426E+000	-9.268616292337583E+001	1.0882677E-001	-1.1742163E+000	0
1.2373603E+001	1.054813975417346E+002	-1.1761633E+000	-9.505423504706278E+001	1.1179931E-001	-1.1762202E+000	0
1.1810946E+001	1.056815975366771E+002	-1.1781397E+000	-9.974981487310924E+001	1.1751921E-001	-1.1782227E+000	0
1.1595786E+001	1.058816975316222E+002	-1.1801543E+000	-1.017744098056942E+002	1.2010951E-001	-1.1802235E+000	0
1.1435495E+001	1.060818975265647E+002	-1.1821356E+000	-1.033742344450206E+002	1.2220236E-001	-1.1822255E+000	0
1.1273737E+001	1.062820975215072E+002	-1.1841521E+000	-1.050363491289254E+002	1.2437902E-001	-1.1842275E+000	0
1.1117308E+001	1.064823975164472E+002	-1.1861650E+000	-1.066953459730980E+002	1.2655829E-001	-1.1862303E+000	0
1.0823541E+001	1.066925975111371E+002	-1.1882565E+000	-1.097844497632009E+002	1.3045208E-001	-1.1883328E+000	0
1.0663444E+001	1.069025975058321E+002	-1.1903316E+000	-1.116273198214249E+002	1.3287352E-001	-1.1904327E+000	0
1.0433730E+001	1.071026975007771E+002	-1.1923373E+000	-1.142771865578079E+002	1.3625695E-001	-1.1924335E+000	0
1.0317657E+001	1.073027974957222E+002	-1.1943403E+000	-1.157569379265883E+002	1.3825318E-001	-1.1944348E+000	0
1.0047821E+001	1.075028974906672E+002	-1.1963419E+000	-1.190648090719003E+002	1.4244221E-001	-1.1964356E+000	0
9.9349260E+000	1.077029974856123E+002	-1.1983398E+000	-1.206189007899659E+002	1.4454243E-001	-1.1984367E+000	0
9.7725983E+000	1.079030974805573E+002	-1.2003226E+000	-1.228253325175153E+002	1.4743003E-001	-1.2004375E+000	0
9.5057545E+000	1.081033974754973E+002	-1.2023661E+000	-1.264882374125257E+002	1.5208517E-001	-1.2024403E+000	0
9.3509521E+000	1.083036974704373E+002	-1.2043200E+000	-1.287911557074283E+002	1.5510575E-001	-1.2044435E+000	0
9.1888618E+000	1.085038974653799E+002	-1.2063836E+000	-1.312875927863788E+002	1.5838319E-001	-1.2064455E+000	0
8.9882450E+000	1.087040974603224E+002	-1.2083393E+000	-1.344355175484086E+002	1.6244373E-001	-1.2084476E+000	0
8.9848595E+000	1.089042974552649E+002	-1.2103609E+000	-1.347111654360442E+002	1.6304913E-001	-1.2104495E+000	0
8.8768301E+000	1.091043974502099E+002	-1.2123712E+000	-1.365770390017497E+002	1.6558208E-001	-1.2124507E+000	0
8.6426277E+000	1.093043974451575E+002	-1.2143588E+000	-1.405080543278023E+002	1.7062719E-001	-1.2144507E+000	0
8.3058538E+000	1.095045974401000E+002	-1.2163705E+000	-1.464473769853621E+002	1.7813426E-001	-1.2164522E+000	0
8.1564579E+000	1.097047974350426E+002	-1.2183924E+000	-1.493776268515730E+002	1.8200056E-001	-1.2184547E+000	0
8.0719681E+000	1.099048974299876E+002	-1.2203825E+000	-1.511877149691770E+002	1.8450683E-001	-1.2204555E+000	0
7.9271135E+000	1.101050974249301E+002	-1.2223471E+000	-1.541982604113707E+002	1.8848380E-001	-1.2224575E+000	0
7.9286385E+000	1.103052974198727E+002	-1.2243537E+000	-1.544216774452540E+002	1.8906675E-001	-1.2244595E+000	0
7.8244581E+000	1.105054974148152E+002	-1.2263523E+000	-1.567331998591770E+002	1.9221012E-001	-1.2264614E+000	0
7.7155395E+000	1.107055974097602E+002	-1.2283704E+000	-1.592073336728845E+002	1.9556558E-001	-1.2284627E+000	0
7.5788631E+000	1.109055974047078E+002	-1.2303888E+000	-1.623447619630633E+002	1.9974717E-001	-1.2304627E+000	0
7.4609480E+000	1.111056973996529E+002	-1.2323878E+000	-1.651784482417413E+002	2.0356390E-001	-1.2324636E+000	0
7.3909841E+000	1.113058973945954E+002	-1.2343554E+000	-1.670082653171366E+002	2.0614757E-001	-1.2344656E+000	0
7.3531380E+000	1.115061973895354E+002	-1.2363889E+000	-1.681443939378532E+002	2.0789187E-001	-1.2364686E+000	0
7.3509960E+000	1.117062973844804E+002	-1.2383983E+000	-1.684667325099801E+002	2.0862892E-001	-1.2384695E+000	0
7.2660179E+000	1.119063973794255E+002	-1.2403721E+000	-1.707086385556095E+002	2.1174222E-001	-1.2404706E+000	0
7.1920156E+000	1.121064973743705E+002	-1.2423739E+000	-1.727435028779282E+002	2.1461202E-001	-1.2424715E+000	0
7.0659375E+000	1.123065973693156E+002	-1.2444029E+000	-1.761129198279791E+002	2.1915543E-001	-1.2444727E+000	0
6.9878936E+000	1.125067973642581E+002	-1.2464057E+000	-1.783664477647071E+002	2.2231697E-001	-1.2464741E+000	0
6.9556208E+000	1.127070973591981E+002	-1.2483908E+000	-1.794794223271620E+002	2.2406046E-001	-1.2484775E+000	0
6.9607606E+000	1.129071973541431E+002	-1.2504363E+000	-1.796407557852954E+002	2.2462933E-001	-1.2504786E+000	0
6.9122458E+000	1.131073973490857E+002	-1.2524346E+000	-1.811906931243252E+002	2.2692950E-001	-1.2524801E+000	0
6.7065001E+000	1.133075973440282E+002	-1.2544299E+000	-1.870468845107935E+002	2.3463722E-001	-1.2544827E+000	0
6.4572349E+000	1.135075973389758E+002	-1.2564483E+000	-1.945799201675554E+002	2.4447960E-001	-1.2564827E+000	0
6.4310021E+000	1.137075973339233E+002	-1.2584064E+000	-1.956781160350286E+002	2.4624260E-001	-1.2584827E+000	0
6.1666780E+000	1.139075973288709E+002	-1.2604357E+000	-2.043946117349224E+002	2.5762627E-001	-1.2604828E+000	0
6.0249691E+000	1.141075973238185E+002	-1.2624328E+000	-2.095334847465392E+002	2.6452196E-001	-1.2624828E+000	0
6.0188904E+000	1.143076973187635E+002	-1.2644355E+000	-2.100778395146726E+002	2.6562989E-001	-1.2644836E+000	0
5.9971390E+000	1.145078973137061E+002	-1.2664388E+000	-2.111738440556266E+002	2.6743877E-001	-1.2664856E+000	0
6.0095692E+000	1.147079973086511E+002	-1.2684259E+000	-2.110677022955582E+002	2.6772374E-001	-1.2684866E+000	0
5.9921708E+000	1.149080973035962E+002	-1.2704377E+000	-2.120162791793159E+002	2.6935348E-001	-1.2704875E+000	0
5.9029121E+000	1.151083972985361E+002	-1.2724174E+000	-2.155575715051060E+002	2.7427921E-001	-1.2724904E+000	0
5.7658825E+000	1.153085972934787E+002	-1.2744100E+000	-2.210260081972406E+002	2.8167775E-001	-1.2744927E+000	0
5.6788120E+000	1.155085972884262E+002	-1.2764416E+000	-2.247726378278658E+002	2.8690913E-001	-1.2764927E+000	0
5.4984159E+000	1.157086972833713E+002	-1.2784139E+000	-2.325058459699527E+002	2.9723871E-001	-1.2784935E+000	0
5.4620037E+000	1.159087972783163E+002	-1.2804723E+000	-2.344327002220407E+002	3.0018458E-001	-1.2804947E+000	0
5.3680253E+000	1.161088972732614E+002	-1.2824709E+000	-2.389092498661671E+002	3.0639416E-001	-1.2824955E+000	0
5.2406707E+000	1.163092972681989E+002	-1.2844499E+000	-2.450926584076765E+002	3.1480926E-001	-1.2844993E+000	0
5.2010894E+000	1.165093972631439E+002	-1.2864828E+000	-2.473487213701346E+002	3.1820989E-001	-1.2865007E+000	0
5.1239886E+000	1.167093972580915E+002	-1.2884580E+000	-2.514560688563746E+002	3.2399058E-001	-1.2885007E+000	0
5.1096129E+000	1.169093972530391E+002	-1.2904487E+000	-2.525531237055120E+002	3.2590684E-001	-1.2905008E+000	0
5.0914507E+000	1.171094972479841E+002	-1.2924727E+000	-2.538515654555756E+002	3.2809621E-001	-1.2925016E+000	0
5.0518308E+000	1.173095972429292E+002	-1.2944489E+000	-2.562336046668670E+002	3.3168128E-001	-1.2945027E+000	0
5.0224657E+000	1.175095972378767E+002	-1.2964461E+000	-2.581294011593941E+002	3.3465084E-001	-1.2965026E+000	0
5.0418820E+000	1.177097972328193E+002	-1.2984674E+000	-2.575362584122659E+002	3.3440244E-001	-1.2985041E+000	0
5.0675316E+000	1.179097972277668E+002	-1.3004612E+000	-2.566261689315124E+002	3.3373237E-001	-1.3005048E+000	0
5.0795574E+000	1.181097972227144E+002	-1.3024536E+000	-2.564108565086149E+002	3.3396325E-001	-1.3025047E+000	0
5.0245929E+000	1.183098972176595E+002	-1.3044760E+000	-2.596182609566299E+002	3.3866578E-001	-1.3045056E+000	0
4.9096518E+000	1.185099972126045E+002	-1.3064828E+000	-2.661049802265462E+002	3.4766158E-001	-1.3065068E+000	0
4.8091345E+000	1.187099972075521E+002	-1.3084899E+000	-2.720842794388054E+002	3.5601953E-001	-1.3085067E+000	0
4.8124685E+000	1.189100972024971E+002	-1.3104703E+000	-2.723073141066432E+002	3.5685065E-001	-1.3105075E+000	0
4.7278128E+000	1.191101971974422E+002	-1.3124590E+000	-2.776038531521813E+002	3.6434367E-001	-1.3125087E+000	0
4.6895418E+000	1.193101971923898E+002	-1.3145049E+000	-2.803056032154828E+002	3.6846307E-001	-1.3145088E+000	0
4.7052245E+000	1.195104971873297E+002	-1.3165165E+000	-2.797988621989859E+002	3.6835983E-001	-1.3165114E+000	0
4.6754770E+000	1.197105971822748E+002	-1.3184978E+000	-2.820028410260641E+002	3.7182012E-001	-1.3185127E+000	0
4.6245685E+000	1.199105971772224E+002	-1.3204968E+000	-2.855394669335992E+002	3.7705395E-001	-1.3205128E+000	0
4.4577084E+000	1.200907971726701E+002	-1.3223294E+000	-2.966388231547802E+002	3.9225423E-001	-1.3223144E+000	0
4.4570942E+000	1.202313971691183E+002	-1.3237671E+000	-2.970022649908515E+002	3.9316180E-001	-1.3237195E+000	0
4.4683018E+000	1.203721971655614E+002	-1.3251185E+000	-2.965597612097754E+002	3.9297685E-001	-1.3251283E+000	0
4.4389420E+000	1.205026971622647E+002	-1.3264810E+000	-2.988281742033951E+002	3.9638990E-001	-1.3264331E+000	0
4.4117360E+000	1.206530971584652E+002	-1.3279440E+000	-3.010026162419281E+002	3.9971462E-001	-1.3279374E+000	0
4.4036150E+000	1.208435971536528E+002	-1.3298285E+000	-3.019856322648270E+002	4.0158910E-001	-1.3298420E+000	0
4.3841023E+000	1.209841971501010E+002	-1.3312321E+000	-3.036498670066931E+002	4.0422845E-001	-1.3312474E+000	0
4.3813891E+000	1.211345971463015E+002	-1.3327491E+000	-3.041841510947261E+002	4.0540117E-001	-1.3327526E+000	0
4.3265123E+000	1.212753971427446E+002	-1.3341198E+000	-3.083591639420572E+002	4.1138807E-001	-1.3341591E+000	0
4.2861819E+000	1.214260971389376E+002	-1.3356819E+000	-3.116251244482062E+002	4.1623205E-001	-1.3356669E+000	0
4.2810583E+000	1.215963971346355E+002	-1.3373972E+000	-3.123987445752448E+002	4.1780120E-001	-1.3373698E+000	0
4.1924162E+000	1.217569971305784E+002	-1.3390008E+000	-3.193864142527640E+002	4.2765868E-001	-1.3389758E+000	0
4.1940756E+000	1.218876971272766E+002	-1.3403231E+000	-3.195753385790686E+002	4.2833421E-001	-1.3402833E+000	0
4.1487579E+000	1.220378971234823E+002	-1.3417809E+000	-3.234174878650924E+002	4.3395540E-001	-1.3417848E+000	0
4.1305876E+000	1.221982971194302E+002	-1.3434209E+000	-3.252372430625855E+002	4.3693051E-001	-1.3433888E+000	0
4.1357074E+000	1.223586971153782E+002	-1.3450069E+000	-3.252181193302840E+002	4.3742064E-001	-1.3449929E+000	0
4.1040621E+000	1.225292971110684E+002	-1.3467041E+000	-3.281393025273919E+002	4.4190654E-001	-1.3466992E+000	0
4.1186290E+000	1.226896971070164E+002	-1.3483001E+000	-3.273662379996451E+002	4.4138792E-001	-1.3483031E+000	0
4.1017451E+000	1.228301971034671E+002	-1.3497124E+000	-3.290580738879672E+002	4.4413376E-001	-1.3497076E+000	0
4.0898285E+000	1.229807970996626E+002	-1.3512359E+000	-3.303893777253861E+002	4.4643399E-001	-1.3512135E+000	0
4.0763068E+000	1.231411970956106E+002	-1.3528244E+000	-3.318750225203939E+002	4.4896865E-001	-1.3528184E+000	0
4.0868082E+000	1.233015970915585E+002	-1.3544232E+000	-3.314134424836484E+002	4.4887406E-001	-1.3544219E+000	0
4.0817413E+000	1.234321970882593E+002	-1.3557620E+000	-3.321528403086922E+002	4.5032021E-001	-1.3557274E+000	0
4.1155677E+000	1.235424970854729E+002	-1.3568486E+000	-3.296868443969379E+002	4.4733512E-001	-1.3568308E+000	0
4.1025991E+000	1.236731970821711E+002	-1.3581424E+000	-3.310443758156753E+002	4.4960541E-001	-1.3581380E+000	0
4.0555296E+000	1.238335970781191E+002	-1.3597568E+000	-3.352846385773460E+002	4.5590559E-001	-1.3597420E+000	0
4.0456843E+000	1.239941970740620E+002	-1.3613834E+000	-3.365026316393560E+002	4.5810911E-001	-1.3613474E+000	0
4.0194726E+000	1.241250970707551E+002	-1.3626848E+000	-3.390207877667112E+002	4.6197850E-001	-1.3626567E+000	0
4.0003977E+000	1.242754970669557E+002	-1.3641737E+000	-3.410095114325140E+002	4.6519619E-001	-1.3641609E+000	0
4.0118985E+000	1.243859970641643E+002	-1.3653134E+000	-3.403160216341748E+002	4.6463802E-001	-1.3652655E+000	0
4.0073767E+000	1.245261970606225E+002	-1.3666937E+000	-3.410444937077137E+002	4.6610337E-001	-1.3666682E+000	0
4.0350833E+000	1.246865970565705E+002	-1.3682858E+000	-3.390972989059737E+002	4.6398202E-001	-1.3682721E+000	0
3.9408607E+000	1.248370970527685E+002	-1.3698083E+000	-3.475911533989040E+002	4.7613326E-001	-1.3697767E+000	0
3.9354591E+000	1.249676970494693E+002	-1.3710989E+000	-3.483961630388367E+002	4.7768560E-001	-1.3710828E+000	0
3.9445863E+000	1.251080970459225E+002	-1.3725253E+000	-3.479516525845124E+002	4.7757247E-001	-1.3724862E+000	0
3.9135382E+000	1.252387970426207E+002	-1.3737962E+000	-3.510368735667944E+002	4.8225313E-001	-1.3737934E+000	0
3.8892105E+000	1.253891970388213E+002	-1.3752922E+000	-3.536173175395043E+002	4.8632714E-001	-1.3752980E+000	0
3.9087851E+000	1.255296970352720E+002	-1.3767120E+000	-3.522096859847422E+002	4.8489130E-001	-1.3767027E+000	0
3.8880863E+000	1.256601970319753E+002	-1.3780496E+000	-3.544287519134159E+002	4.8842040E-001	-1.3780077E+000	0
3.8947735E+000	1.258005970284285E+002	-1.3794444E+000	-3.541783243755572E+002	4.8856929E-001	-1.3794113E+000	0
3.8987334E+000	1.259609970243764E+002	-1.3810320E+000	-3.542258033049368E+002	4.8919716E-001	-1.3810161E+000	0
3.8658600E+000	1.261111970205820E+002	-1.3825192E+000	-3.576226935897594E+002	4.9442026E-001	-1.3825175E+000	0
3.7896099E+000	1.262515970170352E+002	-1.3839535E+000	-3.651968175128868E+002	5.0541538E-001	-1.3839220E+000	0
3.7869890E+000	1.263920970134859E+002	-1.3853406E+000	-3.658158391506840E+002	5.0677955E-001	-1.3853266E+000	0
3.7900653E+000	1.265424970096865E+002	-1.3868233E+000	-3.659101347052165E+002	5.0745273E-001	-1.3868306E+000	0
3.7007349E+000	1.266831970061321E+002	-1.3882586E+000	-3.751305138898078E+002	5.2077818E-001	-1.3882383E+000	0
3.2579746E+000	1.268235970025853E+002	-1.3897027E+000	-4.265541660930530E+002	5.9278345E-001	-1.3896419E+000	0
3.2470701E+000	1.269741969987808E+002	-1.3912281E+000	-4.284564321243042E+002	5.9608060E-001	-1.3911474E+000	0
3.1675951E+000	1.271147969952290E+002	-1.3926374E+000	-4.396512999369384E+002	6.1227483E-001	-1.3925540E+000	0
3.0992956E+000	1.272553969916771E+002	-1.3940517E+000	-4.497962757701389E+002	6.2703925E-001	-1.3939600E+000	0
3.0981517E+000	1.274257969873725E+002	-1.3957672E+000	-4.505161084985916E+002	6.2881559E-001	-1.3956640E+000	0
3.0633402E+000	1.275864969833128E+002	-1.3973553E+000	-4.561541467741740E+002	6.3740945E-001	-1.3972704E+000	0
3.0363321E+000	1.277171969800111E+002	-1.3986675E+000	-4.606437744951641E+002	6.4428747E-001	-1.3985778E+000	0
3.0344048E+000	1.278579969764542E+002	-1.4000938E+000	-4.614064136438246E+002	6.4601225E-001	-1.3999853E+000	0
3.0378411E+000	1.280283969721495E+002	-1.4017730E+000	-4.614372400561369E+002	6.4683026E-001	-1.4016900E+000	0
3.0363839E+000	1.281688969686002E+002	-1.4032165E+000	-4.621340743867077E+002	6.4847416E-001	-1.4030948E+000	0
2.9612319E+000	1.283093969650508E+002	-1.4046100E+000	-4.743330166148262E+002	6.6625291E-001	-1.4044998E+000	0
2.8857157E+000	1.284698969609963E+002	-1.4062114E+000	-4.873007252108000E+002	6.8524784E-001	-1.4061050E+000	0
2.9143889E+000	1.285906969579446E+002	-1.4073970E+000	-4.829132648432583E+002	6.7965072E-001	-1.4073129E+000	0
2.9225106E+000	1.287113969548955E+002	-1.4086314E+000	-4.819936041419960E+002	6.7895132E-001	-1.4085197E+000	0
2.8907802E+000	1.288218969521040E+002	-1.4097118E+000	-4.876579264531285E+002	6.8745714E-001	-1.4096245E+000	0
2.9081607E+000	1.289224969495626E+002	-1.4107480E+000	-4.850997381640773E+002	6.8435347E-001	-1.4106307E+000	0
2.9858465E+000	1.290628969460158E+002	-1.4121243E+000	-4.729393372861141E+002	6.6784912E-001	-1.4120349E+000	0
3.0064075E+000	1.292133969422139E+002	-1.4136280E+000	-4.702050526202725E+002	6.6469502E-001	-1.4135396E+000	0
2.9713368E+000	1.293539969386620E+002	-1.4150474E+000	-4.762325641338584E+002	6.7389166E-001	-1.4149456E+000	0
2.9250166E+000	1.295044969348601E+002	-1.4165412E+000	-4.842848395404562E+002	6.8600941E-001	-1.4164513E+000	0
2.9381216E+000	1.296447969313158E+002	-1.4179642E+000	-4.826090991329384E+002	6.8432242E-001	-1.4178532E+000	0
2.9467158E+000	1.297653969282692E+002	-1.4191762E+000	-4.816128464355311E+002	6.8349349E-001	-1.4190601E+000	0
2.9815361E+000	1.299361969239544E+002	-1.4208689E+000	-4.765559783931249E+002	6.7712355E-001	-1.4207680E+000	0
3.0168505E+000	1.301067969196447E+002	-1.4225717E+000	-4.715419879274850E+002	6.7080230E-001	-1.4224739E+000	0
3.0579317E+000	1.302471969160979E+002	-1.4239953E+000	-4.656726954936396E+002	6.6311568E-001	-1.4238776E+000	0
3.0800910E+000	1.303676969130538E+002	-1.4251704E+000	-4.627039858483950E+002	6.5943205E-001	-1.4250830E+000	0
3.0636802E+000	1.305081969095045E+002	-1.4265800E+000	-4.656425908375586E+002	6.6427636E-001	-1.4264880E+000	0
3.0419459E+000	1.306785969051998E+002	-1.4283034E+000	-4.695360605679180E+002	6.7063993E-001	-1.4281921E+000	0
3.0595739E+000	1.308590969006400E+002	-1.4300833E+000	-4.674125509818659E+002	6.6843885E-001	-1.4299971E+000	0
3.0840411E+000	1.310293968963379E+002	-1.4317777E+000	-4.642537626173580E+002	6.6470820E-001	-1.4317002E+000	0
3.1103942E+000	1.311797968925384E+002	-1.4332933E+000	-4.608076045474018E+002	6.6047245E-001	-1.4332038E+000	0
3.1192474E+000	1.313201968889916E+002	-1.4346771E+000	-4.599433563907319E+002	6.5987021E-001	-1.4346079E+000	0
3.1105428E+000	1.314307968861976E+002	-1.4357709E+000	-4.615820986277226E+002	6.6272610E-001	-1.4357134E+000	0
3.0355752E+000	1.315710968826534E+002	-1.4372272E+000	-4.734612600393511E+002	6.8047142E-001	-1.4371170E+000	0
3.0246639E+000	1.317314968786013E+002	-1.4388472E+000	-4.757048026454865E+002	6.8446654E-001	-1.4387208E+000	0
2.9790452E+000	1.318720968750495E+002	-1.4402006E+000	-4.834436934861274E+002	6.9625586E-001	-1.4401265E+000	0
2.9764154E+000	1.320023968717578E+002	-1.4415461E+000	-4.843228686114517E+002	6.9817376E-001	-1.4414300E+000	0
2.9702554E+000	1.321528968679559E+002	-1.4430387E+000	-4.858298385102726E+002	7.0107126E-001	-1.4429350E+000	0
2.9916441E+000	1.323131968639063E+002	-1.4446532E+000	-4.828960417823982E+002	6.9761729E-001	-1.4445376E+000	0
2.9280388E+000	1.324637968601019E+002	-1.4461452E+000	-4.938954739618864E+002	7.1424454E-001	-1.4460436E+000	0
2.9037704E+000	1.326042968565525E+002	-1.4475756E+000	-4.985158268094838E+002	7.2163934E-001	-1.4474486E+000	0
2.9231808E+000	1.327249968535034E+002	-1.4487369E+000	-4.956029245148848E+002	7.1799827E-001	-1.4486556E+000	0
2.9476883E+000	1.328754968497014E+002	-1.4502645E+000	-4.920006048766281E+002	7.1353102E-001	-1.4501605E+000	0
2.9490945E+000	1.330260968458970E+002	-1.4517621E+000	-4.922738262352532E+002	7.1466446E-001	-1.4516667E+000	0
2.9579606E+000	1.331866968418399E+002	-1.4533393E+000	-4.913315291855488E+002	7.1407145E-001	-1.4532726E+000	0
2.9800143E+000	1.333573968375276E+002	-1.4550662E+000	-4.882748958006755E+002	7.1047229E-001	-1.4549800E+000	0
3.0109773E+000	1.335279968332179E+002	-1.4567909E+000	-4.838265972685889E+002	7.0483422E-001	-1.4566859E+000	0
3.0327289E+000	1.336785968294134E+002	-1.4583007E+000	-4.808542851738057E+002	7.0123017E-001	-1.4581918E+000	0
3.0236800E+000	1.338291968256090E+002	-1.4598134E+000	-4.827935925001912E+002	7.0478851E-001	-1.4596977E+000	0
2.9853451E+000	1.339696968220596E+002	-1.4611970E+000	-4.894566421675781E+002	7.1519262E-001	-1.4611030E+000	0
2.9945450E+000	1.341002968187604E+002	-1.4625207E+000	-4.883949666580165E+002	7.1428776E-001	-1.4624084E+000	0
3.0067439E+000	1.342605968147109E+002	-1.4640796E+000	-4.869319225483937E+002	7.1290708E-001	-1.4640120E+000	0
2.9703476E+000	1.344010968111616E+002	-1.4655091E+000	-4.933796561916324E+002	7.2305238E-001	-1.4654170E+000	0
2.9958916E+000	1.345514968073621E+002	-1.4670022E+000	-4.896713090479698E+002	7.1834886E-001	-1.4669210E+000	0
2.9834318E+000	1.347120968033050E+002	-1.4686139E+000	-4.922565568710043E+002	7.2293478E-001	-1.4685270E+000	0
3.0047774E+000	1.348525967997557E+002	-1.4700426E+000	-4.892351113668983E+002	7.1919644E-001	-1.4699318E+000	0
2.9830153E+000	1.350029967959563E+002	-1.4715523E+000	-4.933103314852467E+002	7.2593194E-001	-1.4714360E+000	0
2.9498911E+000	1.351831967914040E+002	-1.4733657E+000	-4.994644270008102E+002	7.3589373E-001	-1.4732386E+000	0
2.9686120E+000	1.353831967863516E+002	-1.4753299E+000	-4.969763462083959E+002	7.3320407E-001	-1.4752384E+000	0
2.9978187E+000	1.355831967812992E+002	-1.4773554E+000	-4.928101018529360E+002	7.2805566E-001	-1.4772385E+000	0
3.0114262E+000	1.357831967762468E+002	-1.4793124E+000	-4.912331713419080E+002	7.2668731E-001	-1.4792385E+000	0
3.0205948E+000	1.359831967711943E+002	-1.4813633E+000	-4.904210495375713E+002	7.2649175E-001	-1.4812385E+000	0
3.0380144E+000	1.361831967661419E+002	-1.4832952E+000	-4.882449374425980E+002	7.2421139E-001	-1.4832386E+000	0
3.0152173E+000	1.363831967610895E+002	-1.4853202E+000	-4.926079968259978E+002	7.3168063E-001	-1.4852386E+000	0
3.0539086E+000	1.365831967560371E+002	-1.4873087E+000	-4.870181117544362E+002	7.2434628E-001	-1.4872385E+000	0
2.9276469E+000	1.367831967509846E+002	-1.4893329E+000	-5.087132903291501E+002	7.5764346E-001	-1.4892386E+000	0
2.8694232E+000	1.369831967459322E+002	-1.4913429E+000	-5.197361283940263E+002	7.7510476E-001	-1.4912385E+000	0
2.8147278E+000	1.371831967408798E+002	-1.4933850E+000	-5.305610784284108E+002	7.9233193E-001	-1.4932386E+000	0
2.7999489E+000	1.373831967358274E+002	-1.4954100E+000	-5.340847094529331E+002	7.9867560E-001	-1.4952384E+000	0
2.7542510E+000	1.375831967307749E+002	-1.4973811E+000	-5.436617888279779E+002	8.1406885E-001	-1.4972385E+000	0
2.7543311E+000	1.377831967257225E+002	-1.4993776E+000	-5.443708512701945E+002	8.1621748E-001	-1.4992386E+000	0
2.7652586E+000	1.379831967206701E+002	-1.5013825E+000	-5.429446824002407E+002	8.1516761E-001	-1.5012385E+000	0
2.8515880E+000	1.381831967156177E+002	-1.5033995E+000	-5.272148352988452E+002	7.9261452E-001	-1.5032386E+000	0
2.9201667E+000	1.383831967105652E+002	-1.5053641E+000	-5.155062093756369E+002	7.7602452E-001	-1.5052384E+000	0
2.9529171E+000	1.385831967055128E+002	-1.5073842E+000	-5.104729005982273E+002	7.6947880E-001	-1.5072385E+000	0
2.9354577E+000	1.387831967004604E+002	-1.5093979E+000	-5.141950522874740E+002	7.7612489E-001	-1.5092384E+000	0
2.8704493E+000	1.389831966954080E+002	-1.5113980E+000	-5.265370646106985E+002	7.9580706E-001	-1.5112385E+000	0
2.8187778E+000	1.391831966903555E+002	-1.5133833E+000	-5.368934211298474E+002	8.1252551E-001	-1.5132385E+000	0
2.7257390E+000	1.393831966853031E+002	-1.5153666E+000	-5.559470688091105E+002	8.4246361E-001	-1.5152384E+000	0
2.7452235E+000	1.395831966802507E+002	-1.5173601E+000	-5.527273455379773E+002	8.3868641E-001	-1.5172385E+000	0
2.8314574E+000	1.397831966751983E+002	-1.5193753E+000	-5.366054040471977E+002	8.1530499E-001	-1.5192386E+000	0
2.8356588E+000	1.399831966701458E+002	-1.5213619E+000	-5.365109142813799E+002	8.1622732E-001	-1.5212384E+000	0
2.8459282E+000	1.401831966650934E+002	-1.5233907E+000	-5.352878232423973E+002	8.1545246E-001	-1.5232385E+000	0
2.8161867E+000	1.403831966600410E+002	-1.5253699E+000	-5.416437463046741E+002	8.2620704E-001	-1.5252384E+000	0
2.8177285E+000	1.405831966549886E+002	-1.5273747E+000	-5.420588922046481E+002	8.2792705E-001	-1.5272385E+000	0
2.7954030E+000	1.407831966499361E+002	-1.5293549E+000	-5.470964219748566E+002	8.3670461E-001	-1.5292386E+000	0
2.7938702E+000	1.409831966448837E+002	-1.5313842E+000	-5.481229072492915E+002	8.3938676E-001	-1.5312384E+000	0
2.7829614E+000	1.411831966398313E+002	-1.5333693E+000	-5.509847576980446E+002	8.4486312E-001	-1.5332384E+000	0
2.8217258E+000	1.413831966347789E+002	-1.5353553E+000	-5.441192545901595E+002	8.3541638E-001	-1.5352385E+000	0
2.8144648E+000	1.415831966297264E+002	-1.5373815E+000	-5.462429224131049E+002	8.3978379E-001	-1.5372385E+000	0
2.8245795E+000	1.417831966246740E+002	-1.5393651E+000	-5.449891187101257E+002	8.3893722E-001	-1.5392386E+000	0
2.7779040E+000	1.419831966196216E+002	-1.5413940E+000	-5.548766323011751E+002	8.5528350E-001	-1.5412385E+000	0
2.7722633E+000	1.421831966145692E+002	-1.5433767E+000	-5.567208239107699E+002	8.5922992E-001	-1.5432384E+000	0
2.5558548E+000	1.423831966095167E+002	-1.5456792E+000	-6.047601757309058E+002	9.3476522E-001	-1.5452385E+000	0
2.5434270E+000	1.425831966044643E+002	-1.5479486E+000	-6.086074327481847E+002	9.4209301E-001	-1.5472386E+000	0
2.5774546E+000	1.427831965994119E+002	-1.5499221E+000	-6.013382755980219E+002	9.3202746E-001	-1.5492384E+000	0
2.5991142E+000	1.429031965963804E+002	-1.5511572E+000	-5.968022840850263E+002	9.2573416E-001	-1.5504382E+000	0
2.6070890E+000	1.429141965961026E+002	-1.5514892E+000	-5.951040649414063E+002	9.2329752E-001	-1.5507382E+000	1