EC-Lab ASCII FILE
Nb header lines : 63                          

Linear Sweep Voltammetry

Run on channel : 1 (SN 1340)
User : 
Electrode connection : standard
Potential control : Ewe
Ewe ctrl range : min = -5.00 V, max = 5.00 V
Ewe,I filtering : <None>
Safety Limits :
	Do not start on E overload
Channel : Floating
Acquisition started on : 03/03/2026 16:10:33.423
Technique started on : 03/03/2026 16:10:36.106
Loaded Setting File :  NONE
Saved on :
	File : X18_75_N52magA_up_3-3_02_LSV_C01.mpr
	Directory : C:\Users\volt\Documents\Platalytix\
	Host : 127.0.0.1
Device : SP-200 (SN 0262)
Address : USB
EC-LAB for windows v11.60 (software)
Internet server v11.60 (firmware)
Command interpretor v11.60 (firmware)
Electrode material : Ni40
Initial state : 
Electrolyte : KOH (1 M)
Comments : with magnet side A (+), N52 Nd magnet, alloy placed straight up
Cable : standard
Reference electrode : Hg/HgO (0.140 V)
Electrode surface area : 1.000 cm˛
Characteristic mass : 0.001 g
Equivalent Weight : 0.000 g/eq.
Density : 0.000 g/cm3
Volume (V) : 0.001 cmł
Cycle Definition : Charge/Discharge alternance
tR (h:m:s)          0:00:5.0000         
dER/dt (mV/h)       0.0                 
dER (mV)            0                   
dtR (s)             0.0000              
dE/dt               10.000              
dE/dt unit          mV/s                
Ei (V)              -0.200              
vs.                 Ref                 
EL (V)              -2.500              
vs.                 Ref                 
record              <I>                 
dI                  0.000               
unit dI             µA                  
tI (s)              0.0000              
step percent        50                  
N                   10                  
E range min (V)     -5.000              
E range max (V)     5.000               
I Range             Auto                
I Range min         Unset               
I Range max         Unset               
I Range init        Unset               
Bandwidth           8                   

Rwe/Ohm	time/s	Ewe/V	<I>/mA	Pwe/W	control/V	error	
0.0000000E+000	2.683400127425557E+000	-1.4475815E-001	0.000000000000000E+000	0.0000000E+000	0.0000000E+000	0
0.0000000E+000	7.683200001119985E+000	-3.8093351E-002	0.000000000000000E+000	0.0000000E+000	-1.9998720E-001	0
8.3823232E+003	7.883199996067560E+000	-2.0169161E-001	-2.406154146068734E-002	4.8530110E-006	-2.0188698E-001	0
1.4587870E+003	8.003199993036105E+000	-2.0287922E-001	-1.390739197586186E-001	2.8215209E-005	-2.0308705E-001	0
1.5434652E+003	8.213199987731059E+000	-2.0496942E-001	-1.327982123660310E-001	2.7219572E-005	-2.0518704E-001	0
1.6851987E+003	8.413199982678634E+000	-2.0701653E-001	-1.228439824723234E-001	2.5430734E-005	-2.0718698E-001	0
1.8173126E+003	8.613199977626209E+000	-2.0897622E-001	-1.149918979515334E-001	2.4030573E-005	-2.0918691E-001	0
1.9398763E+003	8.813199972573784E+000	-2.1097580E-001	-1.087573423365003E-001	2.2945167E-005	-2.1118686E-001	0
2.0524526E+003	9.013199967521359E+000	-2.1300460E-001	-1.037805235845433E-001	2.2105729E-005	-2.1318677E-001	0
2.1580471E+003	9.213199962468934E+000	-2.1498549E-001	-9.962038361613157E-002	2.1416938E-005	-2.1518672E-001	0
2.2569592E+003	9.413199957416509E+000	-2.1696810E-001	-9.613293380520879E-002	2.0857780E-005	-2.1718663E-001	0
2.3504431E+003	9.613199952364084E+000	-2.1898971E-001	-9.316954254162191E-002	2.0403171E-005	-2.1918656E-001	0
2.4409348E+003	9.813199947311659E+000	-2.2101009E-001	-9.054321814655779E-002	2.0010964E-005	-2.2118650E-001	0
2.5275884E+003	1.001319994225923E+001	-2.2300795E-001	-8.822953359059182E-002	1.9675887E-005	-2.2318642E-001	0
2.6109434E+003	1.021319993720681E+001	-2.2499689E-001	-8.617456275082760E-002	1.9389008E-005	-2.2518636E-001	0
2.6918503E+003	1.041319993215438E+001	-2.2699180E-001	-8.432556896326915E-002	1.9141213E-005	-2.2718629E-001	0
2.7701765E+003	1.061319992710196E+001	-2.2896525E-001	-8.265367101681476E-002	1.8924819E-005	-2.2918621E-001	0
2.8487637E+003	1.081319992204953E+001	-2.3096865E-001	-8.107680325447086E-002	1.8726199E-005	-2.3118615E-001	0
2.9232673E+003	1.101319991699711E+001	-2.3302698E-001	-7.971456517568887E-002	1.8575645E-005	-2.3318608E-001	0
2.9958420E+003	1.121319991194468E+001	-2.3497924E-001	-7.843512186755219E-002	1.8430626E-005	-2.3518603E-001	0
3.0692454E+003	1.141319990689226E+001	-2.3701361E-001	-7.722211094644971E-002	1.8302691E-005	-2.3718596E-001	0
3.1428066E+003	1.161319990183983E+001	-2.3901314E-001	-7.605085382818777E-002	1.8177154E-005	-2.3918588E-001	0
3.2122637E+003	1.181319989678741E+001	-2.4101442E-001	-7.502946497338203E-002	1.8083183E-005	-2.4118583E-001	0
3.2826335E+003	1.201319989173498E+001	-2.4298681E-001	-7.402191059178143E-002	1.7986347E-005	-2.4318574E-001	0
3.3536411E+003	1.221319988668256E+001	-2.4501480E-001	-7.305933705577516E-002	1.7900618E-005	-2.4518569E-001	0
3.4223992E+003	1.241319988163013E+001	-2.4700782E-001	-7.217387819098839E-002	1.7827511E-005	-2.4718562E-001	0
3.4897290E+003	1.261319987657771E+001	-2.4897237E-001	-7.134432918993983E-002	1.7762766E-005	-2.4918556E-001	0
3.5588477E+003	1.281319987152528E+001	-2.5101689E-001	-7.053319235435784E-002	1.7705022E-005	-2.5118548E-001	0
3.6243870E+003	1.301319986647286E+001	-2.5300607E-001	-6.980658557251207E-002	1.7661490E-005	-2.5318542E-001	0
3.6921501E+003	1.321319986142043E+001	-2.5498846E-001	-6.906232393828238E-002	1.7610097E-005	-2.5518537E-001	0
3.7602573E+003	1.341319985636801E+001	-2.5702855E-001	-6.835398012339239E-002	1.7568924E-005	-2.5718525E-001	0
3.8238279E+003	1.361309985131811E+001	-2.5896120E-001	-6.772302841198484E-002	1.7537637E-005	-2.5918585E-001	0
3.8899666E+003	1.381299984626821E+001	-2.6098415E-001	-6.709162018297765E-002	1.7509850E-005	-2.6118511E-001	0
3.9587305E+003	1.401299984121579E+001	-2.6305589E-001	-6.644956011625031E-002	1.7479948E-005	-2.6318508E-001	0
4.0211265E+003	1.421299983616336E+001	-2.6495978E-001	-6.589193073737010E-002	1.7458711E-005	-2.6518500E-001	0
4.0869365E+003	1.441299983111094E+001	-2.6696250E-001	-6.532093284645291E-002	1.7438240E-005	-2.6718491E-001	0
4.1510234E+003	1.461299982605851E+001	-2.6892769E-001	-6.478587772682443E-002	1.7422717E-005	-2.6918486E-001	0
4.2161064E+003	1.481299982100609E+001	-2.7096564E-001	-6.426916282904882E-002	1.7414735E-005	-2.7118480E-001	0
4.2816724E+003	1.501299981595366E+001	-2.7295250E-001	-6.374903843588214E-002	1.7400460E-005	-2.7318472E-001	0
4.3479287E+003	1.521299981090124E+001	-2.7500618E-001	-6.324993007997992E-002	1.7394121E-005	-2.7518469E-001	0
4.4114541E+003	1.541299980584881E+001	-2.7696288E-001	-6.278266891353523E-002	1.7388469E-005	-2.7718461E-001	0
4.4749165E+003	1.561299980079639E+001	-2.7894226E-001	-6.233462810520585E-002	1.7387762E-005	-2.7918452E-001	0
4.5426587E+003	1.581299979574396E+001	-2.8100419E-001	-6.185896850619732E-002	1.7382630E-005	-2.8118443E-001	0
4.6072549E+003	1.601299979069154E+001	-2.8297934E-001	-6.142037895417296E-002	1.7380698E-005	-2.8318438E-001	0
4.6695200E+003	1.621299978563911E+001	-2.8498340E-001	-6.103055757077636E-002	1.7392696E-005	-2.8518429E-001	0
4.7343813E+003	1.641299978058669E+001	-2.8699398E-001	-6.061910875426726E-002	1.7397319E-005	-2.8718427E-001	0
4.7986904E+003	1.661299977553426E+001	-2.8898570E-001	-6.022178368535218E-002	1.7403234E-005	-2.8918418E-001	0
4.8614604E+003	1.681299977048184E+001	-2.9096931E-001	-5.985224051210913E-002	1.7415165E-005	-2.9118413E-001	0
4.9251304E+003	1.701299976542941E+001	-2.9300052E-001	-5.949091702507481E-002	1.7430870E-005	-2.9318404E-001	0
4.9893652E+003	1.721299976037699E+001	-2.9498416E-001	-5.912258406644860E-002	1.7440227E-005	-2.9518396E-001	0
5.0545547E+003	1.741299975532456E+001	-2.9701364E-001	-5.876158311162705E-002	1.7452992E-005	-2.9718390E-001	0
5.1196880E+003	1.761299975027214E+001	-2.9900473E-001	-5.840292094326027E-002	1.7462749E-005	-2.9918382E-001	0
5.1843169E+003	1.781299974521971E+001	-3.0094546E-001	-5.804920076527742E-002	1.7469643E-005	-3.0118376E-001	0
5.2491401E+003	1.801299974016729E+001	-3.0298305E-001	-5.772050979754151E-002	1.7488335E-005	-3.0318370E-001	0
5.3147832E+003	1.821299973511486E+001	-3.0503100E-001	-5.739293468993600E-002	1.7506625E-005	-3.0518362E-001	0
5.3805508E+003	1.841299973006244E+001	-3.0701464E-001	-5.706007738044389E-002	1.7518279E-005	-3.0718356E-001	0
5.4426147E+003	1.861299972501001E+001	-3.0897179E-001	-5.676899710300543E-002	1.7540018E-005	-3.0918351E-001	0
5.5080005E+003	1.881299971995759E+001	-3.1098384E-001	-5.646038489245181E-002	1.7558266E-005	-3.1118342E-001	0
5.5714780E+003	1.901299971490516E+001	-3.1298977E-001	-5.617715409891400E-002	1.7582875E-005	-3.1318337E-001	0
5.6361270E+003	1.921299970985274E+001	-3.1500778E-001	-5.589082297476233E-002	1.7606044E-005	-3.1518325E-001	0
5.7000020E+003	1.941289970480284E+001	-3.1699508E-001	-5.561315227082023E-002	1.7629096E-005	-3.1718367E-001	0
5.7651372E+003	1.961279969975294E+001	-3.1899676E-001	-5.533203337597081E-002	1.7650740E-005	-3.1918314E-001	0
5.8260254E+003	1.981279969470052E+001	-3.2098547E-001	-5.509510149972319E-002	1.7684726E-005	-3.2118309E-001	0
5.8962700E+003	2.001279968964809E+001	-3.2296744E-001	-5.477487139061721E-002	1.7690500E-005	-3.2318300E-001	0
5.9615337E+003	2.021279968459567E+001	-3.2495469E-001	-5.450857279699761E-002	1.7712817E-005	-3.2518294E-001	0
6.0283569E+003	2.041279967954324E+001	-3.2698226E-001	-5.424069260962958E-002	1.7735745E-005	-3.2718286E-001	0
6.0891509E+003	2.061279967449082E+001	-3.2895377E-001	-5.402292816502685E-002	1.7771046E-005	-3.2918283E-001	0
6.1555205E+003	2.081279966943839E+001	-3.3101982E-001	-5.377609089498425E-002	1.7800952E-005	-3.3118275E-001	0
6.2244951E+003	2.101279966438597E+001	-3.3300024E-001	-5.349835403297348E-002	1.7814966E-005	-3.3318269E-001	0
6.2869229E+003	2.121279965933354E+001	-3.3502147E-001	-5.328862568260062E-002	1.7852833E-005	-3.3518261E-001	0
6.3487231E+003	2.141279965428112E+001	-3.3696055E-001	-5.307532724335162E-002	1.7884291E-005	-3.3718252E-001	0
6.4166592E+003	2.161279964922869E+001	-3.3899873E-001	-5.283103354302676E-002	1.7909653E-005	-3.3918247E-001	0
6.4841372E+003	2.181279964417627E+001	-3.4098071E-001	-5.258690674901190E-002	1.7931121E-005	-3.4118241E-001	0
6.5455176E+003	2.201279963912384E+001	-3.4303287E-001	-5.240729614794515E-002	1.7977425E-005	-3.4318233E-001	0
6.6149097E+003	2.221279963407142E+001	-3.4500507E-001	-5.215567360102041E-002	1.7993971E-005	-3.4518227E-001	0
6.6788989E+003	2.241279962901899E+001	-3.4698871E-001	-5.195298033149792E-002	1.8027098E-005	-3.4718221E-001	0
6.7454995E+003	2.261279962396657E+001	-3.4901819E-001	-5.174089418544658E-002	1.8058514E-005	-3.4918213E-001	0
6.8076333E+003	2.281279961891414E+001	-3.5099676E-001	-5.155929364950351E-002	1.8097146E-005	-3.5118207E-001	0
6.8762017E+003	2.301279961386172E+001	-3.5300991E-001	-5.133792402406502E-002	1.8122795E-005	-3.5318199E-001	0
6.9425347E+003	2.321279960880929E+001	-3.5498229E-001	-5.113151118997694E-002	1.8150780E-005	-3.5518190E-001	0
7.0069697E+003	2.341279960375687E+001	-3.5696998E-001	-5.094498553146465E-002	1.8185830E-005	-3.5718185E-001	0
7.0759590E+003	2.361279959870444E+001	-3.5894492E-001	-5.072738836485646E-002	1.8208339E-005	-3.5918179E-001	0
7.1404067E+003	2.381279959365202E+001	-3.6098906E-001	-5.055581299638778E-002	1.8250095E-005	-3.6118171E-001	0
7.1998677E+003	2.401279958859959E+001	-3.6299688E-001	-5.041716033075416E-002	1.8301273E-005	-3.6318165E-001	0
7.2677642E+003	2.421279958354717E+001	-3.6495334E-001	-5.021535393004806E-002	1.8326262E-005	-3.6518160E-001	0
7.3274414E+003	2.441279957849474E+001	-3.6697266E-001	-5.008196363926709E-002	1.8378711E-005	-3.6718148E-001	0
7.4050981E+003	2.461279957344232E+001	-3.6899027E-001	-4.982921967965037E-002	1.8386498E-005	-3.6918148E-001	0
7.4656196E+003	2.481279956838989E+001	-3.7094867E-001	-4.968759195526440E-002	1.8431547E-005	-3.7118137E-001	0
7.5271118E+003	2.501279956333747E+001	-3.7295204E-001	-4.954782806182717E-002	1.8478964E-005	-3.7318131E-001	0
7.5927012E+003	2.521269955828757E+001	-3.7495416E-001	-4.938350084182208E-002	1.8516550E-005	-3.7518123E-001	0
7.6628667E+003	2.541259955323767E+001	-3.7699234E-001	-4.919729895188607E-002	1.8547005E-005	-3.7718117E-001	0
7.7273594E+003	2.561259954818524E+001	-3.7899530E-001	-4.904589965219397E-002	1.8588165E-005	-3.7918112E-001	0
7.7934761E+003	2.581259954313282E+001	-3.8099295E-001	-4.888613705202305E-002	1.8625273E-005	-3.8118106E-001	0
7.8582803E+003	2.601259953808039E+001	-3.8298488E-001	-4.873647426477856E-002	1.8665332E-005	-3.8318095E-001	0
7.9251904E+003	2.621259953302797E+001	-3.8499209E-001	-4.857827545235527E-002	1.8702252E-005	-3.8518089E-001	0
7.9904409E+003	2.641259952797554E+001	-3.8700268E-001	-4.843320550165808E-002	1.8743780E-005	-3.8718084E-001	0
8.0570244E+003	2.661259952292312E+001	-3.8903913E-001	-4.828570932498333E-002	1.8785031E-005	-3.8918075E-001	0
8.1223813E+003	2.681259951787069E+001	-3.9095190E-001	-4.813267133550292E-002	1.8817560E-005	-3.9118069E-001	0
8.1913081E+003	2.701259951281827E+001	-3.9302388E-001	-4.798060096773937E-002	1.8857521E-005	-3.9318064E-001	0
8.2576758E+003	2.721259950776584E+001	-3.9501050E-001	-4.783555598166089E-002	1.8895547E-005	-3.9518052E-001	0
8.3249941E+003	2.741259950271342E+001	-3.9698625E-001	-4.768607188929530E-002	1.8930714E-005	-3.9718047E-001	0
8.3902236E+003	2.761259949766099E+001	-3.9895296E-001	-4.754974303398569E-002	1.8970111E-005	-3.9918041E-001	0
8.4550771E+003	2.781259949260857E+001	-4.0096632E-001	-4.742314115899493E-002	1.9015082E-005	-4.0118036E-001	0
8.5207422E+003	2.801259948755614E+001	-4.0299323E-001	-4.729555640026489E-002	1.9059789E-005	-4.0318030E-001	0
8.5888320E+003	2.821259948250372E+001	-4.0499726E-001	-4.715393987022853E-002	1.9097217E-005	-4.0518025E-001	0
8.6552998E+003	2.841259947745129E+001	-4.0701744E-001	-4.702522739574788E-002	1.9140087E-005	-4.0718013E-001	0
8.7208398E+003	2.861259947239887E+001	-4.0900400E-001	-4.689961143578181E-002	1.9182129E-005	-4.0918007E-001	0
8.7905947E+003	2.881259946734644E+001	-4.1099194E-001	-4.675359863211348E-002	1.9215353E-005	-4.1118002E-001	0
8.8481230E+003	2.901259946229402E+001	-4.1306338E-001	-4.668372686685229E-002	1.9283338E-005	-4.1317993E-001	0
8.9183750E+003	2.921259945724159E+001	-4.1503602E-001	-4.653718236484294E-002	1.9314608E-005	-4.1517991E-001	0
8.9807666E+003	2.941259945218917E+001	-4.1705576E-001	-4.643877099828853E-002	1.9367557E-005	-4.1717982E-001	0
9.0583877E+003	2.961259944713674E+001	-4.1905406E-001	-4.626143839059282E-002	1.9386043E-005	-4.1917977E-001	0
9.1176670E+003	2.981259944208432E+001	-4.2104661E-001	-4.617920744997317E-002	1.9443600E-005	-4.2117965E-001	0
9.1884590E+003	3.001259943703189E+001	-4.2301270E-001	-4.603739485092873E-002	1.9474403E-005	-4.2317960E-001	0
9.2503086E+003	3.021259943197947E+001	-4.2501879E-001	-4.594644571970216E-002	1.9528103E-005	-4.2517951E-001	0
9.3122246E+003	3.041259942692705E+001	-4.2706463E-001	-4.586064328424755E-002	1.9585459E-005	-4.2717949E-001	0
9.3861475E+003	3.061259942187462E+001	-4.2905587E-001	-4.571160472308622E-002	1.9612833E-005	-4.2917940E-001	0
9.4593691E+003	3.081259941682220E+001	-4.3099836E-001	-4.556311963362580E-002	1.9637630E-005	-4.3117934E-001	0
9.5193154E+003	3.101259941176977E+001	-4.3305883E-001	-4.549264610357501E-002	1.9700992E-005	-4.3317923E-001	0
9.5876445E+003	3.121249940671987E+001	-4.3502679E-001	-4.537368750814141E-002	1.9738769E-005	-4.3518010E-001	0
9.6530957E+003	3.141239940166997E+001	-4.3703672E-001	-4.527425538862551E-002	1.9786512E-005	-4.3717912E-001	0
9.7207412E+003	3.161239939661755E+001	-4.3907154E-001	-4.516852283406821E-002	1.9832212E-005	-4.3917906E-001	0
9.7850195E+003	3.181239939156512E+001	-4.4098625E-001	-4.506748776920888E-002	1.9874142E-005	-4.4117901E-001	0
9.8895703E+003	3.203239938600746E+001	-4.4323587E-001	-4.481851505506540E-002	1.9865174E-005	-4.4337893E-001	0
9.9768203E+003	3.225239938044979E+001	-4.4541040E-001	-4.464452535224472E-002	1.9885136E-005	-4.4557881E-001	0
1.0040154E+004	3.245239937539736E+001	-4.4737643E-001	-4.455872091819502E-002	1.9934521E-005	-4.4757882E-001	0
1.0112295E+004	3.265239937034494E+001	-4.4946447E-001	-4.444732686769770E-002	1.9977495E-005	-4.4957870E-001	0
1.0182751E+004	3.285239936529251E+001	-4.5145237E-001	-4.433501255302541E-002	2.0015146E-005	-4.5157865E-001	0
1.0240438E+004	3.305239936024009E+001	-4.5339316E-001	-4.427478177174132E-002	2.0073883E-005	-4.5357856E-001	0
1.0308042E+004	3.325239935518766E+001	-4.5543453E-001	-4.418244958583824E-002	2.0122214E-005	-4.5557854E-001	0
1.0375764E+004	3.345239935013524E+001	-4.5746547E-001	-4.408981163548875E-002	2.0169566E-005	-4.5757839E-001	0
1.0435791E+004	3.365239934508281E+001	-4.5944133E-001	-4.402553832951450E-002	2.0227151E-005	-4.5957839E-001	0
1.0508302E+004	3.385239934003039E+001	-4.6140689E-001	-4.390879511957813E-002	2.0259820E-005	-4.6157831E-001	0
1.0565692E+004	3.405239933497796E+001	-4.6343678E-001	-4.386241398482485E-002	2.0327456E-005	-4.6357822E-001	0
1.0622735E+004	3.425239932992554E+001	-4.6543255E-001	-4.381475576026415E-002	2.0392814E-005	-4.6557817E-001	0
1.0686559E+004	3.445239932487311E+001	-4.6739963E-001	-4.373715167823999E-002	2.0442729E-005	-4.6757808E-001	0
1.0749942E+004	3.465239931982069E+001	-4.6937740E-001	-4.366324846806997E-002	2.0494543E-005	-4.6957800E-001	0
1.0815003E+004	3.485239931476826E+001	-4.7137877E-001	-4.358563718598241E-002	2.0545343E-005	-4.7157794E-001	0
1.0874263E+004	3.505239930971584E+001	-4.7337732E-001	-4.353190031137055E-002	2.0607014E-005	-4.7357795E-001	0
1.0950636E+004	3.525239930466341E+001	-4.7541445E-001	-4.341432355558617E-002	2.0639796E-005	-4.7557780E-001	0
1.1013530E+004	3.545239929961099E+001	-4.7743478E-001	-4.334984072130366E-002	2.0696722E-005	-4.7757778E-001	0
1.1080951E+004	3.565239929455856E+001	-4.7942415E-001	-4.326561454877843E-002	2.0742580E-005	-4.7957763E-001	0
1.1144751E+004	3.585239928950614E+001	-4.8139125E-001	-4.319443807608814E-002	2.0793424E-005	-4.8157763E-001	0
1.1218736E+004	3.605239928445371E+001	-4.8338997E-001	-4.308773655589043E-002	2.0828180E-005	-4.8357752E-001	0
1.1286578E+004	3.625239927940129E+001	-4.8544407E-001	-4.301073810174358E-002	2.0879308E-005	-4.8557752E-001	0
1.1352960E+004	3.645239927434886E+001	-4.8742434E-001	-4.293367958441796E-002	2.0926920E-005	-4.8757738E-001	0
1.1411933E+004	3.665239926929644E+001	-4.8944810E-001	-4.288914919933295E-002	2.0992013E-005	-4.8957735E-001	0
1.1482496E+004	3.685239926424401E+001	-4.9142092E-001	-4.279739465912941E-002	2.1031536E-005	-4.9157721E-001	0
1.1544360E+004	3.705219925919664E+001	-4.9339956E-001	-4.273944398788898E-002	2.1087622E-005	-4.9357700E-001	0
1.1608688E+004	3.725219925414422E+001	-4.9537888E-001	-4.267311839797564E-002	2.1139362E-005	-4.9557710E-001	0
1.1672578E+004	3.745219924909179E+001	-4.9741217E-001	-4.261373695568974E-002	2.1196591E-005	-4.9757710E-001	0
1.1747544E+004	3.765219924403937E+001	-4.9937567E-001	-4.250894097005203E-002	2.1227930E-005	-4.9957699E-001	0
1.1804396E+004	3.785219923898694E+001	-5.0142193E-001	-4.247755579499403E-002	2.1299178E-005	-5.0157696E-001	0
1.1873901E+004	3.805219923393452E+001	-5.0340831E-001	-4.239619997052313E-002	2.1342599E-005	-5.0357682E-001	0
1.1938975E+004	3.825219922888209E+001	-5.0544655E-001	-4.233584435716853E-002	2.1398506E-005	-5.0557679E-001	0
1.2001186E+004	3.845219922382967E+001	-5.0738561E-001	-4.227795828025076E-002	2.1451227E-005	-5.0757676E-001	0
1.2065794E+004	3.865219921877724E+001	-5.0942039E-001	-4.222021218312183E-002	2.1507838E-005	-5.0957668E-001	0
1.2129835E+004	3.885219921372482E+001	-5.1141566E-001	-4.216179998603146E-002	2.1562204E-005	-5.1157659E-001	0
1.2196854E+004	3.905219920867239E+001	-5.1346320E-001	-4.209800056538759E-002	2.1615773E-005	-5.1357651E-001	0
1.2269166E+004	3.925219920361997E+001	-5.1549357E-001	-4.201537310230269E-002	2.1658654E-005	-5.1557648E-001	0
1.2325409E+004	3.945219919856754E+001	-5.1739043E-001	-4.197754452713554E-002	2.1718779E-005	-5.1757634E-001	0
1.2391066E+004	3.965219919351512E+001	-5.1942396E-001	-4.191923093699051E-002	2.1773852E-005	-5.1957637E-001	0
1.2454809E+004	3.985219918846269E+001	-5.2136832E-001	-4.186080694737132E-002	2.1824899E-005	-5.2157623E-001	0
1.2515096E+004	4.005219918341027E+001	-5.2343452E-001	-4.182425389344058E-002	2.1892258E-005	-5.2357620E-001	0
1.2591298E+004	4.025219917835784E+001	-5.2541566E-001	-4.172847466068164E-002	2.1924794E-005	-5.2557611E-001	0
1.2650925E+004	4.045219917330542E+001	-5.2739650E-001	-4.168837432788647E-002	2.1986303E-005	-5.2757609E-001	0
1.2722543E+004	4.065219916825299E+001	-5.2944064E-001	-4.161437147174468E-002	2.2032340E-005	-5.2957594E-001	0
1.2795634E+004	4.085219916320057E+001	-5.3145152E-001	-4.153381758015784E-002	2.2073211E-005	-5.3157592E-001	0
1.2849497E+004	4.105219915814814E+001	-5.3342116E-001	-4.151300027255861E-002	2.2143913E-005	-5.3357577E-001	0
1.2916815E+004	4.125219915309572E+001	-5.3543299E-001	-4.145239959597630E-002	2.2194983E-005	-5.3557575E-001	0
1.2973076E+004	4.145219914804329E+001	-5.3741556E-001	-4.142545449706908E-002	2.2262684E-005	-5.3757572E-001	0
1.3038870E+004	4.165219914299087E+001	-5.3945035E-001	-4.137247556196466E-002	2.2318396E-005	-5.3957564E-001	0
1.3108823E+004	4.185219913793844E+001	-5.4144311E-001	-4.130371724484533E-002	2.2363613E-005	-5.4157555E-001	0
1.3161128E+004	4.205219913288602E+001	-5.4343057E-001	-4.129057656287249E-002	2.2438562E-005	-5.4357553E-001	0
1.3233198E+004	4.225219912783359E+001	-5.4543781E-001	-4.121738418518583E-002	2.2481519E-005	-5.4557538E-001	0
1.3299285E+004	4.245219912278117E+001	-5.4739106E-001	-4.115943585326079E-002	2.2530307E-005	-5.4757535E-001	0
1.3345342E+004	4.265209911773127E+001	-5.4940343E-001	-4.116818052930360E-002	2.2617940E-005	-5.4957443E-001	0
1.3411938E+004	4.285209911267884E+001	-5.5142254E-001	-4.111430919256609E-002	2.2671356E-005	-5.5157572E-001	0
1.3475294E+004	4.305199910762894E+001	-5.5339593E-001	-4.106744677182106E-002	2.2726557E-005	-5.5357516E-001	0
1.3527521E+004	4.325199910257652E+001	-5.5541009E-001	-4.105778778913739E-002	2.2803910E-005	-5.5557507E-001	0
1.3592824E+004	4.345199909752409E+001	-5.5742586E-001	-4.100883422053025E-002	2.2859385E-005	-5.5757505E-001	0
1.3645438E+004	4.365199909247167E+001	-5.5945635E-001	-4.099951379524874E-002	2.2937438E-005	-5.5957490E-001	0
1.3709346E+004	4.385199908741924E+001	-5.6142116E-001	-4.095171093217442E-002	2.2991157E-005	-5.6157494E-001	0
1.3767628E+004	4.405199908236682E+001	-5.6345743E-001	-4.092625253955273E-002	2.3060202E-005	-5.6357479E-001	0
1.3829078E+004	4.425199907731439E+001	-5.6548327E-001	-4.089088764626647E-002	2.3123113E-005	-5.6557477E-001	0
1.3883116E+004	4.445199907226197E+001	-5.6743020E-001	-4.087196290070641E-002	2.3191986E-005	-5.6757462E-001	0
1.3950347E+004	4.465199906720954E+001	-5.6944829E-001	-4.081965274839547E-002	2.3244682E-005	-5.6957465E-001	0
1.4005016E+004	4.485199906215712E+001	-5.7133788E-001	-4.079523217751346E-002	2.3307861E-005	-5.7157451E-001	0
1.4055478E+004	4.505199905710469E+001	-5.7340622E-001	-4.079592557277623E-002	2.3392637E-005	-5.7357448E-001	0
1.4104796E+004	4.525199905205227E+001	-5.7537037E-001	-4.079253505836200E-002	2.3470817E-005	-5.7557440E-001	0
1.4175825E+004	4.545199904699984E+001	-5.7741618E-001	-4.073245708155926E-002	2.3519580E-005	-5.7757437E-001	0
1.4217320E+004	4.565199904194742E+001	-5.7939935E-001	-4.075306198847972E-002	2.3612298E-005	-5.7957423E-001	0
1.4283058E+004	4.585199903689499E+001	-5.8139151E-001	-4.070497708407783E-002	2.3665529E-005	-5.8157420E-001	0
1.4340806E+004	4.605199903184257E+001	-5.8342928E-001	-4.068315827051205E-002	2.3735745E-005	-5.8357412E-001	0
1.4396152E+004	4.625199902679014E+001	-5.8539301E-001	-4.066315779563834E-002	2.3803928E-005	-5.8557403E-001	0
1.4445237E+004	4.645199902173772E+001	-5.8733845E-001	-4.065966174849089E-002	2.3880983E-005	-5.8757401E-001	0
1.4503441E+004	4.665199901668529E+001	-5.8940160E-001	-4.063874151364447E-002	2.3952540E-005	-5.8957392E-001	0
1.4555304E+004	4.685199901163287E+001	-5.9139317E-001	-4.063076921025920E-002	2.4028759E-005	-5.9157383E-001	0
1.4614253E+004	4.705199900658045E+001	-5.9339482E-001	-4.060384204511919E-002	2.4094110E-005	-5.9357381E-001	0
1.4668338E+004	4.725199900152802E+001	-5.9534800E-001	-4.058728332508812E-002	2.4163557E-005	-5.9557372E-001	0
1.4713366E+004	4.745199899647560E+001	-5.9742981E-001	-4.060456242946631E-002	2.4258376E-005	-5.9757364E-001	0
1.4770454E+004	4.765199899142317E+001	-5.9941870E-001	-4.058227953875893E-002	2.4325776E-005	-5.9957361E-001	0
1.4818678E+004	4.785199898637075E+001	-6.0144377E-001	-4.058687039360595E-002	2.4410720E-005	-6.0157347E-001	0
1.4880240E+004	4.805199898131832E+001	-6.0345584E-001	-4.055417353755095E-002	2.4472653E-005	-6.0357350E-001	0
1.4927884E+004	4.825199897626590E+001	-6.0540026E-001	-4.055499581302269E-002	2.4552006E-005	-6.0557336E-001	0
1.4985495E+004	4.845189897121600E+001	-6.0740995E-001	-4.053319147141399E-002	2.4620264E-005	-6.0757244E-001	0
1.5028844E+004	4.865189896616357E+001	-6.0935903E-001	-4.054596926868803E-002	2.4707053E-005	-6.0957366E-001	0
1.5076391E+004	4.885179896111367E+001	-6.1137837E-001	-4.055203880075697E-002	2.4792640E-005	-6.1157316E-001	0
1.5133643E+004	4.905179895606125E+001	-6.1341214E-001	-4.053301381922887E-002	2.4863442E-005	-6.1357307E-001	0
1.5188972E+004	4.925179895100882E+001	-6.1541188E-001	-4.051702140799837E-002	2.4934656E-005	-6.1557305E-001	0
1.5227411E+004	4.945179894595640E+001	-6.1746705E-001	-4.054970629782528E-002	2.5038107E-005	-6.1757290E-001	0
1.5289938E+004	4.965179894090397E+001	-6.1948460E-001	-4.051583252510347E-002	2.5098934E-005	-6.1957288E-001	0
1.5334886E+004	4.985179893585155E+001	-6.2143940E-001	-4.052455289935591E-002	2.5183554E-005	-6.2157279E-001	0
1.5384911E+004	5.005179893079912E+001	-6.2341142E-001	-4.052096337862454E-002	2.5261232E-005	-6.2357277E-001	0
1.5434529E+004	5.025179892574670E+001	-6.2545639E-001	-4.052319091585271E-002	2.5345489E-005	-6.2557268E-001	0
1.5492420E+004	5.045179892069427E+001	-6.2749732E-001	-4.050350623456628E-002	2.5415842E-005	-6.2757266E-001	0
1.5546027E+004	5.065179891564185E+001	-6.2947804E-001	-4.049124679651728E-002	2.5488351E-005	-6.2957257E-001	0
1.5590249E+004	5.085179891058942E+001	-6.3143599E-001	-4.050198225241108E-002	2.5574409E-005	-6.3157243E-001	0
1.5633411E+004	5.105179890553700E+001	-6.3344038E-001	-4.051837213907605E-002	2.5665973E-005	-6.3357246E-001	0
1.5684467E+004	5.125179890048457E+001	-6.3535571E-001	-4.050859499985626E-002	2.5737367E-005	-6.3557231E-001	0
1.5732220E+004	5.145179889543215E+001	-6.3745928E-001	-4.051934874008328E-002	2.5829435E-005	-6.3757235E-001	0
1.5794336E+004	5.165179889037972E+001	-6.3941938E-001	-4.048409422409727E-002	2.5886315E-005	-6.3957220E-001	0
1.5831169E+004	5.185179888532730E+001	-6.4146006E-001	-4.051880546726168E-002	2.5991196E-005	-6.4157218E-001	0
1.5873661E+004	5.205179888027487E+001	-6.4340216E-001	-4.053268935520804E-002	2.6078820E-005	-6.4357203E-001	0
1.5943727E+004	5.225179887522245E+001	-6.4543986E-001	-4.048237104582342E-002	2.6128935E-005	-6.4557201E-001	0
1.5973757E+004	5.245179887017002E+001	-6.4740634E-001	-4.052937150243352E-002	2.6238971E-005	-6.4757192E-001	0
1.6029997E+004	5.265179886511760E+001	-6.4948893E-001	-4.051709631135869E-002	2.6315405E-005	-6.4957190E-001	0
1.6077836E+004	5.285179886006517E+001	-6.5143943E-001	-4.051785603642916E-002	2.6394930E-005	-6.5157181E-001	0
1.6124709E+004	5.305179885501275E+001	-6.5341264E-001	-4.052244427047935E-002	2.6477877E-005	-6.5357172E-001	0
1.6166008E+004	5.325179884996032E+001	-6.5541482E-001	-4.054277478569429E-002	2.6572336E-005	-6.5557164E-001	0
1.6220414E+004	5.345179884490790E+001	-6.5744936E-001	-4.053221750912595E-002	2.6647880E-005	-6.5757155E-001	0
1.6265441E+004	5.365179883985547E+001	-6.5942669E-001	-4.054157934156877E-002	2.6734200E-005	-6.5957159E-001	0
1.6311423E+004	5.385179883480305E+001	-6.6142339E-001	-4.054970601668612E-002	2.6820524E-005	-6.6157144E-001	0
1.6362687E+004	5.405179882975062E+001	-6.6342044E-001	-4.054471425254891E-002	2.6898193E-005	-6.6357136E-001	0
1.6397623E+004	5.425179882469820E+001	-6.6543722E-001	-4.058132356596589E-002	2.7004324E-005	-6.6557133E-001	0
1.6462549E+004	5.445169881964830E+001	-6.6744155E-001	-4.054302679181371E-002	2.7060101E-005	-6.6757131E-001	0
1.6501227E+004	5.465159881459840E+001	-6.6944861E-001	-4.056962555545732E-002	2.7159280E-005	-6.6957116E-001	0
1.6552953E+004	5.485159880954598E+001	-6.7140198E-001	-4.056085889383965E-002	2.7232642E-005	-6.7157114E-001	0
1.6599998E+004	5.505159880449355E+001	-6.7337799E-001	-4.056494628726504E-002	2.7315542E-005	-6.7357099E-001	0
1.6645039E+004	5.525159879944113E+001	-6.7548275E-001	-4.058162599079762E-002	2.7412189E-005	-6.7557096E-001	0
1.6690209E+004	5.545159879438870E+001	-6.7737746E-001	-4.058532059496765E-002	2.7491582E-005	-6.7757088E-001	0
1.6742740E+004	5.565159878933628E+001	-6.7934459E-001	-4.057547147702562E-002	2.7564727E-005	-6.7957085E-001	0
1.6790574E+004	5.585159878428385E+001	-6.8138492E-001	-4.058139306802483E-002	2.7651549E-005	-6.8157071E-001	0
1.6835037E+004	5.605159877923143E+001	-6.8340331E-001	-4.059410755931187E-002	2.7742148E-005	-6.8357074E-001	0
1.6884271E+004	5.625159877417900E+001	-6.8541121E-001	-4.059465521922262E-002	2.7824031E-005	-6.8557060E-001	0
1.6924139E+004	5.645159876912658E+001	-6.8741763E-001	-4.061758601293597E-002	2.7921245E-005	-6.8757057E-001	0
1.6957334E+004	5.665159876407415E+001	-6.8944746E-001	-4.065777649633101E-002	2.8031402E-005	-6.8957049E-001	0
1.7009971E+004	5.685159875902173E+001	-6.9142252E-001	-4.064807384734215E-002	2.8104994E-005	-6.9157046E-001	0
1.7042709E+004	5.705159875396930E+001	-6.9348395E-001	-4.069094665801504E-002	2.8218519E-005	-6.9357038E-001	0
1.7090588E+004	5.725159874891688E+001	-6.9542056E-001	-4.069026465112735E-002	2.8296847E-005	-6.9557029E-001	0
1.7141730E+004	5.745159874386445E+001	-6.9736952E-001	-4.068256247326174E-002	2.8370780E-005	-6.9757020E-001	0
1.7175277E+004	5.765159873881203E+001	-6.9943047E-001	-4.072309598931717E-002	2.8482975E-005	-6.9957018E-001	0
1.7224979E+004	5.785159873375960E+001	-7.0137912E-001	-4.071872050175984E-002	2.8559260E-005	-7.0157015E-001	0
1.7267961E+004	5.805159872870718E+001	-7.0338547E-001	-4.073355790220257E-002	2.8651393E-005	-7.0357007E-001	0
1.7326438E+004	5.825159872365475E+001	-7.0544863E-001	-4.071515525349112E-002	2.8722450E-005	-7.0557004E-001	0
1.7352303E+004	5.845159871860233E+001	-7.0741898E-001	-4.076801920774237E-002	2.8840070E-005	-7.0756984E-001	0
1.7391684E+004	5.865159871354990E+001	-7.0945221E-001	-4.079261365137526E-002	2.8940411E-005	-7.0956987E-001	0
1.7440377E+004	5.885159870849748E+001	-7.1140599E-001	-4.079074424278652E-002	2.9018780E-005	-7.1156973E-001	0
1.7466816E+004	5.905159870344505E+001	-7.1340781E-001	-4.084360700516698E-002	2.9138148E-005	-7.1356976E-001	0
1.7516209E+004	5.925159869839263E+001	-7.1545178E-001	-4.084512852755318E-002	2.9222720E-005	-7.1556962E-001	0
1.7548732E+004	5.945159869334020E+001	-7.1736580E-001	-4.087849742550265E-002	2.9324836E-005	-7.1756965E-001	0
1.7584082E+004	5.965159868828778E+001	-7.1942562E-001	-4.091345806777147E-002	2.9434190E-005	-7.1956944E-001	0
1.7630871E+004	5.985159868323535E+001	-7.2140908E-001	-4.091738096317971E-002	2.9518171E-005	-7.2156942E-001	0
1.7681012E+004	6.005159867818293E+001	-7.2341394E-001	-4.091473635816156E-002	2.9598290E-005	-7.2356933E-001	0
1.7712389E+004	6.025149867313303E+001	-7.2541958E-001	-4.095549046882258E-002	2.9709914E-005	-7.2556913E-001	0
1.7771678E+004	6.045139866808313E+001	-7.2742367E-001	-4.093162719473912E-002	2.9774634E-005	-7.2756922E-001	0
1.7785680E+004	6.065139866303070E+001	-7.2943473E-001	-4.101247608829561E-002	2.9915924E-005	-7.2956920E-001	0
1.7821781E+004	6.085139865797828E+001	-7.3148137E-001	-4.104423263958124E-002	3.0023091E-005	-7.3156911E-001	0
1.7855990E+004	6.105139865292585E+001	-7.3343951E-001	-4.107526563374042E-002	3.0126223E-005	-7.3356903E-001	0
1.7922395E+004	6.125139864787343E+001	-7.3544693E-001	-4.103508266903338E-002	3.0179126E-005	-7.3556888E-001	0
1.7947859E+004	6.145139864282100E+001	-7.3736173E-001	-4.108354552435678E-002	3.0293435E-005	-7.3756886E-001	0
1.7988947E+004	6.165139863776858E+001	-7.3941714E-001	-4.110397132010102E-002	3.0392981E-005	-7.3956877E-001	0
1.8030793E+004	6.185139863271615E+001	-7.4144459E-001	-4.112101768490889E-002	3.0488956E-005	-7.4156868E-001	0
1.8052484E+004	6.205139862766373E+001	-7.4344689E-001	-4.118252534138431E-002	3.0617019E-005	-7.4356866E-001	0
1.8090268E+004	6.225139862261130E+001	-7.4546701E-001	-4.120818177705876E-002	3.0719340E-005	-7.4556857E-001	0
1.8154102E+004	6.245139861755888E+001	-7.4742013E-001	-4.117087001992559E-002	3.0771938E-005	-7.4756855E-001	0
1.8222348E+004	6.265139861250645E+001	-7.4941355E-001	-4.112606839796351E-002	3.0820433E-005	-7.4956846E-001	0
1.8220752E+004	6.285139860745403E+001	-7.5143260E-001	-4.124048380170645E-002	3.0989442E-005	-7.5156844E-001	0
1.8261645E+004	6.305139860240160E+001	-7.5345367E-001	-4.125880914246105E-002	3.1086602E-005	-7.5356823E-001	0
1.8304156E+004	6.325139859734918E+001	-7.5539631E-001	-4.126911344985507E-002	3.1174535E-005	-7.5556833E-001	0
1.8330652E+004	6.345139859229675E+001	-7.5743431E-001	-4.132064147704534E-002	3.1297670E-005	-7.5756812E-001	0
1.8395531E+004	6.365139858724433E+001	-7.5945568E-001	-4.128479195627764E-002	3.1353971E-005	-7.5956815E-001	0
1.8431162E+004	6.385139858219191E+001	-7.6138359E-001	-4.130957939354762E-002	3.1452437E-005	-7.6156801E-001	0
1.8479430E+004	6.405139857713948E+001	-7.6345807E-001	-4.131394211528069E-002	3.1541462E-005	-7.6356804E-001	0
1.8496209E+004	6.425139857208706E+001	-7.6541471E-001	-4.138224911949936E-002	3.1674583E-005	-7.6556784E-001	0
1.8555592E+004	6.445139856703463E+001	-7.6746053E-001	-4.136006800376535E-002	3.1742220E-005	-7.6756793E-001	0
1.8577512E+004	6.465139856198221E+001	-7.6944435E-001	-4.141805069167337E-002	3.1868884E-005	-7.6956773E-001	0
1.8644266E+004	6.485139855692978E+001	-7.7147120E-001	-4.137846874442719E-002	3.1922296E-005	-7.7156770E-001	0
1.8637887E+004	6.505139855187736E+001	-7.7345395E-001	-4.149901388078936E-002	3.2097578E-005	-7.7356762E-001	0
1.8688617E+004	6.525139854682493E+001	-7.7541810E-001	-4.149146308481494E-002	3.2173233E-005	-7.7556759E-001	0
1.8739998E+004	6.545139854177251E+001	-7.7744478E-001	-4.148585000260191E-002	3.2252956E-005	-7.7756751E-001	0
1.8782914E+004	6.565139853672008E+001	-7.7947271E-001	-4.149903051049381E-002	3.2347361E-005	-7.7956742E-001	0
1.8804027E+004	6.585139853166766E+001	-7.8140247E-001	-4.155505747088722E-002	3.2471224E-005	-7.8156739E-001	0
1.8858867E+004	6.605129852661776E+001	-7.8349036E-001	-4.154493173369855E-002	3.2550055E-005	-7.8356671E-001	0
1.8861756E+004	6.625129852156533E+001	-7.8543985E-001	-4.164192480106793E-002	3.2707227E-005	-7.8556806E-001	0
1.8914211E+004	6.645119851651543E+001	-7.8747362E-001	-4.163396408144682E-002	3.2785647E-005	-7.8756726E-001	0
1.8970947E+004	6.665119851146301E+001	-7.8939837E-001	-4.161091136182238E-002	3.2847587E-005	-7.8956717E-001	0
1.9012885E+004	6.685119850641058E+001	-7.9138643E-001	-4.162369175474090E-002	3.2940425E-005	-7.9156697E-001	0
1.9036635E+004	6.705119850135816E+001	-7.9344392E-001	-4.167984315493001E-002	3.3070617E-005	-7.9356706E-001	0
1.9094920E+004	6.725119849630573E+001	-7.9542899E-001	-4.165657655976907E-002	3.3134849E-005	-7.9556692E-001	0
1.9080541E+004	6.745119849125331E+001	-7.9738921E-001	-4.179070093969928E-002	3.3323453E-005	-7.9756683E-001	0
1.9125494E+004	6.765119848620088E+001	-7.9941666E-001	-4.179848278154646E-002	3.3414402E-005	-7.9956675E-001	0
1.9162000E+004	6.785119848114846E+001	-8.0136484E-001	-4.182052226682231E-002	3.3513497E-005	-8.0156672E-001	0
1.9238650E+004	6.805119847609603E+001	-8.0338973E-001	-4.175915187245852E-002	3.3548873E-005	-8.0356663E-001	0
1.9240115E+004	6.825119847104361E+001	-8.0539501E-001	-4.186019768474891E-002	3.3713994E-005	-8.0556661E-001	0
1.9281139E+004	6.845119846599118E+001	-8.0743867E-001	-4.187712741460303E-002	3.3813212E-005	-8.0756640E-001	0
1.9357326E+004	6.865119846093876E+001	-8.0941218E-001	-4.181425648428859E-002	3.3844968E-005	-8.0956644E-001	0
1.9394662E+004	6.885119845588633E+001	-8.1140047E-001	-4.183627948821728E-002	3.3945977E-005	-8.1156641E-001	0
1.9392502E+004	6.905119845083391E+001	-8.1343222E-001	-4.194570615277310E-002	3.4119988E-005	-8.1356633E-001	0
1.9432152E+004	6.925119844578148E+001	-8.1542760E-001	-4.196280300196975E-002	3.4217628E-005	-8.1556618E-001	0
1.9456041E+004	6.945119844072906E+001	-8.1742305E-001	-4.201384213839615E-002	3.4343084E-005	-8.1756616E-001	0
1.9489072E+004	6.965119843567663E+001	-8.1944621E-001	-4.204644657705238E-002	3.4454803E-005	-8.1956607E-001	0
1.9506701E+004	6.985119843062421E+001	-8.2141566E-001	-4.210941003326141E-002	3.4589328E-005	-8.2156599E-001	0
1.9553295E+004	7.005119842557178E+001	-8.2339633E-001	-4.211036039568067E-002	3.4673518E-005	-8.2356596E-001	0
1.9548088E+004	7.025119842051936E+001	-8.2543832E-001	-4.222603840383860E-002	3.4854991E-005	-8.2556587E-001	0
1.9604379E+004	7.045119841546693E+001	-8.2739294E-001	-4.220449516883384E-002	3.4919700E-005	-8.2756585E-001	0
1.9642895E+004	7.065119841041451E+001	-8.2941258E-001	-4.222455927590013E-002	3.5021581E-005	-8.2956576E-001	0
1.9644055E+004	7.085119840536208E+001	-8.3142847E-001	-4.232468824942386E-002	3.5189951E-005	-8.3156568E-001	0
1.9637807E+004	7.105119840030966E+001	-8.3341622E-001	-4.243937405797726E-002	3.5369663E-005	-8.3356565E-001	0
1.9674322E+004	7.125119839525723E+001	-8.3544451E-001	-4.246370049321258E-002	3.5476067E-005	-8.3556563E-001	0
1.9653881E+004	7.145119839020481E+001	-8.3740342E-001	-4.260753564507014E-002	3.5679695E-005	-8.3756542E-001	0
1.9611771E+004	7.165119838515238E+001	-8.3946824E-001	-4.280430334646568E-002	3.5932851E-005	-8.3956546E-001	0
1.9616625E+004	7.185119838009996E+001	-8.4137732E-001	-4.289103411359807E-002	3.6087542E-005	-8.4156531E-001	0
1.9571756E+004	7.205109837505006E+001	-8.4342754E-001	-4.309411635782401E-002	3.6346766E-005	-8.4356511E-001	0
1.9592760E+004	7.225099837000016E+001	-8.4549761E-001	-4.315357574324019E-002	3.6486246E-005	-8.4556520E-001	0
1.9524088E+004	7.245099836494774E+001	-8.4744531E-001	-4.340511808264791E-002	3.6783465E-005	-8.4756523E-001	0
1.9516393E+004	7.265099835989531E+001	-8.4940928E-001	-4.352286351103418E-002	3.6968726E-005	-8.4956503E-001	0
1.9437828E+004	7.285099835484289E+001	-8.5145879E-001	-4.380421324600335E-002	3.7297483E-005	-8.5156500E-001	0
1.9359500E+004	7.305099834979046E+001	-8.5344779E-001	-4.408418501847677E-002	3.7623551E-005	-8.5356492E-001	0
1.9250883E+004	7.325099834473804E+001	-8.5550696E-001	-4.443987985849041E-002	3.8018625E-005	-8.5556489E-001	0
1.9160000E+004	7.345099833968561E+001	-8.5745412E-001	-4.475230121955520E-002	3.8373044E-005	-8.5756481E-001	0
1.8980924E+004	7.365099833463319E+001	-8.5949665E-001	-4.528213163326744E-002	3.8919839E-005	-8.5956472E-001	0
1.8873984E+004	7.385099832958076E+001	-8.6142504E-001	-4.564086645904947E-002	3.9316186E-005	-8.6156458E-001	0
1.8547404E+004	7.405099832452834E+001	-8.6342740E-001	-4.655246576320715E-002	4.0194675E-005	-8.6356461E-001	0
1.8324760E+004	7.425099831947591E+001	-8.6547118E-001	-4.722960440725998E-002	4.0875861E-005	-8.6556458E-001	0
1.7959492E+004	7.445099831442349E+001	-8.6746216E-001	-4.830103966142418E-002	4.1899326E-005	-8.6756438E-001	0
1.7596238E+004	7.465099830937106E+001	-8.6943960E-001	-4.941053600145523E-002	4.2959477E-005	-8.6956435E-001	0
1.7178434E+004	7.485099830431864E+001	-8.7145036E-001	-5.072932460402368E-002	4.4208089E-005	-8.7156433E-001	0
1.6635799E+004	7.505099829926621E+001	-8.7339407E-001	-5.250088224776717E-002	4.5853958E-005	-8.7356424E-001	0
1.6073434E+004	7.525099829421379E+001	-8.7543321E-001	-5.446460627467120E-002	4.7680125E-005	-8.7556416E-001	0
1.5436686E+004	7.545099828916136E+001	-8.7740874E-001	-5.683919153959760E-002	4.9871203E-005	-8.7756413E-001	0
1.4741146E+004	7.565099828410894E+001	-8.7938243E-001	-5.965495417834304E-002	5.2459520E-005	-8.7956405E-001	0
1.3959687E+004	7.585099827905651E+001	-8.8147169E-001	-6.314409002735633E-002	5.5659730E-005	-8.8156402E-001	0
1.3159450E+004	7.605099827400409E+001	-8.8338751E-001	-6.712951678349810E-002	5.9301376E-005	-8.8356382E-001	0
1.2296052E+004	7.625099826895166E+001	-8.8537979E-001	-7.200521135981497E-002	6.3751962E-005	-8.8556385E-001	0
1.1462820E+004	7.645099826389924E+001	-8.8743311E-001	-7.741839309326481E-002	6.8703645E-005	-8.8756371E-001	0
1.0201769E+004	7.667099825834157E+001	-8.8962638E-001	-8.720315333430456E-002	7.7578225E-005	-8.8976371E-001	0
9.4463281E+003	7.687099825328914E+001	-8.9159703E-001	-9.438556421742413E-002	8.4153886E-005	-8.9176363E-001	0
8.7508604E+003	7.707099824823672E+001	-8.9357668E-001	-1.021130041772600E-001	9.1245798E-005	-8.9376360E-001	0
8.0899238E+003	7.727099824318429E+001	-8.9556664E-001	-1.107014913139377E-001	9.9140561E-005	-8.9576352E-001	0
7.4809727E+003	7.747099823813187E+001	-8.9763892E-001	-1.199896007220842E-001	1.0770733E-004	-8.9776343E-001	0
6.9518228E+003	7.767099823307944E+001	-8.9961833E-001	-1.294075425253873E-001	1.1641740E-004	-8.9976388E-001	0
6.4701909E+003	7.787099822802702E+001	-9.0164435E-001	-1.393535898041715E-001	1.2564738E-004	-9.0176523E-001	0
6.0566646E+003	7.807099822297459E+001	-9.0361893E-001	-1.491941503162526E-001	1.3481466E-004	-9.0376520E-001	0
5.6766221E+003	7.827099821792217E+001	-9.0561014E-001	-1.595332816352992E-001	1.4447497E-004	-9.0576512E-001	0
5.3383960E+003	7.847099821286974E+001	-9.0759313E-001	-1.700123210929654E-001	1.5430202E-004	-9.0776515E-001	0
5.0201597E+003	7.867099820781732E+001	-9.0962821E-001	-1.811950837965213E-001	1.6482016E-004	-9.0976524E-001	0
4.7152305E+003	7.887099820276489E+001	-9.1158551E-001	-1.933278785015369E-001	1.7623490E-004	-9.1176510E-001	0
4.4218076E+003	7.907099819771247E+001	-9.1360492E-001	-2.066134534577702E-001	1.8876306E-004	-9.1376513E-001	0
4.1314570E+003	7.927099819266004E+001	-9.1560853E-001	-2.216187881457873E-001	2.0291605E-004	-9.1576517E-001	0
3.8443149E+003	7.947099818760762E+001	-9.1762078E-001	-2.386955313042413E-001	2.1903198E-004	-9.1776514E-001	0
3.5172695E+003	7.967099818255519E+001	-9.1962022E-001	-2.614585531056091E-001	2.4044258E-004	-9.1976511E-001	0
3.1986821E+003	7.987099817750277E+001	-9.2161137E-001	-2.881222074479706E-001	2.6553671E-004	-9.2176515E-001	0
2.9260808E+003	8.007099817245035E+001	-9.2363632E-001	-3.156564534914227E-001	2.9155175E-004	-9.2376512E-001	0
2.6575957E+003	8.027099816739792E+001	-9.2560440E-001	-3.482863859119334E-001	3.2237542E-004	-9.2576510E-001	0
2.3757620E+003	8.047099816234550E+001	-9.2760491E-001	-3.904452221827110E-001	3.6217889E-004	-9.2776519E-001	0
2.1093853E+003	8.067099815729307E+001	-9.2961317E-001	-4.407033652675378E-001	4.0968365E-004	-9.2976516E-001	0
1.9009427E+003	8.087099815224065E+001	-9.3163240E-001	-4.900896752806485E-001	4.5658342E-004	-9.3176514E-001	0
1.6714895E+003	8.107099814718822E+001	-9.3364823E-001	-5.585725983929999E-001	5.2151032E-004	-9.3376517E-001	0
1.5020691E+003	8.127099814213580E+001	-9.3564922E-001	-6.229069323496477E-001	5.8282237E-004	-9.3576521E-001	0
1.3207510E+003	8.147099813708337E+001	-9.3761486E-001	-7.099104309940270E-001	6.6562259E-004	-9.3776524E-001	0
1.1783066E+003	8.167099813203095E+001	-9.3962878E-001	-7.974399517621880E-001	7.4929756E-004	-9.3976516E-001	0
1.0511051E+003	8.187099812697852E+001	-9.4161570E-001	-8.958340096973814E-001	8.4353139E-004	-9.4176513E-001	0
9.3001245E+002	8.208099812167347E+001	-9.4374371E-001	-1.014764575071593E+000	9.5767766E-004	-9.4386524E-001	0
8.2667841E+002	8.229099811636843E+001	-9.4577569E-001	-1.144067273658960E+000	1.0820311E-003	-9.4596511E-001	0
7.3594720E+002	8.249099811131600E+001	-9.4778079E-001	-1.287837994223684E+000	1.2205881E-003	-9.4796520E-001	0
6.5783514E+002	8.269099810626358E+001	-9.4980085E-001	-1.443828026005946E+000	1.3713491E-003	-9.4996518E-001	0
5.9104071E+002	8.289099810121115E+001	-9.5178813E-001	-1.610359667168925E+000	1.5327212E-003	-9.5196515E-001	0
5.2988989E+002	8.309099809615873E+001	-9.5380372E-001	-1.800003705466011E+000	1.7168502E-003	-9.5396513E-001	0
4.7760474E+002	8.329099809110630E+001	-9.5578521E-001	-2.001205502099058E+000	1.9127226E-003	-9.5596522E-001	0
4.3050394E+002	8.349099808605388E+001	-9.5780069E-001	-2.224836081570503E+000	2.1309496E-003	-9.5796520E-001	0
3.8987402E+002	8.369099808100145E+001	-9.5982873E-001	-2.461894456305600E+000	2.3629970E-003	-9.5996517E-001	0
3.5345062E+002	8.389099807594903E+001	-9.6177906E-001	-2.721112991828901E+000	2.6171096E-003	-9.6196514E-001	0
3.2148300E+002	8.409099807089660E+001	-9.6379328E-001	-2.997960171089971E+000	2.8894139E-003	-9.6396524E-001	0
2.9330005E+002	8.429099806584418E+001	-9.6582150E-001	-3.292947090435739E+000	3.1803991E-003	-9.6596509E-001	0
2.6765128E+002	8.449099806079175E+001	-9.6777701E-001	-3.615813127011400E+000	3.4993009E-003	-9.6796513E-001	0
2.4554587E+002	8.469099805573933E+001	-9.6980357E-001	-3.949582199492127E+000	3.8303190E-003	-9.6996516E-001	0
2.2572665E+002	8.489099805068690E+001	-9.7179693E-001	-4.305193416892526E+000	4.1837739E-003	-9.7196513E-001	0
2.0791075E+002	8.509099804563448E+001	-9.7380447E-001	-4.683762149576985E+000	4.5610685E-003	-9.7396517E-001	0
1.9201259E+002	8.529099804058205E+001	-9.7579473E-001	-5.081931014585365E+000	4.9589216E-003	-9.7596514E-001	0
1.7795523E+002	8.549099803552963E+001	-9.7780073E-001	-5.494644604809150E+000	5.3726677E-003	-9.7796512E-001	0
1.6497272E+002	8.569099803047720E+001	-9.7980082E-001	-5.939168596619126E+000	5.8192024E-003	-9.7996509E-001	0
1.5357288E+002	8.589099802542478E+001	-9.8182410E-001	-6.393213109398360E+000	6.2770108E-003	-9.8196518E-001	0
1.4309482E+002	8.609099802037235E+001	-9.8379380E-001	-6.875118048958768E+000	6.7636985E-003	-9.8396522E-001	0
1.3368387E+002	8.629099801531993E+001	-9.8581076E-001	-7.374193412443901E+000	7.2695590E-003	-9.8596513E-001	0
1.2522790E+002	8.649099801026750E+001	-9.8779082E-001	-7.887945363175561E+000	7.7916402E-003	-9.8796511E-001	0
1.1744643E+002	8.669099800521508E+001	-9.8982674E-001	-8.427899434317794E+000	8.3421599E-003	-9.8996508E-001	0
1.1046949E+002	8.689099800016265E+001	-9.9182904E-001	-8.978307411851773E+000	8.9049460E-003	-9.9196506E-001	0
1.0409232E+002	8.709099799511023E+001	-9.9381685E-001	-9.547456601106660E+000	9.4884234E-003	-9.9396509E-001	0
9.8164169E+001	8.729099799005780E+001	-9.9581176E-001	-1.014435101839418E+001	1.0101864E-002	-9.9596512E-001	0
9.2557640E+001	8.750099798475276E+001	-9.9793202E-001	-1.078173617264447E+001	1.0759439E-002	-9.9806517E-001	0
8.7139763E+001	8.771099797944771E+001	-1.0000033E+000	-1.147585579752920E+001	1.1475894E-002	-1.0001651E+000	0
8.2699120E+001	8.791099797439529E+001	-1.0019933E+000	-1.211612993357134E+001	1.2140281E-002	-1.0021651E+000	0
7.8585457E+001	8.811099796934286E+001	-1.0039806E+000	-1.277565425674936E+001	1.2826510E-002	-1.0041651E+000	0
7.4719353E+001	8.831099796429044E+001	-1.0060223E+000	-1.346401294167082E+001	1.3545098E-002	-1.0061651E+000	0
7.1155441E+001	8.851099795923801E+001	-1.0079980E+000	-1.416613999583552E+001	1.4279441E-002	-1.0081651E+000	0
6.7928116E+001	8.871099795418559E+001	-1.0100136E+000	-1.486885826171389E+001	1.5017749E-002	-1.0101652E+000	0
6.4871994E+001	8.891099794913316E+001	-1.0120249E+000	-1.560033472608814E+001	1.5787927E-002	-1.0121651E+000	0
6.2043194E+001	8.911099794408074E+001	-1.0140262E+000	-1.634387412160430E+001	1.6573116E-002	-1.0141652E+000	0
5.9411915E+001	8.931099793902831E+001	-1.0160353E+000	-1.710154098758886E+001	1.7375769E-002	-1.0161651E+000	0
5.6875267E+001	8.951099793397589E+001	-1.0180138E+000	-1.789906059168368E+001	1.8221492E-002	-1.0181652E+000	0
5.4567810E+001	8.971099792892346E+001	-1.0200326E+000	-1.869293656600587E+001	1.9067405E-002	-1.0201651E+000	0
5.2377949E+001	8.991099792387104E+001	-1.0220120E+000	-1.951225629793547E+001	1.9941760E-002	-1.0221652E+000	0
5.0330006E+001	9.011099791881861E+001	-1.0240407E+000	-2.034652492167453E+001	2.0835670E-002	-1.0241652E+000	0
4.8427006E+001	9.031099791376619E+001	-1.0260209E+000	-2.118695640563965E+001	2.1738259E-002	-1.0261651E+000	0
4.6624073E+001	9.051099790871376E+001	-1.0280252E+000	-2.204923436309204E+001	2.2667168E-002	-1.0281652E+000	0
4.4948009E+001	9.071099790366134E+001	-1.0300514E+000	-2.291650717544979E+001	2.3605179E-002	-1.0301652E+000	0
4.3385338E+001	9.091099789860891E+001	-1.0320764E+000	-2.378859891913106E+001	2.4551651E-002	-1.0321652E+000	0
4.1902702E+001	9.111099789355649E+001	-1.0340530E+000	-2.467747731692674E+001	2.5517819E-002	-1.0341650E+000	0
4.0514656E+001	9.131099788850406E+001	-1.0360546E+000	-2.557234197733354E+001	2.6494343E-002	-1.0361651E+000	0
3.9187546E+001	9.151099788345164E+001	-1.0380384E+000	-2.648898604289201E+001	2.7496584E-002	-1.0381652E+000	0
3.7944599E+001	9.171099787839921E+001	-1.0400528E+000	-2.740977070607289E+001	2.8507609E-002	-1.0401652E+000	0
3.6781441E+001	9.191099787334679E+001	-1.0420309E+000	-2.833034586663143E+001	2.9521096E-002	-1.0421652E+000	0
3.5649780E+001	9.211099786829436E+001	-1.0440201E+000	-2.928545457759947E+001	3.0574601E-002	-1.0441651E+000	0
3.4582012E+001	9.231099786324194E+001	-1.0460260E+000	-3.024768925497045E+001	3.1639870E-002	-1.0461652E+000	0
3.3544464E+001	9.251099785818951E+001	-1.0480396E+000	-3.124329256903269E+001	3.2744206E-002	-1.0481652E+000	0
3.2572102E+001	9.271099785313709E+001	-1.0500463E+000	-3.223759800776861E+001	3.3850972E-002	-1.0501652E+000	0
3.1628952E+001	9.291099784808466E+001	-1.0520313E+000	-3.326165485652405E+001	3.4992300E-002	-1.0521652E+000	0
3.0758371E+001	9.311099784303224E+001	-1.0540193E+000	-3.426772253610653E+001	3.6118843E-002	-1.0541650E+000	0
2.9937885E+001	9.331099783797981E+001	-1.0560089E+000	-3.527333169053736E+001	3.7248954E-002	-1.0561652E+000	0
2.9122154E+001	9.351099783292739E+001	-1.0580521E+000	-3.633151745201508E+001	3.8440637E-002	-1.0581652E+000	0
2.8356941E+001	9.371099782787496E+001	-1.0600510E+000	-3.738241663946860E+001	3.9627265E-002	-1.0601653E+000	0
2.7548744E+001	9.391099782282254E+001	-1.0620418E+000	-3.855136844900997E+001	4.0943164E-002	-1.0621651E+000	0
2.6837065E+001	9.411099781777011E+001	-1.0640461E+000	-3.964838028629899E+001	4.2187706E-002	-1.0641651E+000	0
2.6159840E+001	9.431099781271769E+001	-1.0660186E+000	-4.075019414733052E+001	4.3440465E-002	-1.0661652E+000	0
2.5527580E+001	9.451099780766526E+001	-1.0680574E+000	-4.183935173379589E+001	4.4686832E-002	-1.0681652E+000	0
2.4888575E+001	9.471099780261284E+001	-1.0700773E+000	-4.299471923391286E+001	4.6007674E-002	-1.0701650E+000	0
2.4339537E+001	9.491099779756041E+001	-1.0720447E+000	-4.404540545005102E+001	4.7218643E-002	-1.0721651E+000	0
2.3814135E+001	9.511099779250799E+001	-1.0740529E+000	-4.510148738544285E+001	4.8441384E-002	-1.0741651E+000	0
2.3277584E+001	9.531099778745556E+001	-1.0760407E+000	-4.622648028235335E+001	4.9741577E-002	-1.0761651E+000	0
2.2722134E+001	9.551099778240314E+001	-1.0780586E+000	-4.744530605864372E+001	5.1148821E-002	-1.0781652E+000	0
2.2188290E+001	9.571099777735071E+001	-1.0800562E+000	-4.867685644669865E+001	5.2573740E-002	-1.0801651E+000	0
2.1673454E+001	9.591099777229829E+001	-1.0820496E+000	-4.992511011467496E+001	5.4021444E-002	-1.0821651E+000	0
2.1216076E+001	9.611099776724586E+001	-1.0840527E+000	-5.109581363930992E+001	5.5390555E-002	-1.0841651E+000	0
2.0761955E+001	9.631099776219344E+001	-1.0860288E+000	-5.230860186866624E+001	5.6808650E-002	-1.0861652E+000	0
2.0290867E+001	9.651099775714101E+001	-1.0880580E+000	-5.362304177738338E+001	5.8344979E-002	-1.0881653E+000	0
1.9834454E+001	9.671099775208859E+001	-1.0900725E+000	-5.495853319351909E+001	5.9908785E-002	-1.0901651E+000	0
1.9423916E+001	9.691099774703616E+001	-1.0920576E+000	-5.622231882067206E+001	6.1398011E-002	-1.0921651E+000	0
1.9031673E+001	9.711099774198374E+001	-1.0940491E+000	-5.748570123335139E+001	6.2892176E-002	-1.0941651E+000	0
1.8633833E+001	9.731099773693131E+001	-1.0960202E+000	-5.881882822378407E+001	6.4466625E-002	-1.0961652E+000	0
1.8262112E+001	9.751099773187889E+001	-1.0980453E+000	-6.012696276824761E+001	6.6022135E-002	-1.0981652E+000	0
1.7925243E+001	9.771099772682646E+001	-1.1000743E+000	-6.137011715289941E+001	6.7511685E-002	-1.1001651E+000	0
1.7648640E+001	9.791099772177404E+001	-1.1020392E+000	-6.244329838741917E+001	6.8814963E-002	-1.1021651E+000	0
1.7346096E+001	9.811099771672161E+001	-1.1040432E+000	-6.364793966362527E+001	7.0270076E-002	-1.1041651E+000	0
1.7040871E+001	9.831099771166919E+001	-1.1060994E+000	-6.490862116629864E+001	7.1795382E-002	-1.1061652E+000	0
1.6661825E+001	9.851099770661676E+001	-1.1080714E+000	-6.650360691195988E+001	7.3690750E-002	-1.1081651E+000	0
1.6324959E+001	9.871099770156434E+001	-1.1100346E+000	-6.799616255403380E+001	7.5478092E-002	-1.1101651E+000	0
1.5995327E+001	9.891099769651191E+001	-1.1120839E+000	-6.952554877761258E+001	7.7318244E-002	-1.1121652E+000	0
1.5716576E+001	9.911099769145949E+001	-1.1140659E+000	-7.088477366473381E+001	7.8970306E-002	-1.1141652E+000	0
1.5449274E+001	9.931099768640706E+001	-1.1160877E+000	-7.224207954071562E+001	8.0628492E-002	-1.1161652E+000	0
1.5137305E+001	9.951099768135464E+001	-1.1180968E+000	-7.386366499686778E+001	8.2586728E-002	-1.1181653E+000	0
1.4787752E+001	9.971099767630221E+001	-1.1201099E+000	-7.574578737455693E+001	8.4843606E-002	-1.1201652E+000	0
1.4566877E+001	9.991099767124979E+001	-1.1220877E+000	-7.703007730713261E+001	8.6434506E-002	-1.1221651E+000	0
1.4351814E+001	1.001110976661948E+002	-1.1240993E+000	-7.832453807750085E+001	8.8044554E-002	-1.1241659E+000	0
1.4169358E+001	1.003111976611399E+002	-1.1260999E+000	-7.947430972069014E+001	8.9496017E-002	-1.1261672E+000	0
1.3938033E+001	1.005111976560875E+002	-1.1280992E+000	-8.093675895667104E+001	9.1304690E-002	-1.1281672E+000	0
1.3734955E+001	1.007111976510350E+002	-1.1301173E+000	-8.228037971271669E+001	9.2986479E-002	-1.1301671E+000	0
1.3523913E+001	1.009111976459826E+002	-1.1321145E+000	-8.371205028817224E+001	9.4771631E-002	-1.1321672E+000	0
1.3282492E+001	1.011111976409302E+002	-1.1341101E+000	-8.538383518108719E+001	9.6834667E-002	-1.1341671E+000	0
1.3084881E+001	1.013111976358778E+002	-1.1361455E+000	-8.682887227681209E+001	9.8650232E-002	-1.1361672E+000	0
1.2823515E+001	1.015111976308253E+002	-1.1381211E+000	-8.875266343828253E+001	1.0101128E-001	-1.1381671E+000	0
1.2640759E+001	1.017111976257729E+002	-1.1401279E+000	-9.019456983801956E+001	1.0283335E-001	-1.1401671E+000	0
1.2509463E+001	1.019111976207205E+002	-1.1420995E+000	-9.129883910252647E+001	1.0427236E-001	-1.1421672E+000	0
1.2289183E+001	1.021111976156681E+002	-1.1441122E+000	-9.309913026286324E+001	1.0651585E-001	-1.1441672E+000	0
1.2106030E+001	1.023111976106156E+002	-1.1460809E+000	-9.467025282647910E+001	1.0849977E-001	-1.1461672E+000	0
1.1876748E+001	1.025112976055607E+002	-1.1481349E+000	-9.667082119386788E+001	1.1099115E-001	-1.1481680E+000	0
1.1684819E+001	1.027113976005057E+002	-1.1501017E+000	-9.842699508223689E+001	1.1320105E-001	-1.1501691E+000	0
1.1526217E+001	1.029113975954533E+002	-1.1521165E+000	-9.995616542563221E+001	1.1516115E-001	-1.1521691E+000	0
1.1456238E+001	1.031113975904009E+002	-1.1541380E+000	-1.007431890364403E+002	1.1627154E-001	-1.1541691E+000	0
1.1297298E+001	1.033113975853485E+002	-1.1561269E+000	-1.023365748777410E+002	1.1831407E-001	-1.1561692E+000	0
1.1161534E+001	1.035113975802960E+002	-1.1580993E+000	-1.037580762569057E+002	1.2016215E-001	-1.1581692E+000	0
1.1041374E+001	1.037113975752436E+002	-1.1601201E+000	-1.050702697738770E+002	1.2189414E-001	-1.1601691E+000	0
1.0859365E+001	1.039113975701912E+002	-1.1620938E+000	-1.070130510373451E+002	1.2435920E-001	-1.1621692E+000	0
1.0539366E+001	1.041213975648861E+002	-1.1642226E+000	-1.104641979470548E+002	1.2860492E-001	-1.1642692E+000	0
1.0318274E+001	1.043313975595811E+002	-1.1662719E+000	-1.130297579722073E+002	1.3182344E-001	-1.1663692E+000	0
1.0200775E+001	1.045313975545287E+002	-1.1682637E+000	-1.145269503636698E+002	1.3379768E-001	-1.1683692E+000	0
1.0064476E+001	1.047313975494762E+002	-1.1703002E+000	-1.162802990028913E+002	1.3608286E-001	-1.1703691E+000	0
9.9509315E+000	1.049313975444238E+002	-1.1723090E+000	-1.178089801275810E+002	1.3810854E-001	-1.1723691E+000	0
9.7812414E+000	1.051313975393714E+002	-1.1742895E+000	-1.200552557017527E+002	1.4097962E-001	-1.1743691E+000	0
9.6559525E+000	1.053313975343190E+002	-1.1763020E+000	-1.218214314994898E+002	1.4329879E-001	-1.1763692E+000	0
9.6232805E+000	1.055313975292665E+002	-1.1782900E+000	-1.224416092226020E+002	1.4427173E-001	-1.1783692E+000	0
9.5569134E+000	1.057313975242141E+002	-1.1802928E+000	-1.235014738495929E+002	1.4576791E-001	-1.1803691E+000	0
9.4885206E+000	1.059313975191617E+002	-1.1822994E+000	-1.246031348224125E+002	1.4731821E-001	-1.1823692E+000	0
9.3767710E+000	1.061313975141093E+002	-1.1843101E+000	-1.263025552431745E+002	1.4958139E-001	-1.1843691E+000	0
9.2272415E+000	1.063313975090568E+002	-1.1863037E+000	-1.285653686361248E+002	1.5251757E-001	-1.1863692E+000	0
9.0566721E+000	1.065313975040044E+002	-1.1883057E+000	-1.312077633183021E+002	1.5591493E-001	-1.1883692E+000	0
8.9723349E+000	1.067313974989520E+002	-1.1902677E+000	-1.326597484634040E+002	1.5790062E-001	-1.1903691E+000	0
8.8342800E+000	1.069313974938996E+002	-1.1922807E+000	-1.349607098291789E+002	1.6091104E-001	-1.1923691E+000	0
8.8282547E+000	1.071313974888471E+002	-1.1943237E+000	-1.352842367165754E+002	1.6157317E-001	-1.1943692E+000	0
8.7199583E+000	1.073313974837947E+002	-1.1962825E+000	-1.371890129826779E+002	1.6411681E-001	-1.1963692E+000	0
8.6161242E+000	1.075313974787423E+002	-1.1982846E+000	-1.390746664817102E+002	1.6665104E-001	-1.1983693E+000	0
8.4424639E+000	1.077313974736899E+002	-1.2002945E+000	-1.421734801874143E+002	1.7065005E-001	-1.2003692E+000	0
8.3026133E+000	1.079313974686374E+002	-1.2022530E+000	-1.448041658369052E+002	1.7409123E-001	-1.2023691E+000	0
8.2321081E+000	1.081313974635850E+002	-1.2042576E+000	-1.462878735524996E+002	1.7616828E-001	-1.2043691E+000	0
8.1705828E+000	1.083313974585326E+002	-1.2062759E+000	-1.476364624862501E+002	1.7809032E-001	-1.2063692E+000	0
8.0009842E+000	1.085313974534802E+002	-1.2082934E+000	-1.510180948553716E+002	1.8247417E-001	-1.2083693E+000	0
7.9531841E+000	1.087313974484277E+002	-1.2102858E+000	-1.521762587899798E+002	1.8417676E-001	-1.2103692E+000	0
7.9175987E+000	1.089313974433753E+002	-1.2122829E+000	-1.531124444851262E+002	1.8561560E-001	-1.2123691E+000	0
7.6983657E+000	1.091314974383204E+002	-1.2142860E+000	-1.577329517078256E+002	1.9153291E-001	-1.2143699E+000	0
7.5831246E+000	1.093315974332654E+002	-1.2162988E+000	-1.603954628589742E+002	1.9508882E-001	-1.2163712E+000	0
7.5601058E+000	1.095315974282130E+002	-1.2182952E+000	-1.611479069143195E+002	1.9632572E-001	-1.2183713E+000	0
7.5100522E+000	1.097315974231606E+002	-1.2203178E+000	-1.624912582038486E+002	1.9829097E-001	-1.2203711E+000	0
7.4191294E+000	1.099315974181081E+002	-1.2223028E+000	-1.647501704417120E+002	2.0137459E-001	-1.2223711E+000	0
7.2954865E+000	1.101315974130557E+002	-1.2242795E+000	-1.678132803802321E+002	2.0545036E-001	-1.2243712E+000	0
7.1611972E+000	1.103315974080033E+002	-1.2263181E+000	-1.712448469970777E+002	2.1000066E-001	-1.2263712E+000	0
7.0991726E+000	1.105315974029509E+002	-1.2283092E+000	-1.730214495723735E+002	2.1252383E-001	-1.2283713E+000	0
7.0503964E+000	1.107315973978984E+002	-1.2303045E+000	-1.745014629655948E+002	2.1468993E-001	-1.2303712E+000	0
7.0181742E+000	1.109317973928410E+002	-1.2322693E+000	-1.755826058252583E+002	2.1636505E-001	-1.2323726E+000	0
6.9291677E+000	1.111319973877835E+002	-1.2342749E+000	-1.781274286927553E+002	2.1985821E-001	-1.2343751E+000	0
6.8118739E+000	1.113319973827311E+002	-1.2362911E+000	-1.814905966814949E+002	2.2437520E-001	-1.2363752E+000	0
6.7307544E+000	1.115319973776786E+002	-1.2383038E+000	-1.839769652284458E+002	2.2781937E-001	-1.2383752E+000	0
6.7034063E+000	1.117319973726262E+002	-1.2403042E+000	-1.850259646969316E+002	2.2948849E-001	-1.2403750E+000	0
6.6401629E+000	1.119320973675713E+002	-1.2422925E+000	-1.870876558153741E+002	2.3241760E-001	-1.2423760E+000	0
6.5354128E+000	1.121321973625163E+002	-1.2442849E+000	-1.903911630734297E+002	2.3690084E-001	-1.2443771E+000	0
6.4486351E+000	1.123321973574639E+002	-1.2462896E+000	-1.932640870401381E+002	2.4086303E-001	-1.2463771E+000	0
6.3580260E+000	1.125321973524115E+002	-1.2483323E+000	-1.963395970024483E+002	2.4509706E-001	-1.2483772E+000	0
6.3379970E+000	1.127321973473590E+002	-1.2503091E+000	-1.972719643899918E+002	2.4665093E-001	-1.2503772E+000	0
6.2455344E+000	1.129321973423066E+002	-1.2523165E+000	-2.005139030966898E+002	2.5110686E-001	-1.2523773E+000	0
6.2576251E+000	1.131321973372542E+002	-1.2543451E+000	-2.004506549467576E+002	2.5143430E-001	-1.2543771E+000	0
6.2222595E+000	1.133321973322018E+002	-1.2563001E+000	-2.019041542109471E+002	2.5365222E-001	-1.2563771E+000	0
6.0900397E+000	1.135321973271493E+002	-1.2583305E+000	-2.066210580207326E+002	2.5999758E-001	-1.2583773E+000	0
6.0394201E+000	1.137322973220944E+002	-1.2603158E+000	-2.086815932872964E+002	2.6300469E-001	-1.2603780E+000	0
5.9468055E+000	1.139323973170394E+002	-1.2623551E+000	-2.122744837585751E+002	2.6796576E-001	-1.2623792E+000	0
5.9281077E+000	1.141323973119870E+002	-1.2643158E+000	-2.132747730008596E+002	2.6964667E-001	-1.2643791E+000	0
5.8914051E+000	1.143323973069346E+002	-1.2663053E+000	-2.149411404949183E+002	2.7218112E-001	-1.2663792E+000	0
5.8549261E+000	1.145323973018822E+002	-1.2683080E+000	-2.166223801442025E+002	2.7474391E-001	-1.2683792E+000	0
5.7580242E+000	1.147323972968297E+002	-1.2703291E+000	-2.206189276939618E+002	2.8025866E-001	-1.2703793E+000	0
5.6108084E+000	1.149323972917773E+002	-1.2723235E+000	-2.267629536912015E+002	2.8851584E-001	-1.2723792E+000	0
5.5901937E+000	1.151323972867249E+002	-1.2743362E+000	-2.279592307149155E+002	2.9049671E-001	-1.2743791E+000	0
5.6007323E+000	1.153323972816725E+002	-1.2763431E+000	-2.278886064239637E+002	2.9086405E-001	-1.2763792E+000	0
5.5406380E+000	1.155324972766175E+002	-1.2783573E+000	-2.307238374317380E+002	2.9494750E-001	-1.2783800E+000	0
5.4742594E+000	1.157325972715626E+002	-1.2803597E+000	-2.338873096885586E+002	2.9945990E-001	-1.2803812E+000	0
5.3871169E+000	1.159327972665051E+002	-1.2823057E+000	-2.380319021722971E+002	3.0522966E-001	-1.2823827E+000	0
5.3611865E+000	1.161329972614476E+002	-1.2843291E+000	-2.395606070436598E+002	3.0767465E-001	-1.2843848E+000	0
5.3264089E+000	1.162932972573981E+002	-1.2859950E+000	-2.414375365060514E+002	3.1048748E-001	-1.2859871E+000	0
5.3102846E+000	1.164236972541039E+002	-1.2872334E+000	-2.424038425367767E+002	3.1203032E-001	-1.2872910E+000	0
5.2373948E+000	1.165842972500468E+002	-1.2888749E+000	-2.460908323338738E+002	3.1718028E-001	-1.2888974E+000	0
5.2225189E+000	1.167447972459922E+002	-1.2905002E+000	-2.471030051627899E+002	3.1888646E-001	-1.2905023E+000	0
5.1498532E+000	1.169152972416850E+002	-1.2922120E+000	-2.509221050793780E+002	3.2424456E-001	-1.2922076E+000	0
5.1064672E+000	1.170957972371252E+002	-1.2939963E+000	-2.534034445489506E+002	3.2790312E-001	-1.2940124E+000	0
5.0750132E+000	1.172363972335734E+002	-1.2953945E+000	-2.552495043129479E+002	3.3064881E-001	-1.2954185E+000	0
5.0259423E+000	1.174166972290186E+002	-1.2971908E+000	-2.580990202593321E+002	3.3480367E-001	-1.2972215E+000	0
4.9686174E+000	1.176168972239611E+002	-1.2992247E+000	-2.614861715169704E+002	3.3972931E-001	-1.2992239E+000	0
4.9575968E+000	1.178171972189011E+002	-1.3012036E+000	-2.624666156919116E+002	3.4152251E-001	-1.3012267E+000	0
4.9034853E+000	1.179777972148440E+002	-1.3028454E+000	-2.656978188815956E+002	3.4616318E-001	-1.3028324E+000	0
4.8303318E+000	1.181482972105368E+002	-1.3045194E+000	-2.700682949190596E+002	3.5230935E-001	-1.3045374E+000	0
4.8565922E+000	1.183088972064797E+002	-1.3061643E+000	-2.689466637789437E+002	3.5128853E-001	-1.3061430E+000	0
4.8572164E+000	1.184793972021725E+002	-1.3078437E+000	-2.692578639542953E+002	3.5214719E-001	-1.3078486E+000	0
4.8109307E+000	1.186598971976127E+002	-1.3096623E+000	-2.722264097282061E+002	3.5652468E-001	-1.3096536E+000	0
4.7902956E+000	1.188400971930605E+002	-1.3114469E+000	-2.737715972729757E+002	3.5903692E-001	-1.3114556E+000	0
4.7626739E+000	1.189906971892560E+002	-1.3129464E+000	-2.756742409674644E+002	3.6194551E-001	-1.3129613E+000	0
4.7303576E+000	1.191610971849514E+002	-1.3146198E+000	-2.779112823298246E+002	3.6534768E-001	-1.3146654E+000	0
4.7176008E+000	1.193517971801339E+002	-1.3165643E+000	-2.790749704128302E+002	3.6742014E-001	-1.3165721E+000	0
4.7106233E+000	1.195223971758242E+002	-1.3182797E+000	-2.798525127979938E+002	3.6892390E-001	-1.3182784E+000	0
4.6737361E+000	1.196926971715220E+002	-1.3199723E+000	-2.824233699437996E+002	3.7279102E-001	-1.3199817E+000	0
4.6301861E+000	1.198631971672148E+002	-1.3216308E+000	-2.854379499412807E+002	3.7724361E-001	-1.3216864E+000	0
4.6479778E+000	1.200340971628975E+002	-1.3233745E+000	-2.847204950824316E+002	3.7679183E-001	-1.3233955E+000	0
4.5822654E+000	1.201946971588404E+002	-1.3249990E+000	-2.891580528740762E+002	3.8313413E-001	-1.3250009E+000	0
4.4693656E+000	1.203452971550360E+002	-1.3265110E+000	-2.968007400980241E+002	3.9370945E-001	-1.3265077E+000	0
4.4671397E+000	1.204956971512365E+002	-1.3280102E+000	-2.972842258609599E+002	3.9479649E-001	-1.3280116E+000	0
4.4394355E+000	1.206561971471820E+002	-1.3296177E+000	-2.995015277572832E+002	3.9822254E-001	-1.3296164E+000	0
4.3611693E+000	1.208268971428697E+002	-1.3313028E+000	-3.052627833827905E+002	4.0639719E-001	-1.3313233E+000	0
4.3199549E+000	1.210074971383074E+002	-1.3331412E+000	-3.086007250790699E+002	4.1140833E-001	-1.3331293E+000	0
4.3051777E+000	1.211380971350081E+002	-1.3344524E+000	-3.099645223659827E+002	4.1363290E-001	-1.3344351E+000	0
4.2728939E+000	1.212485971322167E+002	-1.3355265E+000	-3.125578389427665E+002	4.1742927E-001	-1.3355401E+000	0
4.2284226E+000	1.213887971286749E+002	-1.3369398E+000	-3.161793097545806E+002	4.2271271E-001	-1.3369427E+000	0
4.2261724E+000	1.215393971248704E+002	-1.3384471E+000	-3.167043126713340E+002	4.2389196E-001	-1.3384482E+000	0
4.2492294E+000	1.217095971205708E+002	-1.3401842E+000	-3.153946514190766E+002	4.2268693E-001	-1.3401504E+000	0
4.2603426E+000	1.218600971167689E+002	-1.3416899E+000	-3.149253650449946E+002	4.2253220E-001	-1.3416550E+000	0
4.2298927E+000	1.220308971124541E+002	-1.3433876E+000	-3.175937858272105E+002	4.2665157E-001	-1.3433633E+000	0
4.1157680E+000	1.222015971081419E+002	-1.3451062E+000	-3.268178033216359E+002	4.3960467E-001	-1.3450702E+000	0
4.0872979E+000	1.223721971038322E+002	-1.3468388E+000	-3.295181387053290E+002	4.4380781E-001	-1.3467761E+000	0
4.1060352E+000	1.225528970992673E+002	-1.3485882E+000	-3.284404994854658E+002	4.4293100E-001	-1.3485835E+000	0
4.0677485E+000	1.227433970944548E+002	-1.3505311E+000	-3.320095026027720E+002	4.4838917E-001	-1.3504884E+000	0
4.0121446E+000	1.229040970903952E+002	-1.3521489E+000	-3.370140189247886E+002	4.5569313E-001	-1.3520954E+000	0
4.0057502E+000	1.230545970865933E+002	-1.3536446E+000	-3.379253622330580E+002	4.5743084E-001	-1.3536004E+000	0
3.9827237E+000	1.232050970827913E+002	-1.3551136E+000	-3.402479698608840E+002	4.6107465E-001	-1.3551049E+000	0
3.9904928E+000	1.233554970789919E+002	-1.3566260E+000	-3.399645323758018E+002	4.6120474E-001	-1.3566096E+000	0
3.9758208E+000	1.235257970746898E+002	-1.3583473E+000	-3.416520357887123E+002	4.6408212E-001	-1.3583127E+000	0
3.9464397E+000	1.236962970703826E+002	-1.3600239E+000	-3.446204590307470E+002	4.6869203E-001	-1.3600177E+000	0
3.9293313E+000	1.238566970663305E+002	-1.3616738E+000	-3.465408508592282E+002	4.7187561E-001	-1.3616213E+000	0
3.9342959E+000	1.240371970617707E+002	-1.3634224E+000	-3.465480043471962E+002	4.7249132E-001	-1.3634264E+000	0
3.9628181E+000	1.242275970569608E+002	-1.3653708E+000	-3.445453901357450E+002	4.7043219E-001	-1.3653306E+000	0
3.9416864E+000	1.243880970529062E+002	-1.3669566E+000	-3.467948593434479E+002	4.7405353E-001	-1.3669354E+000	0
3.9140103E+000	1.245785970480938E+002	-1.3688695E+000	-3.497358132650329E+002	4.7874269E-001	-1.3688403E+000	0
3.8943577E+000	1.247590970435340E+002	-1.3706828E+000	-3.519663443698300E+002	4.8243421E-001	-1.3706455E+000	0
3.8238647E+000	1.249296970392243E+002	-1.3723489E+000	-3.588905584289814E+002	4.9252307E-001	-1.3723515E+000	0
3.8028824E+000	1.250804970354147E+002	-1.3739288E+000	-3.612861550579119E+002	4.9638146E-001	-1.3738592E+000	0
3.8065763E+000	1.252510970311050E+002	-1.3755864E+000	-3.613710243963897E+002	4.9709707E-001	-1.3755655E+000	0
3.8273537E+000	1.254317970265402E+002	-1.3774078E+000	-3.598851597615085E+002	4.9570861E-001	-1.3773725E+000	0
3.8471537E+000	1.256022970222330E+002	-1.3791090E+000	-3.584751527792300E+002	4.9437633E-001	-1.3790772E+000	0
3.8050001E+000	1.257527970184310E+002	-1.3806224E+000	-3.628442569067129E+002	5.0095093E-001	-1.3805821E+000	0
3.8250978E+000	1.258734970153819E+002	-1.3818455E+000	-3.612575544564534E+002	4.9920210E-001	-1.3817893E+000	0
3.8078742E+000	1.260137970118376E+002	-1.3832083E+000	-3.632494566414689E+002	5.0244963E-001	-1.3831922E+000	0
3.7770376E+000	1.261442970085409E+002	-1.3845472E+000	-3.665696132427806E+002	5.0753295E-001	-1.3844974E+000	0
3.7548165E+000	1.262847970049916E+002	-1.3859544E+000	-3.691137306079945E+002	5.1157480E-001	-1.3859023E+000	0
3.6975005E+000	1.264352970011896E+002	-1.3874552E+000	-3.752413852279988E+002	5.2063060E-001	-1.3874072E+000	0
3.6743302E+000	1.265858969973851E+002	-1.3889869E+000	-3.780245253248486E+002	5.2507114E-001	-1.3889138E+000	0
3.6766577E+000	1.267561969930830E+002	-1.3906474E+000	-3.782368363706919E+002	5.2599406E-001	-1.3906168E+000	0
3.6493232E+000	1.269265969887783E+002	-1.3923546E+000	-3.815377571228069E+002	5.3123587E-001	-1.3923202E+000	0
3.6144588E+000	1.271073969842109E+002	-1.3941605E+000	-3.857176330502280E+002	5.3775227E-001	-1.3941287E+000	0
3.6024797E+000	1.272777969799063E+002	-1.3958570E+000	-3.874711581192503E+002	5.4085433E-001	-1.3958323E+000	0
3.5963955E+000	1.274283969761018E+002	-1.3973728E+000	-3.885481652850585E+002	5.4294664E-001	-1.3973384E+000	0
3.6330235E+000	1.276089969715395E+002	-1.3991749E+000	-3.851268674356243E+002	5.3885984E-001	-1.3991444E+000	0
3.6240396E+000	1.277694969674849E+002	-1.4008026E+000	-3.865307118939754E+002	5.4145324E-001	-1.4007492E+000	0
3.6135924E+000	1.279400969631752E+002	-1.4025064E+000	-3.881196945384108E+002	5.4434031E-001	-1.4024554E+000	0
3.5408015E+000	1.281004969591231E+002	-1.4040755E+000	-3.965417133265828E+002	5.5677450E-001	-1.4040596E+000	0
3.5181961E+000	1.282506969553287E+002	-1.4055876E+000	-3.995193866261134E+002	5.6155950E-001	-1.4055618E+000	0
3.5037017E+000	1.284205969510367E+002	-1.4072859E+000	-4.016568798785438E+002	5.6524605E-001	-1.4072608E+000	0
3.5249963E+000	1.286005969464895E+002	-1.4091041E+000	-3.997462766448639E+002	5.6328410E-001	-1.4090607E+000	0
3.5246234E+000	1.287905969416897E+002	-1.4109986E+000	-4.003260653683938E+002	5.6485951E-001	-1.4109609E+000	0
3.5190866E+000	1.289905969366373E+002	-1.4130113E+000	-4.015278473678918E+002	5.6736338E-001	-1.4129609E+000	0
3.4376030E+000	1.291805969318375E+002	-1.4149146E+000	-4.115992036800653E+002	5.8237773E-001	-1.4148607E+000	0
3.4289029E+000	1.293506969275404E+002	-1.4166331E+000	-4.131447333497736E+002	5.8527452E-001	-1.4165617E+000	0
3.4276333E+000	1.295207969232433E+002	-1.4183033E+000	-4.137850141486324E+002	5.8687264E-001	-1.4182627E+000	0
3.2962875E+000	1.297007969186961E+002	-1.4201499E+000	-4.308331369402067E+002	6.1184764E-001	-1.4200628E+000	0
3.3062344E+000	1.298807969141490E+002	-1.4219376E+000	-4.300776592567972E+002	6.1154360E-001	-1.4218628E+000	0
3.2913795E+000	1.300507969098544E+002	-1.4236399E+000	-4.325359221726324E+002	6.1577541E-001	-1.4235625E+000	0
3.2904658E+000	1.302208969055573E+002	-1.4253501E+000	-4.331757775334295E+002	6.1742711E-001	-1.4252638E+000	0
3.3085990E+000	1.304109969007550E+002	-1.4272332E+000	-4.313708531083441E+002	6.1566681E-001	-1.4271649E+000	0
3.2636547E+000	1.305909968962078E+002	-1.4290476E+000	-4.378672686139935E+002	6.2573314E-001	-1.4289646E+000	0
3.2628522E+000	1.307410968924160E+002	-1.4305750E+000	-4.384430929225309E+002	6.2722576E-001	-1.4304657E+000	0
3.2531862E+000	1.308910968886266E+002	-1.4320437E+000	-4.401972479331580E+002	6.3038170E-001	-1.4319659E+000	0
3.2598743E+000	1.310609968843346E+002	-1.4337349E+000	-4.398129232521737E+002	6.3057512E-001	-1.4336647E+000	0
3.2972398E+000	1.312210968802901E+002	-1.4353514E+000	-4.353190769955718E+002	6.2483585E-001	-1.4352655E+000	0
3.3008549E+000	1.313712968764958E+002	-1.4368491E+000	-4.352960587022126E+002	6.2545478E-001	-1.4367677E+000	0
3.2796404E+000	1.315115968729515E+002	-1.4382510E+000	-4.385392223529643E+002	6.3072950E-001	-1.4381707E+000	0
3.2373068E+000	1.316915968684043E+002	-1.4400406E+000	-4.448267319002407E+002	6.4056855E-001	-1.4399710E+000	0
3.2098620E+000	1.318815968636045E+002	-1.4419560E+000	-4.492267998086609E+002	6.4776528E-001	-1.4418707E+000	0
3.2224257E+000	1.320616968590548E+002	-1.4437619E+000	-4.480357615903172E+002	6.4685696E-001	-1.4436717E+000	0
3.1838675E+000	1.322417968545051E+002	-1.4455732E+000	-4.540305866630788E+002	6.5633446E-001	-1.4454727E+000	0
3.1317229E+000	1.324117968502105E+002	-1.4472613E+000	-4.621294381471562E+002	6.6882205E-001	-1.4471725E+000	0
3.0884967E+000	1.325818968459134E+002	-1.4489068E+000	-4.691301114158514E+002	6.7972583E-001	-1.4488739E+000	0
3.0992889E+000	1.327517968416214E+002	-1.4506618E+000	-4.680627730876106E+002	6.7900079E-001	-1.4505726E+000	0
3.1343715E+000	1.329317968370742E+002	-1.4524611E+000	-4.633978703038219E+002	6.7306739E-001	-1.4523729E+000	0
3.1286919E+000	1.331218968322719E+002	-1.4543302E+000	-4.648365106680776E+002	6.7602581E-001	-1.4542736E+000	0
3.1534584E+000	1.333019968277222E+002	-1.4561449E+000	-4.617612826801851E+002	6.7239136E-001	-1.4560747E+000	0
3.1108470E+000	1.334919968229224E+002	-1.4580817E+000	-4.687089096640229E+002	6.8341589E-001	-1.4579749E+000	0
3.0919747E+000	1.336819968181226E+002	-1.4599707E+000	-4.721806574093353E+002	6.8936992E-001	-1.4598749E+000	0
3.0789621E+000	1.338519968138280E+002	-1.4616807E+000	-4.747316090131390E+002	6.9390601E-001	-1.4615747E+000	0
3.1247628E+000	1.340220968095309E+002	-1.4633828E+000	-4.683180560277345E+002	6.8532860E-001	-1.4632758E+000	0
3.1634426E+000	1.342021968049812E+002	-1.4651573E+000	-4.631527919055179E+002	6.7859167E-001	-1.4650767E+000	0
3.1774950E+000	1.343622968009367E+002	-1.4667518E+000	-4.616063294474966E+002	6.7706192E-001	-1.4666777E+000	0
3.1033697E+000	1.345221967968973E+002	-1.4684078E+000	-4.731655733801554E+002	6.9480002E-001	-1.4682767E+000	0
3.0859351E+000	1.347021967923502E+002	-1.4706682E+000	-4.765713374671286E+002	7.0087832E-001	-1.4700768E+000	0
3.0533731E+000	1.348721967880556E+002	-1.4723833E+000	-4.822153013766114E+002	7.1000576E-001	-1.4717766E+000	0
3.0535941E+000	1.350321967840136E+002	-1.4739668E+000	-4.826990153435545E+002	7.1148235E-001	-1.4733765E+000	0
3.0485451E+000	1.352121967794665E+002	-1.4757807E+000	-4.840934553254483E+002	7.1441579E-001	-1.4751768E+000	0
3.0936003E+000	1.354021967746667E+002	-1.4776844E+000	-4.776584897746779E+002	7.0582849E-001	-1.4770768E+000	0
3.0308940E+000	1.355522967708748E+002	-1.4791980E+000	-4.880401402324533E+002	7.2190797E-001	-1.4785775E+000	0
3.0200264E+000	1.357222967665803E+002	-1.4809390E+000	-4.903728684468606E+002	7.2621232E-001	-1.4802779E+000	0
2.9790745E+000	1.359022967620331E+002	-1.4826777E+000	-4.976974200716221E+002	7.3792487E-001	-1.4820778E+000	0
2.9663682E+000	1.360822967574859E+002	-1.4844916E+000	-5.004407584436535E+002	7.4290007E-001	-1.4838778E+000	0
2.9735146E+000	1.362522967531913E+002	-1.4862500E+000	-4.998294322975084E+002	7.4287152E-001	-1.4855778E+000	0
2.9798427E+000	1.364023967493995E+002	-1.4877235E+000	-4.992624122168509E+002	7.4276441E-001	-1.4870785E+000	0
2.9580638E+000	1.365623967453575E+002	-1.4893353E+000	-5.034831680103671E+002	7.4985528E-001	-1.4886788E+000	0
2.9504135E+000	1.367424967408078E+002	-1.4911335E+000	-5.053981375514941E+002	7.5361609E-001	-1.4904797E+000	0
2.9835756E+000	1.369126967365082E+002	-1.4928155E+000	-5.003444573472193E+002	7.4692196E-001	-1.4921819E+000	0
2.9989538E+000	1.370825967322162E+002	-1.4945093E+000	-4.983435568535133E+002	7.4477911E-001	-1.4938807E+000	0
2.9682255E+000	1.372526967279191E+002	-1.4962608E+000	-5.040926709144442E+002	7.5425410E-001	-1.4955819E+000	0
2.9177883E+000	1.374227967236220E+002	-1.4979174E+000	-5.133742731270286E+002	7.6899225E-001	-1.4972827E+000	0
2.9209764E+000	1.376127967188222E+002	-1.4998151E+000	-5.134636151103996E+002	7.7010047E-001	-1.4991829E+000	0
2.9255357E+000	1.377927967142750E+002	-1.5016518E+000	-5.132911962723463E+002	7.7078462E-001	-1.5009826E+000	0
2.9205947E+000	1.379628967099779E+002	-1.5033762E+000	-5.147500639393313E+002	7.7386302E-001	-1.5026839E+000	0
2.8877461E+000	1.381527967051807E+002	-1.5052487E+000	-5.212537930330727E+002	7.8461659E-001	-1.5045830E+000	0
2.8231664E+000	1.383428967003783E+002	-1.5071707E+000	-5.338582352117937E+002	8.0461550E-001	-1.5064836E+000	0
2.7781754E+000	1.385229966958286E+002	-1.5089397E+000	-5.431405716144336E+002	8.1956637E-001	-1.5082846E+000	0
2.7570534E+000	1.386930966915315E+002	-1.5106550E+000	-5.479237463259196E+002	8.2772380E-001	-1.5099854E+000	0
2.7501812E+000	1.388433966877346E+002	-1.5121554E+000	-5.498384807821694E+002	8.3144122E-001	-1.5114887E+000	0
2.7219217E+000	1.390234966831849E+002	-1.5139314E+000	-5.561994521648967E+002	8.4204781E-001	-1.5132898E+000	0
2.7237976E+000	1.392133966783877E+002	-1.5158770E+000	-5.565307042258137E+002	8.4363210E-001	-1.5151889E+000	0
2.7470193E+000	1.394033966735878E+002	-1.5177593E+000	-5.525113367718677E+002	8.3857924E-001	-1.5170888E+000	0
2.7522094E+000	1.395633966695459E+002	-1.5193905E+000	-5.520620891409853E+002	8.3879787E-001	-1.5186886E+000	0
2.7527573E+000	1.397234966655014E+002	-1.5209385E+000	-5.525145706453368E+002	8.4034067E-001	-1.5202898E+000	0
2.7611220E+000	1.399033966609568E+002	-1.5227489E+000	-5.514964465932617E+002	8.3979064E-001	-1.5220888E+000	0
2.7636302E+000	1.400733966566622E+002	-1.5244577E+000	-5.516142009904138E+002	8.4091252E-001	-1.5237883E+000	0
2.7811935E+000	1.402433966523677E+002	-1.5261798E+000	-5.487499601349027E+002	8.3749110E-001	-1.5254889E+000	0
2.7737882E+000	1.404133966480731E+002	-1.5278484E+000	-5.508165063106717E+002	8.4156412E-001	-1.5271885E+000	0
2.7064910E+000	1.405834966437760E+002	-1.5296205E+000	-5.651674260100558E+002	8.6449170E-001	-1.5288895E+000	0
2.6837204E+000	1.407735966389737E+002	-1.5314736E+000	-5.706532075929545E+002	8.7394035E-001	-1.5307909E+000	0
2.6486676E+000	1.409536966344240E+002	-1.5332960E+000	-5.788933464768725E+002	8.8761485E-001	-1.5325917E+000	0
2.6439583E+000	1.411238966301244E+002	-1.5349751E+000	-5.805594881643174E+002	8.9114434E-001	-1.5342937E+000	0
2.6676888E+000	1.412940966258248E+002	-1.5367097E+000	-5.760453152013724E+002	8.8521439E-001	-1.5359958E+000	0
2.6563094E+000	1.413941966232960E+002	-1.5376968E+000	-5.788847158003828E+002	8.9014918E-001	-1.5369956E+000	0
2.6488793E+000	1.414231966225634E+002	-1.5379945E+000	-5.806208496093750E+002	8.9299166E-001	-1.5372967E+000	1