EC-Lab ASCII FILE
Nb header lines : 63                          

Linear Sweep Voltammetry

Run on channel : 1 (SN 1340)
User : 
Electrode connection : standard
Potential control : Ewe
Ewe ctrl range : min = -5.00 V, max = 5.00 V
Ewe,I filtering : <None>
Safety Limits :
	Do not start on E overload
Channel : Floating
Acquisition started on : 03/03/2026 16:31:25.043
Technique started on : 03/03/2026 16:31:27.726
Loaded Setting File :  NONE
Saved on :
	File : X18_75_N52magA_flat_3-3_02_LSV_C01.mpr
	Directory : C:\Users\volt\Documents\Platalytix\
	Host : 127.0.0.1
Device : SP-200 (SN 0262)
Address : USB
EC-LAB for windows v11.60 (software)
Internet server v11.60 (firmware)
Command interpretor v11.60 (firmware)
Electrode material : Ni40
Initial state : 
Electrolyte : KOH (1 M)
Comments : with magnet side A (+), N52 Nd magnet, alloy placed lying flat on magnet
Cable : standard
Reference electrode : Hg/HgO (0.140 V)
Electrode surface area : 1.000 cm˛
Characteristic mass : 0.001 g
Equivalent Weight : 0.000 g/eq.
Density : 0.000 g/cm3
Volume (V) : 0.001 cmł
Cycle Definition : Charge/Discharge alternance
tR (h:m:s)          0:00:5.0000         
dER/dt (mV/h)       0.0                 
dER (mV)            0                   
dtR (s)             0.0000              
dE/dt               10.000              
dE/dt unit          mV/s                
Ei (V)              -0.200              
vs.                 Ref                 
EL (V)              -2.500              
vs.                 Ref                 
record              <I>                 
dI                  0.000               
unit dI             µA                  
tI (s)              0.0000              
step percent        50                  
N                   10                  
E range min (V)     -5.000              
E range max (V)     5.000               
I Range             Auto                
I Range min         Unset               
I Range max         Unset               
I Range init        Unset               
Bandwidth           8                   

Rwe/Ohm	time/s	Ewe/V	<I>/mA	Pwe/W	control/V	error	
0.0000000E+000	2.683400127425557E+000	-1.5482235E-001	0.000000000000000E+000	0.0000000E+000	0.0000000E+000	0
0.0000000E+000	7.683200001119985E+000	-4.2956937E-002	0.000000000000000E+000	0.0000000E+000	-1.9987875E-001	0
8.9115391E+003	7.883199996067560E+000	-2.0158906E-001	2.262112790020177E-002	-4.5601719E-006	-2.0177853E-001	0
1.7207065E+003	8.003199993036105E+000	-2.0279689E-001	-1.178567589802333E-001	2.3900984E-005	-2.0297860E-001	0
1.7178724E+003	8.213199987731059E+000	-2.0488581E-001	-1.192671852650928E-001	2.4436154E-005	-2.0507857E-001	0
1.8518945E+003	8.413199982678634E+000	-2.0688485E-001	-1.117152437628955E-001	2.3112190E-005	-2.0707859E-001	0
1.9836516E+003	8.613199977626209E+000	-2.0890173E-001	-1.053117018345060E-001	2.1999796E-005	-2.0907858E-001	0
2.1064529E+003	8.813199972573784E+000	-2.1088612E-001	-1.001143328214060E-001	2.1112723E-005	-2.1107858E-001	0
2.2200872E+003	9.013199967521359E+000	-2.1285866E-001	-9.587851766752409E-002	2.0408574E-005	-2.1307859E-001	0
2.3277544E+003	9.213199962468934E+000	-2.1490334E-001	-9.232217555151889E-002	1.9840343E-005	-2.1507856E-001	0
2.4277827E+003	9.413199957416509E+000	-2.1686205E-001	-8.932514781556833E-002	1.9371235E-005	-2.1707858E-001	0
2.5229883E+003	9.613199952364084E+000	-2.1887024E-001	-8.675039415786234E-002	1.8987079E-005	-2.1907859E-001	0
2.6165776E+003	9.813199947311659E+000	-2.2094037E-001	-8.443867940035377E-002	1.8655914E-005	-2.2107857E-001	0
2.7039412E+003	1.001319994225923E+001	-2.2290333E-001	-8.243645605517125E-002	1.8375360E-005	-2.2307858E-001	0
2.7899602E+003	1.021319993720681E+001	-2.2493336E-001	-8.062242520466234E-002	1.8134673E-005	-2.2507860E-001	0
2.8712288E+003	1.041319993215438E+001	-2.2690886E-001	-7.902848635971227E-002	1.7932263E-005	-2.2707857E-001	0
2.9521670E+003	1.061319992710196E+001	-2.2891067E-001	-7.753988137244838E-002	1.7749706E-005	-2.2907858E-001	0
3.0317922E+003	1.081319992204953E+001	-2.3090185E-001	-7.616018358873544E-002	1.7585528E-005	-2.3107859E-001	0
3.1075842E+003	1.101319991699711E+001	-2.3291108E-001	-7.494924059655095E-002	1.7456508E-005	-2.3307855E-001	0
3.1849465E+003	1.121319991194468E+001	-2.3489700E-001	-7.375226102140020E-002	1.7324184E-005	-2.3507859E-001	0
3.2595032E+003	1.141319990689226E+001	-2.3690772E-001	-7.268215835098668E-002	1.7218965E-005	-2.3707859E-001	0
3.3324119E+003	1.161319990183983E+001	-2.3892373E-001	-7.169693648337877E-002	1.7130100E-005	-2.3907858E-001	0
3.4052305E+003	1.181319989678741E+001	-2.4089244E-001	-7.074188954057514E-002	1.7041186E-005	-2.4107859E-001	0
3.4775156E+003	1.201319989173498E+001	-2.4287365E-001	-6.984113779155499E-002	1.6962573E-005	-2.4307859E-001	0
3.5505620E+003	1.221319988668256E+001	-2.4487546E-001	-6.896808254954889E-002	1.6888591E-005	-2.4507859E-001	0
3.6212627E+003	1.241319988163013E+001	-2.4690443E-001	-6.818185968202073E-002	1.6834403E-005	-2.4707857E-001	0
3.6889648E+003	1.261319987657771E+001	-2.4887165E-001	-6.746382014234587E-002	1.6789832E-005	-2.4907860E-001	0
3.7598630E+003	1.281319987152528E+001	-2.5086308E-001	-6.672133350651910E-002	1.6737918E-005	-2.5107858E-001	0
3.8296760E+003	1.301319986647286E+001	-2.5287420E-001	-6.603017943814082E-002	1.6697328E-005	-2.5307858E-001	0
3.9002285E+003	1.321319986142043E+001	-2.5488278E-001	-6.535073165579020E-002	1.6656777E-005	-2.5507858E-001	0
3.9660149E+003	1.341319985636801E+001	-2.5686634E-001	-6.476686006547072E-002	1.6636426E-005	-2.5707856E-001	0
4.0376738E+003	1.361319985131559E+001	-2.5891951E-001	-6.412591016904161E-002	1.6603450E-005	-2.5907856E-001	0
4.1040303E+003	1.381319984626316E+001	-2.6091877E-001	-6.357623010508462E-002	1.6588232E-005	-2.6107860E-001	0
4.1711826E+003	1.401319984121074E+001	-2.6287708E-001	-6.302219587842800E-002	1.6567090E-005	-2.6307857E-001	0
4.2417378E+003	1.421319983615831E+001	-2.6489267E-001	-6.244909011150675E-002	1.6542306E-005	-2.6507857E-001	0
4.3060396E+003	1.441319983110589E+001	-2.6687029E-001	-6.197581122219653E-002	1.6539503E-005	-2.6707858E-001	0
4.3721064E+003	1.461319982605346E+001	-2.6885960E-001	-6.149429263538631E-002	1.6533331E-005	-2.6907858E-001	0
4.4382144E+003	1.481319982100104E+001	-2.7086309E-001	-6.102974103159720E-002	1.6530705E-005	-2.7107859E-001	0
4.5044248E+003	1.501319981594861E+001	-2.7289012E-001	-6.058267948361290E-002	1.6532415E-005	-2.7307859E-001	0
4.5723535E+003	1.521319981089619E+001	-2.7489281E-001	-6.012063659569167E-002	1.6526730E-005	-2.7507856E-001	0
4.6393555E+003	1.541319980584376E+001	-2.7686003E-001	-5.967639699153787E-002	1.6522008E-005	-2.7707860E-001	0
4.7062168E+003	1.561319980079134E+001	-2.7887055E-001	-5.925578355911665E-002	1.6524693E-005	-2.7907857E-001	0
4.7722876E+003	1.581319979573891E+001	-2.8089634E-001	-5.885989409596881E-002	1.6533528E-005	-2.8107858E-001	0
4.8431299E+003	1.601319979068649E+001	-2.8286988E-001	-5.840642062700080E-002	1.6521417E-005	-2.8307858E-001	0
4.9069224E+003	1.621319978563406E+001	-2.8488508E-001	-5.805779473545669E-002	1.6539800E-005	-2.8507859E-001	0
4.9761548E+003	1.641319978058164E+001	-2.8687480E-001	-5.764989344331339E-002	1.6538303E-005	-2.8707859E-001	0
5.0432207E+003	1.661319977552921E+001	-2.8887784E-001	-5.728042627739693E-002	1.6547046E-005	-2.8907859E-001	0
5.1064600E+003	1.681319977047679E+001	-2.9090664E-001	-5.696835504135200E-002	1.6572472E-005	-2.9107860E-001	0
5.1722666E+003	1.701319976542436E+001	-2.9286024E-001	-5.662125944478813E-002	1.6582115E-005	-2.9307857E-001	0
5.2438174E+003	1.721319976037194E+001	-2.9491448E-001	-5.624042099126347E-002	1.6586115E-005	-2.9507858E-001	0
5.3073604E+003	1.741319975531951E+001	-2.9689100E-001	-5.593948242943048E-002	1.6607930E-005	-2.9707861E-001	0
5.3723267E+003	1.761319975026709E+001	-2.9889494E-001	-5.563603098031211E-002	1.6629328E-005	-2.9907855E-001	0
5.4436958E+003	1.781319974521466E+001	-3.0089125E-001	-5.527333781923560E-002	1.6631264E-005	-3.0107859E-001	0
5.5081548E+003	1.801319974016224E+001	-3.0286568E-001	-5.498496202916714E-002	1.6653059E-005	-3.0307859E-001	0
5.5766909E+003	1.821319973510981E+001	-3.0489171E-001	-5.467251194809919E-002	1.6669195E-005	-3.0507857E-001	0
5.6431074E+003	1.841319973005739E+001	-3.0687737E-001	-5.438092178897391E-002	1.6688275E-005	-3.0707860E-001	0
5.7090488E+003	1.861319972500496E+001	-3.0890587E-001	-5.410811400184601E-002	1.6714313E-005	-3.0907857E-001	0
5.7779287E+003	1.881319971995254E+001	-3.1085634E-001	-5.380065347144024E-002	1.6724274E-005	-3.1107861E-001	0
5.8435654E+003	1.901319971490011E+001	-3.1286117E-001	-5.353943206150263E-002	1.6750409E-005	-3.1307861E-001	0
5.9113921E+003	1.921319970984769E+001	-3.1482050E-001	-5.325657385982174E-002	1.6766262E-005	-3.1507862E-001	0
5.9752954E+003	1.941319970479526E+001	-3.1687748E-001	-5.303126611206216E-002	1.6804413E-005	-3.1707856E-001	0
6.0453228E+003	1.961319969974284E+001	-3.1883746E-001	-5.274118142267981E-002	1.6815864E-005	-3.1907859E-001	0
6.1105830E+003	1.981319969469041E+001	-3.2088959E-001	-5.251374537528580E-002	1.6851114E-005	-3.2107857E-001	0
6.1797715E+003	2.001319968963799E+001	-3.2291216E-001	-5.225309142272661E-002	1.6873159E-005	-3.2307857E-001	0
6.2448970E+003	2.021319968458556E+001	-3.2486773E-001	-5.202131024076107E-002	1.6900045E-005	-3.2507858E-001	0
6.3144595E+003	2.041319967953314E+001	-3.2687464E-001	-5.176605171336024E-002	1.6921009E-005	-3.2707858E-001	0
6.3795630E+003	2.061319967448071E+001	-3.2886901E-001	-5.155039716421161E-002	1.6953329E-005	-3.2907858E-001	0
6.4478530E+003	2.081319966942829E+001	-3.3086824E-001	-5.131448245377135E-002	1.6978332E-005	-3.3107859E-001	0
6.5161606E+003	2.101319966437586E+001	-3.3286837E-001	-5.108351114125742E-002	1.7004086E-005	-3.3307862E-001	0
6.5795464E+003	2.121319965932344E+001	-3.3491322E-001	-5.090217495256888E-002	1.7047811E-005	-3.3507857E-001	0
6.6495142E+003	2.141319965427101E+001	-3.3689958E-001	-5.066529195438929E-002	1.7069115E-005	-3.3707860E-001	0
6.7170186E+003	2.161319964921859E+001	-3.3888587E-001	-5.045182788491154E-002	1.7097413E-005	-3.3907858E-001	0
6.7830850E+003	2.181319964416616E+001	-3.4089491E-001	-5.025661806100795E-002	1.7132224E-005	-3.4107858E-001	0
6.8557031E+003	2.201319963911374E+001	-3.4286258E-001	-5.001129185920269E-002	1.7147000E-005	-3.4307858E-001	0
6.9217837E+003	2.221319963406131E+001	-3.4488747E-001	-4.982638612702117E-002	1.7184497E-005	-3.4507859E-001	0
6.9910166E+003	2.241319962900889E+001	-3.4689718E-001	-4.962042067094363E-002	1.7213184E-005	-3.4707859E-001	0
7.0587046E+003	2.261319962395646E+001	-3.4888497E-001	-4.942620301707867E-002	1.7244060E-005	-3.4907860E-001	0
7.1260083E+003	2.281319961890404E+001	-3.5088590E-001	-4.924017598571645E-002	1.7277684E-005	-3.5107860E-001	0
7.1931133E+003	2.301319961385161E+001	-3.5286289E-001	-4.905565602328954E-002	1.7309922E-005	-3.5307860E-001	0
7.2651196E+003	2.321319960879919E+001	-3.5487914E-001	-4.884697953524170E-002	1.7334774E-005	-3.5507861E-001	0
7.3348682E+003	2.341319960374676E+001	-3.5689941E-001	-4.865791845344458E-002	1.7365983E-005	-3.5707858E-001	0
7.3992144E+003	2.361319959869434E+001	-3.5886618E-001	-4.850057908333841E-002	1.7405218E-005	-3.5907856E-001	0
7.4726543E+003	2.381319959364191E+001	-3.6088136E-001	-4.829359605650763E-002	1.7428258E-005	-3.6107859E-001	0
7.5436729E+003	2.401319958858949E+001	-3.6287278E-001	-4.810293312311209E-002	1.7455244E-005	-3.6307859E-001	0
7.6060557E+003	2.421319958353706E+001	-3.6486334E-001	-4.797011261405697E-002	1.7502536E-005	-3.6507860E-001	0
7.6794111E+003	2.441319957848464E+001	-3.6688974E-001	-4.777576506445125E-002	1.7528439E-005	-3.6707860E-001	0
7.7453218E+003	2.461319957343221E+001	-3.6885929E-001	-4.762349433087198E-002	1.7566368E-005	-3.6907861E-001	0
7.8147070E+003	2.481319956837979E+001	-3.7088740E-001	-4.746017839454453E-002	1.7602382E-005	-3.7107861E-001	0
7.8845786E+003	2.501319956332736E+001	-3.7285209E-001	-4.728877692205691E-002	1.7631719E-005	-3.7307858E-001	0
7.9518096E+003	2.521319955827494E+001	-3.7486556E-001	-4.714216914449243E-002	1.7671975E-005	-3.7507862E-001	0
8.0154785E+003	2.541319955322251E+001	-3.7687036E-001	-4.701782475608923E-002	1.7719625E-005	-3.7707859E-001	0
8.0892266E+003	2.561319954817009E+001	-3.7888661E-001	-4.683842321872600E-002	1.7746452E-005	-3.7907857E-001	0
8.1616660E+003	2.581319954311766E+001	-3.8089305E-001	-4.666854258069186E-002	1.7775723E-005	-3.8107860E-001	0
8.2280420E+003	2.601319953806524E+001	-3.8284501E-001	-4.652929798485572E-002	1.7813511E-005	-3.8307858E-001	0
8.3006016E+003	2.621319953301281E+001	-3.8488415E-001	-4.636822383462214E-002	1.7846394E-005	-3.8507861E-001	0
8.3699082E+003	2.641319952796039E+001	-3.8686663E-001	-4.622113125059812E-002	1.7881413E-005	-3.8707861E-001	0
8.4323574E+003	2.661319952290796E+001	-3.8884664E-001	-4.611363281129451E-002	1.7931132E-005	-3.8907859E-001	0
8.5026768E+003	2.681319951785554E+001	-3.9086261E-001	-4.596936202591151E-002	1.7967704E-005	-3.9107862E-001	0
8.5709805E+003	2.701319951280311E+001	-3.9289415E-001	-4.584004647096351E-002	1.8010285E-005	-3.9307863E-001	0
8.6426816E+003	2.721319950775069E+001	-3.9489236E-001	-4.569095256896749E-002	1.8043009E-005	-3.9507863E-001	0
8.7151357E+003	2.741319950269826E+001	-3.9686340E-001	-4.553725766683248E-002	1.8072071E-005	-3.9707860E-001	0
8.7803926E+003	2.761319949764584E+001	-3.9889216E-001	-4.542987734552401E-002	1.8121622E-005	-3.9907858E-001	0
8.8526367E+003	2.781319949259341E+001	-4.0088248E-001	-4.528396254798184E-002	1.8153547E-005	-4.0107861E-001	0
8.9208535E+003	2.801319948754099E+001	-4.0284187E-001	-4.515732351036916E-002	1.8191260E-005	-4.0307865E-001	0
8.9976016E+003	2.821319948248856E+001	-4.0490586E-001	-4.500153172041077E-002	1.8221384E-005	-4.0507862E-001	0
9.0690605E+003	2.841319947743614E+001	-4.0686694E-001	-4.486318448000903E-002	1.8253346E-005	-4.0707859E-001	0
9.1593760E+003	2.863319947187847E+001	-4.0909147E-001	-4.466368315667107E-002	1.8271532E-005	-4.0927863E-001	0
9.2528428E+003	2.885319946632080E+001	-4.1131932E-001	-4.445328975076288E-002	1.8284496E-005	-4.1147858E-001	0
9.3242666E+003	2.905319946126838E+001	-4.1325852E-001	-4.432075587787643E-002	1.8315930E-005	-4.1347861E-001	0
9.3968789E+003	2.925319945621595E+001	-4.1528583E-001	-4.419401910207754E-002	1.8353150E-005	-4.1547865E-001	0
9.4626523E+003	2.945319945116353E+001	-4.1731116E-001	-4.410086770049926E-002	1.8403784E-005	-4.1747862E-001	0
9.5328896E+003	2.965319944611110E+001	-4.1925377E-001	-4.397971587928221E-002	1.8438661E-005	-4.1947860E-001	0
9.6038721E+003	2.985319944105868E+001	-4.2129296E-001	-4.386699049418930E-002	1.8480854E-005	-4.2147863E-001	0
9.6793721E+003	3.005319943600625E+001	-4.2334422E-001	-4.373674661337135E-002	1.8515699E-005	-4.2347857E-001	0
9.7523145E+003	3.025319943095383E+001	-4.2528296E-001	-4.360841448807373E-002	1.8545916E-005	-4.2547861E-001	0
9.8238555E+003	3.045319942590140E+001	-4.2730665E-001	-4.349683816074856E-002	1.8586488E-005	-4.2747864E-001	0
9.8865332E+003	3.065319942084898E+001	-4.2925411E-001	-4.341806313118024E-002	1.8637382E-005	-4.2947862E-001	0
9.9587227E+003	3.085319941579655E+001	-4.3128100E-001	-4.330685993555117E-002	1.8677425E-005	-4.3147859E-001	0
1.0031606E+004	3.105319941074413E+001	-4.3329951E-001	-4.319343090668759E-002	1.8715693E-005	-4.3347862E-001	0
1.0103252E+004	3.125319940569170E+001	-4.3532050E-001	-4.308716671001761E-002	1.8756728E-005	-4.3547866E-001	0
1.0173359E+004	3.145319940063928E+001	-4.3729910E-001	-4.298472863462560E-002	1.8797184E-005	-4.3747860E-001	0
1.0244463E+004	3.165319939558685E+001	-4.3930304E-001	-4.288199659365144E-002	1.8838191E-005	-4.3947861E-001	0
1.0323489E+004	3.185319939053443E+001	-4.4135216E-001	-4.275222549498997E-002	1.8868786E-005	-4.4147864E-001	0
1.0387683E+004	3.205319938548200E+001	-4.4330838E-001	-4.267635238077069E-002	1.8918785E-005	-4.4347858E-001	0
1.0461632E+004	3.225319938042958E+001	-4.4532353E-001	-4.256730919488420E-002	1.8956223E-005	-4.4547862E-001	0
1.0531742E+004	3.245319937537715E+001	-4.4733381E-001	-4.247481645298212E-002	1.9000421E-005	-4.4747862E-001	0
1.0603679E+004	3.265319937032473E+001	-4.4933358E-001	-4.237525272415443E-002	1.9040624E-005	-4.4947866E-001	0
1.0673479E+004	3.285319936527230E+001	-4.5131493E-001	-4.228377036297337E-002	1.9083296E-005	-4.5147860E-001	0
1.0744641E+004	3.305319936021988E+001	-4.5329112E-001	-4.218764644530082E-002	1.9123285E-005	-4.5347860E-001	0
1.0814289E+004	3.325319935516745E+001	-4.5529926E-001	-4.210163712873205E-002	1.9168845E-005	-4.5547867E-001	0
1.0886402E+004	3.345319935011503E+001	-4.5728496E-001	-4.200515056492504E-002	1.9208324E-005	-4.5747861E-001	0
1.0962192E+004	3.365319934506260E+001	-4.5927912E-001	-4.189664992670672E-002	1.9242256E-005	-4.5947862E-001	0
1.1035205E+004	3.385319934001018E+001	-4.6130934E-001	-4.180342259066072E-002	1.9284309E-005	-4.6147862E-001	0
1.1110115E+004	3.405319933495775E+001	-4.6332407E-001	-4.170290267415955E-002	1.9321958E-005	-4.6347862E-001	0
1.1177332E+004	3.425319932990533E+001	-4.6533605E-001	-4.163212219227841E-002	1.9372928E-005	-4.6547857E-001	0
1.1246588E+004	3.445319932485290E+001	-4.6728104E-001	-4.154869536219834E-002	1.9414918E-005	-4.6747860E-001	0
1.1325263E+004	3.465319931980048E+001	-4.6931338E-001	-4.143951425979289E-002	1.9448118E-005	-4.6947864E-001	0
1.1391851E+004	3.485319931474805E+001	-4.7129083E-001	-4.137087333181894E-002	1.9497713E-005	-4.7147861E-001	0
1.1463616E+004	3.505319930969563E+001	-4.7329813E-001	-4.128698514597040E-002	1.9541052E-005	-4.7347859E-001	0
1.1531375E+004	3.525319930464320E+001	-4.7526827E-001	-4.121523017043680E-002	1.9588291E-005	-4.7547862E-001	0
1.1604685E+004	3.545319929959078E+001	-4.7728306E-001	-4.112848143337222E-002	1.9629928E-005	-4.7747859E-001	0
1.1680108E+004	3.565319929453835E+001	-4.7928253E-001	-4.103408289398547E-002	1.9666919E-005	-4.7947860E-001	0
1.1749984E+004	3.585319928948593E+001	-4.8128390E-001	-4.096038662538116E-002	1.9713574E-005	-4.8147863E-001	0
1.1820894E+004	3.605319928443350E+001	-4.8329359E-001	-4.088469149910179E-002	1.9759309E-005	-4.8347864E-001	0
1.1894773E+004	3.625319927938108E+001	-4.8525274E-001	-4.079545735114393E-002	1.9796107E-005	-4.8547858E-001	0
1.1955918E+004	3.645319927432865E+001	-4.8727897E-001	-4.075629924779811E-002	1.9859688E-005	-4.8747861E-001	0
1.2025428E+004	3.665319926927623E+001	-4.8928291E-001	-4.068736095127146E-002	1.9907629E-005	-4.8947865E-001	0
1.2100811E+004	3.685319926422380E+001	-4.9127573E-001	-4.059857895619987E-002	1.9945097E-005	-4.9147859E-001	0
1.2173313E+004	3.705319925917138E+001	-4.9329793E-001	-4.052289640488710E-002	1.9989860E-005	-4.9347860E-001	0
1.2251676E+004	3.725319925411895E+001	-4.9532565E-001	-4.042921618604928E-002	2.0025627E-005	-4.9547863E-001	0
1.2317070E+004	3.745319924906653E+001	-4.9734843E-001	-4.037879406138752E-002	2.0082331E-005	-4.9747866E-001	0
1.2392563E+004	3.765319924401410E+001	-4.9928257E-001	-4.028888906551786E-002	2.0115540E-005	-4.9947864E-001	0
1.2463106E+004	3.785319923896168E+001	-5.0127840E-001	-4.022098347004048E-002	2.0161910E-005	-5.0147861E-001	0
1.2537277E+004	3.805319923390925E+001	-5.0331867E-001	-4.014577016539558E-002	2.0206115E-005	-5.0347865E-001	0
1.2604593E+004	3.825319922885683E+001	-5.0527972E-001	-4.008695455753744E-002	2.0255125E-005	-5.0547862E-001	0
1.2678370E+004	3.845319922380440E+001	-5.0728112E-001	-4.001154082028990E-002	2.0297099E-005	-5.0747859E-001	0
1.2735822E+004	3.865319921875198E+001	-5.0928032E-001	-3.998802167805898E-002	2.0365113E-005	-5.0947869E-001	0
1.2817326E+004	3.885319921369955E+001	-5.1131594E-001	-3.989255876552805E-002	2.0397702E-005	-5.1147860E-001	0
1.2890163E+004	3.905319920864713E+001	-5.1333022E-001	-3.982340673627793E-002	2.0442558E-005	-5.1347858E-001	0
1.2961257E+004	3.925319920359470E+001	-5.1531738E-001	-3.975828842058260E-002	2.0488136E-005	-5.1547861E-001	0
1.3029369E+004	3.945319919854228E+001	-5.1734275E-001	-3.970589425336657E-002	2.0541556E-005	-5.1747864E-001	0
1.3088701E+004	3.965319919348985E+001	-5.1929617E-001	-3.967514944705225E-002	2.0603153E-005	-5.1947862E-001	0
1.3162623E+004	3.985319918843743E+001	-5.2128398E-001	-3.960335190653952E-002	2.0644593E-005	-5.2147859E-001	0
1.3239675E+004	4.005319918338500E+001	-5.2332145E-001	-3.952675976377606E-002	2.0685202E-005	-5.2347863E-001	0
1.3302998E+004	4.025319917833258E+001	-5.2529275E-001	-3.948679598958535E-002	2.0742127E-005	-5.2547866E-001	0
1.3377644E+004	4.045319917328015E+001	-5.2731144E-001	-3.941736256839945E-002	2.0785226E-005	-5.2747858E-001	0
1.3431810E+004	4.065319916822773E+001	-5.2930480E-001	-3.940681335352603E-002	2.0858215E-005	-5.2947861E-001	0
1.3513798E+004	4.085319916317530E+001	-5.3132230E-001	-3.931702344885299E-002	2.0890011E-005	-5.3147864E-001	0
1.3575574E+004	4.105319915812288E+001	-5.3332514E-001	-3.928564047222299E-002	2.0952020E-005	-5.3347862E-001	0
1.3654452E+004	4.125319915307045E+001	-5.3529793E-001	-3.920317822386228E-002	2.0985381E-005	-5.3547865E-001	0
1.3725249E+004	4.145319914801803E+001	-5.3728479E-001	-3.914572182745002E-002	2.1032401E-005	-5.3747863E-001	0
1.3793114E+004	4.165319914296560E+001	-5.3931361E-001	-3.910020649192369E-002	2.1087273E-005	-5.3947866E-001	0
1.3860397E+004	4.185319913791318E+001	-5.4129255E-001	-3.905317667225494E-002	2.1139194E-005	-5.4147857E-001	0
1.3932100E+004	4.205319913286075E+001	-5.4332978E-001	-3.899841296883583E-002	2.1188998E-005	-5.4347861E-001	0
1.3990341E+004	4.225319912780833E+001	-5.4535282E-001	-3.898066572756270E-002	2.1258216E-005	-5.4547864E-001	0
1.4062705E+004	4.245319912275590E+001	-5.4732019E-001	-3.891997794090616E-002	2.1301690E-005	-5.4747856E-001	0
1.4132148E+004	4.265319911770348E+001	-5.4931039E-001	-3.886956028015165E-002	2.1351454E-005	-5.4947865E-001	0
1.4195490E+004	4.285319911265105E+001	-5.5133635E-001	-3.883883739053950E-002	2.1413263E-005	-5.5147868E-001	0
1.4270204E+004	4.305319910759863E+001	-5.5335498E-001	-3.877694976237295E-002	2.1457417E-005	-5.5347866E-001	0
1.4334174E+004	4.325319910254620E+001	-5.5532211E-001	-3.874113145569458E-002	2.1513806E-005	-5.5547857E-001	0
1.4410325E+004	4.345319909749378E+001	-5.5731541E-001	-3.867472810544015E-002	2.1554022E-005	-5.5747861E-001	0
1.4468180E+004	4.365319909244135E+001	-5.5928159E-001	-3.865597429848974E-002	2.1619575E-005	-5.5947870E-001	0
1.4544985E+004	4.385319908738893E+001	-5.6132138E-001	-3.859208839498846E-002	2.1662565E-005	-5.6147856E-001	0
1.4612478E+004	4.405319908233650E+001	-5.6329817E-001	-3.854912140405617E-002	2.1714650E-005	-5.6347859E-001	0
1.4684753E+004	4.425319907728408E+001	-5.6530172E-001	-3.849582746994518E-002	2.1761758E-005	-5.6547868E-001	0
1.4737854E+004	4.445319907223166E+001	-5.6727993E-001	-3.849135037319412E-002	2.1835371E-005	-5.6747860E-001	0
1.4804773E+004	4.465319906717923E+001	-5.6927305E-001	-3.845199475950778E-002	2.1889684E-005	-5.6947863E-001	0
1.4872384E+004	4.485319906212681E+001	-5.7129353E-001	-3.841304499312792E-002	2.1945125E-005	-5.7147861E-001	0
1.4929772E+004	4.505319905707438E+001	-5.7328916E-001	-3.839905551199695E-002	2.2013763E-005	-5.7347870E-001	0
1.5001237E+004	4.525319905202196E+001	-5.7527679E-001	-3.834862196543459E-002	2.2061073E-005	-5.7547861E-001	0
1.5060291E+004	4.545319904696953E+001	-5.7721597E-001	-3.832701331214650E-002	2.2122964E-005	-5.7747859E-001	0
1.5121604E+004	4.565319904191711E+001	-5.7927340E-001	-3.830766798284280E-002	2.2190614E-005	-5.7947868E-001	0
1.5193551E+004	4.585319903686468E+001	-5.8130813E-001	-3.826018871080600E-002	2.2240958E-005	-5.8147860E-001	0
1.5257710E+004	4.605319903181226E+001	-5.8335024E-001	-3.823314620289624E-002	2.2303315E-005	-5.8347863E-001	0
1.5310306E+004	4.625319902675983E+001	-5.8532083E-001	-3.823051355697871E-002	2.2377117E-005	-5.8547866E-001	0
1.5387262E+004	4.645319902170741E+001	-5.8730799E-001	-3.816845364363919E-002	2.2416638E-005	-5.8747864E-001	0
1.5438924E+004	4.665319901665498E+001	-5.8923930E-001	-3.816582738393348E-002	2.2488806E-005	-5.8947861E-001	0
1.5494171E+004	4.685319901160256E+001	-5.9128124E-001	-3.816152750297992E-002	2.2564194E-005	-5.9147859E-001	0
1.5568421E+004	4.705319900655013E+001	-5.9325421E-001	-3.810625542572949E-002	2.2606697E-005	-5.9347868E-001	0
1.5630480E+004	4.725319900149771E+001	-5.9528935E-001	-3.808515899695332E-002	2.2671689E-005	-5.9547859E-001	0
1.5686780E+004	4.745319899644528E+001	-5.9727240E-001	-3.807488842650855E-002	2.2741080E-005	-5.9747857E-001	0
1.5741779E+004	4.765319899139286E+001	-5.9929293E-001	-3.807021567519830E-002	2.2815211E-005	-5.9947866E-001	0
1.5808561E+004	4.785319898634043E+001	-6.0127485E-001	-3.803476239206111E-002	2.2869346E-005	-6.0147858E-001	0
1.5863654E+004	4.805319898128801E+001	-6.0330302E-001	-3.803051982097164E-002	2.2943927E-005	-6.0347861E-001	0
1.5920623E+004	4.825319897623558E+001	-6.0532296E-001	-3.802131072411072E-002	2.3015173E-005	-6.0547858E-001	0
1.5986279E+004	4.845319897118316E+001	-6.0730863E-001	-3.798936770029393E-002	2.3071270E-005	-6.0747862E-001	0
1.6040417E+004	4.865319896613073E+001	-6.0928243E-001	-3.798420251190848E-002	2.3143108E-005	-6.0947859E-001	0
1.6108713E+004	4.885319896107831E+001	-6.1130911E-001	-3.794897331453899E-002	2.3198552E-005	-6.1147863E-001	0
1.6157556E+004	4.905319895602588E+001	-6.1327755E-001	-3.795608426755742E-002	2.3277615E-005	-6.1347866E-001	0
1.6217422E+004	4.925319895097346E+001	-6.1521906E-001	-3.793568894570129E-002	2.3338758E-005	-6.1547863E-001	0
1.6272219E+004	4.945319894592103E+001	-6.1732274E-001	-3.793721911027526E-002	2.3419509E-005	-6.1747861E-001	0
1.6326763E+004	4.965319894086861E+001	-6.1937767E-001	-3.793634224816111E-002	2.3496923E-005	-6.1947864E-001	0
1.6390240E+004	4.985319893581618E+001	-6.2132406E-001	-3.790817473584240E-002	2.3553261E-005	-6.2147862E-001	0
1.6439705E+004	5.005319893076376E+001	-6.2330610E-001	-3.791467420246791E-002	2.3632447E-005	-6.2347865E-001	0
1.6486371E+004	5.025319892571133E+001	-6.2533039E-001	-3.793014147315715E-002	2.3718871E-005	-6.2547863E-001	0
1.6565258E+004	5.045319892065891E+001	-6.2738234E-001	-3.787338371650478E-002	2.3761091E-005	-6.2747866E-001	0
1.6600842E+004	5.065319891560648E+001	-6.2927103E-001	-3.790597298368398E-002	2.3853130E-005	-6.2947863E-001	0
1.6667920E+004	5.085319891055406E+001	-6.3133556E-001	-3.787728652960987E-002	2.3913277E-005	-6.3147861E-001	0
1.6725223E+004	5.105319890550163E+001	-6.3326925E-001	-3.786312830776964E-002	2.3977555E-005	-6.3347864E-001	0
1.6771293E+004	5.125319890044921E+001	-6.3527238E-001	-3.787855800297177E-002	2.4063202E-005	-6.3547868E-001	0
1.6833697E+004	5.145319889539678E+001	-6.3734639E-001	-3.786134456633872E-002	2.4130792E-005	-6.3747859E-001	0
1.6882313E+004	5.165319889034436E+001	-6.3932645E-001	-3.786959996169270E-002	2.4211036E-005	-6.3947862E-001	0
1.6941201E+004	5.185319888529193E+001	-6.4133722E-001	-3.785665410432487E-002	2.4278881E-005	-6.4147872E-001	0
1.6995725E+004	5.205319888023951E+001	-6.4333290E-001	-3.785262922645505E-002	2.4351843E-005	-6.4347863E-001	0
1.7040314E+004	5.225319887518708E+001	-6.4535779E-001	-3.787241235445094E-002	2.4441257E-005	-6.4547861E-001	0
1.7093826E+004	5.245319887013466E+001	-6.4733905E-001	-3.786975764611389E-002	2.4514573E-005	-6.4747864E-001	0
1.7150281E+004	5.265319886508223E+001	-6.4931685E-001	-3.786041930686385E-002	2.4583409E-005	-6.4947867E-001	0
1.7195549E+004	5.285319886002981E+001	-6.5132201E-001	-3.787735865906502E-002	2.4670357E-005	-6.5147859E-001	0
1.7243285E+004	5.305319885497738E+001	-6.5330368E-001	-3.788742376781815E-002	2.4751993E-005	-6.5347862E-001	0
1.7296494E+004	5.325319884992496E+001	-6.5530771E-001	-3.788673574508272E-002	2.4827470E-005	-6.5547866E-001	0
1.7357486E+004	5.345319884487253E+001	-6.5725678E-001	-3.786589475290503E-002	2.4887617E-005	-6.5747857E-001	0
1.7411543E+004	5.365319883982011E+001	-6.5934026E-001	-3.786799713363131E-002	2.4967896E-005	-6.5947866E-001	0
1.7464984E+004	5.385319883476768E+001	-6.6135424E-001	-3.786743878832516E-002	2.5043792E-005	-6.6147864E-001	0
1.7510338E+004	5.405319882971526E+001	-6.6333252E-001	-3.788233830624133E-002	2.5128587E-005	-6.6347867E-001	0
1.7576744E+004	5.425319882466283E+001	-6.6538578E-001	-3.785603044975894E-002	2.5188865E-005	-6.6547859E-001	0
1.7611477E+004	5.445319881961041E+001	-6.6731507E-001	-3.789091942163481E-002	2.5285181E-005	-6.6747862E-001	0
1.7662910E+004	5.465319881455798E+001	-6.6933322E-001	-3.789484422034073E-002	2.5364277E-005	-6.6947865E-001	0
1.7724891E+004	5.485319880950556E+001	-6.7129385E-001	-3.787294751357348E-002	2.5423877E-005	-6.7147857E-001	0
1.7765525E+004	5.505319880445313E+001	-6.7333871E-001	-3.790142307218458E-002	2.5520496E-005	-6.7347860E-001	0
1.7819586E+004	5.525319879940071E+001	-6.7526549E-001	-3.789456483254383E-002	2.5588892E-005	-6.7547870E-001	0
1.7868918E+004	5.545319879434828E+001	-6.7731142E-001	-3.790444406536087E-002	2.5673113E-005	-6.7747861E-001	0
1.7908281E+004	5.565319878929586E+001	-6.7934012E-001	-3.793441407834419E-002	2.5770369E-005	-6.7947859E-001	0
1.7966059E+004	5.585319878424343E+001	-6.8130141E-001	-3.792158583397698E-002	2.5836031E-005	-6.8147862E-001	0
1.8010533E+004	5.605319877919101E+001	-6.8329048E-001	-3.793838345039147E-002	2.5922936E-005	-6.8347865E-001	0
1.8078947E+004	5.625319877413858E+001	-6.8532979E-001	-3.790761541988078E-002	2.5979218E-005	-6.8547863E-001	0
1.8119078E+004	5.645319876908616E+001	-6.8727392E-001	-3.793095349668885E-002	2.6068956E-005	-6.8747860E-001	0
1.8173002E+004	5.665319876403373E+001	-6.8933791E-001	-3.793197623089750E-002	2.6147949E-005	-6.8947870E-001	0
1.8212631E+004	5.685319875898131E+001	-6.9132340E-001	-3.795845761642819E-002	2.6241571E-005	-6.9147861E-001	0
1.8249494E+004	5.705319875392888E+001	-6.9338232E-001	-3.799460516226755E-002	2.6344787E-005	-6.9347864E-001	0
1.8287787E+004	5.725319874887646E+001	-6.9534487E-001	-3.802236157697519E-002	2.6438654E-005	-6.9547868E-001	0
1.8340639E+004	5.745319874382403E+001	-6.9734371E-001	-3.802178003096651E-002	2.6514250E-005	-6.9747865E-001	0
1.8404656E+004	5.765319873877161E+001	-6.9929308E-001	-3.799544283201543E-002	2.6569951E-005	-6.9947863E-001	0
1.8437127E+004	5.785319873371918E+001	-7.0140731E-001	-3.804320158265839E-002	2.6683780E-005	-7.0147860E-001	0
1.8494527E+004	5.805319872866676E+001	-7.0327097E-001	-3.802589401064227E-002	2.6742508E-005	-7.0347875E-001	0
1.8539666E+004	5.825319872361433E+001	-7.0535553E-001	-3.804575199659382E-002	2.6835782E-005	-7.0547867E-001	0
1.8582904E+004	5.845319871856191E+001	-7.0733035E-001	-3.806349722660074E-002	2.6923466E-005	-7.0747864E-001	0
1.8645338E+004	5.865319871350948E+001	-7.0931643E-001	-3.804256110357085E-002	2.6984213E-005	-7.0947868E-001	0
1.8674475E+004	5.885319870845706E+001	-7.1130705E-001	-3.808980379089949E-002	2.7093545E-005	-7.1147859E-001	0
1.8726826E+004	5.905319870340463E+001	-7.1328431E-001	-3.808890571902207E-002	2.7168218E-005	-7.1347868E-001	0
1.8781213E+004	5.925319869835221E+001	-7.1531302E-001	-3.808662559216214E-002	2.7243859E-005	-7.1547866E-001	0
1.8817180E+004	5.945319869329978E+001	-7.1732497E-001	-3.812074924337672E-002	2.7344966E-005	-7.1747875E-001	0
1.8865100E+004	5.965319868824736E+001	-7.1931958E-001	-3.812964703695521E-002	2.7427403E-005	-7.1947861E-001	0
1.8894832E+004	5.985319868319493E+001	-7.2129440E-001	-3.817416417392411E-002	2.7534810E-005	-7.2147858E-001	0
1.8937988E+004	6.005319867814251E+001	-7.2330779E-001	-3.819348600105932E-002	2.7625645E-005	-7.2347867E-001	0
1.8968291E+004	6.025319867309008E+001	-7.2533882E-001	-3.823954579256711E-002	2.7736627E-005	-7.2547865E-001	0
1.9036670E+004	6.045319866803766E+001	-7.2728890E-001	-3.820462843066380E-002	2.7785802E-005	-7.2747862E-001	0
1.9062203E+004	6.065319866298523E+001	-7.2930509E-001	-3.825922415812477E-002	2.7902646E-005	-7.2947866E-001	0
1.9128113E+004	6.085319865793281E+001	-7.3138201E-001	-3.823597389252237E-002	2.7965103E-005	-7.3147869E-001	0
1.9170230E+004	6.105319865288038E+001	-7.3333329E-001	-3.825375522447799E-002	2.8052753E-005	-7.3347861E-001	0
1.9192904E+004	6.125319864782796E+001	-7.3533535E-001	-3.831287558864216E-002	2.8172812E-005	-7.3547858E-001	0
1.9242752E+004	6.145319864277553E+001	-7.3731804E-001	-3.831666426985508E-002	2.8251568E-005	-7.3747873E-001	0
1.9327029E+004	6.165319863772311E+001	-7.3928225E-001	-3.825121016934296E-002	2.8278440E-005	-7.3947865E-001	0
1.9331100E+004	6.185319863267068E+001	-7.4133915E-001	-3.834956012087565E-002	2.8430029E-005	-7.4147862E-001	0
1.9405729E+004	6.205319862761826E+001	-7.4332219E-001	-3.830426534539605E-002	2.8472410E-005	-7.4347866E-001	0
1.9416447E+004	6.225319862256583E+001	-7.4530745E-001	-3.838536571452605E-002	2.8608898E-005	-7.4547869E-001	0
1.9461998E+004	6.245319861751341E+001	-7.4737418E-001	-3.840171990550778E-002	2.8700453E-005	-7.4747866E-001	0
1.9503146E+004	6.265319861246098E+001	-7.4931216E-001	-3.842006523960406E-002	2.8788621E-005	-7.4947864E-001	0
1.9567191E+004	6.285319860740856E+001	-7.5127935E-001	-3.839484991821464E-002	2.8845257E-005	-7.5147873E-001	0
1.9594924E+004	6.305319860235613E+001	-7.5332445E-001	-3.844487757523396E-002	2.8961465E-005	-7.5347871E-001	0
1.9657447E+004	6.325319859730371E+001	-7.5532603E-001	-3.842442169602839E-002	2.9022965E-005	-7.5547856E-001	0
1.9658508E+004	6.345319859225128E+001	-7.5738323E-001	-3.852699306696360E-002	2.9179699E-005	-7.5747865E-001	0
1.9729598E+004	6.365319858719886E+001	-7.5929725E-001	-3.848518556075764E-002	2.9221696E-005	-7.5947863E-001	0
1.9762781E+004	6.385319858214643E+001	-7.6134402E-001	-3.852413153770023E-002	2.9330116E-005	-7.6147860E-001	0
1.9799197E+004	6.405319857709401E+001	-7.6332879E-001	-3.855352199033490E-002	2.9429013E-005	-7.6347870E-001	0
1.9873350E+004	6.425319857204158E+001	-7.6531386E-001	-3.850955601655942E-002	2.9471898E-005	-7.6547867E-001	0
1.9910662E+004	6.445319856698916E+001	-7.6732314E-001	-3.853830315495783E-002	2.9571331E-005	-7.6747864E-001	0
1.9943994E+004	6.465319856193673E+001	-7.6930267E-001	-3.857314977383076E-002	2.9674427E-005	-7.6947862E-001	0
1.9994504E+004	6.485319855688431E+001	-7.7129757E-001	-3.857548102681557E-002	2.9753175E-005	-7.7147871E-001	0
1.9999813E+004	6.505319855183188E+001	-7.7337611E-001	-3.866916955733785E-002	2.9905812E-005	-7.7347863E-001	0
2.0041354E+004	6.525319854677946E+001	-7.7532548E-001	-3.868628364946486E-002	2.9994460E-005	-7.7547860E-001	0
2.0092564E+004	6.545319854172703E+001	-7.7730244E-001	-3.868607437748112E-002	3.0070780E-005	-7.7747869E-001	0
2.0136531E+004	6.565319853667461E+001	-7.7931780E-001	-3.870169066215819E-002	3.0160916E-005	-7.7947867E-001	0
2.0176496E+004	6.585319853162218E+001	-7.8127587E-001	-3.872207923034151E-002	3.0252626E-005	-7.8147864E-001	0
2.0254941E+004	6.605319852656976E+001	-7.8334528E-001	-3.867428086496361E-002	3.0295316E-005	-7.8347862E-001	0
2.0263854E+004	6.625319852151733E+001	-7.8526956E-001	-3.875223219277474E-002	3.0430949E-005	-7.8547871E-001	0
2.0336617E+004	6.645319851646491E+001	-7.8729570E-001	-3.871320856364469E-002	3.0478743E-005	-7.8747874E-001	0
2.0325313E+004	6.665319851141248E+001	-7.8934824E-001	-3.883572647273052E-002	3.0654912E-005	-7.8947866E-001	0
2.0377039E+004	6.685319850636006E+001	-7.9130977E-001	-3.883340162417248E-002	3.0729250E-005	-7.9147869E-001	0
2.0449053E+004	6.705319850130763E+001	-7.9332483E-001	-3.879518758071593E-002	3.0777184E-005	-7.9347873E-001	0
2.0428469E+004	6.725319849625521E+001	-7.9530263E-001	-3.893109311691800E-002	3.0962001E-005	-7.9547858E-001	0
2.0449379E+004	6.745319849120278E+001	-7.9729909E-001	-3.898891469552401E-002	3.1085827E-005	-7.9747868E-001	0
2.0566158E+004	6.765319848615036E+001	-7.9930681E-001	-3.886514913043650E-002	3.1065178E-005	-7.9947877E-001	0
2.0616912E+004	6.785319848109793E+001	-8.0128127E-001	-3.886524260402069E-002	3.1141990E-005	-8.0147862E-001	0
2.0615447E+004	6.805319847604551E+001	-8.0331796E-001	-3.896679737248245E-002	3.1302727E-005	-8.0347872E-001	0
2.0609219E+004	6.825319847099308E+001	-8.0531734E-001	-3.907558698890302E-002	3.1468247E-005	-8.0547869E-001	0
2.0677605E+004	6.845319846594066E+001	-8.0729729E-001	-3.904210679922582E-002	3.1518586E-005	-8.0747867E-001	0
2.0723461E+004	6.865319846088823E+001	-8.0934596E-001	-3.905457337444984E-002	3.1608663E-005	-8.0947864E-001	0
2.0724852E+004	6.885319845583581E+001	-8.1130934E-001	-3.914668859255072E-002	3.1760075E-005	-8.1147867E-001	0
2.0779475E+004	6.905319845078338E+001	-8.1329864E-001	-3.913951776351576E-002	3.1832118E-005	-8.1347877E-001	0
2.0782615E+004	6.925319844573096E+001	-8.1534332E-001	-3.923198909714146E-002	3.1987540E-005	-8.1547868E-001	0
2.0821479E+004	6.945319844067853E+001	-8.1733537E-001	-3.925443420402044E-002	3.2084037E-005	-8.1747860E-001	0
2.0845357E+004	6.965319843562611E+001	-8.1929648E-001	-3.930354600929598E-002	3.2201257E-005	-8.1947875E-001	0
2.0868084E+004	6.985319843057368E+001	-8.2138079E-001	-3.936062321117551E-002	3.2330059E-005	-8.2147872E-001	0
2.0800309E+004	7.005319842552126E+001	-8.2332212E-001	-3.958220746660640E-002	3.2588909E-005	-8.2347864E-001	0
2.0922586E+004	7.025319842046883E+001	-8.2530785E-001	-3.944578644283148E-002	3.2554915E-005	-8.2547867E-001	0
2.0911348E+004	7.045319841541641E+001	-8.2735842E-001	-3.956504424562990E-002	3.2734471E-005	-8.2747871E-001	0
2.0967158E+004	7.065319841036398E+001	-8.2935423E-001	-3.955491992925844E-002	3.2805041E-005	-8.2947868E-001	0
2.0975975E+004	7.085319840531156E+001	-8.3132237E-001	-3.963212306741123E-002	3.2947071E-005	-8.3147866E-001	0
2.0910500E+004	7.105319840025913E+001	-8.3333826E-001	-3.985262408856827E-002	3.3210716E-005	-8.3347875E-001	0
2.0957322E+004	7.125319839520671E+001	-8.3533275E-001	-3.985875475567778E-002	3.3295324E-005	-8.3547860E-001	0
2.0878316E+004	7.145319839015428E+001	-8.3733761E-001	-4.010561064794818E-002	3.3581935E-005	-8.3747870E-001	0
2.0915602E+004	7.165319838510186E+001	-8.3937812E-001	-4.013167581808186E-002	3.3685650E-005	-8.3947867E-001	0
2.0949080E+004	7.185319838004943E+001	-8.4134644E-001	-4.016149849071243E-002	3.3789733E-005	-8.4147865E-001	0
2.0897154E+004	7.205319837499701E+001	-8.4332490E-001	-4.035596838305416E-002	3.4033194E-005	-8.4347874E-001	0
2.0854570E+004	7.225319836994458E+001	-8.4534198E-001	-4.053509519530496E-002	3.4266017E-005	-8.4547865E-001	0
2.0751807E+004	7.245319836489216E+001	-8.4729177E-001	-4.082978263554382E-002	3.4594737E-005	-8.4747881E-001	0
2.0683068E+004	7.265319835983973E+001	-8.4934562E-001	-4.106477970894112E-002	3.4878190E-005	-8.4947866E-001	0
2.0681910E+004	7.285319835478731E+001	-8.5136837E-001	-4.116488273451915E-002	3.5046480E-005	-8.5147858E-001	0
2.0601615E+004	7.305319834973488E+001	-8.5330313E-001	-4.141923290932903E-002	3.5343161E-005	-8.5347873E-001	0
2.0467857E+004	7.325319834468246E+001	-8.5533130E-001	-4.178899936293518E-002	3.5743440E-005	-8.5547870E-001	0
2.0366746E+004	7.345319833963003E+001	-8.5734284E-001	-4.209522868516116E-002	3.6090041E-005	-8.5747868E-001	0
2.0210770E+004	7.365319833457761E+001	-8.5936552E-001	-4.252017744950937E-002	3.6540376E-005	-8.5947871E-001	0
2.0023172E+004	7.385319832952518E+001	-8.6138040E-001	-4.301917611710021E-002	3.7055874E-005	-8.6147869E-001	0
1.9811535E+004	7.405319832447276E+001	-8.6334527E-001	-4.357790830360342E-002	3.7622780E-005	-8.6347866E-001	0
1.9442273E+004	7.425319831942033E+001	-8.6534393E-001	-4.450836981770245E-002	3.8515049E-005	-8.6547863E-001	0
1.9097400E+004	7.445319831436791E+001	-8.6740047E-001	-4.541981668193568E-002	3.9397171E-005	-8.6747873E-001	0
1.8699338E+004	7.465319830931549E+001	-8.6935991E-001	-4.649147997550085E-002	4.0417828E-005	-8.6947870E-001	0
1.8213055E+004	7.485319830426306E+001	-8.7126195E-001	-4.783722450624084E-002	4.1678755E-005	-8.7147868E-001	0
1.7664568E+004	7.505319829921064E+001	-8.7338066E-001	-4.944251184040266E-002	4.3182135E-005	-8.7347865E-001	0
1.7042117E+004	7.525319829415821E+001	-8.7536669E-001	-5.136490373105618E-002	4.4963126E-005	-8.7547863E-001	0
1.6341141E+004	7.545319828910579E+001	-8.7729222E-001	-5.368610575495303E-002	4.7098401E-005	-8.7747872E-001	0
1.5605659E+004	7.565319828405336E+001	-8.7934697E-001	-5.634795550506183E-002	4.9549402E-005	-8.7947863E-001	0
1.4796973E+004	7.585319827900094E+001	-8.8132936E-001	-5.956146370433713E-002	5.2493266E-005	-8.8147879E-001	0
1.4039918E+004	7.605319827394851E+001	-8.8331741E-001	-6.291471235242896E-002	5.5573662E-005	-8.8347876E-001	0
1.3183535E+004	7.625319826889609E+001	-8.8534331E-001	-6.715522880154901E-002	5.9455433E-005	-8.8547862E-001	0
1.2378602E+004	7.645319826384366E+001	-8.8732564E-001	-7.168222018443626E-002	6.3605476E-005	-8.8747871E-001	0
1.1590374E+004	7.665319825879124E+001	-8.8934970E-001	-7.673174915296740E-002	6.8241359E-005	-8.8947868E-001	0
1.0491239E+004	7.686319825348619E+001	-8.9142811E-001	-8.496880636642057E-002	7.5743585E-005	-8.9157873E-001	0
9.7633369E+003	7.707319824818114E+001	-8.9352286E-001	-9.151818105093557E-002	8.1773585E-005	-8.9367872E-001	0
9.1653994E+003	7.727319824312872E+001	-8.9552742E-001	-9.770740514574694E-002	8.7499662E-005	-8.9567864E-001	0
8.6095986E+003	7.747319823807629E+001	-8.9750761E-001	-1.042450026000790E-001	9.3560680E-005	-8.9767873E-001	0
8.0950142E+003	7.767319823302387E+001	-8.9953285E-001	-1.111218391108811E-001	9.9957746E-005	-8.9967871E-001	0
7.6155649E+003	7.787319822797144E+001	-9.0152752E-001	-1.183795978329965E-001	1.0672247E-004	-9.0167880E-001	0
7.1726689E+003	7.807319822291902E+001	-9.0354192E-001	-1.259701125801052E-001	1.1381927E-004	-9.0367877E-001	0
6.7328970E+003	7.827319821786659E+001	-9.0551400E-001	-1.344909936214984E-001	1.2178348E-004	-9.0567869E-001	0
6.2577705E+003	7.847319821281417E+001	-9.0752178E-001	-1.450231821527547E-001	1.3161170E-004	-9.0767872E-001	0
5.7963682E+003	7.867319820776174E+001	-9.0953177E-001	-1.569140751111222E-001	1.4271833E-004	-9.0967870E-001	0
5.4076914E+003	7.887319820270932E+001	-9.1154486E-001	-1.685645116024281E-001	1.5365411E-004	-9.1167867E-001	0
5.0147388E+003	7.907319819765689E+001	-9.1350502E-001	-1.821640261296864E-001	1.6640776E-004	-9.1367871E-001	0
4.6195981E+003	7.927319819260447E+001	-9.1551846E-001	-1.981814094690311E-001	1.8143874E-004	-9.1567874E-001	0
4.2355200E+003	7.947319818755204E+001	-9.1750306E-001	-2.166211212480493E-001	1.9875054E-004	-9.1767871E-001	0
3.8616697E+003	7.967319818249962E+001	-9.1956496E-001	-2.381262602981451E-001	2.1897256E-004	-9.1967863E-001	0
3.5054404E+003	7.987319817744719E+001	-9.2151415E-001	-2.628811344952067E-001	2.4224869E-004	-9.2167872E-001	0
3.1660549E+003	8.007319817239477E+001	-9.2352229E-001	-2.916949643540177E-001	2.6938680E-004	-9.2367870E-001	0
2.8345317E+003	8.027319816734234E+001	-9.2554951E-001	-3.265264272972792E-001	3.0221639E-004	-9.2567867E-001	0
2.5084268E+003	8.047319816228992E+001	-9.2750031E-001	-3.697538008182697E-001	3.4294676E-004	-9.2767876E-001	0
2.2574792E+003	8.067319815723749E+001	-9.2950344E-001	-4.117439563371370E-001	3.8271744E-004	-9.2967862E-001	0
2.0245411E+003	8.087319815218507E+001	-9.3151915E-001	-4.601137109033235E-001	4.2860472E-004	-9.3167871E-001	0
1.7910347E+003	8.107319814713264E+001	-9.3354368E-001	-5.212314919380674E-001	4.8659235E-004	-9.3367869E-001	0
1.5889095E+003	8.127319814208022E+001	-9.3553895E-001	-5.887930933850702E-001	5.5083889E-004	-9.3567878E-001	0
1.4281594E+003	8.147319813702779E+001	-9.3749505E-001	-6.564358634802439E-001	6.1540538E-004	-9.3767875E-001	0
1.2562902E+003	8.167319813197537E+001	-9.3953329E-001	-7.478632692272953E-001	7.0264243E-004	-9.3967867E-001	0
1.1302516E+003	8.187319812692294E+001	-9.4157887E-001	-8.330701657923587E-001	7.8440126E-004	-9.4167870E-001	0
9.9922485E+002	8.207319812187052E+001	-9.4349533E-001	-9.442272568353864E-001	8.9087401E-004	-9.4367880E-001	0
8.9272205E+002	8.228319811656547E+001	-9.4565600E-001	-1.059295034798614E+000	1.0017287E-003	-9.4577867E-001	0
7.9627008E+002	8.249319811126043E+001	-9.4770032E-001	-1.190174465834286E+000	1.1279287E-003	-9.4787878E-001	0
7.1026373E+002	8.269319810620800E+001	-9.4975370E-001	-1.337184566176600E+000	1.2699959E-003	-9.4987863E-001	0
6.4022064E+002	8.289319810115558E+001	-9.5174062E-001	-1.486582202393382E+000	1.4148407E-003	-9.5187873E-001	0
5.7683246E+002	8.309319809610315E+001	-9.5370847E-001	-1.653354357074861E+000	1.5768181E-003	-9.5387870E-001	0
5.2177014E+002	8.329319809105073E+001	-9.5570874E-001	-1.831666181451070E+000	1.7505394E-003	-9.5587879E-001	0
4.7178738E+002	8.349319808599830E+001	-9.5771468E-001	-2.029970918011234E+000	1.9441330E-003	-9.5787877E-001	0
4.2801630E+002	8.369319808094588E+001	-9.5973575E-001	-2.242287812708057E+000	2.1520038E-003	-9.5987868E-001	0
3.8944116E+002	8.389319807589345E+001	-9.6168578E-001	-2.469399455301202E+000	2.3747864E-003	-9.6187872E-001	0
3.5455905E+002	8.409319807084103E+001	-9.6368748E-001	-2.717988703256298E+000	2.6192917E-003	-9.6387869E-001	0
3.2446255E+002	8.429319806578860E+001	-9.6572763E-001	-2.976391716355508E+000	2.8743837E-003	-9.6587867E-001	0
2.9737021E+002	8.449319806073618E+001	-9.6772653E-001	-3.254282095366065E+000	3.1492552E-003	-9.6787870E-001	0
2.7362296E+002	8.469319805568375E+001	-9.6975571E-001	-3.544131594788198E+000	3.4369419E-003	-9.6987873E-001	0
2.5195558E+002	8.489319805063133E+001	-9.7171682E-001	-3.856698816088866E+000	3.7476192E-003	-9.7187871E-001	0
2.3293486E+002	8.509319804557890E+001	-9.7371644E-001	-4.180209276999214E+000	4.0703383E-003	-9.7387862E-001	0
2.1590218E+002	8.529319804052648E+001	-9.7571033E-001	-4.519224135445892E+000	4.4094538E-003	-9.7587872E-001	0
2.0031204E+002	8.549319803547405E+001	-9.7769797E-001	-4.880874796417842E+000	4.7720214E-003	-9.7787869E-001	0
1.8651797E+002	8.569319803042163E+001	-9.7973394E-001	-5.252758917253011E+000	5.1463060E-003	-9.7987866E-001	0
1.7409203E+002	8.589319802536920E+001	-9.8171830E-001	-5.639076726506882E+000	5.5359849E-003	-9.8187876E-001	0
1.6268100E+002	8.609319802031678E+001	-9.8371875E-001	-6.046918811948117E+000	5.9484676E-003	-9.8387873E-001	0
1.5235713E+002	8.629319801526435E+001	-9.8571742E-001	-6.469781819384650E+000	6.3773766E-003	-9.8587871E-001	0
1.4302541E+002	8.649319801021193E+001	-9.8771966E-001	-6.905903493060521E+000	6.8210964E-003	-9.8787868E-001	0
1.3451334E+002	8.669319800515950E+001	-9.8967624E-001	-7.357457818628149E+000	7.2815013E-003	-9.8987877E-001	0
1.2671501E+002	8.689319800010708E+001	-9.9173403E-001	-7.826491946941616E+000	7.7617983E-003	-9.9187863E-001	0
1.1967769E+002	8.709319799505465E+001	-9.9372584E-001	-8.303350776028481E+000	8.2512544E-003	-9.9387866E-001	0
1.1320386E+002	8.729319799000223E+001	-9.9572492E-001	-8.795856564155805E+000	8.7582534E-003	-9.9587870E-001	0
1.0724863E+002	8.749319798494980E+001	-9.9769562E-001	-9.302642154788231E+000	9.2812050E-003	-9.9787861E-001	0
1.0185986E+002	8.769329797989485E+001	-9.9973553E-001	-9.814813801317655E+000	9.8122181E-003	-9.9987942E-001	0
9.6744331E+001	8.789349797483737E+001	-1.0017483E+000	-1.035459428593705E+001	1.0372697E-002	-1.0018815E+000	0
9.1691422E+001	8.810389796952222E+001	-1.0038080E+000	-1.094767683098266E+001	1.0989366E-002	-1.0039855E+000	0
8.7076881E+001	8.831409796421212E+001	-1.0059159E+000	-1.155204345256817E+001	1.1620384E-002	-1.0060875E+000	0
8.3165550E+001	8.851429795915465E+001	-1.0079182E+000	-1.211942047034233E+001	1.2215385E-002	-1.0080897E+000	0
7.9469650E+001	8.871439795409970E+001	-1.0099230E+000	-1.270828491131735E+001	1.2834389E-002	-1.0100907E+000	0
7.6042900E+001	8.891449794904474E+001	-1.0119334E+000	-1.330740155042900E+001	1.3466205E-002	-1.0120915E+000	0
7.2881104E+001	8.911459794398979E+001	-1.0139396E+000	-1.391224247798363E+001	1.4106174E-002	-1.0140928E+000	0
6.9919136E+001	8.931479793893232E+001	-1.0159488E+000	-1.453033872034001E+001	1.4762079E-002	-1.0160947E+000	0
6.7119888E+001	8.951509793387231E+001	-1.0179142E+000	-1.516561236730131E+001	1.5437292E-002	-1.0180974E+000	0
6.4561821E+001	8.971529792881483E+001	-1.0199569E+000	-1.579814480466629E+001	1.6113428E-002	-1.0200994E+000	0
6.2098190E+001	8.991539792375988E+001	-1.0219625E+000	-1.645720294624771E+001	1.6818644E-002	-1.0221007E+000	0
5.9838623E+001	9.011559791870241E+001	-1.0239545E+000	-1.711193263076594E+001	1.7521841E-002	-1.0241026E+000	0
5.7691376E+001	9.031559791364998E+001	-1.0259849E+000	-1.778402469217639E+001	1.8246140E-002	-1.0261027E+000	0
5.5670059E+001	9.051569790859503E+001	-1.0279584E+000	-1.846519279788163E+001	1.8981449E-002	-1.0281035E+000	0
5.3743584E+001	9.071589790353755E+001	-1.0299501E+000	-1.916415015470002E+001	1.9738119E-002	-1.0301055E+000	0
5.1915165E+001	9.091599789848260E+001	-1.0319445E+000	-1.987751558308159E+001	2.0512493E-002	-1.0321068E+000	0
5.0224857E+001	9.111609789342765E+001	-1.0339941E+000	-2.058729742796194E+001	2.1287143E-002	-1.0341076E+000	0
4.8594303E+001	9.131639788836765E+001	-1.0359421E+000	-2.131817957530444E+001	2.2084400E-002	-1.0361102E+000	0
4.7058743E+001	9.151659788331017E+001	-1.0379637E+000	-2.205676701104017E+001	2.2894125E-002	-1.0381126E+000	0
4.5613163E+001	9.171669787825522E+001	-1.0400059E+000	-2.280056508978601E+001	2.3712723E-002	-1.0401134E+000	0
4.4213757E+001	9.191679787320027E+001	-1.0420043E+000	-2.356742450452981E+001	2.4557360E-002	-1.0421147E+000	0
4.2910095E+001	9.211689786814532E+001	-1.0439880E+000	-2.432965916557646E+001	2.5399871E-002	-1.0441157E+000	0
4.1667870E+001	9.231699786309036E+001	-1.0460064E+000	-2.510343075149990E+001	2.6258349E-002	-1.0461167E+000	0
4.0464268E+001	9.251719785803289E+001	-1.0479772E+000	-2.589883117414217E+001	2.7141385E-002	-1.0481184E+000	0
3.9344685E+001	9.271739785297541E+001	-1.0499601E+000	-2.668620139644264E+001	2.8019447E-002	-1.0501207E+000	0
3.8262791E+001	9.291739784792298E+001	-1.0519668E+000	-2.749320475584784E+001	2.8921938E-002	-1.0521207E+000	0
3.7240974E+001	9.311739784287056E+001	-1.0539640E+000	-2.830119436911730E+001	2.9828440E-002	-1.0541208E+000	0
3.6257736E+001	9.331749783781561E+001	-1.0559781E+000	-2.912421285658445E+001	3.0754529E-002	-1.0561216E+000	0
3.5315922E+001	9.351759783276066E+001	-1.0579984E+000	-2.995811316648036E+001	3.1695638E-002	-1.0581228E+000	0
3.4400291E+001	9.371779782770318E+001	-1.0599587E+000	-3.081249299346962E+001	3.2659970E-002	-1.0601243E+000	0
3.3528446E+001	9.391809782264318E+001	-1.0619841E+000	-3.167412083328111E+001	3.3637412E-002	-1.0621275E+000	0
3.2699158E+001	9.411839781758317E+001	-1.0639849E+000	-3.253860112724237E+001	3.4620579E-002	-1.0641302E+000	0
3.1921768E+001	9.431879781252064E+001	-1.0659914E+000	-3.339387080177124E+001	3.5597578E-002	-1.0661342E+000	0
3.1140249E+001	9.451899780746317E+001	-1.0679957E+000	-3.429631094867688E+001	3.6628313E-002	-1.0681367E+000	0
3.0388582E+001	9.471919780240569E+001	-1.0699928E+000	-3.521035450390406E+001	3.7674826E-002	-1.0701387E+000	0
2.9701687E+001	9.491919779735326E+001	-1.0720119E+000	-3.609262886014918E+001	3.8691729E-002	-1.0721388E+000	0
2.9031618E+001	9.511919779230084E+001	-1.0740037E+000	-3.699427685634873E+001	3.9731991E-002	-1.0741386E+000	0
2.8354895E+001	9.531929778724589E+001	-1.0759854E+000	-3.794707945180579E+001	4.0830504E-002	-1.0761396E+000	0
2.7705593E+001	9.551939778219094E+001	-1.0780231E+000	-3.890994525550457E+001	4.1945819E-002	-1.0781407E+000	0
2.7110884E+001	9.571949777713598E+001	-1.0800226E+000	-3.983723163212096E+001	4.3025110E-002	-1.0801415E+000	0
2.6519249E+001	9.591959777208103E+001	-1.0820155E+000	-4.080113699241542E+001	4.4147462E-002	-1.0821426E+000	0
2.5951948E+001	9.611959776702861E+001	-1.0840393E+000	-4.177101890840772E+001	4.5281429E-002	-1.0841427E+000	0
2.5358042E+001	9.631959776197618E+001	-1.0860194E+000	-4.282741549469182E+001	4.6511404E-002	-1.0861427E+000	0
2.4747976E+001	9.651959775692376E+001	-1.0880451E+000	-4.396501223300328E+001	4.7835916E-002	-1.0881426E+000	0
2.4198519E+001	9.671959775187133E+001	-1.0899974E+000	-4.504397329046083E+001	4.9097814E-002	-1.0901427E+000	0
2.3730762E+001	9.691979774681386E+001	-1.0920620E+000	-4.601883236251598E+001	5.0255418E-002	-1.0921441E+000	0
2.3206474E+001	9.712009774175385E+001	-1.0939927E+000	-4.714170440050465E+001	5.1572680E-002	-1.0941474E+000	0
2.2706316E+001	9.732019773669890E+001	-1.0960404E+000	-4.827028587615962E+001	5.2906182E-002	-1.0961487E+000	0
2.2278530E+001	9.752029773164395E+001	-1.0980462E+000	-4.928719124421878E+001	5.4119613E-002	-1.0981497E+000	0
2.1872660E+001	9.772059772658395E+001	-1.1000527E+000	-5.029350292651806E+001	5.5325504E-002	-1.1001523E+000	0
2.1396997E+001	9.792099772152142E+001	-1.1020753E+000	-5.150607386846025E+001	5.6763574E-002	-1.1021563E+000	0
2.0952152E+001	9.812119771646394E+001	-1.1040552E+000	-5.269411713682314E+001	5.8177214E-002	-1.1041588E+000	0
2.0479847E+001	9.832139771140646E+001	-1.1060855E+000	-5.400848895116951E+001	5.9738010E-002	-1.1061603E+000	0
2.0027039E+001	9.852179770634393E+001	-1.1080550E+000	-5.532795152986205E+001	6.1306413E-002	-1.1081642E+000	0
1.9627110E+001	9.872209770128393E+001	-1.1100603E+000	-5.655750684757112E+001	6.2782243E-002	-1.1101674E+000	0
1.9235413E+001	9.892239769622392E+001	-1.1120673E+000	-5.781353992155084E+001	6.4292550E-002	-1.1121706E+000	0
1.8830210E+001	9.912249769116897E+001	-1.1140652E+000	-5.916371429734374E+001	6.5912232E-002	-1.1141715E+000	0
1.8431236E+001	9.932259768611402E+001	-1.1160661E+000	-6.055296845717237E+001	6.7581117E-002	-1.1161728E+000	0
1.8062632E+001	9.952269768105907E+001	-1.1180609E+000	-6.189911503858559E+001	6.9206983E-002	-1.1181735E+000	0
1.7745533E+001	9.972289767600159E+001	-1.1200690E+000	-6.311836468694469E+001	7.0696928E-002	-1.1201755E+000	0
1.7456581E+001	9.992319767094159E+001	-1.1220183E+000	-6.427480154564569E+001	7.2117507E-002	-1.1221782E+000	0
1.7172331E+001	1.001234976658816E+002	-1.1240907E+000	-6.545941331585834E+001	7.3582314E-002	-1.1241814E+000	0
1.6908659E+001	1.003236976608241E+002	-1.1260445E+000	-6.659573387835484E+001	7.4989758E-002	-1.1261836E+000	0
1.6622959E+001	1.005239976557641E+002	-1.1280791E+000	-6.786271047654895E+001	7.6554500E-002	-1.1281867E+000	0
1.6346754E+001	1.007240976507092E+002	-1.1300653E+000	-6.913086681036589E+001	7.8122392E-002	-1.1301874E+000	0
1.6030756E+001	1.009241976456542E+002	-1.1320826E+000	-7.061941441819249E+001	7.9947010E-002	-1.1321887E+000	0
1.5716220E+001	1.011244976405942E+002	-1.1340926E+000	-7.216064439160280E+001	8.1836849E-002	-1.1341914E+000	0
1.5448359E+001	1.013247976355342E+002	-1.1360947E+000	-7.354145174647965E+001	8.3550051E-002	-1.1361943E+000	0
1.5176392E+001	1.015251976304717E+002	-1.1380913E+000	-7.499090613684217E+001	8.5346498E-002	-1.1381984E+000	0
1.4891156E+001	1.017254976254117E+002	-1.1401107E+000	-7.656294151578334E+001	8.7290235E-002	-1.1402016E+000	0
1.4575571E+001	1.019255976203567E+002	-1.1420916E+000	-7.835656235818169E+001	8.9490376E-002	-1.1422027E+000	0
1.4270957E+001	1.021257976152992E+002	-1.1441193E+000	-8.017116342283907E+001	9.1725372E-002	-1.1442043E+000	0
1.4057932E+001	1.023260976102392E+002	-1.1461526E+000	-8.153066859857313E+001	9.3446590E-002	-1.1462076E+000	0
1.3831043E+001	1.025261976051843E+002	-1.1481577E+000	-8.301309830747755E+001	9.5312126E-002	-1.1482086E+000	0
1.3672960E+001	1.027261976001319E+002	-1.1501117E+000	-8.411577496615087E+001	9.6742533E-002	-1.1502087E+000	0
1.3448747E+001	1.029261975950794E+002	-1.1521424E+000	-8.566912633707761E+001	9.8703034E-002	-1.1522087E+000	0
1.3244113E+001	1.031262975900245E+002	-1.1541818E+000	-8.714678355139779E+001	1.0058323E-001	-1.1542095E+000	0
1.2906466E+001	1.033264975849670E+002	-1.1561092E+000	-8.957596920143578E+001	1.0355961E-001	-1.1562115E+000	0
1.2665533E+001	1.035265975799121E+002	-1.1581659E+000	-9.144233399940458E+001	1.0590540E-001	-1.1582127E+000	0
1.2405826E+001	1.037266975748571E+002	-1.1601788E+000	-9.351886778432717E+001	1.0849860E-001	-1.1602136E+000	0
1.2218142E+001	1.039267975698021E+002	-1.1621926E+000	-9.512024363746991E+001	1.1054804E-001	-1.1622148E+000	0
1.2007179E+001	1.041269975647447E+002	-1.1642220E+000	-9.696049176827091E+001	1.1288354E-001	-1.1642162E+000	0
1.1843078E+001	1.043273975596821E+002	-1.1661657E+000	-9.846813258251836E+001	1.1483016E-001	-1.1662202E+000	0
1.1599682E+001	1.045279975546146E+002	-1.1682155E+000	-1.007109956285935E+002	1.1765215E-001	-1.1682264E+000	0
1.1395020E+001	1.047281975495571E+002	-1.1702130E+000	-1.026951159890276E+002	1.2017516E-001	-1.1702287E+000	0
1.1112098E+001	1.049282975445021E+002	-1.1721878E+000	-1.054875318177257E+002	1.2365120E-001	-1.1722295E+000	0
1.0886653E+001	1.051284975394447E+002	-1.1741945E+000	-1.078563340251271E+002	1.2664431E-001	-1.1742314E+000	0
1.0724188E+001	1.053385975341371E+002	-1.1762474E+000	-1.096817220775447E+002	1.2901284E-001	-1.1763327E+000	0
1.0529809E+001	1.055485975288320E+002	-1.1783251E+000	-1.119037434530371E+002	1.3185899E-001	-1.1784328E+000	0
1.0415804E+001	1.057485975237796E+002	-1.1803337E+000	-1.133214254563085E+002	1.3375710E-001	-1.1804327E+000	0
1.0267583E+001	1.059486975187247E+002	-1.1823575E+000	-1.151544221533504E+002	1.3615370E-001	-1.1824335E+000	0
1.0106848E+001	1.061487975136697E+002	-1.1843662E+000	-1.171845362689219E+002	1.3878940E-001	-1.1844347E+000	0
9.8697834E+000	1.063487975086173E+002	-1.1863508E+000	-1.202002865105804E+002	1.4259970E-001	-1.1864347E+000	0
9.7544050E+000	1.065488975035623E+002	-1.1883215E+000	-1.218240903553275E+002	1.4476618E-001	-1.1884356E+000	0
9.6318169E+000	1.067489974985074E+002	-1.1903418E+000	-1.235843461603256E+002	1.4710762E-001	-1.1904367E+000	0
9.5215998E+000	1.069489974934550E+002	-1.1923573E+000	-1.252265721989327E+002	1.4931482E-001	-1.1924367E+000	0
9.3510723E+000	1.071489974884025E+002	-1.1943402E+000	-1.277222759318189E+002	1.5254386E-001	-1.1944367E+000	0
9.1767340E+000	1.073492974833425E+002	-1.1963346E+000	-1.303660540496371E+002	1.5596142E-001	-1.1964391E+000	0
9.0665474E+000	1.075495974782825E+002	-1.1983249E+000	-1.321699243337932E+002	1.5838252E-001	-1.1984428E+000	0
8.9284019E+000	1.077495974732301E+002	-1.2003473E+000	-1.344414489717983E+002	1.6137643E-001	-1.2004427E+000	0
8.8201561E+000	1.079495974681777E+002	-1.2023522E+000	-1.363186947645240E+002	1.6390307E-001	-1.2024426E+000	0
8.6943989E+000	1.081496974631227E+002	-1.2043769E+000	-1.385233140013777E+002	1.6683428E-001	-1.2044436E+000	0
8.5240335E+000	1.083497974580678E+002	-1.2063661E+000	-1.415252660958938E+002	1.7073128E-001	-1.2064447E+000	0
8.3429527E+000	1.085499974530103E+002	-1.2083675E+000	-1.448369023769426E+002	1.7501619E-001	-1.2084463E+000	0
8.2733250E+000	1.087501974479528E+002	-1.2103560E+000	-1.462961985918942E+002	1.7707048E-001	-1.2104487E+000	0
8.1792078E+000	1.089501974429004E+002	-1.2123623E+000	-1.482249096104888E+002	1.7970230E-001	-1.2124487E+000	0
8.0477448E+000	1.091501974378480E+002	-1.2143661E+000	-1.508952030075918E+002	1.8324202E-001	-1.2144487E+000	0
7.8758860E+000	1.093501974327955E+002	-1.2163684E+000	-1.544421122144413E+002	1.8785851E-001	-1.2164487E+000	0
7.7187295E+000	1.095501974277431E+002	-1.2183574E+000	-1.578443013253939E+002	1.9231078E-001	-1.2184488E+000	0
7.6796260E+000	1.097501974226907E+002	-1.2203394E+000	-1.589060977678452E+002	1.9391938E-001	-1.2204487E+000	0
7.5371265E+000	1.099502974176357E+002	-1.2223440E+000	-1.621763943669723E+002	1.9823535E-001	-1.2224494E+000	0
7.4890647E+000	1.101505974125757E+002	-1.2243195E+000	-1.634809538420707E+002	2.0015292E-001	-1.2244524E+000	0
7.4174109E+000	1.103507974075183E+002	-1.2263769E+000	-1.653375955730871E+002	2.0276621E-001	-1.2264547E+000	0
7.3428159E+000	1.105509974024608E+002	-1.2283784E+000	-1.672898247129123E+002	2.0549521E-001	-1.2284564E+000	0
7.2480426E+000	1.107511973974033E+002	-1.2303904E+000	-1.697548511185067E+002	2.0886475E-001	-1.2304587E+000	0
7.1488161E+000	1.109512973923484E+002	-1.2323521E+000	-1.723854856547882E+002	2.1243963E-001	-1.2324594E+000	0
7.0593386E+000	1.111513973872934E+002	-1.2343140E+000	-1.748483878912023E+002	2.1581781E-001	-1.2344607E+000	0
6.9656754E+000	1.113514973822384E+002	-1.2363797E+000	-1.774960367350554E+002	2.1945250E-001	-1.2364614E+000	0
6.9094849E+000	1.115515973771835E+002	-1.2383732E+000	-1.792280015015549E+002	2.2195114E-001	-1.2384626E+000	0
6.8351159E+000	1.117515973721311E+002	-1.2404002E+000	-1.814746341132268E+002	2.2510117E-001	-1.2404627E+000	0
6.7739286E+000	1.119515973670786E+002	-1.2423775E+000	-1.834057608191391E+002	2.2785920E-001	-1.2424628E+000	0
6.6799521E+000	1.121516973620237E+002	-1.2444147E+000	-1.862909608632690E+002	2.3182321E-001	-1.2444636E+000	0
6.4877062E+000	1.123517973569687E+002	-1.2464046E+000	-1.921179258082739E+002	2.3945667E-001	-1.2464647E+000	0
6.4215574E+000	1.125518973519138E+002	-1.2483915E+000	-1.944063511457471E+002	2.4269524E-001	-1.2484654E+000	0
6.3391271E+000	1.127519973468588E+002	-1.2504284E+000	-1.972556235644288E+002	2.4665405E-001	-1.2504667E+000	0
6.1962600E+000	1.129519973418064E+002	-1.2524240E+000	-2.021257992569281E+002	2.5314721E-001	-1.2524667E+000	0
6.1255422E+000	1.131523973367439E+002	-1.2544422E+000	-2.047887572380896E+002	2.5689566E-001	-1.2544702E+000	0
6.0752330E+000	1.133526973316839E+002	-1.2564167E+000	-2.068096247555445E+002	2.5983906E-001	-1.2564734E+000	0
6.0525441E+000	1.135527973266289E+002	-1.2584283E+000	-2.079172582518208E+002	2.6164898E-001	-1.2584747E+000	0
5.9994588E+000	1.137527973215765E+002	-1.2603974E+000	-2.100851970205508E+002	2.6479083E-001	-1.2604747E+000	0
5.9558349E+000	1.139528973165216E+002	-1.2624063E+000	-2.119612747157613E+002	2.6758125E-001	-1.2624755E+000	0
5.8653951E+000	1.141531973114616E+002	-1.2644465E+000	-2.155773759743303E+002	2.7258605E-001	-1.2644787E+000	0
5.7382846E+000	1.143531973064091E+002	-1.2664237E+000	-2.206972709945535E+002	2.7949625E-001	-1.2664788E+000	0
5.7166958E+000	1.145533973013517E+002	-1.2684549E+000	-2.218860200027866E+002	2.8145242E-001	-1.2684802E+000	0
5.6677966E+000	1.147537972962891E+002	-1.2704378E+000	-2.241502128860866E+002	2.8476891E-001	-1.2704842E+000	0
5.6234250E+000	1.149539972912316E+002	-1.2724562E+000	-2.262777783703109E+002	2.8792855E-001	-1.2724867E+000	0
5.5798554E+000	1.151540972861767E+002	-1.2744405E+000	-2.284002732986683E+002	2.9108256E-001	-1.2744876E+000	0
5.5497804E+000	1.153541972811217E+002	-1.2764380E+000	-2.299979274905468E+002	2.9357809E-001	-1.2764888E+000	0
5.4825044E+000	1.155541972760693E+002	-1.2784320E+000	-2.331839538993736E+002	2.9810983E-001	-1.2784888E+000	0
5.3968911E+000	1.157542972710144E+002	-1.2804791E+000	-2.372623537617997E+002	3.0380949E-001	-1.2804894E+000	0
5.3956194E+000	1.159543972659594E+002	-1.2824501E+000	-2.376835732232967E+002	3.0481732E-001	-1.2824906E+000	0
5.3229027E+000	1.161544972609045E+002	-1.2844684E+000	-2.413097622721234E+002	3.0995476E-001	-1.2844914E+000	0
5.2047367E+000	1.163547972558445E+002	-1.2864645E+000	-2.471718585594143E+002	3.1797782E-001	-1.2864945E+000	0
5.1707826E+000	1.165549972507870E+002	-1.2884830E+000	-2.491853038619420E+002	3.2107103E-001	-1.2884966E+000	0
5.1677637E+000	1.167551972457295E+002	-1.2904996E+000	-2.497210819032780E+002	3.2226494E-001	-1.2904983E+000	0
5.1160288E+000	1.169554972406695E+002	-1.2924733E+000	-2.526321417357918E+002	3.2652029E-001	-1.2925016E+000	0
5.0939884E+000	1.171555972356146E+002	-1.2944859E+000	-2.541203123661799E+002	3.2895517E-001	-1.2945026E+000	0
5.0079889E+000	1.173556972305596E+002	-1.2964332E+000	-2.588730061534316E+002	3.3561155E-001	-1.2965035E+000	0
4.8970389E+000	1.175558972255021E+002	-1.2984946E+000	-2.651591213484078E+002	3.4430769E-001	-1.2985055E+000	0
4.8640904E+000	1.177560972204446E+002	-1.3005358E+000	-2.673749137888140E+002	3.4773064E-001	-1.3005074E+000	0
4.7651324E+000	1.179561972153897E+002	-1.3024725E+000	-2.733339529188852E+002	3.5600996E-001	-1.3025088E+000	0
4.7075791E+000	1.181561972103373E+002	-1.3044720E+000	-2.771003737719968E+002	3.6146966E-001	-1.3045087E+000	0
4.6790986E+000	1.183562972052823E+002	-1.3064696E+000	-2.792139319532466E+002	3.6478451E-001	-1.3065095E+000	0
4.6753731E+000	1.185566972002198E+002	-1.3085034E+000	-2.798714524264942E+002	3.6621276E-001	-1.3085134E+000	0
4.6448746E+000	1.187567971951648E+002	-1.3105408E+000	-2.821477318739935E+002	3.6976612E-001	-1.3105147E+000	0
4.5928702E+000	1.189567971901124E+002	-1.3124666E+000	-2.857617501174518E+002	3.7505275E-001	-1.3125148E+000	0
4.5036583E+000	1.191568971850575E+002	-1.3144962E+000	-2.918729928933999E+002	3.8366592E-001	-1.3145155E+000	0
4.4193273E+000	1.193570971800000E+002	-1.3165519E+000	-2.979077788056948E+002	3.9221105E-001	-1.3165175E+000	0
4.4071541E+000	1.195374971754427E+002	-1.3183320E+000	-2.991345241167576E+002	3.9435861E-001	-1.3183209E+000	0
4.4332933E+000	1.196978971713907E+002	-1.3199586E+000	-2.977376942574506E+002	3.9300141E-001	-1.3199253E+000	0
4.4084072E+000	1.198382971678438E+002	-1.3213382E+000	-2.997314405856532E+002	3.9604661E-001	-1.3213285E+000	0
4.3809075E+000	1.199788971642920E+002	-1.3227278E+000	-3.019300908165928E+002	3.9937133E-001	-1.3227347E+000	0
4.3654647E+000	1.200994971612454E+002	-1.3239537E+000	-3.032789907313806E+002	4.0152735E-001	-1.3239405E+000	0
4.3710408E+000	1.202197971582063E+002	-1.3251723E+000	-3.031708729349448E+002	4.0175363E-001	-1.3251438E+000	0
4.3198671E+000	1.203403971551597E+002	-1.3263730E+000	-3.070402254360572E+002	4.0724987E-001	-1.3263496E+000	0
4.3062730E+000	1.204809971516079E+002	-1.3277555E+000	-3.083305458466111E+002	4.0938756E-001	-1.3277555E+000	0
4.2923288E+000	1.206014971485638E+002	-1.3289827E+000	-3.096181119321964E+002	4.1147712E-001	-1.3289605E+000	0
4.2587409E+000	1.207318971452696E+002	-1.3302697E+000	-3.123621895379720E+002	4.1552594E-001	-1.3302652E+000	0
4.2281775E+000	1.208822971414702E+002	-1.3317980E+000	-3.149815660370006E+002	4.1949180E-001	-1.3317690E+000	0
4.2199364E+000	1.210128971381710E+002	-1.3330810E+000	-3.159007255323766E+002	4.2112127E-001	-1.3330750E+000	0
4.2145123E+000	1.211730971341240E+002	-1.3346583E+000	-3.166815506917062E+002	4.2266166E-001	-1.3346771E+000	0
4.1787605E+000	1.213533971295692E+002	-1.3364685E+000	-3.198241468467031E+002	4.2743489E-001	-1.3364799E+000	0
4.1919026E+000	1.214938971260199E+002	-1.3379229E+000	-3.191684213206231E+002	4.2702276E-001	-1.3378848E+000	0
4.1773496E+000	1.216439971222280E+002	-1.3394333E+000	-3.206419134331068E+002	4.2947847E-001	-1.3393860E+000	0
4.1081161E+000	1.217746971189263E+002	-1.3406743E+000	-3.263477040246207E+002	4.3752599E-001	-1.3406923E+000	0
4.0930872E+000	1.219053971156245E+002	-1.3420339E+000	-3.278781557948932E+002	4.4002360E-001	-1.3419992E+000	0
4.0529056E+000	1.220458971120752E+002	-1.3434209E+000	-3.314710518195398E+002	4.4530514E-001	-1.3434049E+000	0
4.0040975E+000	1.221864971085233E+002	-1.3448169E+000	-3.358601715971479E+002	4.5167044E-001	-1.3448107E+000	0
3.9853847E+000	1.223272971049664E+002	-1.3461916E+000	-3.377821027930605E+002	4.5471945E-001	-1.3462189E+000	0
3.9071419E+000	1.224977971006592E+002	-1.3479339E+000	-3.449923004443244E+002	4.6502683E-001	-1.3479240E+000	0
3.9166231E+000	1.226581970966072E+002	-1.3495598E+000	-3.445722945541162E+002	4.6502092E-001	-1.3495278E+000	0
3.9338369E+000	1.227786970935631E+002	-1.3507974E+000	-3.433791170073639E+002	4.6383563E-001	-1.3507329E+000	0
3.8900719E+000	1.229390970895111E+002	-1.3523740E+000	-3.476475407392008E+002	4.7014949E-001	-1.3523371E+000	0
3.8880899E+000	1.231096970852013E+002	-1.3541033E+000	-3.482695420801219E+002	4.7159293E-001	-1.3540428E+000	0
3.8472905E+000	1.232603970813943E+002	-1.3555913E+000	-3.523496022673971E+002	4.7764206E-001	-1.3555495E+000	0
3.8427804E+000	1.233910970780926E+002	-1.3569038E+000	-3.531047015763979E+002	4.7912911E-001	-1.3568568E+000	0
3.7716265E+000	1.235415970742906E+002	-1.3583633E+000	-3.601531716520803E+002	4.8921883E-001	-1.3583618E+000	0
3.7249475E+000	1.236620970712465E+002	-1.3596267E+000	-3.650055960377777E+002	4.9627134E-001	-1.3595669E+000	0
3.6887729E+000	1.238125970674446E+002	-1.3611152E+000	-3.689886140418266E+002	5.0223601E-001	-1.3610716E+000	0
3.6731117E+000	1.239629970636452E+002	-1.3626002E+000	-3.709661766992003E+002	5.0547856E-001	-1.3625757E+000	0
3.6730390E+000	1.241034970600958E+002	-1.3640120E+000	-3.713578995458493E+002	5.0653660E-001	-1.3639809E+000	0
3.6484671E+000	1.242437970565516E+002	-1.3654457E+000	-3.742518967473047E+002	5.1102066E-001	-1.3653840E+000	0
3.6451540E+000	1.243546970537500E+002	-1.3665556E+000	-3.748965192636838E+002	5.1231694E-001	-1.3664922E+000	0
3.5947723E+000	1.244753970507008E+002	-1.3677347E+000	-3.804788100281858E+002	5.2039409E-001	-1.3676997E+000	0
3.5994976E+000	1.245960970476517E+002	-1.3689810E+000	-3.803255715409596E+002	5.2065849E-001	-1.3689059E+000	0
3.5811913E+000	1.247266970443525E+002	-1.3702631E+000	-3.826277248093529E+002	5.2430063E-001	-1.3702124E+000	0
3.5284555E+000	1.248870970403004E+002	-1.3718644E+000	-3.888002741938681E+002	5.3338128E-001	-1.3718170E+000	0
3.4721203E+000	1.250375970364985E+002	-1.3733734E+000	-3.955431432531295E+002	5.4322845E-001	-1.3733219E+000	0
3.4875960E+000	1.251978970324490E+002	-1.3749775E+000	-3.942479048369196E+002	5.4208201E-001	-1.3749249E+000	0
3.4570913E+000	1.253483970286470E+002	-1.3765002E+000	-3.981671605336524E+002	5.4807717E-001	-1.3764300E+000	0
3.4469323E+000	1.254790970253453E+002	-1.3778002E+000	-3.997178070522552E+002	5.5073130E-001	-1.3777367E+000	0
3.4497979E+000	1.256296970215408E+002	-1.3792765E+000	-3.998137058683897E+002	5.5145365E-001	-1.3792427E+000	0
3.4151390E+000	1.257699970179965E+002	-1.3806746E+000	-4.042806527080411E+002	5.5818003E-001	-1.3806455E+000	0
3.4116411E+000	1.259404970136893E+002	-1.3824190E+000	-4.052064609243971E+002	5.6016511E-001	-1.3823512E+000	0
3.4194379E+000	1.261107970093872E+002	-1.3841183E+000	-4.047794902467813E+002	5.6026268E-001	-1.3840539E+000	0
3.4113357E+000	1.262413970060879E+002	-1.3853755E+000	-4.061094132417411E+002	5.6261402E-001	-1.3853595E+000	0
3.4181271E+000	1.263720970027862E+002	-1.3867105E+000	-4.056930801632966E+002	5.6257886E-001	-1.3866663E+000	0
3.3954098E+000	1.265226969989817E+002	-1.3881849E+000	-4.088416413841783E+002	5.6754780E-001	-1.3881727E+000	0
3.3290496E+000	1.266634969954248E+002	-1.3896539E+000	-4.174326286731666E+002	5.8008689E-001	-1.3895806E+000	0
3.3232067E+000	1.268040969918729E+002	-1.3910744E+000	-4.185940161531362E+002	5.8229542E-001	-1.3909869E+000	0
3.3353121E+000	1.269546969880685E+002	-1.3925611E+000	-4.175204525462846E+002	5.8142275E-001	-1.3924928E+000	0
3.3413775E+000	1.271051969842665E+002	-1.3940529E+000	-4.172090167158145E+002	5.8161139E-001	-1.3939980E+000	0
3.3530455E+000	1.272357969809673E+002	-1.3953708E+000	-4.161502894042496E+002	5.8068401E-001	-1.3953032E+000	0
3.3093109E+000	1.273662969776706E+002	-1.3966889E+000	-4.220482735564706E+002	5.8947015E-001	-1.3966089E+000	0
3.2951424E+000	1.275266969736185E+002	-1.3983052E+000	-4.243534744285253E+002	5.9337568E-001	-1.3982129E+000	0
3.2578261E+000	1.276473969705694E+002	-1.3994759E+000	-4.295735630085746E+002	6.0117787E-001	-1.3994194E+000	0
3.1755834E+000	1.277482969680204E+002	-1.4005250E+000	-4.410291935540572E+002	6.1767238E-001	-1.4004285E+000	0
3.2107844E+000	1.278785969647288E+002	-1.4018761E+000	-4.366148380219163E+002	6.1207992E-001	-1.4017315E+000	0
3.2090809E+000	1.280090969614321E+002	-1.4031702E+000	-4.372498804578486E+002	6.1353600E-001	-1.4030366E+000	0
3.1906512E+000	1.281496969578802E+002	-1.4045422E+000	-4.402054936752884E+002	6.1828721E-001	-1.4044430E+000	0
3.1805182E+000	1.283402969530653E+002	-1.4063866E+000	-4.421879018090294E+002	6.2188715E-001	-1.4063488E+000	0
3.2051973E+000	1.285106969487606E+002	-1.4081614E+000	-4.393368850956953E+002	6.1865723E-001	-1.4080528E+000	0
3.1675327E+000	1.286807969444635E+002	-1.4098516E+000	-4.450945490284075E+002	6.2751722E-001	-1.4097539E+000	0
3.1323903E+000	1.288313969406590E+002	-1.4113282E+000	-4.505595024863969E+002	6.3588732E-001	-1.4112600E+000	0
3.1352217E+000	1.289718969371097E+002	-1.4127679E+000	-4.506118024589359E+002	6.3660991E-001	-1.4126649E+000	0
3.1318190E+000	1.291025969338079E+002	-1.4140383E+000	-4.515070289437654E+002	6.3844824E-001	-1.4139713E+000	0
3.1152291E+000	1.292429969302611E+002	-1.4154471E+000	-4.543637267541089E+002	6.4312780E-001	-1.4153758E+000	0
3.0521877E+000	1.293734969269644E+002	-1.4167573E+000	-4.641776555518663E+002	6.5762711E-001	-1.4166809E+000	0
3.0489972E+000	1.295037969236728E+002	-1.4180846E+000	-4.650987091158750E+002	6.5954936E-001	-1.4179838E+000	0
3.0662301E+000	1.296443969201209E+002	-1.4194913E+000	-4.629434964834409E+002	6.5714425E-001	-1.4193897E+000	0
3.0641556E+000	1.297748969168242E+002	-1.4208102E+000	-4.636873683925651E+002	6.5881175E-001	-1.4206942E+000	0
3.0544407E+000	1.299055969135225E+002	-1.4220630E+000	-4.655722932733484E+002	6.6207314E-001	-1.4220020E+000	0
3.0128818E+000	1.300558969097256E+002	-1.4236126E+000	-4.725086018795537E+002	6.7266917E-001	-1.4235048E+000	0
2.9913931E+000	1.301864969064263E+002	-1.4249259E+000	-4.763419167378527E+002	6.7875195E-001	-1.4248106E+000	0
2.9599783E+000	1.303268969028795E+002	-1.4263009E+000	-4.818619356776785E+002	6.8728012E-001	-1.4262148E+000	0
2.9391274E+000	1.304775968990725E+002	-1.4278252E+000	-4.857989947599362E+002	6.9363606E-001	-1.4277216E+000	0
2.9140224E+000	1.306280968952706E+002	-1.4293268E+000	-4.904995943749309E+002	7.0108420E-001	-1.4292269E+000	0
2.9410932E+000	1.307885968912160E+002	-1.4309204E+000	-4.865266931367878E+002	6.9618094E-001	-1.4308319E+000	0
2.9744086E+000	1.309491968871589E+002	-1.4325253E+000	-4.816168273843809E+002	6.8992829E-001	-1.4324373E+000	0
2.9605966E+000	1.310699968841072E+002	-1.4337565E+000	-4.842795802123755E+002	6.9433898E-001	-1.4336458E+000	0
2.9732487E+000	1.311807968813082E+002	-1.4348643E+000	-4.825914017982059E+002	6.9245315E-001	-1.4347534E+000	0
2.9713027E+000	1.313212968777589E+002	-1.4362276E+000	-4.833662683043290E+002	6.9422394E-001	-1.4361594E+000	0
2.9364498E+000	1.314617968742095E+002	-1.4376483E+000	-4.895872255890572E+002	7.0385426E-001	-1.4375641E+000	0
2.9681129E+000	1.316121968704101E+002	-1.4391665E+000	-4.848759226805219E+002	6.9781721E-001	-1.4390676E+000	0
2.9578564E+000	1.317424968671185E+002	-1.4405042E+000	-4.870095089105489E+002	7.0153922E-001	-1.4403707E+000	0
2.9391463E+000	1.318829968635691E+002	-1.4418852E+000	-4.905796095253791E+002	7.0735949E-001	-1.4417759E+000	0
2.9429772E+000	1.320337968597596E+002	-1.4434087E+000	-4.904586790432796E+002	7.0793235E-001	-1.4432837E+000	0
2.9144528E+000	1.321643968564604E+002	-1.4446821E+000	-4.956958272737324E+002	7.1612293E-001	-1.4445897E+000	0
2.9006345E+000	1.322949968531611E+002	-1.4460135E+000	-4.985162497584470E+002	7.2086120E-001	-1.4458958E+000	0
2.8344564E+000	1.324555968491040E+002	-1.4476298E+000	-5.107257287086186E+002	7.3934180E-001	-1.4475020E+000	0
2.8005025E+000	1.326355968445569E+002	-1.4493830E+000	-5.175439233142952E+002	7.5011939E-001	-1.4493022E+000	0
2.8200362E+000	1.328255968397571E+002	-1.4512732E+000	-5.146292683694355E+002	7.4686766E-001	-1.4512025E+000	0
2.8029726E+000	1.330255968347046E+002	-1.4532849E+000	-5.184798735015265E+002	7.5349897E-001	-1.4532026E+000	0
2.8096843E+000	1.332255968296522E+002	-1.4552832E+000	-5.179525654721392E+002	7.5376767E-001	-1.4552025E+000	0
2.8372157E+000	1.334255968245998E+002	-1.4573337E+000	-5.136492322718472E+002	7.4855834E-001	-1.4572026E+000	0
2.8441801E+000	1.336255968195474E+002	-1.4592990E+000	-5.130824760212126E+002	7.4874073E-001	-1.4592024E+000	0
2.8021734E+000	1.338255968144949E+002	-1.4613249E+000	-5.214969579692333E+002	7.6207650E-001	-1.4612025E+000	0
2.7887609E+000	1.340255968094425E+002	-1.4633163E+000	-5.247191614985768E+002	7.6783013E-001	-1.4632026E+000	0
2.8356130E+000	1.342255968043901E+002	-1.4653084E+000	-5.167519009562056E+002	7.5720090E-001	-1.4652025E+000	0
2.8264883E+000	1.344255967993377E+002	-1.4673209E+000	-5.191321442575941E+002	7.6173347E-001	-1.4672024E+000	0
2.7188935E+000	1.346255967942852E+002	-1.4693567E+000	-5.404245057008684E+002	7.9407632E-001	-1.4692025E+000	0
2.7247369E+000	1.348255967892328E+002	-1.4713551E+000	-5.399989585962951E+002	7.9453021E-001	-1.4712025E+000	0
2.6541042E+000	1.350255967841804E+002	-1.4733448E+000	-5.551194448233169E+002	8.1788236E-001	-1.4732025E+000	0
2.6289728E+000	1.352255967791280E+002	-1.4753778E+000	-5.611993301936564E+002	8.2798105E-001	-1.4752026E+000	0
2.6128917E+000	1.354255967740755E+002	-1.4773326E+000	-5.654013868881193E+002	8.3528590E-001	-1.4772024E+000	0
2.6081641E+000	1.356255967690231E+002	-1.4793583E+000	-5.672029503067606E+002	8.3909643E-001	-1.4792025E+000	0
2.5741704E+000	1.358255967639707E+002	-1.4813743E+000	-5.754764005483685E+002	8.5249591E-001	-1.4812025E+000	0
2.5504210E+000	1.359355967611918E+002	-1.4824839E+000	-5.812702698999524E+002	8.6172378E-001	-1.4823022E+000	0
2.5498512E+000	1.359441967609746E+002	-1.4826324E+000	-5.814583811205489E+002	8.6208904E-001	-1.4825022E+000	1