EC-Lab ASCII FILE
Nb header lines : 63                          

Linear Sweep Voltammetry

Run on channel : 1 (SN 1340)
User : 
Electrode connection : standard
Potential control : Ewe
Ewe ctrl range : min = -5.00 V, max = 5.00 V
Ewe,I filtering : <None>
Safety Limits :
	Do not start on E overload
Channel : Floating
Acquisition started on : 02/12/2026 11:45:12.335
Technique started on : 02/12/2026 11:45:14.862
Loaded Setting File :  C:\Users\volt\Documents\Platalytix\PtPdCoNiCr_2_11_polished_01_ZIR_C01.mpr
Saved on :
	File : X18_75_unpolished_2-12_02_LSV_C01.mpr
	Directory : C:\Users\volt\Documents\Platalytix\
	Host : 127.0.0.1
Device : SP-200 (SN 0262)
Address : USB
EC-LAB for windows v11.60 (software)
Internet server v11.60 (firmware)
Command interpretor v11.60 (firmware)
Electrode material : Pt18.75Pd18.75Ni18.75Co18.75Cr25
Initial state : 
Electrolyte : KOH (1M)
Comments : before polishing
Cable : standard
Reference electrode : Hg/HgO (0.140 V)
Electrode surface area : 1.000 cm˛
Characteristic mass : 0.001 g
Equivalent Weight : 0.000 g/eq.
Density : 0.000 g/cm3
Volume (V) : 0.001 cmł
Cycle Definition : Charge/Discharge alternance
tR (h:m:s)          0:00:5.0000         
dER/dt (mV/h)       0.0                 
dER (mV)            0                   
dtR (s)             0.0000              
dE/dt               10.000              
dE/dt unit          mV/s                
Ei (V)              -0.200              
vs.                 Ref                 
EL (V)              -2.500              
vs.                 Ref                 
record              <I>                 
dI                  0.000               
unit dI             µA                  
tI (s)              0.0000              
step percent        50                  
N                   10                  
E range min (V)     -5.000              
E range max (V)     5.000               
I Range             Auto                
I Range min         Unset               
I Range max         Unset               
I Range init        Unset               
Bandwidth           8                   

Rwe/Ohm	time/s	Ewe/V	<I>/mA	Pwe/W	control/V	error	
0.0000000E+000	2.527400120015955E+000	-1.2819938E-001	0.000000000000000E+000	0.0000000E+000	0.0000000E+000	0
0.0000000E+000	7.527199993710383E+000	-1.2798299E-002	0.000000000000000E+000	0.0000000E+000	-1.9999993E-001	0
4.9909541E+003	7.727199988657958E+000	-2.0168610E-001	-4.041033001034522E-002	8.1502021E-006	-2.0189971E-001	0
1.5367922E+003	7.847199985626503E+000	-2.0284835E-001	-1.319946454704870E-001	2.6774895E-005	-2.0309979E-001	0
1.6820551E+003	8.057199980321457E+000	-2.0492518E-001	-1.218302448052082E-001	2.4966084E-005	-2.0519973E-001	0
1.8915359E+003	8.257199975269032E+000	-2.0696102E-001	-1.094142745382023E-001	2.2644490E-005	-2.0719965E-001	0
2.0791758E+003	8.457199970216607E+000	-2.0899709E-001	-1.005192041965175E-001	2.1008220E-005	-2.0919958E-001	0
2.2461125E+003	8.657199965164182E+000	-2.1099472E-001	-9.393773114629711E-002	1.9820365E-005	-2.1119945E-001	0
2.3997285E+003	8.857199960111757E+000	-2.1296565E-001	-8.874572319392549E-002	1.8899791E-005	-2.1319938E-001	0
2.5380735E+003	9.057199955059332E+000	-2.1499343E-001	-8.470733521206286E-002	1.8211520E-005	-2.1519928E-001	0
2.6721973E+003	9.257199950006907E+000	-2.1702208E-001	-8.121483975466015E-002	1.7625413E-005	-2.1719919E-001	0
2.7937395E+003	9.457199944954482E+000	-2.1897897E-001	-7.838202986281231E-002	1.7164017E-005	-2.1919911E-001	0
2.9153047E+003	9.657199939902057E+000	-2.2095923E-001	-7.579284053097302E-002	1.6747128E-005	-2.2119902E-001	0
3.0289802E+003	9.857199934849632E+000	-2.2302414E-001	-7.363011007980697E-002	1.6421292E-005	-2.2319892E-001	0
3.1358745E+003	1.005719992979721E+001	-2.2498786E-001	-7.174644869110258E-002	1.6142079E-005	-2.2519885E-001	0
3.2428545E+003	1.025719992474478E+001	-2.2700948E-001	-7.000297839202152E-002	1.5891339E-005	-2.2719876E-001	0
3.3468242E+003	1.045719991969236E+001	-2.2900502E-001	-6.842457681900616E-002	1.5669571E-005	-2.2919866E-001	0
3.4456877E+003	1.065719991463993E+001	-2.3097743E-001	-6.703376828675961E-002	1.5483287E-005	-2.3119859E-001	0
3.5436541E+003	1.085719990958751E+001	-2.3298167E-001	-6.574616535532976E-002	1.5317652E-005	-2.3319849E-001	0
3.6395874E+003	1.105719990453508E+001	-2.3499015E-001	-6.456505395250300E-002	1.5172152E-005	-2.3519841E-001	0
3.7351099E+003	1.125719989948266E+001	-2.3702809E-001	-6.345947115637729E-002	1.5041677E-005	-2.3719832E-001	0
3.8273896E+003	1.145719989443023E+001	-2.3898713E-001	-6.244128732308507E-002	1.4922664E-005	-2.3919824E-001	0
3.9189966E+003	1.165719988937781E+001	-2.4097103E-001	-6.148794108195044E-002	1.4816813E-005	-2.4119817E-001	0
4.0090796E+003	1.185719988432538E+001	-2.4298836E-001	-6.060951257593367E-002	1.4727406E-005	-2.4319807E-001	0
4.1012129E+003	1.205709987927548E+001	-2.4496567E-001	-5.973005511264007E-002	1.4631813E-005	-2.4519774E-001	0
4.1895366E+003	1.225699987422558E+001	-2.4694845E-001	-5.894409656543653E-002	1.4556153E-005	-2.4719787E-001	0
4.2793032E+003	1.245699986917316E+001	-2.4900424E-001	-5.818803593581785E-002	1.4489068E-005	-2.4919778E-001	0
4.3706797E+003	1.265699986412073E+001	-2.5104141E-001	-5.743761685816257E-002	1.4419221E-005	-2.5119773E-001	0
4.4530884E+003	1.285699985906831E+001	-2.5300193E-001	-5.681493298610985E-002	1.4374287E-005	-2.5319764E-001	0
4.5384951E+003	1.305699985401588E+001	-2.5501466E-001	-5.618925766423834E-002	1.4329084E-005	-2.5519753E-001	0
4.6323960E+003	1.325699984896346E+001	-2.5700215E-001	-5.547931498125647E-002	1.4258303E-005	-2.5719744E-001	0
4.7143926E+003	1.345699984391104E+001	-2.5897619E-001	-5.493309590733197E-002	1.4226364E-005	-2.5919735E-001	0
4.7982979E+003	1.365699983885861E+001	-2.6101843E-001	-5.439813098502766E-002	1.4198915E-005	-2.6119730E-001	0
4.8826763E+003	1.385699983380619E+001	-2.6301205E-001	-5.386637185505941E-002	1.4167505E-005	-2.6319718E-001	0
4.9671704E+003	1.405699982875376E+001	-2.6494899E-001	-5.334002750845446E-002	1.4132386E-005	-2.6519710E-001	0
5.0527700E+003	1.425699982370134E+001	-2.6696131E-001	-5.283464346283795E-002	1.4104806E-005	-2.6719701E-001	0
5.1378286E+003	1.445699981864891E+001	-2.6895431E-001	-5.234785712970327E-002	1.4079182E-005	-2.6919693E-001	0
5.2228809E+003	1.465699981359649E+001	-2.7096486E-001	-5.188034271848840E-002	1.4057749E-005	-2.7119684E-001	0
5.3030991E+003	1.485699980854406E+001	-2.7296913E-001	-5.147350899233166E-002	1.4050679E-005	-2.7319676E-001	0
5.3826582E+003	1.505699980349164E+001	-2.7497566E-001	-5.108547704970134E-002	1.4047263E-005	-2.7519667E-001	0
5.4691587E+003	1.525699979843921E+001	-2.7696678E-001	-5.064156928095465E-002	1.4026033E-005	-2.7719659E-001	0
5.5553105E+003	1.545699979338679E+001	-2.7898246E-001	-5.021905667273141E-002	1.4010236E-005	-2.7919650E-001	0
5.6418213E+003	1.565699978833436E+001	-2.8098816E-001	-4.980451310034473E-002	1.3994479E-005	-2.8119639E-001	0
5.7162100E+003	1.585699978328194E+001	-2.8294826E-001	-4.949927473833560E-002	1.4005734E-005	-2.8319630E-001	0
5.7987910E+003	1.605699977822951E+001	-2.8501719E-001	-4.915114196150422E-002	1.4008921E-005	-2.8519621E-001	0
5.8810923E+003	1.625699977317709E+001	-2.8698707E-001	-4.879825727543174E-002	1.4004469E-005	-2.8719613E-001	0
5.9642959E+003	1.645699976812466E+001	-2.8899026E-001	-4.845337331946520E-002	1.4002553E-005	-2.8919604E-001	0
6.0476494E+003	1.665679976307729E+001	-2.9097283E-001	-4.811337482152844E-002	1.3999685E-005	-2.9119593E-001	0
6.1276108E+003	1.685679975802486E+001	-2.9298574E-001	-4.781402319790096E-002	1.4008827E-005	-2.9319584E-001	0
6.2120435E+003	1.705679975297244E+001	-2.9494587E-001	-4.747968395119173E-002	1.4003936E-005	-2.9519579E-001	0
6.2939155E+003	1.725679974792001E+001	-2.9697448E-001	-4.718437659250085E-002	1.4012556E-005	-2.9719570E-001	0
6.3732407E+003	1.745679974286759E+001	-2.9895285E-001	-4.690751083466577E-002	1.4023134E-005	-2.9919559E-001	0
6.4540830E+003	1.765679973781516E+001	-3.0102649E-001	-4.664124950714821E-002	1.4040252E-005	-3.0119550E-001	0
6.5347031E+003	1.785679973276274E+001	-3.0300182E-001	-4.636810704576853E-002	1.4049621E-005	-3.0319542E-001	0
6.6192847E+003	1.805679972771031E+001	-3.0498290E-001	-4.607490166602551E-002	1.4052057E-005	-3.0519533E-001	0
6.7038579E+003	1.825679972265789E+001	-3.0699712E-001	-4.579409638519016E-002	1.4058655E-005	-3.0719525E-001	0
6.7815742E+003	1.845679971760546E+001	-3.0898118E-001	-4.556186618035252E-002	1.4077759E-005	-3.0919516E-001	0
6.8574917E+003	1.865679971255304E+001	-3.1098118E-001	-4.534911508370998E-002	1.4102721E-005	-3.1119508E-001	0
6.9414565E+003	1.885679970750061E+001	-3.1294891E-001	-4.508403961651253E-002	1.4109001E-005	-3.1319499E-001	0
7.0190220E+003	1.905679970244819E+001	-3.1495908E-001	-4.487221706616364E-002	1.4132912E-005	-3.1519488E-001	0
7.1368809E+003	1.929679969638528E+001	-3.1733167E-001	-4.446363701987388E-002	1.4109720E-005	-3.1759477E-001	0
7.2106357E+003	1.949679969133285E+001	-3.1937158E-001	-4.429173600028902E-002	1.4145522E-005	-3.1959468E-001	0
7.2936001E+003	1.969679968628043E+001	-3.2137772E-001	-4.406297705669493E-002	1.4160859E-005	-3.2159463E-001	0
7.3707871E+003	1.989679968122800E+001	-3.2333037E-001	-4.386646500598534E-002	1.4183361E-005	-3.2359451E-001	0
7.4547290E+003	2.009679967617558E+001	-3.2545835E-001	-4.365797230763713E-002	1.4208851E-005	-3.2559440E-001	0
7.5264365E+003	2.029679967112315E+001	-3.2736009E-001	-4.349469807412884E-002	1.4238429E-005	-3.2759431E-001	0
7.6150742E+003	2.049679966607073E+001	-3.2944110E-001	-4.326170604716140E-002	1.4252184E-005	-3.2959425E-001	0
7.6893164E+003	2.069679966101830E+001	-3.3138889E-001	-4.309731409193363E-002	1.4281971E-005	-3.3159414E-001	0
7.7711006E+003	2.089679965596588E+001	-3.3341727E-001	-4.290476818188888E-002	1.4305190E-005	-3.3359405E-001	0
7.8433545E+003	2.109669965091598E+001	-3.3539522E-001	-4.276170610465926E-002	1.4342072E-005	-3.3559397E-001	0
7.9257729E+003	2.129659964586608E+001	-3.3741137E-001	-4.257141527917274E-002	1.4364080E-005	-3.3759385E-001	0
8.0082124E+003	2.149659964081366E+001	-3.3942491E-001	-4.238460307186931E-002	1.4386390E-005	-3.3959380E-001	0
8.0780977E+003	2.169659963576123E+001	-3.4138545E-001	-4.226062500288685E-002	1.4427163E-005	-3.4159371E-001	0
8.1617915E+003	2.189659963070881E+001	-3.4338629E-001	-4.207241548702570E-002	1.4447091E-005	-3.4359363E-001	0
8.2425508E+003	2.209659962565638E+001	-3.4542125E-001	-4.190708246729352E-002	1.4475597E-005	-3.4559354E-001	0
8.3218037E+003	2.229659962060396E+001	-3.4738028E-001	-4.174338638663191E-002	1.4500829E-005	-3.4759346E-001	0
8.4044180E+003	2.249659961555153E+001	-3.4938943E-001	-4.157211597984603E-002	1.4524858E-005	-3.4959337E-001	0
8.4784746E+003	2.269659961049911E+001	-3.5136503E-001	-4.144201153264215E-002	1.4561274E-005	-3.5159332E-001	0
8.5528242E+003	2.289659960544668E+001	-3.5339573E-001	-4.131918507306109E-002	1.4602024E-005	-3.5359320E-001	0
8.6339141E+003	2.309659960039426E+001	-3.5541677E-001	-4.116519645401329E-002	1.4630801E-005	-3.5559312E-001	0
8.7080791E+003	2.329659959534183E+001	-3.5741019E-001	-4.104351526988936E-002	1.4669371E-005	-3.5759306E-001	0
8.7901455E+003	2.349659959028941E+001	-3.5941166E-001	-4.088802233574876E-002	1.4695632E-005	-3.5959291E-001	0
8.8599590E+003	2.369659958523698E+001	-3.6142203E-001	-4.079274482029335E-002	1.4743397E-005	-3.6159280E-001	0
8.9432617E+003	2.389659958018456E+001	-3.6337811E-001	-4.063149607321132E-002	1.4764596E-005	-3.6359274E-001	0
9.0211953E+003	2.409659957513213E+001	-3.6538234E-001	-4.050265281126456E-002	1.4798954E-005	-3.6559266E-001	0
9.1018994E+003	2.429659957007971E+001	-3.6740434E-001	-4.036567839419014E-002	1.4830525E-005	-3.6759254E-001	0
9.1757500E+003	2.449659956502728E+001	-3.6941600E-001	-4.026003213611989E-002	1.4872700E-005	-3.6959246E-001	0
9.2618506E+003	2.469659955997486E+001	-3.7137169E-001	-4.009692066179088E-002	1.4890861E-005	-3.7159237E-001	0
9.3334102E+003	2.489659955492243E+001	-3.7340543E-001	-4.000739453839819E-002	1.4938978E-005	-3.7359229E-001	0
9.4068955E+003	2.509659954987001E+001	-3.7541986E-001	-3.990900816946014E-002	1.4982634E-005	-3.7559220E-001	0
9.4835654E+003	2.529659954481758E+001	-3.7738225E-001	-3.979328664335431E-002	1.5017280E-005	-3.7759215E-001	0
9.5589639E+003	2.549659953976516E+001	-3.7937286E-001	-3.968765561996832E-002	1.5056419E-005	-3.7959230E-001	0
9.6417500E+003	2.569649953471526E+001	-3.8138554E-001	-3.955563488967268E-002	1.5085947E-005	-3.8159284E-001	0
9.7096611E+003	2.589639952966536E+001	-3.8342124E-001	-3.948863130828356E-002	1.5140780E-005	-3.8359186E-001	0
9.7969746E+003	2.609639952461293E+001	-3.8538876E-001	-3.933752719085885E-002	1.5160241E-005	-3.8559180E-001	0
9.8614805E+003	2.629639951956051E+001	-3.8738111E-001	-3.928224842329098E-002	1.5217201E-005	-3.8759169E-001	0
9.9477510E+003	2.649639951450808E+001	-3.8940847E-001	-3.914537672993530E-002	1.5243541E-005	-3.8959160E-001	0
1.0017873E+004	2.669639950945566E+001	-3.9138624E-001	-3.906879596261183E-002	1.5290989E-005	-3.9159155E-001	0
1.0090487E+004	2.689639950440323E+001	-3.9338619E-001	-3.898584485648501E-002	1.5336493E-005	-3.9359143E-001	0
1.0174792E+004	2.709639949935081E+001	-3.9541098E-001	-3.886182555483231E-002	1.5366393E-005	-3.9559135E-001	0
1.0244590E+004	2.729639949429838E+001	-3.9742243E-001	-3.879339604420996E-002	1.5417367E-005	-3.9759123E-001	0
1.0325785E+004	2.749639948924596E+001	-3.9941585E-001	-3.868140352471744E-002	1.5449965E-005	-3.9959118E-001	0
1.0398452E+004	2.769639948419353E+001	-4.0137234E-001	-3.859923800475719E-002	1.5492667E-005	-4.0159109E-001	0
1.0466746E+004	2.789639947914111E+001	-4.0340245E-001	-3.854134350528324E-002	1.5547672E-005	-4.0359098E-001	0
1.0549141E+004	2.809639947408868E+001	-4.0543324E-001	-3.843282196563066E-002	1.5581943E-005	-4.0559089E-001	0
1.0632988E+004	2.829639946903626E+001	-4.0743086E-001	-3.831762428339491E-002	1.5611782E-005	-4.0759084E-001	0
1.0699251E+004	2.849639946398383E+001	-4.0939921E-001	-3.826428701955387E-002	1.5665370E-005	-4.0959069E-001	0
1.0771480E+004	2.869639945893141E+001	-4.1137886E-001	-3.819148721069909E-002	1.5711170E-005	-4.1159064E-001	0
1.0847506E+004	2.889639945387898E+001	-4.1346097E-001	-3.811576533107019E-002	1.5759380E-005	-4.1359055E-001	0
1.0926475E+004	2.909639944882656E+001	-4.1545546E-001	-3.802282723826252E-002	1.5796792E-005	-4.1559044E-001	0
1.0999657E+004	2.929639944377413E+001	-4.1748744E-001	-3.795458776997751E-002	1.5845564E-005	-4.1759035E-001	0
1.1073795E+004	2.949639943872171E+001	-4.1942254E-001	-3.787523218010325E-002	1.5885726E-005	-4.1959029E-001	0
1.1146976E+004	2.969639943366928E+001	-4.2139345E-001	-3.780338793513593E-002	1.5930100E-005	-4.2159018E-001	0
1.1223077E+004	2.989639942861686E+001	-4.2343268E-001	-3.772875011208021E-002	1.5975585E-005	-4.2359012E-001	0
1.1295339E+004	3.009629942356696E+001	-4.2538613E-001	-3.766032584765333E-002	1.6020180E-005	-4.2558911E-001	0
1.1376553E+004	3.029619941851706E+001	-4.2748442E-001	-3.757591919325154E-002	1.6063121E-005	-4.2758992E-001	0
1.1451789E+004	3.049619941346464E+001	-4.2942756E-001	-3.749873080473518E-002	1.6102989E-005	-4.2958984E-001	0
1.1521229E+004	3.069619940841221E+001	-4.3147188E-001	-3.745016024121689E-002	1.6158690E-005	-4.3158972E-001	0
1.1600207E+004	3.089619940335979E+001	-4.3341437E-001	-3.736264231591543E-002	1.6193506E-005	-4.3358967E-001	0
1.1680724E+004	3.109619939830736E+001	-4.3544450E-001	-3.727889843860552E-002	1.6232891E-005	-4.3558958E-001	0
1.1748876E+004	3.129619939325494E+001	-4.3744746E-001	-3.723313256437172E-002	1.6287539E-005	-4.3758947E-001	0
1.1814778E+004	3.149619938820251E+001	-4.3939799E-001	-3.719053908342040E-002	1.6341448E-005	-4.3958938E-001	0
1.1887345E+004	3.169619938315009E+001	-4.4142872E-001	-3.713434141170441E-002	1.6392165E-005	-4.4158933E-001	0
1.1963325E+004	3.189619937809766E+001	-4.4338098E-001	-3.706168353371742E-002	1.6432447E-005	-4.4358918E-001	0
1.2051529E+004	3.209619937304524E+001	-4.4535613E-001	-3.695432578879798E-002	1.6457836E-005	-4.4558913E-001	0
1.2117275E+004	3.229619936799281E+001	-4.4740558E-001	-3.692295072286647E-002	1.6519534E-005	-4.4758904E-001	0
1.2194066E+004	3.249619936294039E+001	-4.4943616E-001	-3.685695654158258E-002	1.6564849E-005	-4.4958898E-001	0
1.2262970E+004	3.269619935788796E+001	-4.5140004E-001	-3.681001112170190E-002	1.6616041E-005	-4.5158884E-001	0
1.2346653E+004	3.289619935283554E+001	-4.5346132E-001	-3.672746883714750E-002	1.6654487E-005	-4.5358881E-001	0
1.2416433E+004	3.309619934778311E+001	-4.5542145E-001	-3.667892793709782E-002	1.6704371E-005	-4.5558867E-001	0
1.2506724E+004	3.329619934273069E+001	-4.5743099E-001	-3.657480719543622E-002	1.6730450E-005	-4.5758861E-001	0
1.2568343E+004	3.349619933767826E+001	-4.5939401E-001	-3.655167595750503E-002	1.6791621E-005	-4.5958847E-001	0
1.2637677E+004	3.369619933262584E+001	-4.6139318E-001	-3.650933510862512E-002	1.6845159E-005	-4.6158847E-001	0
1.2723631E+004	3.389619932757341E+001	-4.6343178E-001	-3.642291871275405E-002	1.6879538E-005	-4.6358833E-001	0
1.2793037E+004	3.409619932252099E+001	-4.6543577E-001	-3.638195967863478E-002	1.6933465E-005	-4.6558821E-001	0
1.2870207E+004	3.429619931746856E+001	-4.6736258E-001	-3.631352616765475E-002	1.6971584E-005	-4.6758816E-001	0
1.2946295E+004	3.449619931241614E+001	-4.6939948E-001	-3.625743761114864E-002	1.7019222E-005	-4.6958807E-001	0
1.3017444E+004	3.469609930736624E+001	-4.7139567E-001	-3.621261203499873E-002	1.7070468E-005	-4.7158843E-001	0
1.3086186E+004	3.489599930231634E+001	-4.7342685E-001	-3.617760475224430E-002	1.7127450E-005	-4.7358787E-001	0
1.3156615E+004	3.509599929726392E+001	-4.7543806E-001	-3.613680702541233E-002	1.7180813E-005	-4.7558782E-001	0
1.3238223E+004	3.529599929221149E+001	-4.7740242E-001	-3.606242672096724E-002	1.7216289E-005	-4.7758767E-001	0
1.3309085E+004	3.549599928715907E+001	-4.7941220E-001	-3.602142348651116E-002	1.7269111E-005	-4.7958767E-001	0
1.3387586E+004	3.569599928210664E+001	-4.8144272E-001	-3.596187740392209E-002	1.7313583E-005	-4.8158753E-001	0
1.3460318E+004	3.589599927705422E+001	-4.8342848E-001	-3.591508528427811E-002	1.7362376E-005	-4.8358747E-001	0
1.3531299E+004	3.609599927200179E+001	-4.8544291E-001	-3.587555931537889E-002	1.7415536E-005	-4.8558733E-001	0
1.3622569E+004	3.629599926694937E+001	-4.8741594E-001	-3.578003080505793E-002	1.7439757E-005	-4.8758730E-001	0
1.3689869E+004	3.649599926189694E+001	-4.8940787E-001	-3.574963753526639E-002	1.7496153E-005	-4.8958716E-001	0
1.3774156E+004	3.669599925684452E+001	-4.9143925E-001	-3.567835676157546E-002	1.7533745E-005	-4.9158710E-001	0
1.3863582E+004	3.689599925179209E+001	-4.9338362E-001	-3.558846660060777E-002	1.7558767E-005	-4.9358696E-001	0
1.3930819E+004	3.709599924673967E+001	-4.9537408E-001	-3.555958024585149E-002	1.7615295E-005	-4.9558696E-001	0
1.4002697E+004	3.729599924168724E+001	-4.9745300E-001	-3.552551269652682E-002	1.7672273E-005	-4.9758682E-001	0
1.4085738E+004	3.749599923663482E+001	-4.9943092E-001	-3.545649633468317E-002	1.7708071E-005	-4.9958679E-001	0
1.4144975E+004	3.769599923158239E+001	-5.0143987E-001	-3.545003790670251E-002	1.7776063E-005	-5.0158668E-001	0
1.4229216E+004	3.789599922652997E+001	-5.0338739E-001	-3.537702858326602E-002	1.7808350E-005	-5.0358659E-001	0
1.4306224E+004	3.809599922147754E+001	-5.0541908E-001	-3.532861464112041E-002	1.7855757E-005	-5.0558650E-001	0
1.4366247E+004	3.829599921642512E+001	-5.0745535E-001	-3.532274924440393E-002	1.7924718E-005	-5.0758642E-001	0
1.4452080E+004	3.849599921137269E+001	-5.0946862E-001	-3.525226889415725E-002	1.7959925E-005	-5.0958633E-001	0
1.4537541E+004	3.869599920632027E+001	-5.1142985E-001	-3.517994203851826E-002	1.7992072E-005	-5.1158625E-001	0
1.4614016E+004	3.889599920126784E+001	-5.1347232E-001	-3.513560797401458E-002	1.8041163E-005	-5.1358616E-001	0
1.4678164E+004	3.909589919621794E+001	-5.1536638E-001	-3.511109307240190E-002	1.8095077E-005	-5.1558560E-001	0
1.4758078E+004	3.929579919116804E+001	-5.1739562E-001	-3.505846846435865E-002	1.8139099E-005	-5.1758599E-001	0
1.4838633E+004	3.949579918611562E+001	-5.1942509E-001	-3.500491637201208E-002	1.8182433E-005	-5.1958585E-001	0
1.4912513E+004	3.969579918106319E+001	-5.2142030E-001	-3.496528754106878E-002	1.8231611E-005	-5.2158582E-001	0
1.4988689E+004	3.989579917601077E+001	-5.2344549E-001	-3.492269779992663E-002	1.8280129E-005	-5.2358574E-001	0
1.5053382E+004	4.009579917095834E+001	-5.2540624E-001	-3.490287165475325E-002	1.8338187E-005	-5.2558565E-001	0
1.5125786E+004	4.029579916590592E+001	-5.2741045E-001	-3.486830078761244E-002	1.8389906E-005	-5.2758551E-001	0
1.5217700E+004	4.049579916085349E+001	-5.2937114E-001	-3.478654127202635E-002	1.8414990E-005	-5.2958548E-001	0
1.5277500E+004	4.069579915580107E+001	-5.3144032E-001	-3.478581739759556E-002	1.8486586E-005	-5.3158534E-001	0
1.5371587E+004	4.089579915074864E+001	-5.3348756E-001	-3.470608207018079E-002	1.8515262E-005	-5.3358531E-001	0
1.5436612E+004	4.109579914569622E+001	-5.3544921E-001	-3.468696283183947E-002	1.8573106E-005	-5.3558517E-001	0
1.5510842E+004	4.129579914064379E+001	-5.3739065E-001	-3.464613080921211E-002	1.8618506E-005	-5.3758508E-001	0
1.5586243E+004	4.149579913559137E+001	-5.3943300E-001	-3.460956002055501E-002	1.8669540E-005	-5.3958499E-001	0
1.5650401E+004	4.169579913053894E+001	-5.4143351E-001	-3.459550327011074E-002	1.8731165E-005	-5.4158491E-001	0
1.5733338E+004	4.189579912548652E+001	-5.4340589E-001	-3.453850040614567E-002	1.8768425E-005	-5.4358482E-001	0
1.5807029E+004	4.209579912043409E+001	-5.4543006E-001	-3.450553889635552E-002	1.8820358E-005	-5.4558474E-001	0
1.5883308E+004	4.229579911538167E+001	-5.4747498E-001	-3.446857539262144E-002	1.8870682E-005	-5.4758465E-001	0
1.5961253E+004	4.249579911032924E+001	-5.4947734E-001	-3.442570218069871E-002	1.8916144E-005	-5.4958457E-001	0
1.6032416E+004	4.269579910527682E+001	-5.5140620E-001	-3.439320616509606E-002	1.8964627E-005	-5.5158448E-001	0
1.6095923E+004	4.289579910022439E+001	-5.5342638E-001	-3.438301709382380E-002	1.9028468E-005	-5.5358440E-001	0
1.6167898E+004	4.309579909517197E+001	-5.5545187E-001	-3.435523105894023E-002	1.9082678E-005	-5.5558431E-001	0
1.6249149E+004	4.329579909011954E+001	-5.5737263E-001	-3.430164876486885E-002	1.9118801E-005	-5.5758423E-001	0
1.6322653E+004	4.349579908506712E+001	-5.5944949E-001	-3.427442215655468E-002	1.9174808E-005	-5.5958414E-001	0
1.6393719E+004	4.369559908001975E+001	-5.6142902E-001	-3.424659244854000E-002	1.9227031E-005	-5.6158340E-001	0
1.6457766E+004	4.389559907496732E+001	-5.6345665E-001	-3.423652352892959E-002	1.9290797E-005	-5.6358397E-001	0
1.6541572E+004	4.409559906991490E+001	-5.6543863E-001	-3.418288384553660E-002	1.9328323E-005	-5.6558383E-001	0
1.6608281E+004	4.429559906486247E+001	-5.6740975E-001	-3.416426806676859E-002	1.9385139E-005	-5.6758380E-001	0
1.6685703E+004	4.449559905981005E+001	-5.6948066E-001	-3.412985498964149E-002	1.9436293E-005	-5.6958365E-001	0
1.6747527E+004	4.469559905475762E+001	-5.7140225E-001	-3.411860312646697E-002	1.9495446E-005	-5.7158363E-001	0
1.6824566E+004	4.489559904970520E+001	-5.7344139E-001	-3.408357629773184E-002	1.9544934E-005	-5.7358348E-001	0
1.6897535E+004	4.509559904465277E+001	-5.7539040E-001	-3.405173549290252E-002	1.9593042E-005	-5.7558340E-001	0
1.6981211E+004	4.529559903960035E+001	-5.7733709E-001	-3.399858249102183E-002	1.9628642E-005	-5.7758337E-001	0
1.7049951E+004	4.549559903454792E+001	-5.7938868E-001	-3.398183632595564E-002	1.9688690E-005	-5.7958323E-001	0
1.7109027E+004	4.569559902949550E+001	-5.8142620E-001	-3.398359094850933E-002	1.9758951E-005	-5.8158314E-001	0
1.7190639E+004	4.589559902444307E+001	-5.8344913E-001	-3.393993434092851E-002	1.9802224E-005	-5.8358306E-001	0
1.7246594E+004	4.609559901939065E+001	-5.8542663E-001	-3.394447911299481E-002	1.9872003E-005	-5.8558297E-001	0
1.7318273E+004	4.629559901433822E+001	-5.8740968E-001	-3.391849125266611E-002	1.9924049E-005	-5.8758283E-001	0
1.7385455E+004	4.649559900928580E+001	-5.8939749E-001	-3.390175735951739E-002	1.9981611E-005	-5.8958280E-001	0
1.7448619E+004	4.669559900423337E+001	-5.9143424E-001	-3.389576154147522E-002	2.0047113E-005	-5.9158272E-001	0
1.7523607E+004	4.689559899918095E+001	-5.9345353E-001	-3.386594320472133E-002	2.0097863E-005	-5.9358263E-001	0
1.7591723E+004	4.709559899412852E+001	-5.9536099E-001	-3.384324422427154E-002	2.0148947E-005	-5.9558249E-001	0
1.7658508E+004	4.729559898907610E+001	-5.9743118E-001	-3.383248336951078E-002	2.0212581E-005	-5.9758246E-001	0
1.7737807E+004	4.749559898402367E+001	-5.9940511E-001	-3.379251502238884E-002	2.0255406E-005	-5.9958231E-001	0
1.7799768E+004	4.769559897897125E+001	-6.0143948E-001	-3.378917522572167E-002	2.0322144E-005	-6.0158229E-001	0
1.7872197E+004	4.789559897391882E+001	-6.0345262E-001	-3.376487986704169E-002	2.0375506E-005	-6.0358214E-001	0
1.7940947E+004	4.809549896886892E+001	-6.0541797E-001	-3.374504017757751E-002	2.0429854E-005	-6.0558146E-001	0
1.8009043E+004	4.829539896381903E+001	-6.0742587E-001	-3.372893763876084E-002	2.0487829E-005	-6.0758197E-001	0
1.8088707E+004	4.849539895876660E+001	-6.0946828E-001	-3.369330165299517E-002	2.0534999E-005	-6.0958189E-001	0
1.8146766E+004	4.869539895371418E+001	-6.1145842E-001	-3.369517301081493E-002	2.0603196E-005	-6.1158186E-001	0
1.8206887E+004	4.889539894866175E+001	-6.1346334E-001	-3.369402612639760E-002	2.0670050E-005	-6.1358172E-001	0
1.8276211E+004	4.909539894360933E+001	-6.1546034E-001	-3.367548762179720E-002	2.0725927E-005	-6.1558163E-001	0
1.8326619E+004	4.929539893855690E+001	-6.1748755E-001	-3.369347871014072E-002	2.0805304E-005	-6.1758155E-001	0
1.8400254E+004	4.949539893350448E+001	-6.1946523E-001	-3.366612324220836E-002	2.0854994E-005	-6.1958146E-001	0
1.8469348E+004	4.969539892845205E+001	-6.2141705E-001	-3.364585713449613E-002	2.0908110E-005	-6.2158132E-001	0
1.8518420E+004	4.989539892339963E+001	-6.2345797E-001	-3.366690844533926E-002	2.0989903E-005	-6.2358129E-001	0
1.8612336E+004	5.009539891834720E+001	-6.2543720E-001	-3.360336775180872E-002	2.1016796E-005	-6.2558120E-001	0
1.8668338E+004	5.029539891329478E+001	-6.2742293E-001	-3.360893274367066E-002	2.1087015E-005	-6.2758112E-001	0
1.8737670E+004	5.049539890824235E+001	-6.2943697E-001	-3.359206120748615E-002	2.1144086E-005	-6.2958103E-001	0
1.8776164E+004	5.069539890318993E+001	-6.3143247E-001	-3.362947022447327E-002	2.1234740E-005	-6.3158095E-001	0
1.8845066E+004	5.089539889813750E+001	-6.3345593E-001	-3.361388666966044E-002	2.1292915E-005	-6.3358080E-001	0
1.8904195E+004	5.109539889308508E+001	-6.3548273E-001	-3.361596261803701E-002	2.1362364E-005	-6.3558084E-001	0
1.8976680E+004	5.129539888803265E+001	-6.3741612E-001	-3.358944573744821E-002	2.1410455E-005	-6.3758063E-001	0
1.9040578E+004	5.149539888298023E+001	-6.3943851E-001	-3.358293450257976E-002	2.1474221E-005	-6.3958061E-001	0
1.9111691E+004	5.169539887792780E+001	-6.4145786E-001	-3.356363536613655E-002	2.1529657E-005	-6.4158046E-001	0
1.9152092E+004	5.189539887287538E+001	-6.4347541E-001	-3.359817987748215E-002	2.1619602E-005	-6.4358044E-001	0
1.9231973E+004	5.209539886782295E+001	-6.4545214E-001	-3.356140975834065E-002	2.1662283E-005	-6.4558035E-001	0
1.9294084E+004	5.229539886277053E+001	-6.4742237E-001	-3.355548521762507E-002	2.1724572E-005	-6.4758021E-001	0
1.9348814E+004	5.249539885771810E+001	-6.4944297E-001	-3.356499920726930E-002	2.1798553E-005	-6.4958012E-001	0
1.9409979E+004	5.269529885266820E+001	-6.5142524E-001	-3.356135695109863E-002	2.1862716E-005	-6.5158027E-001	0
1.9475416E+004	5.289519884761830E+001	-6.5342879E-001	-3.355146910495790E-002	2.1923495E-005	-6.5357995E-001	0
1.9518633E+004	5.309519884256588E+001	-6.5544206E-001	-3.358032639442510E-002	2.2009959E-005	-6.5557986E-001	0
1.9583588E+004	5.329519883751345E+001	-6.5746325E-001	-3.357215492158305E-002	2.2072458E-005	-6.5757978E-001	0
1.9654857E+004	5.349519883246103E+001	-6.5940613E-001	-3.354927101051092E-002	2.2122595E-005	-6.5957969E-001	0
1.9703852E+004	5.369519882740860E+001	-6.6141927E-001	-3.356802059456815E-002	2.2202536E-005	-6.6157961E-001	0
1.9740135E+004	5.389519882235618E+001	-6.6339618E-001	-3.360646667514344E-002	2.2294402E-005	-6.6357946E-001	0
1.9800400E+004	5.409519881730375E+001	-6.6540933E-001	-3.360585217409540E-002	2.2361648E-005	-6.6557944E-001	0
1.9895459E+004	5.429519881225133E+001	-6.6742349E-001	-3.354652511861900E-002	2.2389739E-005	-6.6757929E-001	0
1.9959217E+004	5.449519880719890E+001	-6.6948724E-001	-3.354276052851440E-002	2.2456450E-005	-6.6957927E-001	0
2.0003146E+004	5.469519880214648E+001	-6.7141801E-001	-3.356562054223999E-002	2.2536562E-005	-6.7157912E-001	0
2.0064924E+004	5.489519879709405E+001	-6.7345297E-001	-3.356369531527587E-002	2.2603570E-005	-6.7357910E-001	0
2.0125537E+004	5.509519879204163E+001	-6.7544889E-001	-3.356178150070896E-002	2.2669268E-005	-6.7557895E-001	0
2.0185520E+004	5.529519878698920E+001	-6.7741054E-001	-3.355923316799432E-002	2.2733379E-005	-6.7757899E-001	0
2.0239225E+004	5.549519878193678E+001	-6.7939824E-001	-3.356839320437602E-002	2.2806307E-005	-6.7957884E-001	0
2.0320072E+004	5.569519877688435E+001	-6.8145317E-001	-3.353596074071608E-002	2.2853186E-005	-6.8157870E-001	0
2.0373865E+004	5.589519877183193E+001	-6.8346316E-001	-3.354607139161819E-002	2.2927505E-005	-6.8357861E-001	0
2.0424939E+004	5.609519876677950E+001	-6.8543154E-001	-3.355855863412546E-002	2.3002094E-005	-6.8557858E-001	0
2.0470395E+004	5.629519876172708E+001	-6.8741596E-001	-3.358098129026992E-002	2.3084103E-005	-6.8757844E-001	0
2.0566627E+004	5.649519875667465E+001	-6.8947321E-001	-3.352388472516976E-002	2.3113820E-005	-6.8957835E-001	0
2.0654100E+004	5.669519875162223E+001	-6.9142759E-001	-3.347653081290047E-002	2.3146597E-005	-6.9157827E-001	0
2.0713059E+004	5.689519874656980E+001	-6.9350588E-001	-3.348157807810837E-002	2.3219671E-005	-6.9357818E-001	0
2.0760178E+004	5.709509874151991E+001	-6.9534099E-001	-3.349397971208634E-002	2.3289736E-005	-6.9557750E-001	0
2.0836906E+004	5.729509873646748E+001	-6.9744718E-001	-3.347172484109939E-002	2.3344761E-005	-6.9757885E-001	0
2.0892170E+004	5.749499873141758E+001	-6.9944710E-001	-3.347891069792408E-002	2.3416727E-005	-6.9957799E-001	0
2.0972980E+004	5.769499872636516E+001	-7.0143795E-001	-3.344483922057218E-002	2.3459479E-005	-7.0157778E-001	0
2.1060426E+004	5.789499872131273E+001	-7.0343006E-001	-3.340056057636098E-002	2.3494958E-005	-7.0357776E-001	0
2.1091928E+004	5.809499871626031E+001	-7.0542938E-001	-3.344546733429343E-002	2.3593415E-005	-7.0557767E-001	0
2.1184582E+004	5.829499871120788E+001	-7.0742923E-001	-3.339358880881510E-002	2.3623601E-005	-7.0757765E-001	0
2.1270762E+004	5.849499870615546E+001	-7.0940244E-001	-3.335105880483558E-002	2.3659322E-005	-7.0957744E-001	0
2.1352676E+004	5.869499870110303E+001	-7.1142942E-001	-3.331804561825757E-002	2.3703438E-005	-7.1157748E-001	0
2.1409199E+004	5.889499869605061E+001	-7.1343756E-001	-3.332387983916185E-002	2.3774508E-005	-7.1357733E-001	0
2.1529455E+004	5.909499869099818E+001	-7.1545374E-001	-3.323139143366449E-002	2.3775523E-005	-7.1557724E-001	0
2.1557467E+004	5.929499868594576E+001	-7.1742815E-001	-3.327979807728204E-002	2.3875864E-005	-7.1757716E-001	0
2.1648896E+004	5.949499868089333E+001	-7.1944380E-001	-3.323235338877950E-002	2.3908811E-005	-7.1957707E-001	0
2.1711943E+004	5.969499867584091E+001	-7.2142512E-001	-3.322710822465200E-002	2.3970870E-005	-7.2157693E-001	0
2.1796834E+004	5.989499867078848E+001	-7.2346544E-001	-3.319130946334037E-002	2.4012765E-005	-7.2357684E-001	0
2.1927223E+004	6.009499866573606E+001	-7.2543907E-001	-3.308394662228098E-002	2.4000388E-005	-7.2557676E-001	0
2.2007762E+004	6.029499866068363E+001	-7.2748578E-001	-3.305587266986798E-002	2.4047677E-005	-7.2757667E-001	0
2.2047410E+004	6.049499865563121E+001	-7.2947592E-001	-3.308669389505348E-002	2.4135947E-005	-7.2957665E-001	0
2.2148109E+004	6.069499865057878E+001	-7.3144710E-001	-3.302526086449509E-002	2.4156232E-005	-7.3157644E-001	0
2.2233395E+004	6.089499864552636E+001	-7.3344094E-001	-3.298825721357801E-002	2.4194938E-005	-7.3357648E-001	0
2.2324824E+004	6.109499864047393E+001	-7.3545003E-001	-3.294314881322108E-002	2.4228040E-005	-7.3557627E-001	0
2.2382018E+004	6.129499863542151E+001	-7.3745108E-001	-3.294837374431281E-002	2.4297813E-005	-7.3757625E-001	0
2.2533674E+004	6.149499863036908E+001	-7.3947275E-001	-3.281634233684988E-002	2.4266790E-005	-7.3957616E-001	0
2.2550621E+004	6.169489862531918E+001	-7.4146271E-001	-3.287992320338973E-002	2.4379236E-005	-7.4157590E-001	0
2.2677586E+004	6.189479862026928E+001	-7.4347246E-001	-3.278446235575724E-002	2.4374345E-005	-7.4357593E-001	0
2.2825184E+004	6.209479861521686E+001	-7.4544257E-001	-3.265877747343293E-002	2.4345243E-005	-7.4557596E-001	0
2.2856986E+004	6.229479861016443E+001	-7.4743575E-001	-3.270053844281220E-002	2.4441551E-005	-7.4757582E-001	0
2.2983221E+004	6.249479860511201E+001	-7.4947667E-001	-3.260973339917272E-002	2.4440234E-005	-7.4957573E-001	0
2.3099648E+004	6.269479860005958E+001	-7.5140858E-001	-3.252900393242563E-002	2.4442572E-005	-7.5157565E-001	0
2.3161006E+004	6.289479859500716E+001	-7.5345635E-001	-3.253124568288274E-002	2.4510873E-005	-7.5357556E-001	0
2.3324174E+004	6.309479858995473E+001	-7.5540704E-001	-3.238730104043533E-002	2.4465595E-005	-7.5557542E-001	0
2.3363398E+004	6.329479858490231E+001	-7.5743228E-001	-3.241961009910244E-002	2.4555658E-005	-7.5757533E-001	0
2.3456064E+004	6.349479857984988E+001	-7.5941467E-001	-3.237604765303842E-002	2.4586845E-005	-7.5957525E-001	0
2.3593047E+004	6.369479857479746E+001	-7.6145071E-001	-3.227436818027241E-002	2.4575340E-005	-7.6157516E-001	0
2.3652396E+004	6.389479856974503E+001	-7.6344097E-001	-3.227753221620167E-002	2.4641990E-005	-7.6357514E-001	0
2.3803465E+004	6.409479856469261E+001	-7.6542795E-001	-3.215615705337771E-002	2.4613220E-005	-7.6557493E-001	0
2.3839578E+004	6.429479855964019E+001	-7.6744288E-001	-3.219196480110720E-002	2.4705494E-005	-7.6757497E-001	0
2.3976014E+004	6.449479855458776E+001	-7.6942837E-001	-3.209158807360429E-002	2.4692179E-005	-7.6957476E-001	0
2.4191531E+004	6.469479854953534E+001	-7.7143353E-001	-3.188857742555673E-002	2.4599918E-005	-7.7157474E-001	0
2.4228373E+004	6.489479854448291E+001	-7.7346092E-001	-3.192376588997081E-002	2.4691786E-005	-7.7357465E-001	0
2.4366209E+004	6.509479853943049E+001	-7.7543753E-001	-3.182429852003182E-002	2.4677756E-005	-7.7557462E-001	0
2.4496266E+004	6.529479853437806E+001	-7.7742982E-001	-3.173666710193446E-002	2.4673031E-005	-7.7757442E-001	0
2.4573998E+004	6.549479852932564E+001	-7.7941161E-001	-3.171692343503679E-002	2.4720539E-005	-7.7957445E-001	0
2.4713021E+004	6.569479852427321E+001	-7.8141820E-001	-3.161969494820066E-002	2.4708204E-005	-7.8157425E-001	0
2.4849225E+004	6.589479851922079E+001	-7.8347588E-001	-3.152918753973394E-002	2.4702358E-005	-7.8357434E-001	0
2.4974988E+004	6.609479851416836E+001	-7.8547585E-001	-3.145049922136581E-002	2.4703608E-005	-7.8557414E-001	0
2.5018885E+004	6.629459850912099E+001	-7.8740948E-001	-3.147260558156850E-002	2.4781828E-005	-7.8757411E-001	0
2.5121719E+004	6.649459850406856E+001	-7.8945309E-001	-3.142512319271629E-002	2.4808660E-005	-7.8957397E-001	0
2.5210953E+004	6.669459849901614E+001	-7.9140562E-001	-3.139134010040279E-002	2.4843283E-005	-7.9157382E-001	0
2.5418463E+004	6.689459849396371E+001	-7.9347748E-001	-3.121658064643563E-002	2.4769653E-005	-7.9357380E-001	0
2.5517209E+004	6.709459848891129E+001	-7.9544526E-001	-3.117289557148087E-002	2.4796333E-005	-7.9557371E-001	0
2.5641191E+004	6.729459848385886E+001	-7.9738969E-001	-3.109799708580801E-002	2.4797222E-005	-7.9757363E-001	0
2.5725324E+004	6.749459847880644E+001	-7.9944313E-001	-3.107611547237954E-002	2.4843586E-005	-7.9957354E-001	0
2.5879311E+004	6.769459847375401E+001	-8.0143344E-001	-3.096811425826734E-002	2.4818883E-005	-8.0157346E-001	0
2.5762199E+004	6.789459846870159E+001	-8.0342126E-001	-3.118605055828322E-002	2.5055537E-005	-8.0357343E-001	0
2.6099676E+004	6.809459846364916E+001	-8.0536431E-001	-3.085725298843012E-002	2.4851330E-005	-8.0557334E-001	0
2.6129896E+004	6.829459845859674E+001	-8.0747581E-001	-3.090237310634558E-002	2.4952918E-005	-8.0757314E-001	0
2.6427248E+004	6.849459845354431E+001	-8.0947715E-001	-3.063039964327879E-002	2.4794608E-005	-8.0957311E-001	0
2.6424205E+004	6.869459844849189E+001	-8.1144983E-001	-3.070857974805155E-002	2.4918472E-005	-8.1157303E-001	0
2.6423189E+004	6.889459844343946E+001	-8.1340671E-001	-3.078381990952644E-002	2.5039766E-005	-8.1357300E-001	0
2.6672953E+004	6.909459843838704E+001	-8.1546527E-001	-3.057274072037169E-002	2.4931009E-005	-8.1557280E-001	0
2.6597047E+004	6.929459843333461E+001	-8.1742537E-001	-3.073368932525966E-002	2.5122497E-005	-8.1757283E-001	0
2.6871111E+004	6.949459842828219E+001	-8.1946123E-001	-3.049599295804090E-002	2.4990284E-005	-8.1957263E-001	0
2.6975719E+004	6.969459842322976E+001	-8.2143277E-001	-3.045082153343803E-002	2.5013303E-005	-8.2157260E-001	0
2.7053355E+004	6.989459841817734E+001	-8.2343102E-001	-3.043729664289027E-002	2.5063015E-005	-8.2357246E-001	0
2.7069473E+004	7.009459841312491E+001	-8.2540900E-001	-3.049224475530654E-002	2.5168572E-005	-8.2557231E-001	0
2.7029779E+004	7.029459840807249E+001	-8.2739931E-001	-3.061065677175404E-002	2.5327236E-005	-8.2757229E-001	0
2.7086445E+004	7.049459840302006E+001	-8.2941574E-001	-3.062106237790074E-002	2.5397590E-005	-8.2957220E-001	0
2.7225758E+004	7.069449839797016E+001	-8.3144170E-001	-3.053879032286652E-002	2.5391224E-005	-8.3157122E-001	0
2.7282721E+004	7.089449839291774E+001	-8.3342528E-001	-3.054773265698120E-002	2.5459252E-005	-8.3357251E-001	0
2.7155627E+004	7.109439838786784E+001	-8.3544087E-001	-3.076492618904568E-002	2.5702277E-005	-8.3557194E-001	0
2.7003008E+004	7.129439838281542E+001	-8.3737850E-001	-3.101056507422195E-002	2.5967580E-005	-8.3757180E-001	0
2.6993953E+004	7.149439837776299E+001	-8.3940017E-001	-3.109585850255647E-002	2.6101869E-005	-8.3957183E-001	0
2.7158043E+004	7.169439837271057E+001	-8.4144521E-001	-3.098327799303158E-002	2.6070731E-005	-8.4157163E-001	0
2.7301113E+004	7.189439836765814E+001	-8.4339762E-001	-3.089242540996828E-002	2.6054598E-005	-8.4357160E-001	0
2.7116346E+004	7.209439836260572E+001	-8.4541130E-001	-3.117718494944949E-002	2.6357544E-005	-8.4557152E-001	0
2.7251094E+004	7.229439835755329E+001	-8.4740508E-001	-3.109618575711348E-002	2.6351066E-005	-8.4757149E-001	0
2.6990002E+004	7.249439835250087E+001	-8.4943140E-001	-3.147207606423338E-002	2.6733369E-005	-8.4957129E-001	0
2.6891574E+004	7.269439834744844E+001	-8.5145903E-001	-3.166266947497928E-002	2.6959466E-005	-8.5157132E-001	0
2.6567020E+004	7.289439834239602E+001	-8.5348231E-001	-3.212563305393146E-002	2.7418659E-005	-8.5357112E-001	0
2.6260125E+004	7.309439833734359E+001	-8.5537905E-001	-3.257330523301208E-002	2.7862523E-005	-8.5557109E-001	0
2.5948061E+004	7.329439833229117E+001	-8.5751635E-001	-3.304741491247903E-002	2.8338698E-005	-8.5757095E-001	0
2.5647787E+004	7.349439832723874E+001	-8.5938424E-001	-3.350714880438793E-002	2.8795515E-005	-8.5957080E-001	0
2.5232375E+004	7.369439832218632E+001	-8.6146808E-001	-3.414138020470298E-002	2.9411709E-005	-8.6157084E-001	0
2.4675531E+004	7.389439831713389E+001	-8.6342692E-001	-3.499121906509306E-002	3.0212361E-005	-8.6357069E-001	0
2.4076502E+004	7.409439831208147E+001	-8.6546624E-001	-3.594651119255557E-002	3.1110492E-005	-8.6557060E-001	0
2.3271326E+004	7.429439830702904E+001	-8.6742234E-001	-3.727429843208896E-002	3.2332558E-005	-8.6757052E-001	0
2.2484693E+004	7.449439830197662E+001	-8.6942887E-001	-3.866758834794481E-002	3.3618719E-005	-8.6957043E-001	0
2.1625359E+004	7.469439829692419E+001	-8.7142795E-001	-4.029657600749526E-002	3.5115561E-005	-8.7157041E-001	0
2.0589035E+004	7.489439829187177E+001	-8.7343138E-001	-4.242216082962438E-002	3.7052847E-005	-8.7357032E-001	0
1.9516148E+004	7.509439828681934E+001	-8.7545621E-001	-4.485804399754234E-002	3.9271254E-005	-8.7557012E-001	0
1.8515607E+004	7.529429828176944E+001	-8.7738156E-001	-4.738605128592410E-002	4.1575648E-005	-8.7756944E-001	0
1.7447904E+004	7.549419827671954E+001	-8.7945336E-001	-5.040452431078557E-002	4.4328430E-005	-8.7957001E-001	0
1.6302076E+004	7.569419827166712E+001	-8.8137174E-001	-5.406499805843312E-002	4.7651360E-005	-8.8156998E-001	0
1.5268046E+004	7.589419826661469E+001	-8.8343388E-001	-5.786161995471750E-002	5.1116916E-005	-8.8356978E-001	0
1.4203529E+004	7.609419826156227E+001	-8.8547689E-001	-6.234203058014076E-002	5.5202428E-005	-8.8556981E-001	0
1.3232133E+004	7.629419825650984E+001	-8.8748163E-001	-6.707018845959611E-002	5.9523562E-005	-8.8756967E-001	0
1.2401424E+004	7.649419825145742E+001	-8.8938200E-001	-7.171611993282179E-002	6.3783024E-005	-8.8956958E-001	0
1.1302255E+004	7.670419824615237E+001	-8.9150774E-001	-7.887875195821575E-002	7.0321017E-005	-8.9166951E-001	0
1.0445229E+004	7.691419824084733E+001	-8.9360076E-001	-8.555109082571230E-002	7.6448523E-005	-8.9376932E-001	0
9.9084199E+003	7.711419823579490E+001	-8.9561659E-001	-9.038944652329406E-002	8.0954291E-005	-8.9576930E-001	0
9.4107813E+003	7.731419823074248E+001	-8.9762408E-001	-9.538252783576040E-002	8.5617656E-005	-8.9776921E-001	0
8.9320654E+003	7.751419822569005E+001	-8.9959800E-001	-1.007155677992140E-001	9.0603520E-005	-8.9976913E-001	0
8.4570742E+003	7.771419822063763E+001	-9.0168083E-001	-1.066185349541513E-001	9.6135889E-005	-9.0176898E-001	0
7.9405024E+003	7.791419821558520E+001	-9.0364534E-001	-1.138020366696373E-001	1.0283668E-004	-9.0376902E-001	0
7.4282246E+003	7.811419821053278E+001	-9.0563172E-001	-1.219176565404655E-001	1.1041250E-004	-9.0576887E-001	0
6.8703545E+003	7.831419820548035E+001	-9.0761530E-001	-1.321060398536518E-001	1.1990147E-004	-9.0776986E-001	0
6.3186660E+003	7.851419820042793E+001	-9.0962338E-001	-1.439581316971812E-001	1.3094768E-004	-9.0976983E-001	0
5.7626958E+003	7.871419819537550E+001	-9.1158563E-001	-1.581873635723432E-001	1.4420133E-004	-9.1176987E-001	0
5.1990034E+003	7.891419819032308E+001	-9.1364348E-001	-1.757343491009307E-001	1.6055854E-004	-9.1376990E-001	0
4.6974468E+003	7.911419818527065E+001	-9.1560394E-001	-1.949152262245724E-001	1.7846515E-004	-9.1576988E-001	0
4.2032573E+003	7.931419818021823E+001	-9.1762954E-001	-2.183139074842977E-001	2.0033128E-004	-9.1776985E-001	0
3.7493772E+003	7.951419817516580E+001	-9.1960895E-001	-2.452697856858581E-001	2.2555228E-004	-9.1976988E-001	0
3.2361907E+003	7.971419817011338E+001	-9.2163765E-001	-2.847908930008263E-001	2.6247400E-004	-9.2176986E-001	0
2.9004675E+003	7.991419816506095E+001	-9.2362380E-001	-3.184396355157371E-001	2.9411842E-004	-9.2376983E-001	0
2.5813115E+003	8.011419816000853E+001	-9.2563653E-001	-3.585915526928476E-001	3.3192543E-004	-9.2576993E-001	0
2.2219902E+003	8.031419815495610E+001	-9.2765939E-001	-4.174903314222718E-001	3.8728883E-004	-9.2776990E-001	0
1.9899604E+003	8.051419814990368E+001	-9.2963082E-001	-4.671604473676023E-001	4.3428675E-004	-9.2976987E-001	0
1.7289349E+003	8.071419814485125E+001	-9.3167812E-001	-5.388740243985755E-001	5.0205714E-004	-9.3176985E-001	0
1.5426476E+003	8.091419813979883E+001	-9.3363440E-001	-6.052156048457298E-001	5.6505011E-004	-9.3376994E-001	0
1.3400027E+003	8.111419813474640E+001	-9.3564540E-001	-6.982414393586520E-001	6.5330637E-004	-9.3576998E-001	0
1.1842050E+003	8.131419812969398E+001	-9.3764597E-001	-7.917936713669214E-001	7.4242213E-004	-9.3776989E-001	0
1.0476173E+003	8.151419812464155E+001	-9.3964106E-001	-8.969315597512981E-001	8.4279373E-004	-9.3976986E-001	0
9.2232465E+002	8.172419811933651E+001	-9.4171357E-001	-1.021021830814117E+000	9.6151012E-004	-9.4186997E-001	0
8.1230524E+002	8.193419811403146E+001	-9.4380897E-001	-1.161889540635540E+000	1.0966018E-003	-9.4396985E-001	0
7.2170648E+002	8.213419810897904E+001	-9.4582802E-001	-1.310543871985205E+000	1.2395491E-003	-9.4596994E-001	0
6.4063434E+002	8.233419810392661E+001	-9.4785249E-001	-1.479553059934567E+000	1.4023981E-003	-9.4796991E-001	0
5.6895697E+002	8.253419809887419E+001	-9.4985044E-001	-1.669459235505991E+000	1.5857366E-003	-9.4996989E-001	0
5.0937579E+002	8.273419809382176E+001	-9.5182037E-001	-1.868601519318808E+000	1.7785730E-003	-9.5196986E-001	0
4.5597214E+002	8.293419808876934E+001	-9.5381463E-001	-2.091826501667775E+000	1.9952147E-003	-9.5396996E-001	0
4.0976285E+002	8.313419808371691E+001	-9.5582926E-001	-2.332640161708227E+000	2.2296058E-003	-9.5596993E-001	0
3.6871472E+002	8.333419807866449E+001	-9.5782816E-001	-2.597748570228656E+000	2.4881968E-003	-9.5796984E-001	0
3.3312549E+002	8.353419807361206E+001	-9.5983136E-001	-2.881290601697344E+000	2.7655531E-003	-9.5996988E-001	0
3.0143253E+002	8.373419806855964E+001	-9.6175969E-001	-3.190630072622206E+000	3.0686194E-003	-9.6196997E-001	0
2.7418124E+002	8.393419806350721E+001	-9.6380961E-001	-3.515228197654359E+000	3.3880107E-003	-9.6396983E-001	0
2.4941388E+002	8.413419805845479E+001	-9.6583754E-001	-3.872428992809631E+000	3.7401372E-003	-9.6596986E-001	0
2.2794325E+002	8.433419805340236E+001	-9.6787131E-001	-4.246106312726369E+000	4.1096844E-003	-9.6796989E-001	0
2.0939011E+002	8.453419804834994E+001	-9.6986699E-001	-4.631866481028430E+000	4.4922945E-003	-9.6996987E-001	0
1.9248828E+002	8.473419804329751E+001	-9.7181886E-001	-5.048716936691278E+000	4.9064383E-003	-9.7196984E-001	0
1.7770325E+002	8.493419803824509E+001	-9.7383434E-001	-5.480115745714983E+000	5.3367247E-003	-9.7396988E-001	0
1.6410632E+002	8.513419803319266E+001	-9.7584194E-001	-5.946400483246606E+000	5.8027469E-003	-9.7596985E-001	0
1.5226692E+002	8.533419802814024E+001	-9.7781760E-001	-6.421733632818928E+000	6.2792841E-003	-9.7796983E-001	0
1.4168365E+002	8.553419802308781E+001	-9.7981071E-001	-6.915481431616655E+000	6.7758630E-003	-9.7996992E-001	0
1.3211320E+002	8.573419801803539E+001	-9.8184031E-001	-7.431810164667894E+000	7.2968509E-003	-9.8196989E-001	0
1.2348429E+002	8.593419801298296E+001	-9.8384136E-001	-7.967340444964320E+000	7.8385994E-003	-9.8396987E-001	0
1.1564523E+002	8.613419800793054E+001	-9.8587537E-001	-8.524997710708538E+000	8.4045855E-003	-9.8596984E-001	0
1.0854740E+002	8.633419800287811E+001	-9.8782629E-001	-9.100414282610638E+000	8.9896284E-003	-9.8796982E-001	0
1.0210152E+002	8.653419799782569E+001	-9.8985261E-001	-9.694788787911037E+000	9.5964121E-003	-9.8996979E-001	0
9.6351227E+001	8.673419799277326E+001	-9.9187219E-001	-1.029433938495964E+001	1.0210669E-002	-9.9196982E-001	0
9.0690247E+001	8.694419798746821E+001	-9.9394602E-001	-1.095978975667038E+001	1.0893439E-002	-9.9406993E-001	0
8.5474052E+001	8.715419798216317E+001	-9.9604648E-001	-1.165320335467112E+001	1.1607132E-002	-9.9616975E-001	0
8.1103722E+001	8.735419797711074E+001	-9.9801266E-001	-1.230538621342100E+001	1.2280932E-002	-9.9816978E-001	0
7.7025940E+001	8.755419797205832E+001	-1.0000114E+000	-1.298278810877920E+001	1.2982937E-002	-1.0001699E+000	0
7.3317558E+001	8.775419796700589E+001	-1.0020502E+000	-1.366726037326036E+001	1.3695280E-002	-1.0021698E+000	0
6.9794502E+001	8.795419796195347E+001	-1.0040685E+000	-1.438606782267698E+001	1.4444597E-002	-1.0041698E+000	0
6.6607613E+001	8.815419795690104E+001	-1.0060608E+000	-1.510429197779597E+001	1.5195836E-002	-1.0061698E+000	0
6.3626816E+001	8.835419795184862E+001	-1.0080645E+000	-1.584339041490948E+001	1.5971160E-002	-1.0081699E+000	0
6.0867298E+001	8.855419794679619E+001	-1.0100591E+000	-1.659444619306366E+001	1.6761372E-002	-1.0101699E+000	0
5.8312721E+001	8.875419794174377E+001	-1.0120560E+000	-1.735566383613747E+001	1.7564904E-002	-1.0121698E+000	0
5.5920898E+001	8.895419793669134E+001	-1.0140527E+000	-1.813369880052380E+001	1.8388527E-002	-1.0141699E+000	0
5.3692387E+001	8.915419793163892E+001	-1.0160204E+000	-1.892298841125029E+001	1.9226143E-002	-1.0161698E+000	0
5.1565296E+001	8.935419792658649E+001	-1.0180643E+000	-1.974320639734097E+001	2.0099852E-002	-1.0181698E+000	0
4.9594234E+001	8.955419792153407E+001	-1.0200908E+000	-2.056873883884776E+001	2.0981982E-002	-1.0201699E+000	0
4.7771034E+001	8.975419791648164E+001	-1.0220678E+000	-2.139513569908068E+001	2.1867279E-002	-1.0221699E+000	0
4.5978634E+001	8.995419791142922E+001	-1.0240490E+000	-2.227228038178544E+001	2.2807907E-002	-1.0241698E+000	0
4.4295525E+001	9.015419790637679E+001	-1.0260649E+000	-2.316407465515761E+001	2.3767844E-002	-1.0261698E+000	0
4.2746586E+001	9.035419790132437E+001	-1.0280931E+000	-2.405088194873596E+001	2.4726545E-002	-1.0281699E+000	0
4.1273228E+001	9.055419789627194E+001	-1.0300789E+000	-2.495755628677176E+001	2.5708253E-002	-1.0301698E+000	0
3.9874855E+001	9.075419789121952E+001	-1.0320948E+000	-2.588335099809575E+001	2.6714073E-002	-1.0321698E+000	0
3.8524117E+001	9.095419788616709E+001	-1.0340914E+000	-2.684270230523578E+001	2.7757807E-002	-1.0341698E+000	0
3.7256798E+001	9.115419788111467E+001	-1.0360525E+000	-2.780841510636463E+001	2.8810978E-002	-1.0361698E+000	0
3.6059467E+001	9.135419787606224E+001	-1.0380601E+000	-2.878744975374400E+001	2.9883102E-002	-1.0381699E+000	0
3.4939682E+001	9.155419787100982E+001	-1.0400736E+000	-2.976769041609609E+001	3.0960590E-002	-1.0401698E+000	0
3.3860367E+001	9.175419786595739E+001	-1.0420554E+000	-3.077507781549915E+001	3.2069337E-002	-1.0421699E+000	0
3.2817631E+001	9.195419786090497E+001	-1.0440435E+000	-3.181349342804648E+001	3.3214673E-002	-1.0441699E+000	0
3.1833838E+001	9.215419785585254E+001	-1.0460470E+000	-3.285959345467234E+001	3.4372680E-002	-1.0461699E+000	0
3.0898209E+001	9.235419785080012E+001	-1.0480986E+000	-3.392101348879112E+001	3.5552565E-002	-1.0481699E+000	0
2.9997406E+001	9.255419784574769E+001	-1.0501072E+000	-3.500660073351685E+001	3.6760684E-002	-1.0501699E+000	0
2.9132954E+001	9.275419784069527E+001	-1.0520895E+000	-3.611338158745889E+001	3.7994508E-002	-1.0521699E+000	0
2.8292753E+001	9.295419783564284E+001	-1.0540856E+000	-3.725638205096828E+001	3.9271418E-002	-1.0541699E+000	0
2.7501793E+001	9.315419783059042E+001	-1.0560713E+000	-3.840008956234479E+001	4.0553231E-002	-1.0561699E+000	0
2.6731083E+001	9.335419782553799E+001	-1.0580342E+000	-3.958066931603437E+001	4.1877702E-002	-1.0581698E+000	0
2.5994286E+001	9.355419782048557E+001	-1.0600712E+000	-4.078093205747143E+001	4.3230694E-002	-1.0601699E+000	0
2.5322401E+001	9.375419781543314E+001	-1.0621125E+000	-4.194359276462308E+001	4.4548813E-002	-1.0621699E+000	0
2.4653620E+001	9.395419781038072E+001	-1.0641131E+000	-4.316255143196946E+001	4.5929838E-002	-1.0641699E+000	0
2.4036684E+001	9.415419780532829E+001	-1.0660827E+000	-4.435232117062509E+001	4.7283243E-002	-1.0661699E+000	0
2.3426222E+001	9.435419780027587E+001	-1.0681126E+000	-4.559474643720245E+001	4.8700325E-002	-1.0681698E+000	0
2.2854088E+001	9.455419779522344E+001	-1.0700645E+000	-4.682158118310713E+001	5.0102115E-002	-1.0701699E+000	0
2.2340059E+001	9.475419779017102E+001	-1.0720379E+000	-4.798724571944922E+001	5.1444147E-002	-1.0721699E+000	0
2.1801287E+001	9.495419778511859E+001	-1.0740911E+000	-4.926732422678356E+001	5.2917592E-002	-1.0741699E+000	0
2.1303900E+001	9.515419778006617E+001	-1.0760819E+000	-5.051102654409556E+001	5.4354001E-002	-1.0761698E+000	0
2.0825190E+001	9.535419777501374E+001	-1.0781095E+000	-5.176949370853481E+001	5.5813182E-002	-1.0781699E+000	0
2.0319513E+001	9.555419776996132E+001	-1.0801141E+000	-5.315649749686673E+001	5.7415083E-002	-1.0801699E+000	0
1.9831059E+001	9.575419776490889E+001	-1.0820873E+000	-5.456527849822385E+001	5.9044395E-002	-1.0821699E+000	0
1.9391315E+001	9.595419775985647E+001	-1.0841016E+000	-5.590654977162717E+001	6.0608380E-002	-1.0841699E+000	0
1.8951784E+001	9.615419775480405E+001	-1.0860786E+000	-5.730746265603875E+001	6.2240411E-002	-1.0861698E+000	0
1.8532738E+001	9.635419774975162E+001	-1.0880892E+000	-5.871173544265241E+001	6.3883610E-002	-1.0881699E+000	0
1.8157654E+001	9.655419774469920E+001	-1.0901140E+000	-6.003606210436124E+001	6.5446153E-002	-1.0901699E+000	0
1.7786236E+001	9.675419773964677E+001	-1.0920823E+000	-6.140041763982541E+001	6.7054309E-002	-1.0921700E+000	0
1.7414555E+001	9.695419773459435E+001	-1.0940554E+000	-6.282419757724097E+001	6.8733156E-002	-1.0941699E+000	0
1.7071705E+001	9.715419772954192E+001	-1.0960847E+000	-6.420475729198407E+001	7.0373856E-002	-1.0961698E+000	0
1.6711552E+001	9.735419772448950E+001	-1.0981218E+000	-6.571034414697954E+001	7.2157957E-002	-1.0981699E+000	0
1.6370543E+001	9.755419771943707E+001	-1.1000928E+000	-6.719952950401921E+001	7.3925719E-002	-1.1001699E+000	0
1.6058588E+001	9.775419771438465E+001	-1.1020874E+000	-6.862915931861698E+001	7.5635329E-002	-1.1021699E+000	0
1.5771442E+001	9.795419770933222E+001	-1.1040765E+000	-7.000479136843241E+001	7.7290647E-002	-1.1041698E+000	0
1.5423328E+001	9.815419770427980E+001	-1.1061521E+000	-7.171941188673827E+001	7.9332575E-002	-1.1061698E+000	0
1.5123272E+001	9.835419769922737E+001	-1.1081327E+000	-7.327334482653612E+001	8.1196591E-002	-1.1081698E+000	0
1.4859482E+001	9.855419769417495E+001	-1.1101273E+000	-7.470834976637400E+001	8.2935780E-002	-1.1101699E+000	0
1.4576244E+001	9.875419768912252E+001	-1.1122149E+000	-7.630325500008212E+001	8.4865622E-002	-1.1121699E+000	0
1.4301919E+001	9.895419768407010E+001	-1.1141547E+000	-7.790246402000878E+001	8.6795397E-002	-1.1141698E+000	0
1.4011947E+001	9.915419767901767E+001	-1.1161768E+000	-7.965894339252229E+001	8.8913471E-002	-1.1161698E+000	0
1.3756267E+001	9.935419767396525E+001	-1.1181440E+000	-8.128252349959490E+001	9.0885572E-002	-1.1181699E+000	0
1.3531876E+001	9.955419766891282E+001	-1.1201462E+000	-8.277833459869248E+001	9.2723832E-002	-1.1201700E+000	0
1.3307042E+001	9.975419766386040E+001	-1.1221715E+000	-8.432914900076935E+001	9.4631769E-002	-1.1221699E+000	0
1.3051104E+001	9.995419765880797E+001	-1.1241577E+000	-8.613506395584335E+001	9.6829392E-002	-1.1241698E+000	0
1.2844073E+001	1.001541976537555E+002	-1.1261395E+000	-8.767775476114025E+001	9.8737381E-002	-1.1261698E+000	0
1.2651820E+001	1.003541976487031E+002	-1.1281683E+000	-8.917043717377919E+001	1.0059927E-001	-1.1281699E+000	0
1.2368877E+001	1.005541976436507E+002	-1.1301844E+000	-9.137323768284834E+001	1.0326861E-001	-1.1301699E+000	0
1.2101643E+001	1.007541976385983E+002	-1.1321872E+000	-9.355649649691424E+001	1.0592347E-001	-1.1321698E+000	0
1.1948709E+001	1.009541976335458E+002	-1.1342160E+000	-9.492372476162564E+001	1.0766400E-001	-1.1341699E+000	0
1.1765645E+001	1.011541976284934E+002	-1.1361729E+000	-9.656698866117540E+001	1.0971680E-001	-1.1361698E+000	0
1.1598370E+001	1.013541976234410E+002	-1.1381477E+000	-9.812997815452172E+001	1.1168641E-001	-1.1381699E+000	0
1.1434416E+001	1.015541976183886E+002	-1.1401762E+000	-9.971442113333501E+001	1.1369201E-001	-1.1401700E+000	0
1.1254491E+001	1.017541976133361E+002	-1.1421374E+000	-1.014828121764861E+002	1.1590732E-001	-1.1421700E+000	0
1.1058620E+001	1.019541976082837E+002	-1.1442176E+000	-1.034683884568763E+002	1.1839035E-001	-1.1441699E+000	0
1.0866820E+001	1.021541976032313E+002	-1.1461331E+000	-1.054708741678937E+002	1.2088366E-001	-1.1461699E+000	0
1.0720723E+001	1.023541975981789E+002	-1.1481971E+000	-1.071007129794612E+002	1.2297273E-001	-1.1481699E+000	0
1.0553631E+001	1.025541975931264E+002	-1.1501818E+000	-1.089844620135909E+002	1.2535194E-001	-1.1501700E+000	0
1.0308205E+001	1.027941975870635E+002	-1.1525395E+000	-1.118079706270735E+002	1.2886310E-001	-1.1525699E+000	0
1.0158208E+001	1.029941975820111E+002	-1.1545429E+000	-1.136561605081540E+002	1.3122092E-001	-1.1545699E+000	0
1.0022317E+001	1.031941975769587E+002	-1.1565371E+000	-1.153961775373174E+002	1.3345996E-001	-1.1565698E+000	0
9.8639593E+000	1.033941975719063E+002	-1.1585444E+000	-1.174522756762517E+002	1.3607368E-001	-1.1585699E+000	0
9.7403679E+000	1.035941975668538E+002	-1.1605163E+000	-1.191450169329739E+002	1.3826972E-001	-1.1605699E+000	0
9.5688963E+000	1.037941975618014E+002	-1.1625316E+000	-1.214906660294041E+002	1.4123674E-001	-1.1625699E+000	0
9.4396343E+000	1.039941975567490E+002	-1.1645346E+000	-1.233664908960561E+002	1.4366454E-001	-1.1645699E+000	0
9.3251238E+000	1.041941975516966E+002	-1.1665558E+000	-1.250981554941798E+002	1.4593397E-001	-1.1665698E+000	0
9.1583195E+000	1.043941975466441E+002	-1.1685495E+000	-1.275943165312008E+002	1.4910027E-001	-1.1685699E+000	0
9.0339661E+000	1.045941975415917E+002	-1.1705552E+000	-1.295726796904928E+002	1.5167198E-001	-1.1705699E+000	0
8.8559055E+000	1.047941975365393E+002	-1.1725379E+000	-1.324018077774651E+002	1.5524614E-001	-1.1725699E+000	0
8.7436161E+000	1.049941975314869E+002	-1.1745336E+000	-1.343304244363662E+002	1.5777560E-001	-1.1745698E+000	0
8.6587248E+000	1.051941975264344E+002	-1.1764992E+000	-1.358744201389837E+002	1.5985616E-001	-1.1765698E+000	0
8.5638094E+000	1.053941975213820E+002	-1.1785240E+000	-1.376167909693555E+002	1.6218470E-001	-1.1785699E+000	0
8.4743929E+000	1.055941975163296E+002	-1.1805539E+000	-1.393083690396779E+002	1.6446105E-001	-1.1805699E+000	0
8.3739414E+000	1.057941975112772E+002	-1.1825105E+000	-1.412131300383412E+002	1.6698600E-001	-1.1825699E+000	0
8.2498932E+000	1.059941975062247E+002	-1.1845150E+000	-1.435794351679399E+002	1.7007199E-001	-1.1845698E+000	0
8.1102333E+000	1.061941975011723E+002	-1.1865473E+000	-1.463024800586063E+002	1.7359480E-001	-1.1865699E+000	0
7.9742136E+000	1.063941974961199E+002	-1.1885380E+000	-1.490476731226822E+002	1.7714882E-001	-1.1885699E+000	0
7.8414083E+000	1.065941974910675E+002	-1.1905477E+000	-1.518283053450032E+002	1.8075883E-001	-1.1905699E+000	0
7.7447829E+000	1.067941974860150E+002	-1.1925600E+000	-1.539823574544080E+002	1.8363319E-001	-1.1925700E+000	0
7.6005688E+000	1.069941974809626E+002	-1.1945618E+000	-1.571674246182520E+002	1.8774621E-001	-1.1945698E+000	0
7.5039392E+000	1.071941974759102E+002	-1.1965394E+000	-1.594548330058313E+002	1.9079399E-001	-1.1965699E+000	0
7.4236002E+000	1.073941974708578E+002	-1.1985378E+000	-1.614496768964392E+002	1.9350354E-001	-1.1985699E+000	0
7.3686571E+000	1.075941974658053E+002	-1.2005547E+000	-1.629272117582309E+002	1.9560303E-001	-1.2005700E+000	0
7.2566953E+000	1.077941974607529E+002	-1.2025478E+000	-1.657156229689549E+002	1.9928096E-001	-1.2025698E+000	0
7.1573176E+000	1.079941974557005E+002	-1.2045830E+000	-1.683009053714688E+002	2.0273241E-001	-1.2045698E+000	0
7.0593691E+000	1.081941974506481E+002	-1.2065535E+000	-1.709151942746171E+002	2.0621832E-001	-1.2065699E+000	0
6.9507408E+000	1.083941974455956E+002	-1.2085227E+000	-1.738696265069252E+002	2.1012539E-001	-1.2085699E+000	0
6.8762517E+000	1.085941974405432E+002	-1.2105902E+000	-1.760538035704163E+002	2.1312901E-001	-1.2105699E+000	0
6.7653112E+000	1.087941974354908E+002	-1.2125509E+000	-1.792306067635420E+002	2.1732622E-001	-1.2125698E+000	0
6.6655312E+000	1.089941974304384E+002	-1.2145864E+000	-1.822189924452039E+002	2.2132070E-001	-1.2145698E+000	0
6.5937138E+000	1.091941974253859E+002	-1.2165456E+000	-1.845008198355326E+002	2.2445366E-001	-1.2165698E+000	0
6.5036077E+000	1.093941974203335E+002	-1.2185729E+000	-1.873687494790465E+002	2.2832248E-001	-1.2185699E+000	0
6.3808789E+000	1.095941974152811E+002	-1.2205257E+000	-1.912786309000053E+002	2.3346049E-001	-1.2205700E+000	0
6.3101664E+000	1.097941974102287E+002	-1.2225753E+000	-1.937469247798535E+002	2.3687020E-001	-1.2225698E+000	0
6.2243810E+000	1.099941974051762E+002	-1.2245677E+000	-1.967372654971077E+002	2.4091808E-001	-1.2245698E+000	0
6.1561580E+000	1.101941974001238E+002	-1.2265683E+000	-1.992425024190457E+002	2.4438454E-001	-1.2265699E+000	0
6.1093278E+000	1.103941973950714E+002	-1.2286116E+000	-2.011042119024023E+002	2.4707897E-001	-1.2285699E+000	0
6.0420771E+000	1.105941973900190E+002	-1.2306001E+000	-2.036717012496215E+002	2.5063843E-001	-1.2305700E+000	0
5.9885111E+000	1.107941973849665E+002	-1.2325442E+000	-2.058181273423625E+002	2.5367993E-001	-1.2325698E+000	0
5.9565086E+000	1.109941973799141E+002	-1.2345901E+000	-2.072674015654998E+002	2.5589028E-001	-1.2345699E+000	0
5.9047489E+000	1.111941973748617E+002	-1.2365298E+000	-2.094127704529542E+002	2.5894514E-001	-1.2365699E+000	0
5.8265705E+000	1.113941973698093E+002	-1.2385732E+000	-2.125732848282032E+002	2.6328757E-001	-1.2385699E+000	0
5.7737842E+000	1.115941973647568E+002	-1.2405518E+000	-2.148593967377192E+002	2.6654422E-001	-1.2405698E+000	0
5.7386937E+000	1.117941973597044E+002	-1.2426170E+000	-2.165330759230119E+002	2.6906767E-001	-1.2425699E+000	0
5.6595254E+000	1.119941973546520E+002	-1.2445692E+000	-2.199069887645664E+002	2.7368945E-001	-1.2445699E+000	0
5.6025224E+000	1.121941973495996E+002	-1.2465632E+000	-2.225003460345624E+002	2.7736074E-001	-1.2465699E+000	0
5.5253611E+000	1.123941973445471E+002	-1.2485631E+000	-2.259694883493603E+002	2.8213716E-001	-1.2485700E+000	0
5.4887180E+000	1.125941973394947E+002	-1.2505473E+000	-2.278395934461741E+002	2.8492418E-001	-1.2505699E+000	0
5.4693236E+000	1.127941973344423E+002	-1.2525706E+000	-2.290174709696351E+002	2.8686056E-001	-1.2525699E+000	0
5.4469709E+000	1.129941973293899E+002	-1.2545547E+000	-2.303215430599221E+002	2.8895098E-001	-1.2545699E+000	0
5.3027520E+000	1.131941973243374E+002	-1.2565825E+000	-2.369679928993683E+002	2.9776984E-001	-1.2565699E+000	0
5.2268257E+000	1.133942973192825E+002	-1.2585796E+000	-2.407923426456775E+002	3.0305633E-001	-1.2585707E+000	0
5.2103372E+000	1.135945973142225E+002	-1.2606066E+000	-2.419433863852178E+002	3.0499545E-001	-1.2605734E+000	0
5.1420631E+000	1.137949973091600E+002	-1.2626096E+000	-2.455453209733232E+002	3.1002787E-001	-1.2625775E+000	0
5.1197338E+000	1.139954973040949E+002	-1.2645687E+000	-2.469989066826902E+002	3.1234708E-001	-1.2645822E+000	0
5.0983839E+000	1.141960972990273E+002	-1.2665751E+000	-2.484267786678611E+002	3.1465116E-001	-1.2665883E+000	0
5.0285344E+000	1.143964972939648E+002	-1.2686132E+000	-2.522828931838976E+002	3.2004941E-001	-1.2685926E+000	0
4.9896951E+000	1.145967972889048E+002	-1.2706498E+000	-2.546547948179582E+002	3.2357708E-001	-1.2705953E+000	0
4.9419909E+000	1.147971972838423E+002	-1.2726386E+000	-2.575153585895150E+002	3.2772398E-001	-1.2725995E+000	0
4.9018006E+000	1.149975972787797E+002	-1.2746639E+000	-2.600399373592190E+002	3.3146352E-001	-1.2746034E+000	0
4.8745565E+000	1.151979972737172E+002	-1.2766117E+000	-2.618928903947331E+002	3.3433554E-001	-1.2766079E+000	0
4.7706513E+000	1.153983972686547E+002	-1.2786382E+000	-2.680217346574268E+002	3.4270284E-001	-1.2786114E+000	0
4.7521453E+000	1.155986972635947E+002	-1.2806654E+000	-2.694920452314836E+002	3.4512913E-001	-1.2806147E+000	0
4.7141557E+000	1.157989972585347E+002	-1.2826145E+000	-2.720772412281209E+002	3.4897020E-001	-1.2826174E+000	0
4.6368480E+000	1.159993972534721E+002	-1.2846594E+000	-2.770544681282486E+002	3.5592061E-001	-1.2846214E+000	0
4.6061139E+000	1.161999972484045E+002	-1.2866697E+000	-2.793395487999614E+002	3.5941774E-001	-1.2866273E+000	0
4.5951414E+000	1.164004972433395E+002	-1.2886623E+000	-2.804401925220063E+002	3.6139271E-001	-1.2886319E+000	0
4.5549369E+000	1.166009972382744E+002	-1.2906798E+000	-2.833584533697467E+002	3.6572504E-001	-1.2906377E+000	0
4.5244751E+000	1.168012972332144E+002	-1.2926939E+000	-2.857113345432269E+002	3.6933729E-001	-1.2926406E+000	0
4.4863210E+000	1.170018972281468E+002	-1.2946777E+000	-2.885834064697879E+002	3.7362251E-001	-1.2946460E+000	0
4.4063096E+000	1.172023972230818E+002	-1.2966772E+000	-2.942773709081512E+002	3.8158277E-001	-1.2966514E+000	0
4.3816385E+000	1.174028972180167E+002	-1.2987378E+000	-2.964045956054674E+002	3.8495183E-001	-1.2986566E+000	0
4.3557186E+000	1.176031972129567E+002	-1.3007493E+000	-2.986302258198589E+002	3.8844305E-001	-1.3006594E+000	0
4.3139668E+000	1.178035972078942E+002	-1.3026956E+000	-3.019716287346691E+002	3.9337713E-001	-1.3026633E+000	0
4.3071809E+000	1.180038972028342E+002	-1.3046983E+000	-3.029123761010014E+002	3.9520928E-001	-1.3046665E+000	0
4.3119898E+000	1.182040971977767E+002	-1.3067428E+000	-3.030486781483498E+002	3.9600667E-001	-1.3066686E+000	0
4.2985754E+000	1.184045971927117E+002	-1.3087248E+000	-3.044554694722815E+002	3.9844841E-001	-1.3086731E+000	0
4.2362742E+000	1.186051971876441E+002	-1.3107406E+000	-3.094088190559041E+002	4.0555471E-001	-1.3106794E+000	0
4.2218709E+000	1.188054971825841E+002	-1.3126822E+000	-3.109242603881244E+002	4.0814471E-001	-1.3126827E+000	0
4.1900344E+000	1.190056971775266E+002	-1.3147522E+000	-3.137807858226838E+002	4.1254398E-001	-1.3146846E+000	0
4.0987897E+000	1.192059971724666E+002	-1.3167571E+000	-3.212551013592520E+002	4.2301494E-001	-1.3166875E+000	0
4.0303602E+000	1.194064971674015E+002	-1.3187342E+000	-3.272000723865937E+002	4.3148991E-001	-1.3186926E+000	0
4.0168290E+000	1.196069971623365E+002	-1.3207190E+000	-3.287964269395579E+002	4.3424770E-001	-1.3206972E+000	0
3.9858119E+000	1.198074971572714E+002	-1.3227750E+000	-3.318709036688397E+002	4.3899053E-001	-1.3227021E+000	0
3.9526176E+000	1.200081971522013E+002	-1.3247738E+000	-3.351636604917221E+002	4.4401604E-001	-1.3247092E+000	0
3.9503236E+000	1.202083971471438E+002	-1.3267587E+000	-3.358607824957007E+002	4.4560623E-001	-1.3267119E+000	0
3.9607406E+000	1.204084971420889E+002	-1.3287927E+000	-3.354909754259288E+002	4.4579795E-001	-1.3287127E+000	0
3.9322648E+000	1.206086971370314E+002	-1.3307821E+000	-3.384263543597244E+002	4.5037171E-001	-1.3307147E+000	0
3.8991859E+000	1.208090971319689E+002	-1.3327781E+000	-3.418093316442191E+002	4.5555598E-001	-1.3327180E+000	0
3.8785381E+000	1.210094971269064E+002	-1.3348085E+000	-3.441524748088113E+002	4.5937765E-001	-1.3347226E+000	0
3.8416419E+000	1.212095971218514E+002	-1.3367840E+000	-3.479720437986227E+002	4.6516347E-001	-1.3367238E+000	0
3.8031225E+000	1.214098971167914E+002	-1.3388436E+000	-3.520379883646556E+002	4.7132379E-001	-1.3387263E+000	0
3.7535841E+000	1.216103971117263E+002	-1.3408738E+000	-3.572249316062835E+002	4.7899356E-001	-1.3407317E+000	0
3.7173398E+000	1.218106971066663E+002	-1.3428302E+000	-3.612341749948264E+002	4.8507616E-001	-1.3427342E+000	0
3.6866217E+000	1.220110971016038E+002	-1.3448706E+000	-3.647975449888299E+002	4.9060547E-001	-1.3447388E+000	0
3.6573200E+000	1.222113970965438E+002	-1.3468001E+000	-3.682478131865846E+002	4.9595618E-001	-1.3467414E+000	0
3.6529732E+000	1.224116970914838E+002	-1.3488526E+000	-3.692478828702369E+002	4.9806097E-001	-1.3487446E+000	0
3.6513886E+000	1.226118970864263E+002	-1.3508270E+000	-3.699488305551668E+002	4.9973688E-001	-1.3507465E+000	0
3.6472979E+000	1.228121970813663E+002	-1.3527806E+000	-3.708993862432912E+002	5.0174546E-001	-1.3527495E+000	0
3.6279473E+000	1.230128970762962E+002	-1.3548476E+000	-3.734474253715953E+002	5.0596434E-001	-1.3547561E+000	0
3.5852466E+000	1.232132970712337E+002	-1.3568338E+000	-3.784492223840864E+002	5.1349270E-001	-1.3567605E+000	0
3.5544469E+000	1.234134970661762E+002	-1.3588821E+000	-3.823047891436036E+002	5.1950711E-001	-1.3587626E+000	0
3.5310047E+000	1.236137970611162E+002	-1.3608695E+000	-3.854057506631125E+002	5.2448696E-001	-1.3607652E+000	0
3.5219395E+000	1.238141970560537E+002	-1.3628900E+000	-3.869714431280945E+002	5.2739954E-001	-1.3627691E+000	0
3.5353913E+000	1.240146970509886E+002	-1.3648839E+000	-3.860630264730598E+002	5.2693123E-001	-1.3647745E+000	0
3.5510759E+000	1.242147970459337E+002	-1.3669095E+000	-3.849282564953392E+002	5.2616209E-001	-1.3667756E+000	0
3.5453961E+000	1.244150970408737E+002	-1.3689231E+000	-3.861128781731318E+002	5.2855885E-001	-1.3687786E+000	0
3.4980903E+000	1.246151970358187E+002	-1.3709394E+000	-3.919108129682973E+002	5.3728598E-001	-1.3707800E+000	0
3.4681122E+000	1.248154970307587E+002	-1.3728518E+000	-3.958499034676906E+002	5.4344326E-001	-1.3727825E+000	0
3.4590144E+000	1.250155970257038E+002	-1.3748809E+000	-3.974776591562634E+002	5.4648447E-001	-1.3747836E+000	0
3.3886824E+000	1.252155970206513E+002	-1.3768805E+000	-4.063173889454274E+002	5.5945051E-001	-1.3767836E+000	0
3.3318715E+000	1.254155970155989E+002	-1.3788825E+000	-4.138462402144787E+002	5.7064533E-001	-1.3787836E+000	0
3.2864060E+000	1.256155970105465E+002	-1.3809139E+000	-4.201896515800854E+002	5.8024573E-001	-1.3807836E+000	0
3.2705870E+000	1.258155970054941E+002	-1.3829087E+000	-4.228319560762448E+002	5.8473802E-001	-1.3827837E+000	0
3.2667131E+000	1.260155970004416E+002	-1.3849596E+000	-4.239611976476481E+002	5.8716911E-001	-1.3847836E+000	0
3.2518172E+000	1.262155969953892E+002	-1.3869121E+000	-4.265037005591030E+002	5.9152317E-001	-1.3867836E+000	0
3.2270873E+000	1.264155969903368E+002	-1.3889362E+000	-4.303993305111153E+002	5.9779721E-001	-1.3887836E+000	0
3.2066042E+000	1.266155969852844E+002	-1.3909329E+000	-4.337712928529763E+002	6.0334677E-001	-1.3907837E+000	0
3.1713200E+000	1.268155969802319E+002	-1.3929226E+000	-4.392248732984190E+002	6.1180627E-001	-1.3927836E+000	0
3.1717637E+000	1.270155969751795E+002	-1.3949149E+000	-4.397915450548089E+002	6.1347175E-001	-1.3947837E+000	0
3.1720965E+000	1.272155969701271E+002	-1.3969151E+000	-4.403759883136681E+002	6.1516786E-001	-1.3967838E+000	0
3.1376007E+000	1.274155969650747E+002	-1.3988500E+000	-4.458342749061503E+002	6.2365526E-001	-1.3987837E+000	0
3.1269696E+000	1.276155969600222E+002	-1.4009229E+000	-4.480129647763138E+002	6.2763160E-001	-1.4007837E+000	0
3.1489346E+000	1.278155969549698E+002	-1.4029211E+000	-4.455224634676551E+002	6.2503284E-001	-1.4027836E+000	0
3.1265395E+000	1.280155969499174E+002	-1.4049541E+000	-4.493639246103705E+002	6.3133568E-001	-1.4047837E+000	0
3.0834806E+000	1.282155969448650E+002	-1.4068676E+000	-4.562595994521162E+002	6.4189684E-001	-1.4067837E+000	0
3.0525544E+000	1.284155969398125E+002	-1.4088869E+000	-4.615436007181797E+002	6.5026271E-001	-1.4087837E+000	0
3.0142102E+000	1.286155969347601E+002	-1.4109242E+000	-4.680908412371082E+002	6.6044068E-001	-1.4107836E+000	0
3.0362422E+000	1.288155969297077E+002	-1.4129384E+000	-4.653575928486916E+002	6.5752161E-001	-1.4127837E+000	0
3.0356679E+000	1.290155969246553E+002	-1.4149221E+000	-4.660991240737121E+002	6.5949398E-001	-1.4147837E+000	0
2.9887452E+000	1.292155969196028E+002	-1.4169048E+000	-4.740801490299291E+002	6.7172647E-001	-1.4167837E+000	0
2.9742007E+000	1.294155969145504E+002	-1.4189202E+000	-4.770761173144488E+002	6.7693293E-001	-1.4187838E+000	0
2.9183156E+000	1.296155969094980E+002	-1.4209355E+000	-4.869026021979025E+002	6.9185722E-001	-1.4207836E+000	0
2.9348044E+000	1.298155969044456E+002	-1.4229460E+000	-4.848520648160484E+002	6.8991828E-001	-1.4227837E+000	0
2.9088445E+000	1.300155968993931E+002	-1.4251795E+000	-4.899469554667562E+002	6.9826233E-001	-1.4247837E+000	0
2.8793917E+000	1.302155968943407E+002	-1.4274716E+000	-4.957545955856885E+002	7.0767564E-001	-1.4267837E+000	0
2.8801749E+000	1.304155968892883E+002	-1.4294288E+000	-4.962993343552198E+002	7.0942456E-001	-1.4287838E+000	0
2.8731608E+000	1.306155968842359E+002	-1.4314188E+000	-4.982035015997162E+002	7.1313787E-001	-1.4307836E+000	0
2.8553934E+000	1.308155968791834E+002	-1.4334240E+000	-5.020057758236153E+002	7.1958715E-001	-1.4327837E+000	0
2.8182330E+000	1.310155968741310E+002	-1.4353980E+000	-5.093255020453003E+002	7.3108482E-001	-1.4347838E+000	0
2.8179035E+000	1.312155968690786E+002	-1.4373487E+000	-5.100773510143599E+002	7.3315901E-001	-1.4367837E+000	0
2.8064268E+000	1.314155968640262E+002	-1.4394549E+000	-5.129137708962353E+002	7.3831624E-001	-1.4387838E+000	0
2.8064144E+000	1.316155968589737E+002	-1.4414302E+000	-5.136198620742152E+002	7.4034721E-001	-1.4407836E+000	0
2.7758827E+000	1.318155968539213E+002	-1.4434497E+000	-5.199966481180672E+002	7.5058901E-001	-1.4427837E+000	0
2.7770569E+000	1.320155968488689E+002	-1.4455144E+000	-5.205202799816525E+002	7.5241959E-001	-1.4447838E+000	0
2.7670023E+000	1.322155968438165E+002	-1.4473598E+000	-5.230786112744247E+002	7.5708294E-001	-1.4467837E+000	0
2.7799067E+000	1.324155968387640E+002	-1.4494548E+000	-5.214041065337169E+002	7.5575167E-001	-1.4487835E+000	0
2.7744060E+000	1.326155968337116E+002	-1.4515073E+000	-5.231776907654858E+002	7.5939626E-001	-1.4507836E+000	0
2.7697620E+000	1.328155968286592E+002	-1.4534380E+000	-5.247519737338826E+002	7.6269448E-001	-1.4527837E+000	0
2.7179797E+000	1.330155968236068E+002	-1.4555115E+000	-5.355122497498014E+002	7.7944422E-001	-1.4547836E+000	0
2.7375085E+000	1.332155968185543E+002	-1.4574729E+000	-5.324085186506345E+002	7.7597100E-001	-1.4567837E+000	0
2.6881216E+000	1.334155968135019E+002	-1.4594495E+000	-5.429254285808056E+002	7.9237229E-001	-1.4587836E+000	0
2.6296246E+000	1.336155968084495E+002	-1.4615299E+000	-5.557941073246820E+002	8.1230968E-001	-1.4607836E+000	0
2.6655607E+000	1.338155968033971E+002	-1.4634963E+000	-5.490388329607504E+002	8.0351633E-001	-1.4627837E+000	0
2.6617641E+000	1.340155967983446E+002	-1.4654794E+000	-5.505669433784051E+002	8.0684447E-001	-1.4647838E+000	0
2.6631572E+000	1.342155967932922E+002	-1.4674623E+000	-5.510235395539639E+002	8.0860627E-001	-1.4667836E+000	0
2.6464994E+000	1.344155967882398E+002	-1.4694926E+000	-5.552589821026149E+002	8.1594896E-001	-1.4687836E+000	0
2.6618912E+000	1.346155967831874E+002	-1.4714901E+000	-5.527987475189730E+002	8.1343794E-001	-1.4707836E+000	0
2.6461568E+000	1.348155967781349E+002	-1.4734813E+000	-5.568382531682905E+002	8.2049078E-001	-1.4727837E+000	0
2.5978818E+000	1.350155967730825E+002	-1.4754919E+000	-5.679596008162375E+002	8.3801979E-001	-1.4747838E+000	0
2.5495350E+000	1.351955967685353E+002	-1.4772788E+000	-5.794306874845206E+002	8.5598069E-001	-1.4765836E+000	0
2.5143936E+000	1.352761967664992E+002	-1.4782900E+000	-5.879309997558594E+002	8.6913252E-001	-1.4774834E+000	1