EC-Lab ASCII FILE
Nb header lines : 63                          

Linear Sweep Voltammetry

Run on channel : 1 (SN 1340)
User : 
Electrode connection : standard
Potential control : Ewe
Ewe ctrl range : min = -5.00 V, max = 5.00 V
Ewe,I filtering : <None>
Safety Limits :
	Do not start on E overload
Channel : Floating
Acquisition started on : 02/19/2026 18:10:16.947
Technique started on : 02/19/2026 18:10:20.287
Loaded Setting File :  NONE
Saved on :
	File : Ni_2_19_02_LSV_C01.mpr
	Directory : C:\Users\volt\Documents\Platalytix\
	Host : 127.0.0.1
Device : SP-200 (SN 0262)
Address : USB
EC-LAB for windows v11.60 (software)
Internet server v11.60 (firmware)
Command interpretor v11.60 (firmware)
Electrode material : Ni
Initial state : 
Electrolyte : KOH (1M)
Comments : 
Cable : standard
Reference electrode : Hg/HgO (0.140 V)
Electrode surface area : 1.000 cm˛
Characteristic mass : 0.001 g
Equivalent Weight : 0.000 g/eq.
Density : 0.000 g/cm3
Volume (V) : 0.001 cmł
Cycle Definition : Charge/Discharge alternance
tR (h:m:s)          0:00:5.0000         
dER/dt (mV/h)       0.0                 
dER (mV)            0                   
dtR (s)             0.0000              
dE/dt               10.000              
dE/dt unit          mV/s                
Ei (V)              -0.200              
vs.                 Ref                 
EL (V)              -2.500              
vs.                 Ref                 
record              <I>                 
dI                  0.000               
unit dI             µA                  
tI (s)              0.0000              
step percent        50                  
N                   10                  
E range min (V)     -5.000              
E range max (V)     5.000               
I Range             Auto                
I Range min         Unset               
I Range max         Unset               
I Range init        Unset               
Bandwidth           8                   

Rwe/Ohm	time/s	Ewe/V	<I>/mA	Pwe/W	control/V	error	
0.0000000E+000	3.340400158631383E+000	-2.0645106E-001	0.000000000000000E+000	0.0000000E+000	0.0000000E+000	0
0.0000000E+000	8.340200032325811E+000	-3.1183985E-001	0.000000000000000E+000	0.0000000E+000	-1.9983816E-001	0
1.1912521E+003	8.500200028283871E+000	-2.0123048E-001	1.689235141873358E-001	-3.3992561E-005	-2.0133795E-001	0
4.2501074E+003	8.630200024999795E+000	-2.0264420E-001	4.767978385121796E-002	-9.6620315E-006	-2.0263799E-001	0
9.0438320E+003	8.850200019442127E+000	-2.0481263E-001	2.264666481232885E-002	-4.6383229E-006	-2.0483798E-001	0
1.2246580E+004	9.050200014389702E+000	-2.0683122E-001	1.688889643154165E-002	-3.4931511E-006	-2.0683798E-001	0
1.5141025E+004	9.250200009337277E+000	-2.0884086E-001	1.379304586832099E-002	-2.8805516E-006	-2.0883802E-001	0
1.7924727E+004	9.450200004284852E+000	-2.1085095E-001	1.176313349910876E-002	-2.4802680E-006	-2.1083798E-001	0
2.0577814E+004	9.650199999232427E+000	-2.1289496E-001	1.034584929980493E-002	-2.2025793E-006	-2.1283798E-001	0
2.3275699E+004	9.850199994180002E+000	-2.1479912E-001	9.228470948152018E-003	-1.9822673E-006	-2.1483801E-001	0
2.6059594E+004	1.005019998912758E+001	-2.1689050E-001	8.322865707425471E-003	-1.8051505E-006	-2.1683799E-001	0
2.8967625E+004	1.025019998407515E+001	-2.1888380E-001	7.556152739680910E-003	-1.6539194E-006	-2.1883799E-001	0
3.1644107E+004	1.045019997902273E+001	-2.2086841E-001	6.979764192805965E-003	-1.5416094E-006	-2.2083800E-001	0
3.4769613E+004	1.065019997397030E+001	-2.2285046E-001	6.409345268149916E-003	-1.4283255E-006	-2.2283798E-001	0
3.7906848E+004	1.085019996891788E+001	-2.2480430E-001	5.930440519913151E-003	-1.3331885E-006	-2.2483799E-001	0
4.1237996E+004	1.105019996386545E+001	-2.2681692E-001	5.500192832999726E-003	-1.2475368E-006	-2.2683799E-001	0
4.4694871E+004	1.125019995881303E+001	-2.2885352E-001	5.120352973969844E-003	-1.1718108E-006	-2.2883800E-001	0
4.8223945E+004	1.145019995376060E+001	-2.3091730E-001	4.788436438801731E-003	-1.1057328E-006	-2.3083799E-001	0
5.2158023E+004	1.165019994870818E+001	-2.3285459E-001	4.464406033315540E-003	-1.0395574E-006	-2.3283800E-001	0
5.6606410E+004	1.185019994365575E+001	-2.3484577E-001	4.148748635425012E-003	-9.7431609E-007	-2.3483799E-001	0
6.0414969E+004	1.205019993860333E+001	-2.3686603E-001	3.920651437172740E-003	-9.2866912E-007	-2.3683798E-001	0
6.5250285E+004	1.225019993355090E+001	-2.3887695E-001	3.660933397113212E-003	-8.7451264E-007	-2.3883800E-001	0
6.9973883E+004	1.245019992849848E+001	-2.4085668E-001	3.442093978015350E-003	-8.2905132E-007	-2.4083796E-001	0
7.5414063E+004	1.265019992344605E+001	-2.4289560E-001	3.220826277424593E-003	-7.8232455E-007	-2.4283800E-001	0
8.1298047E+004	1.285019991839363E+001	-2.4487978E-001	3.012123827901961E-003	-7.3760822E-007	-2.4483800E-001	0
8.7075586E+004	1.305019991334120E+001	-2.4688922E-001	2.835343648278171E-003	-7.0001579E-007	-2.4683799E-001	0
9.2345898E+004	1.325019990828878E+001	-2.4891028E-001	2.695412337980780E-003	-6.7091582E-007	-2.4883799E-001	0
1.0018344E+005	1.345019990323635E+001	-2.5093135E-001	2.504718924935003E-003	-6.2851251E-007	-2.5083798E-001	0
1.0857725E+005	1.365019989818393E+001	-2.5292379E-001	2.329436297545902E-003	-5.8916987E-007	-2.5283796E-001	0
1.1606585E+005	1.385019989313150E+001	-2.5490758E-001	2.196232389182200E-003	-5.5983628E-007	-2.5483799E-001	0
1.2518794E+005	1.405019988807908E+001	-2.5690874E-001	2.052184501583516E-003	-5.2722413E-007	-2.5683799E-001	0
1.3371370E+005	1.425019988302665E+001	-2.5887722E-001	1.936056057204608E-003	-5.0120082E-007	-2.5883797E-001	0
1.4570678E+005	1.445019987797423E+001	-2.6088497E-001	1.790479244430654E-003	-4.6710912E-007	-2.6083800E-001	0
1.5688464E+005	1.465019987292180E+001	-2.6283431E-001	1.675334941570090E-003	-4.4033550E-007	-2.6283801E-001	0
1.7029591E+005	1.485019986786938E+001	-2.6490426E-001	1.555552676060865E-003	-4.1207252E-007	-2.6483798E-001	0
1.8473011E+005	1.505019986281695E+001	-2.6690716E-001	1.444849203674620E-003	-3.8564059E-007	-2.6683798E-001	0
2.0330113E+005	1.525019985776453E+001	-2.6886225E-001	1.322482844280661E-003	-3.5556570E-007	-2.6883799E-001	0
2.1384813E+005	1.545019985271210E+001	-2.7087465E-001	1.266668334799211E-003	-3.4310835E-007	-2.7083799E-001	0
2.4146608E+005	1.565019984765968E+001	-2.7285734E-001	1.130002793255467E-003	-3.0832956E-007	-2.7283800E-001	0
2.6460125E+005	1.585019984260725E+001	-2.7486384E-001	1.038785100060086E-003	-2.8552446E-007	-2.7483803E-001	0
2.9057294E+005	1.605019983755483E+001	-2.7692631E-001	9.530354362508832E-004	-2.6392058E-007	-2.7683797E-001	0
3.1457669E+005	1.625019983250240E+001	-2.7888504E-001	8.865407316906637E-004	-2.4724295E-007	-2.7883798E-001	0
3.7252003E+005	1.645019982744998E+001	-2.8085607E-001	7.539354710839087E-004	-2.1174735E-007	-2.8083798E-001	0
4.0112944E+005	1.665019982239755E+001	-2.8286040E-001	7.051598904617706E-004	-1.9946181E-007	-2.8283799E-001	0
4.7220131E+005	1.685019981734513E+001	-2.8488937E-001	6.033218396783707E-004	-1.7187998E-007	-2.8483799E-001	0
5.4321613E+005	1.705019981229270E+001	-2.8687164E-001	5.280985643808227E-004	-1.5149651E-007	-2.8683800E-001	0
6.1636150E+005	1.725019980724028E+001	-2.8887451E-001	4.686770893248850E-004	-1.3538886E-007	-2.8883797E-001	0
7.6975550E+005	1.745019980218785E+001	-2.9089135E-001	3.779009661904701E-004	-1.0992812E-007	-2.9083800E-001	0
9.7773250E+005	1.765019979713543E+001	-2.9286283E-001	2.995326738862193E-004	-8.7721986E-008	-2.9283798E-001	0
1.2546631E+006	1.785019979208300E+001	-2.9485443E-001	2.350068588134017E-004	-6.9292817E-008	-2.9483801E-001	0
2.1726483E+006	1.805019978703058E+001	-2.9685983E-001	1.366350197970621E-004	-4.0561449E-008	-2.9683799E-001	0
2.9787925E+006	1.825019978197815E+001	-2.9888707E-001	1.003383334210466E-004	-2.9989831E-008	-2.9883799E-001	0
9.3297150E+006	1.845019977692573E+001	-3.0085260E-001	3.224670691624320E-005	-9.7015054E-009	-3.0083799E-001	0
7.8926935E+006	1.865019977187330E+001	-3.0286694E-001	-3.837307662081013E-005	1.1621936E-008	-3.0283800E-001	0
2.6362113E+006	1.885019976682088E+001	-3.0491331E-001	-1.156634631203763E-004	3.5267330E-008	-3.0483800E-001	0
1.8886110E+006	1.905019976176845E+001	-3.0686989E-001	-1.624844417721985E-004	4.9861583E-008	-3.0683798E-001	0
1.3211561E+006	1.925019975671603E+001	-3.0887932E-001	-2.337947200071187E-004	7.2214355E-008	-3.0883801E-001	0
1.0374807E+006	1.945019975166360E+001	-3.1085905E-001	-2.996287671467564E-004	9.3142319E-008	-3.1083798E-001	0
8.1140513E+005	1.965019974661118E+001	-3.1290182E-001	-3.856295991456374E-004	1.2066421E-007	-3.1283799E-001	0
7.3348775E+005	1.985019974155875E+001	-3.1484908E-001	-4.292492663630579E-004	1.3514874E-007	-3.1483799E-001	0
6.2825206E+005	2.005019973650633E+001	-3.1686467E-001	-5.043591473162775E-004	1.5981360E-007	-3.1683800E-001	0
5.6082131E+005	2.025019973145390E+001	-3.1885052E-001	-5.685421147641062E-004	1.8127994E-007	-3.1883797E-001	0
5.1288350E+005	2.045019972640148E+001	-3.2088098E-001	-6.256410666334554E-004	2.0075632E-007	-3.2083797E-001	0
4.7177934E+005	2.065019972134905E+001	-3.2284564E-001	-6.843148868253745E-004	2.2092807E-007	-3.2283798E-001	0
4.2423106E+005	2.085019971629663E+001	-3.2483596E-001	-7.657052786883903E-004	2.4872861E-007	-3.2483798E-001	0
4.1300363E+005	2.105019971124420E+001	-3.2688531E-001	-7.914828859277995E-004	2.5872413E-007	-3.2683802E-001	0
3.8590191E+005	2.125019970619178E+001	-3.2888350E-001	-8.522463434991467E-004	2.8028975E-007	-3.2883802E-001	0
3.4962388E+005	2.145019970113935E+001	-3.3091161E-001	-9.464788252994804E-004	3.1320081E-007	-3.3083799E-001	0
3.2319619E+005	2.165019969608693E+001	-3.3283639E-001	-1.029827714557965E-003	3.4276414E-007	-3.3283800E-001	0
3.1056181E+005	2.185019969103450E+001	-3.3484161E-001	-1.078180290631576E-003	3.6101963E-007	-3.3483800E-001	0
2.9962897E+005	2.205019968598208E+001	-3.3691254E-001	-1.124432439294192E-003	3.7883538E-007	-3.3683798E-001	0
2.8613616E+005	2.225019968092965E+001	-3.3887234E-001	-1.184304563204924E-003	4.0132807E-007	-3.3883798E-001	0
2.7778853E+005	2.245019967587723E+001	-3.4085423E-001	-1.227027704728902E-003	4.1823759E-007	-3.4083799E-001	0
2.6190656E+005	2.265019967082480E+001	-3.4286320E-001	-1.309105063981872E-003	4.4884396E-007	-3.4283799E-001	0
2.5233686E+005	2.285019966577238E+001	-3.4487733E-001	-1.366733880670337E-003	4.7135555E-007	-3.4483799E-001	0
2.4100152E+005	2.305019966071995E+001	-3.4681630E-001	-1.439062763948843E-003	4.9909045E-007	-3.4683800E-001	0
2.3170466E+005	2.325019965566753E+001	-3.4887838E-001	-1.505702941609411E-003	5.2530720E-007	-3.4883800E-001	0
2.2429181E+005	2.345019965061510E+001	-3.5088679E-001	-1.564420866173323E-003	5.4893462E-007	-3.5083804E-001	0
2.1723481E+005	2.365019964556268E+001	-3.5274193E-001	-1.623781802470012E-003	5.7277595E-007	-3.5283801E-001	0
2.0766150E+005	2.385019964051025E+001	-3.5494384E-001	-1.709242347202178E-003	6.0668503E-007	-3.5483798E-001	0
2.0093670E+005	2.405019963545783E+001	-3.5691443E-001	-1.776253060882423E-003	6.3397033E-007	-3.5683802E-001	0
1.9488858E+005	2.425019963040540E+001	-3.5894251E-001	-1.841783164019914E-003	6.6109425E-007	-3.5883799E-001	0
1.9050322E+005	2.445019962535298E+001	-3.6071369E-001	-1.893478257706301E-003	6.8300352E-007	-3.6083800E-001	0
1.8370256E+005	2.465019962030055E+001	-3.6291409E-001	-1.975552664515247E-003	7.1695587E-007	-3.6283800E-001	0
1.7905830E+005	2.485019961524813E+001	-3.6481890E-001	-2.037430939525915E-003	7.4329330E-007	-3.6483803E-001	0
1.7219989E+005	2.505019961019570E+001	-3.6689097E-001	-2.130610828672757E-003	7.8170189E-007	-3.6683801E-001	0
1.6904111E+005	2.525019960514328E+001	-3.6882889E-001	-2.181888713867410E-003	8.0474359E-007	-3.6883801E-001	0
1.6539764E+005	2.545019960009085E+001	-3.7089473E-001	-2.242442659354882E-003	8.3171017E-007	-3.7083799E-001	0
1.6027986E+005	2.565019959503843E+001	-3.7288594E-001	-2.326467943660600E-003	8.6750720E-007	-3.7283802E-001	0
1.5634594E+005	2.585019958998600E+001	-3.7484086E-001	-2.397509451843270E-003	8.9868450E-007	-3.7483799E-001	0
1.5062764E+005	2.605019958493358E+001	-3.7681252E-001	-2.501616099873982E-003	9.4264027E-007	-3.7683797E-001	0
1.4771780E+005	2.625019957988115E+001	-3.7888792E-001	-2.564944334121588E-003	9.7182647E-007	-3.7883800E-001	0
1.4304438E+005	2.645019957482873E+001	-3.8081929E-001	-2.662245691734778E-003	1.0138345E-006	-3.8083798E-001	0
1.3957819E+005	2.665019956977631E+001	-3.8280582E-001	-2.742590565633560E-003	1.0498796E-006	-3.8283798E-001	0
1.3720269E+005	2.685019956472388E+001	-3.8483265E-001	-2.804847644703911E-003	1.0793970E-006	-3.8483801E-001	0
1.3308000E+005	2.705019955967146E+001	-3.8677034E-001	-2.906299581726959E-003	1.1240704E-006	-3.8683799E-001	0
1.2954530E+005	2.725019955461903E+001	-3.8887167E-001	-3.001819928737014E-003	1.1673227E-006	-3.8883802E-001	0
1.2730420E+005	2.745019954956661E+001	-3.9081514E-001	-3.069931070479079E-003	1.1997755E-006	-3.9083800E-001	0
1.2552468E+005	2.765019954451418E+001	-3.9289758E-001	-3.130042496640995E-003	1.2297861E-006	-3.9283803E-001	0
1.2153685E+005	2.785019953946176E+001	-3.9483169E-001	-3.248658185026759E-003	1.2826732E-006	-3.9483801E-001	0
1.1874654E+005	2.805019953440933E+001	-3.9688820E-001	-3.342313712168182E-003	1.3265249E-006	-3.9683804E-001	0
1.1711212E+005	2.825019952935691E+001	-3.9890063E-001	-3.406143192779459E-003	1.3587127E-006	-3.9883801E-001	0
1.1464450E+005	2.845019952430448E+001	-4.0088737E-001	-3.496786730717419E-003	1.4018176E-006	-4.0083799E-001	0
1.1146416E+005	2.865019951925206E+001	-4.0287068E-001	-3.614351859257096E-003	1.4561164E-006	-4.0283802E-001	0
1.0998391E+005	2.885019951419963E+001	-4.0486652E-001	-3.681143165320262E-003	1.4903716E-006	-4.0483800E-001	0
1.0662534E+005	2.905019950914721E+001	-4.0689403E-001	-3.816109971527912E-003	1.5527523E-006	-4.0683803E-001	0
1.0502893E+005	2.925019950409478E+001	-4.0886226E-001	-3.892853652821878E-003	1.5916410E-006	-4.0883803E-001	0
1.0326463E+005	2.945019949904236E+001	-4.1087323E-001	-3.978837762701658E-003	1.6347980E-006	-4.1083804E-001	0
1.0050265E+005	2.965019949398993E+001	-4.1289565E-001	-4.108306045345426E-003	1.6963016E-006	-4.1283798E-001	0
9.9357445E+004	2.985019948893751E+001	-4.1489720E-001	-4.175803707214348E-003	1.7325293E-006	-4.1483802E-001	0
9.7030969E+004	3.005019948388508E+001	-4.1691047E-001	-4.296674340486344E-003	1.7913285E-006	-4.1683805E-001	0
9.5240414E+004	3.025019947883266E+001	-4.1889995E-001	-4.398342335585843E-003	1.8424654E-006	-4.1883802E-001	0
9.3670797E+004	3.045019947378023E+001	-4.2089683E-001	-4.493362213242869E-003	1.8912419E-006	-4.2083800E-001	0
9.2078602E+004	3.065019946872781E+001	-4.2294258E-001	-4.593277473181931E-003	1.9426925E-006	-4.2283803E-001	0
9.0034555E+004	3.085019946367538E+001	-4.2489666E-001	-4.719261914699409E-003	2.0051987E-006	-4.2483801E-001	0
8.8456055E+004	3.105019945862296E+001	-4.2693752E-001	-4.826549421582737E-003	2.0606351E-006	-4.2683801E-001	0
8.7088320E+004	3.125019945357053E+001	-4.2886758E-001	-4.924513046758290E-003	2.1119640E-006	-4.2883801E-001	0
8.5666469E+004	3.145019944851811E+001	-4.3094724E-001	-5.030524047659690E-003	2.1678904E-006	-4.3083805E-001	0
8.4207727E+004	3.165019944346568E+001	-4.3291852E-001	-5.141078526199827E-003	2.2256681E-006	-4.3283799E-001	0
8.2332672E+004	3.185019943841326E+001	-4.3487468E-001	-5.281921349613153E-003	2.2969739E-006	-4.3483803E-001	0
8.1142016E+004	3.205019943336083E+001	-4.3690085E-001	-5.384397225700202E-003	2.3524478E-006	-4.3683806E-001	0
7.9694195E+004	3.225019942830841E+001	-4.3892223E-001	-5.507580824192386E-003	2.4173996E-006	-4.3883801E-001	0
7.8038289E+004	3.245019942325598E+001	-4.4089171E-001	-5.649684284113624E-003	2.4908991E-006	-4.4083801E-001	0
7.7113781E+004	3.265019941820356E+001	-4.4291285E-001	-5.743627685161512E-003	2.5439265E-006	-4.4283804E-001	0
7.5801016E+004	3.285019941315113E+001	-4.4488087E-001	-5.869061939651657E-003	2.6110333E-006	-4.4483802E-001	0
7.4549391E+004	3.305019940809871E+001	-4.4692194E-001	-5.994978081342583E-003	2.6792873E-006	-4.4683802E-001	0
7.2885484E+004	3.325019940304628E+001	-4.4890895E-001	-6.159099605295593E-003	2.7648750E-006	-4.4883803E-001	0
7.2138875E+004	3.345019939799386E+001	-4.5091689E-001	-6.250678159915819E-003	2.8185364E-006	-4.5083806E-001	0
7.0705430E+004	3.365019939294143E+001	-4.5290530E-001	-6.405523347194755E-003	2.9010955E-006	-4.5283800E-001	0
6.9956539E+004	3.385019938788901E+001	-4.5485681E-001	-6.501991154737985E-003	2.9574749E-006	-4.5483804E-001	0
6.8409688E+004	3.405019938283658E+001	-4.5686409E-001	-6.678353725428882E-003	3.0511001E-006	-4.5683807E-001	0
6.7613367E+004	3.425019937778416E+001	-4.5888713E-001	-6.786929086049207E-003	3.1144343E-006	-4.5883805E-001	0
6.6627531E+004	3.445019937273173E+001	-4.6091667E-001	-6.917811267786983E-003	3.1885345E-006	-4.6083802E-001	0
6.5573227E+004	3.465019936767931E+001	-4.6288458E-001	-7.059048006034928E-003	3.2675243E-006	-4.6283802E-001	0
6.4542500E+004	3.485019936262688E+001	-4.6489549E-001	-7.202935718024189E-003	3.3486124E-006	-4.6483803E-001	0
6.3583090E+004	3.505019935757446E+001	-4.6689770E-001	-7.343111248845832E-003	3.4284817E-006	-4.6683797E-001	0
6.2609270E+004	3.525019935252203E+001	-4.6890989E-001	-7.489464461474499E-003	3.5118840E-006	-4.6883804E-001	0
6.1486156E+004	3.545019934746961E+001	-4.7092363E-001	-7.659019038076947E-003	3.6068132E-006	-4.7083804E-001	0
6.0801188E+004	3.565019934241718E+001	-4.7288018E-001	-7.777482572066036E-003	3.6778174E-006	-4.7283804E-001	0
5.9817113E+004	3.585019933736476E+001	-4.7491249E-001	-7.939408252466001E-003	3.7705242E-006	-4.7483799E-001	0
5.8966563E+004	3.605019933231233E+001	-4.7692537E-001	-8.088064559628710E-003	3.8574030E-006	-4.7683802E-001	0
5.8173324E+004	3.625019932725991E+001	-4.7889280E-001	-8.232171742415563E-003	3.9423280E-006	-4.7883806E-001	0
5.7354488E+004	3.645019932220748E+001	-4.8084879E-001	-8.383804250705451E-003	4.0313421E-006	-4.8083803E-001	0
5.6396758E+004	3.665019931715506E+001	-4.8289362E-001	-8.562435677088753E-003	4.1347457E-006	-4.8283800E-001	0
5.5704293E+004	3.685019931210263E+001	-4.8488867E-001	-8.704691478700677E-003	4.2208062E-006	-4.8483804E-001	0
5.4882797E+004	3.705019930705021E+001	-4.8692524E-001	-8.872092695555113E-003	4.3200457E-006	-4.8683804E-001	0
5.4101684E+004	3.725019930199778E+001	-4.8893723E-001	-9.037375239345988E-003	4.4187091E-006	-4.8883802E-001	0
5.3342105E+004	3.745019929694536E+001	-4.9090767E-001	-9.203004857402233E-003	4.5178258E-006	-4.9083805E-001	0
5.2642137E+004	3.765019929189293E+001	-4.9288231E-001	-9.362885986387265E-003	4.6148007E-006	-4.9283803E-001	0
5.1848289E+004	3.785019928684051E+001	-4.9485967E-001	-9.544377836286283E-003	4.7231274E-006	-4.9483800E-001	0
5.1194406E+004	3.805019928178808E+001	-4.9687824E-001	-9.705713114269807E-003	4.8225575E-006	-4.9683803E-001	0
5.0648020E+004	3.825019927673566E+001	-4.9894518E-001	-9.851227769054810E-003	4.9152227E-006	-4.9883807E-001	0
4.9849941E+004	3.845019927168323E+001	-5.0086743E-001	-1.004750297120786E-002	5.0324670E-006	-5.0083798E-001	0
4.9383703E+004	3.865019926663081E+001	-5.0290525E-001	-1.018362778794368E-002	5.1213997E-006	-5.0283802E-001	0
4.8566816E+004	3.885019926157838E+001	-5.0490767E-001	-1.039614466943173E-002	5.2490932E-006	-5.0483805E-001	0
4.7946855E+004	3.905019925652596E+001	-5.0689971E-001	-1.057211611631893E-002	5.3590024E-006	-5.0683802E-001	0
4.7328898E+004	3.925019925147353E+001	-5.0889963E-001	-1.075240795279096E-002	5.4718962E-006	-5.0883806E-001	0
4.6765777E+004	3.945019924642111E+001	-5.1086348E-001	-1.092387465646601E-002	5.5806086E-006	-5.1083803E-001	0
4.6234387E+004	3.965019924136868E+001	-5.1293129E-001	-1.109415143353404E-002	5.6905374E-006	-5.1283807E-001	0
4.5631984E+004	3.985019923631626E+001	-5.1488239E-001	-1.128336633613666E-002	5.8096066E-006	-5.1483798E-001	0
4.5033457E+004	4.005019923126383E+001	-5.1685888E-001	-1.147721961110010E-002	5.9321028E-006	-5.1683801E-001	0
4.4540023E+004	4.025019922621141E+001	-5.1871783E-001	-1.164610622984741E-002	6.0410430E-006	-5.1883805E-001	0
4.4020285E+004	4.045019922115898E+001	-5.2094162E-001	-1.183412582104044E-002	6.1648884E-006	-5.2083802E-001	0
4.3481238E+004	4.065019921610656E+001	-5.2287340E-001	-1.202526472752036E-002	6.2876911E-006	-5.2283800E-001	0
4.2989957E+004	4.085019921105413E+001	-5.2494609E-001	-1.221090097297375E-002	6.4100645E-006	-5.2483803E-001	0
4.2483344E+004	4.105019920600171E+001	-5.2687150E-001	-1.240183680691558E-002	6.5341742E-006	-5.2683806E-001	0
4.2083605E+004	4.125019920094928E+001	-5.2895325E-001	-1.256910461286731E-002	6.6484686E-006	-5.2883804E-001	0
4.1528895E+004	4.145019919589686E+001	-5.3086549E-001	-1.278303896658789E-002	6.7860742E-006	-5.3083801E-001	0
4.1142055E+004	4.165019919084443E+001	-5.3291041E-001	-1.295293616621951E-002	6.9027546E-006	-5.3283805E-001	0
4.0589277E+004	4.185019918579201E+001	-5.3489715E-001	-1.317828761856127E-002	7.0490287E-006	-5.3483802E-001	0
4.0249180E+004	4.205019918073958E+001	-5.3687608E-001	-1.333880793332813E-002	7.1612872E-006	-5.3683800E-001	0
3.9777043E+004	4.225019917568716E+001	-5.3887719E-001	-1.354744170764417E-002	7.3004071E-006	-5.3883803E-001	0
3.9349297E+004	4.245019917063473E+001	-5.4092586E-001	-1.374677340542291E-002	7.4359850E-006	-5.4083800E-001	0
3.8898250E+004	4.265019916558231E+001	-5.4292458E-001	-1.395755849977698E-002	7.5779017E-006	-5.4283804E-001	0
3.8572199E+004	4.285019916052988E+001	-5.4491794E-001	-1.412722037586681E-002	7.6981760E-006	-5.4483807E-001	0
3.8162355E+004	4.305019915547746E+001	-5.4684657E-001	-1.432947691410152E-002	7.8360254E-006	-5.4683805E-001	0
3.7716793E+004	4.325019915042503E+001	-5.4887509E-001	-1.455253853896626E-002	7.9875263E-006	-5.4883808E-001	0
3.7369668E+004	4.345019914537261E+001	-5.5091202E-001	-1.474222407532150E-002	8.1216685E-006	-5.5083799E-001	0
3.7032453E+004	4.365019914032018E+001	-5.5286258E-001	-1.492913753122121E-002	8.2537617E-006	-5.5283803E-001	0
3.6611480E+004	4.385019913526776E+001	-5.5486250E-001	-1.515542349290810E-002	8.4091762E-006	-5.5483806E-001	0
3.6228977E+004	4.405019913021533E+001	-5.5690271E-001	-1.537174800748237E-002	8.5605679E-006	-5.5683798E-001	0
3.5853309E+004	4.425019912516291E+001	-5.5882072E-001	-1.558630850167148E-002	8.7099525E-006	-5.5883807E-001	0
3.5569109E+004	4.445019912011048E+001	-5.6095612E-001	-1.577087821765710E-002	8.8467705E-006	-5.6083804E-001	0
3.5235414E+004	4.465019911505806E+001	-5.6288689E-001	-1.597503321881510E-002	8.9921368E-006	-5.6283808E-001	0
3.4907133E+004	4.485019911000563E+001	-5.6490844E-001	-1.618318107663369E-002	9.1420161E-006	-5.6483799E-001	0
3.4598109E+004	4.505019910495321E+001	-5.6690001E-001	-1.638528916909832E-002	9.2888204E-006	-5.6683803E-001	0
3.4277387E+004	4.525019909990078E+001	-5.6890923E-001	-1.659721660978414E-002	9.4423094E-006	-5.6883812E-001	0
3.3989906E+004	4.545019909484836E+001	-5.7089233E-001	-1.679593689653640E-002	9.5886717E-006	-5.7083797E-001	0
3.3674246E+004	4.565019908979593E+001	-5.7288659E-001	-1.701260371954134E-002	9.7462926E-006	-5.7283801E-001	0
3.3348961E+004	4.585019908474351E+001	-5.7485247E-001	-1.723749349986639E-002	9.9090157E-006	-5.7483804E-001	0
3.3072684E+004	4.605019907969108E+001	-5.7687825E-001	-1.744274113405409E-002	1.0062338E-005	-5.7683802E-001	0
3.2850754E+004	4.625019907463866E+001	-5.7891810E-001	-1.762267353320435E-002	1.0202085E-005	-5.7883805E-001	0
3.2528805E+004	4.645019906958623E+001	-5.8092618E-001	-1.785882334689476E-002	1.0374658E-005	-5.8083802E-001	0
3.2244520E+004	4.665019906453381E+001	-5.8289260E-001	-1.807726119513475E-002	1.0537102E-005	-5.8283806E-001	0
3.1993578E+004	4.685019905948138E+001	-5.8486819E-001	-1.828079990044240E-002	1.0691859E-005	-5.8483803E-001	0
3.1739422E+004	4.705019905442896E+001	-5.8692628E-001	-1.849202832229259E-002	1.0853458E-005	-5.8683801E-001	0
3.1506576E+004	4.725019904937653E+001	-5.8889687E-001	-1.869123608236627E-002	1.1007211E-005	-5.8883810E-001	0
3.1246195E+004	4.745019904432411E+001	-5.9089959E-001	-1.891108932339980E-002	1.1174555E-005	-5.9083796E-001	0
3.1016645E+004	4.765019903927168E+001	-5.9293652E-001	-1.911672032432946E-002	1.1335002E-005	-5.9283805E-001	0
3.0812666E+004	4.785019903421926E+001	-5.9491479E-001	-1.930747545469972E-002	1.1486302E-005	-5.9483808E-001	0
3.0589541E+004	4.805019902916683E+001	-5.9693485E-001	-1.951434503017993E-002	1.1648793E-005	-5.9683800E-001	0
3.0328646E+004	4.825019902411441E+001	-5.9891272E-001	-1.974742703866783E-002	1.1826985E-005	-5.9883803E-001	0
3.0133619E+004	4.845019901906198E+001	-6.0090166E-001	-1.994123716710358E-002	1.1982723E-005	-6.0083801E-001	0
2.9891691E+004	4.865019901400956E+001	-6.0296196E-001	-2.017155666825046E-002	1.2162682E-005	-6.0283810E-001	0
2.9736908E+004	4.885019900895713E+001	-6.0493267E-001	-2.034282303864537E-002	1.2306038E-005	-6.0483801E-001	0
2.9525064E+004	4.905019900390471E+001	-6.0693133E-001	-2.055647777187034E-002	1.2476370E-005	-6.0683799E-001	0
2.9331244E+004	4.925019899885228E+001	-6.0893351E-001	-2.076057561072950E-002	1.2641810E-005	-6.0883808E-001	0
2.9119926E+004	4.945019899379986E+001	-6.1089945E-001	-2.097874339231730E-002	1.2815903E-005	-6.1083800E-001	0
2.8937369E+004	4.965019898874743E+001	-6.1296254E-001	-2.118238609386060E-002	1.2984009E-005	-6.1283803E-001	0
2.8751029E+004	4.985019898369501E+001	-6.1488080E-001	-2.138639232560843E-002	1.3150082E-005	-6.1483800E-001	0
2.8587773E+004	5.005019897864258E+001	-6.1692554E-001	-2.158004839262079E-002	1.3313283E-005	-6.1683804E-001	0
2.8379855E+004	5.025019897359016E+001	-6.1897629E-001	-2.181040981397470E-002	1.3500126E-005	-6.1883801E-001	0
2.8199668E+004	5.045019896853773E+001	-6.2093735E-001	-2.201931448595262E-002	1.3672615E-005	-6.2083805E-001	0
2.8051996E+004	5.065019896348531E+001	-6.2294531E-001	-2.220680854558355E-002	1.3833627E-005	-6.2283808E-001	0
2.7901184E+004	5.085019895843288E+001	-6.2489808E-001	-2.239683073208310E-002	1.3995736E-005	-6.2483799E-001	0
2.7732545E+004	5.105019895338046E+001	-6.2692934E-001	-2.260626817825337E-002	1.4172533E-005	-6.2683803E-001	0
2.7566955E+004	5.125019894832803E+001	-6.2898231E-001	-2.281653235641107E-002	1.4351195E-005	-6.2883806E-001	0
2.7423238E+004	5.145019894327561E+001	-6.3090879E-001	-2.300635639479376E-002	1.4514912E-005	-6.3083810E-001	0
2.7300811E+004	5.165019893822318E+001	-6.3294512E-001	-2.318411486623537E-002	1.4674272E-005	-6.3283801E-001	0
2.7157531E+004	5.185019893317076E+001	-6.3492572E-001	-2.337936024802428E-002	1.4844157E-005	-6.3483804E-001	0
2.7014098E+004	5.205019892811833E+001	-6.3695085E-001	-2.357846048838497E-002	1.5018320E-005	-6.3683808E-001	0
2.6895320E+004	5.225019892306591E+001	-6.3892573E-001	-2.375601884320822E-002	1.5178332E-005	-6.3883805E-001	0
2.6745955E+004	5.245019891801348E+001	-6.4099348E-001	-2.396599680373801E-002	1.5362048E-005	-6.4083797E-001	0
2.6590568E+004	5.265019891296106E+001	-6.4295286E-001	-2.417973379402316E-002	1.5546429E-005	-6.4283806E-001	0
2.6482275E+004	5.285019890790863E+001	-6.4496356E-001	-2.435453769435703E-002	1.5707790E-005	-6.4483804E-001	0
2.6352600E+004	5.305019890285621E+001	-6.4685696E-001	-2.454622974883244E-002	1.5877900E-005	-6.4683801E-001	0
2.6225209E+004	5.325019889780378E+001	-6.4891917E-001	-2.474409859398352E-002	1.6056920E-005	-6.4883804E-001	0
2.6122084E+004	5.345019889275136E+001	-6.5096241E-001	-2.492000391973975E-002	1.6221986E-005	-6.5083802E-001	0
2.6006129E+004	5.365019888769893E+001	-6.5297073E-001	-2.510834038954513E-002	1.6395012E-005	-6.5283805E-001	0
2.5888027E+004	5.385019888264651E+001	-6.5493572E-001	-2.529878838646693E-002	1.6569080E-005	-6.5483803E-001	0
2.5774574E+004	5.405019887759408E+001	-6.5695131E-001	-2.548834795286442E-002	1.6744603E-005	-6.5683806E-001	0
2.5661713E+004	5.425019887254166E+001	-6.5893012E-001	-2.567755858188969E-002	1.6919717E-005	-6.5883803E-001	0
2.5568225E+004	5.445019886748923E+001	-6.6094977E-001	-2.585043701530138E-002	1.7085840E-005	-6.6083801E-001	0
2.5442230E+004	5.465019886243681E+001	-6.6291803E-001	-2.605581330901002E-002	1.7272869E-005	-6.6283804E-001	0
2.5333588E+004	5.485019885738438E+001	-6.6493893E-001	-2.624732467146326E-002	1.7452869E-005	-6.6483808E-001	0
2.5253109E+004	5.505019885233196E+001	-6.6696358E-001	-2.641114666941852E-002	1.7615273E-005	-6.6683799E-001	0
2.5160980E+004	5.525019884727953E+001	-6.6894525E-001	-2.658661232512580E-002	1.7784989E-005	-6.6883802E-001	0
2.5068367E+004	5.545019884222711E+001	-6.7095304E-001	-2.676492772786299E-002	1.7958009E-005	-6.7083806E-001	0
2.4938871E+004	5.565019883717468E+001	-6.7296243E-001	-2.698447809675009E-002	1.8159541E-005	-6.7283809E-001	0
2.4864715E+004	5.585019883212226E+001	-6.7493385E-001	-2.714424346739425E-002	1.8320568E-005	-6.7483801E-001	0
2.4746586E+004	5.605019882706983E+001	-6.7694569E-001	-2.735511488608539E-002	1.8517927E-005	-6.7683804E-001	0
2.4658133E+004	5.625019882201741E+001	-6.7884225E-001	-2.753015590911884E-002	1.8688634E-005	-6.7883807E-001	0
2.4534605E+004	5.645019881696498E+001	-6.8091697E-001	-2.775332944540521E-002	1.8897714E-005	-6.8083799E-001	0
2.4474166E+004	5.665019881191256E+001	-6.8292755E-001	-2.790401796435482E-002	1.9056422E-005	-6.8283802E-001	0
2.4381578E+004	5.685019880686013E+001	-6.8495816E-001	-2.809326567416781E-002	1.9242712E-005	-6.8483812E-001	0
2.4283662E+004	5.705019880180771E+001	-6.8686360E-001	-2.828500898240249E-002	1.9427944E-005	-6.8683803E-001	0
2.4197838E+004	5.725019879675529E+001	-6.8895793E-001	-2.847188024896719E-002	1.9615927E-005	-6.8883801E-001	0
2.4095354E+004	5.745019879170286E+001	-6.9089633E-001	-2.867342626159619E-002	1.9810364E-005	-6.9083804E-001	0
2.4010580E+004	5.765019878665044E+001	-6.9289684E-001	-2.885798069906081E-002	1.9995603E-005	-6.9283807E-001	0
2.3893922E+004	5.785019878159801E+001	-6.9488764E-001	-2.908219312066374E-002	2.0208856E-005	-6.9483799E-001	0
2.3829207E+004	5.805019877654559E+001	-6.9695646E-001	-2.924799236924081E-002	2.0384578E-005	-6.9683802E-001	0
2.3722998E+004	5.825019877149316E+001	-6.9889474E-001	-2.946064168721441E-002	2.0589887E-005	-6.9883811E-001	0
2.3645275E+004	5.845019876644074E+001	-7.0090866E-001	-2.964265173530234E-002	2.0776792E-005	-7.0083803E-001	0
2.3546822E+004	5.865019876138831E+001	-7.0290822E-001	-2.985150965148184E-002	2.0982872E-005	-7.0283806E-001	0
2.3438025E+004	5.885019875633589E+001	-7.0498997E-001	-3.007889807048980E-002	2.1205322E-005	-7.0483810E-001	0
2.3351018E+004	5.905019875128346E+001	-7.0697773E-001	-3.027610039991024E-002	2.1404529E-005	-7.0683807E-001	0
2.3244805E+004	5.925019874623104E+001	-7.0894307E-001	-3.049899081862163E-002	2.1622049E-005	-7.0883805E-001	0
2.3165621E+004	5.945019874117861E+001	-7.1097410E-001	-3.069091578729052E-002	2.1820446E-005	-7.1083802E-001	0
2.3081639E+004	5.965019873612619E+001	-7.1291077E-001	-3.088648971608399E-002	2.2019311E-005	-7.1283817E-001	0
2.2983344E+004	5.985019873107376E+001	-7.1486843E-001	-3.110376067666532E-002	2.2235097E-005	-7.1483797E-001	0
2.2888740E+004	6.005019872602134E+001	-7.1697557E-001	-3.132437874458505E-002	2.2458815E-005	-7.1683806E-001	0
2.2793385E+004	6.025019872096891E+001	-7.1889544E-001	-3.153965328508573E-002	2.2673712E-005	-7.1883810E-001	0
2.2712992E+004	6.045019871591649E+001	-7.2095400E-001	-3.174192180974278E-002	2.2884466E-005	-7.2083801E-001	0
2.2616982E+004	6.065019871086406E+001	-7.2293442E-001	-3.196423053620012E-002	2.3108043E-005	-7.2283798E-001	0
2.2505260E+004	6.085019870581164E+001	-7.2489423E-001	-3.220999264158296E-002	2.3348837E-005	-7.2483808E-001	0
2.2390617E+004	6.105019870075921E+001	-7.2692341E-001	-3.246553618378538E-002	2.3599958E-005	-7.2683817E-001	0
2.2300838E+004	6.125019869570679E+001	-7.2889715E-001	-3.268474280040140E-002	2.3823815E-005	-7.2883803E-001	0
2.2205412E+004	6.145019869065436E+001	-7.3093331E-001	-3.291689858681035E-002	2.4060058E-005	-7.3083800E-001	0
2.2087490E+004	6.165019868560194E+001	-7.3292321E-001	-3.318272968896735E-002	2.4320392E-005	-7.3283809E-001	0
2.1952791E+004	6.185019868054951E+001	-7.3489958E-001	-3.347636322024122E-002	2.4601764E-005	-7.3483801E-001	0
2.1872938E+004	6.205019867549709E+001	-7.3693371E-001	-3.369157514962551E-002	2.4828458E-005	-7.3683804E-001	0
2.1761217E+004	6.225019867044466E+001	-7.3893422E-001	-3.395647618812980E-002	2.5091602E-005	-7.3883808E-001	0
2.1655811E+004	6.245019866539224E+001	-7.4087840E-001	-3.421153018832868E-002	2.5346584E-005	-7.4083805E-001	0
2.1545098E+004	6.265019866033981E+001	-7.4291825E-001	-3.448201011910682E-002	2.5617315E-005	-7.4283803E-001	0
2.1418061E+004	6.285019865528739E+001	-7.4494255E-001	-3.478104537490201E-002	2.5909880E-005	-7.4483800E-001	0
2.1292770E+004	6.305019865023496E+001	-7.4694157E-001	-3.507958803285766E-002	2.6202402E-005	-7.4683815E-001	0
2.1191305E+004	6.325019864518254E+001	-7.4891412E-001	-3.534063275469473E-002	2.6467100E-005	-7.4883807E-001	0
2.1053199E+004	6.345019864013011E+001	-7.5095785E-001	-3.566953510282542E-002	2.6786318E-005	-7.5083804E-001	0
2.0937736E+004	6.365019863507769E+001	-7.5294739E-001	-3.596125923856345E-002	2.7076936E-005	-7.5283808E-001	0
2.0812172E+004	6.385019863002526E+001	-7.5489122E-001	-3.627162112995935E-002	2.7381127E-005	-7.5483799E-001	0
2.0685346E+004	6.405019862497284E+001	-7.5686181E-001	-3.658927502474907E-002	2.7693024E-005	-7.5683808E-001	0
2.0536912E+004	6.425019861992041E+001	-7.5889891E-001	-3.695292290339192E-002	2.8043532E-005	-7.5883806E-001	0
2.0416313E+004	6.445019861486799E+001	-7.6093704E-001	-3.727103027492941E-002	2.8360908E-005	-7.6083815E-001	0
2.0271801E+004	6.465019860981556E+001	-7.6294583E-001	-3.763581926104465E-002	2.8714092E-005	-7.6283813E-001	0
2.0142797E+004	6.485019860476314E+001	-7.6490515E-001	-3.797412707624512E-002	2.9046605E-005	-7.6483804E-001	0
2.0007633E+004	6.505019859971071E+001	-7.6690370E-001	-3.833055500624277E-002	2.9395844E-005	-7.6683807E-001	0
1.9864713E+004	6.525019859465829E+001	-7.6895630E-001	-3.870966012247534E-002	2.9766037E-005	-7.6883805E-001	0
1.9729789E+004	6.545019858960586E+001	-7.7092552E-001	-3.907418976613909E-002	3.0123290E-005	-7.7083802E-001	0
1.9569943E+004	6.565019858455344E+001	-7.7294010E-001	-3.949628644142411E-002	3.0528263E-005	-7.7283806E-001	0
1.9423824E+004	6.585019857950101E+001	-7.7489811E-001	-3.989420931595167E-002	3.0913947E-005	-7.7483809E-001	0
1.9259990E+004	6.605019857444859E+001	-7.7693182E-001	-4.033915827086731E-002	3.1340776E-005	-7.7683800E-001	0
1.9121945E+004	6.625019856939616E+001	-7.7889711E-001	-4.073315403844463E-002	3.1726937E-005	-7.7883804E-001	0
1.8954521E+004	6.645019856434374E+001	-7.8090894E-001	-4.119908361713642E-002	3.2172731E-005	-7.8083813E-001	0
1.8794152E+004	6.665019855929131E+001	-7.8291613E-001	-4.165743274668070E-002	3.2614276E-005	-7.8283811E-001	0
1.8627221E+004	6.685019855423889E+001	-7.8493571E-001	-4.213917717710353E-002	3.3076543E-005	-7.8483808E-001	0
1.8474625E+004	6.705019854918646E+001	-7.8696126E-001	-4.259687343474006E-002	3.3522090E-005	-7.8683811E-001	0
1.8292400E+004	6.725019854413404E+001	-7.8891367E-001	-4.312794779843399E-002	3.4024226E-005	-7.8883809E-001	0
1.8128176E+004	6.745019853908161E+001	-7.9095340E-001	-4.363116141685341E-002	3.4510216E-005	-7.9083806E-001	0
1.7947137E+004	6.765019853402919E+001	-7.9284632E-001	-4.417675611475413E-002	3.5025379E-005	-7.9283804E-001	0
1.7768762E+004	6.785019852897676E+001	-7.9487997E-001	-4.473468699981414E-002	3.5558707E-005	-7.9483813E-001	0
1.7595307E+004	6.805019852392434E+001	-7.9694521E-001	-4.529305637308323E-002	3.6096084E-005	-7.9683816E-001	0
1.7405174E+004	6.825019851887191E+001	-7.9892153E-001	-4.590137980301823E-002	3.6671601E-005	-7.9883808E-001	0
1.7209551E+004	6.845019851381949E+001	-8.0088919E-001	-4.653748304186101E-002	3.7271366E-005	-8.0083811E-001	0
1.7026133E+004	6.865019850876706E+001	-8.0288327E-001	-4.715593787419148E-002	3.7860715E-005	-8.0283815E-001	0
1.6825938E+004	6.885019850371464E+001	-8.0494261E-001	-4.783939369721868E-002	3.8507966E-005	-8.0483800E-001	0
1.6645930E+004	6.905019849866221E+001	-8.0688518E-001	-4.847342300687019E-002	3.9112489E-005	-8.0683810E-001	0
1.6437266E+004	6.925019849360979E+001	-8.0884653E-001	-4.920809590014830E-002	3.9801798E-005	-8.0883819E-001	0
1.6238149E+004	6.945019848855736E+001	-8.1088138E-001	-4.993681027870744E-002	4.0492829E-005	-8.1083804E-001	0
1.6040760E+004	6.965019848350494E+001	-8.1289506E-001	-5.067684208760948E-002	4.1194955E-005	-8.1283814E-001	0
1.5829168E+004	6.985019847845251E+001	-8.1495172E-001	-5.148417840114120E-002	4.1957119E-005	-8.1483811E-001	0
1.5617283E+004	7.005019847340009E+001	-8.1685758E-001	-5.230471820785942E-002	4.2725504E-005	-8.1683809E-001	0
1.5410220E+004	7.025019846834766E+001	-8.1891531E-001	-5.314105352895784E-002	4.3518023E-005	-8.1883806E-001	0
1.5193141E+004	7.045019846329524E+001	-8.2094127E-001	-5.403367874408965E-002	4.4358476E-005	-8.2083809E-001	0
1.4981104E+004	7.065019845824281E+001	-8.2293689E-001	-5.493165524317420E-002	4.5205285E-005	-8.2283813E-001	0
1.4764157E+004	7.085019845319039E+001	-8.2488978E-001	-5.587110486538349E-002	4.6087502E-005	-8.2483804E-001	0
1.4536829E+004	7.105019844813796E+001	-8.2697254E-001	-5.688809822397944E-002	4.7044894E-005	-8.2683802E-001	0
1.4317260E+004	7.125019844308554E+001	-8.2892179E-001	-5.789667859677716E-002	4.7991820E-005	-8.2883817E-001	0
1.4099460E+004	7.145019843803311E+001	-8.3097047E-001	-5.893633161120265E-002	4.8974351E-005	-8.3083814E-001	0
1.3873299E+004	7.165019843298069E+001	-8.3292723E-001	-6.003815384714745E-002	5.0007413E-005	-8.3283806E-001	0
1.3649561E+004	7.185019842792826E+001	-8.3498806E-001	-6.117325414514863E-002	5.1078936E-005	-8.3483815E-001	0
1.3430063E+004	7.205019842287584E+001	-8.3696163E-001	-6.232001141923793E-002	5.2159459E-005	-8.3683813E-001	0
1.3202715E+004	7.225019841782341E+001	-8.3894283E-001	-6.354320761768756E-002	5.3309119E-005	-8.3883798E-001	0
1.2969877E+004	7.245019841277099E+001	-8.4092957E-001	-6.483712743401782E-002	5.4523458E-005	-8.4083807E-001	0
1.2743136E+004	7.265019840771856E+001	-8.4293282E-001	-6.614799151416673E-002	5.5758312E-005	-8.4283817E-001	0
1.2516950E+004	7.285019840266614E+001	-8.4497130E-001	-6.750616330131809E-002	5.7040772E-005	-8.4483802E-001	0
1.2286395E+004	7.305019839761371E+001	-8.4685624E-001	-6.892633982279395E-002	5.8370701E-005	-8.4683812E-001	0
1.2058149E+004	7.325019839256129E+001	-8.4898436E-001	-7.040751662924705E-002	5.9774880E-005	-8.4883809E-001	0
1.1826673E+004	7.345019838750886E+001	-8.5094321E-001	-7.195119448629150E-002	6.1226383E-005	-8.5083807E-001	0
1.1603914E+004	7.365019838245644E+001	-8.5296822E-001	-7.350693741927328E-002	6.2699080E-005	-8.5283816E-001	0
1.1372258E+004	7.385019837740401E+001	-8.5494071E-001	-7.517774483345241E-002	6.4272514E-005	-8.5483807E-001	0
1.1142473E+004	7.405019837235159E+001	-8.5698390E-001	-7.691146377600788E-002	6.5911889E-005	-8.5683823E-001	0
1.0925796E+004	7.425019836729916E+001	-8.5895234E-001	-7.861691160505546E-002	6.7528177E-005	-8.5883808E-001	0
1.0691699E+004	7.445019836224674E+001	-8.6092830E-001	-8.052305804455717E-002	6.9324582E-005	-8.6083800E-001	0
1.0467767E+004	7.465019835719431E+001	-8.6296594E-001	-8.244031443748479E-002	7.1143186E-005	-8.6283815E-001	0
1.0241781E+004	7.485019835214189E+001	-8.6492586E-001	-8.445072764437866E-002	7.3043615E-005	-8.6483812E-001	0
1.0022840E+004	7.505019834708946E+001	-8.6698812E-001	-8.650124091137583E-002	7.4995551E-005	-8.6683810E-001	0
9.8008828E+003	7.525019834203704E+001	-8.6895692E-001	-8.866109080768958E-002	7.7042670E-005	-8.6883813E-001	0
9.5830967E+003	7.545019833698461E+001	-8.7093455E-001	-9.088237476355643E-002	7.9152596E-005	-8.7083811E-001	0
9.3647441E+003	7.565019833193219E+001	-8.7292713E-001	-9.321419689212984E-002	8.1369202E-005	-8.7283808E-001	0
9.1487939E+003	7.585019832687976E+001	-8.7494344E-001	-9.563484147260737E-002	8.3675077E-005	-8.7483805E-001	0
8.8909863E+003	7.606019832157472E+001	-8.7698382E-001	-9.863740325730574E-002	8.6503409E-005	-8.7693816E-001	0
8.6445791E+003	7.627019831626967E+001	-8.7909621E-001	-1.016933512821154E-001	8.9398243E-005	-8.7903798E-001	0
8.4358066E+003	7.647019831121725E+001	-8.8106602E-001	-1.044435974763804E-001	9.2021706E-005	-8.8103801E-001	0
8.2300400E+003	7.667019830616482E+001	-8.8312030E-001	-1.073044908323796E-001	9.4762770E-005	-8.8303816E-001	0
8.0267134E+003	7.687019830111240E+001	-8.8508874E-001	-1.102678901346956E-001	9.7596865E-005	-8.8503814E-001	0
7.8253159E+003	7.707019829605997E+001	-8.8709295E-001	-1.133619358059859E-001	1.0056257E-004	-8.8703805E-001	0
7.6281094E+003	7.727019829100755E+001	-8.8909632E-001	-1.165552638342304E-001	1.0362886E-004	-8.8903815E-001	0
7.4316001E+003	7.747019828595512E+001	-8.9108455E-001	-1.199048039885640E-001	1.0684532E-004	-8.9103812E-001	0
7.2396499E+003	7.767019828090270E+001	-8.9309597E-001	-1.233617643775027E-001	1.1017390E-004	-8.9303809E-001	0
7.0510122E+003	7.787019827585027E+001	-8.9510816E-001	-1.269474741379795E-001	1.1363172E-004	-8.9503807E-001	0
6.8611948E+003	7.807019827079785E+001	-8.9712423E-001	-1.307533537523394E-001	1.1730200E-004	-8.9703816E-001	0
6.6741406E+003	7.827019826574542E+001	-8.9908272E-001	-1.347113852051266E-001	1.2111668E-004	-8.9903814E-001	0
6.4959805E+003	7.847019826069300E+001	-9.0111053E-001	-1.387181707864835E-001	1.2500040E-004	-9.0103811E-001	0
6.3207837E+003	7.867019825564057E+001	-9.0312850E-001	-1.428823603091173E-001	1.2904113E-004	-9.0303808E-001	0
6.1469419E+003	7.887019825058815E+001	-9.0508252E-001	-1.472411108089187E-001	1.3326536E-004	-9.0503806E-001	0
5.9771758E+003	7.907019824553572E+001	-9.0712166E-001	-1.517642592903553E-001	1.3766864E-004	-9.0703815E-001	0
5.8113652E+003	7.927019824048330E+001	-9.0910596E-001	-1.564358651665483E-001	1.4221677E-004	-9.0903813E-001	0
5.6506274E+003	7.947019823543087E+001	-9.1111302E-001	-1.612410378935930E-001	1.4690882E-004	-9.1103810E-001	0
5.4932642E+003	7.967019823037845E+001	-9.1311187E-001	-1.662239176083928E-001	1.5178103E-004	-9.1303807E-001	0
5.3406055E+003	7.987019822532602E+001	-9.1509861E-001	-1.713473535503962E-001	1.5679972E-004	-9.1503811E-001	0
5.1927759E+003	8.007019822027360E+001	-9.1707766E-001	-1.766064353973569E-001	1.6196181E-004	-9.1703814E-001	0
5.0491328E+003	8.027019821522117E+001	-9.1914135E-001	-1.820394551273767E-001	1.6731999E-004	-9.1903812E-001	0
4.9100400E+003	8.047019821016875E+001	-9.2109609E-001	-1.875944146358508E-001	1.7279248E-004	-9.2103809E-001	0
4.7751753E+003	8.067019820511632E+001	-9.2310816E-001	-1.933139926023237E-001	1.7844973E-004	-9.2303813E-001	0
4.6454873E+003	8.087019820006390E+001	-9.2515039E-001	-1.991503385303197E-001	1.8424401E-004	-9.2503816E-001	0
4.5204434E+003	8.107019819501147E+001	-9.2709488E-001	-2.050893676156793E-001	1.9013730E-004	-9.2703813E-001	0
4.3995659E+003	8.127019818995905E+001	-9.2911321E-001	-2.111829270158898E-001	1.9621284E-004	-9.2903805E-001	0
4.2820020E+003	8.147019818490662E+001	-9.3113309E-001	-2.174527492361505E-001	2.0247744E-004	-9.3103814E-001	0
4.1697729E+003	8.167019817985420E+001	-9.3312734E-001	-2.237837216679566E-001	2.0881870E-004	-9.3303812E-001	0
4.0540842E+003	8.187019817480177E+001	-9.3507123E-001	-2.306491806723034E-001	2.1567341E-004	-9.3503803E-001	0
3.9355996E+003	8.207019816974935E+001	-9.3709528E-001	-2.381073675411939E-001	2.2312929E-004	-9.3703818E-001	0
3.8344268E+003	8.227019816469692E+001	-9.3911779E-001	-2.449173856285860E-001	2.3000628E-004	-9.3903804E-001	0
3.7365300E+003	8.247019815964450E+001	-9.4112527E-001	-2.518714658911776E-001	2.3704261E-004	-9.4103813E-001	0
3.6391575E+003	8.267019815459207E+001	-9.4313341E-001	-2.591625673763973E-001	2.4442488E-004	-9.4303811E-001	0
3.5438911E+003	8.287019814953965E+001	-9.4508570E-001	-2.666802411379463E-001	2.5203568E-004	-9.4503820E-001	0
3.4503159E+003	8.307019814448722E+001	-9.4716102E-001	-2.745142951671067E-001	2.6000923E-004	-9.4703817E-001	0
3.3578660E+003	8.327019813943480E+001	-9.4904476E-001	-2.826333021293161E-001	2.6823167E-004	-9.4903809E-001	0
3.2671113E+003	8.347019813438237E+001	-9.5115876E-001	-2.911314172839186E-001	2.7691221E-004	-9.5103812E-001	0
3.1771394E+003	8.367019812932995E+001	-9.5312643E-001	-2.999951517391006E-001	2.8593332E-004	-9.5303810E-001	0
3.0883804E+003	8.387019812427752E+001	-9.5516855E-001	-3.092781370716859E-001	2.9541276E-004	-9.5503807E-001	0
2.9996042E+003	8.407019811922510E+001	-9.5710200E-001	-3.190760866162305E-001	3.0538836E-004	-9.5703810E-001	0
2.9131768E+003	8.427019811417267E+001	-9.5914185E-001	-3.292425842322162E-001	3.1579036E-004	-9.5903814E-001	0
2.8270938E+003	8.447019810912025E+001	-9.6114343E-001	-3.399757956832534E-001	3.2676550E-004	-9.6103811E-001	0
2.7418772E+003	8.467019810406782E+001	-9.6311212E-001	-3.512601182477177E-001	3.3830287E-004	-9.6303809E-001	0
2.6498376E+003	8.487019809901540E+001	-9.6513653E-001	-3.642247654117501E-001	3.5152663E-004	-9.6503812E-001	0
2.5666213E+003	8.507019809396297E+001	-9.6713603E-001	-3.768129125976607E-001	3.6442935E-004	-9.6703809E-001	0
2.4880591E+003	8.527019808891055E+001	-9.6914798E-001	-3.895196733772419E-001	3.7750221E-004	-9.6903807E-001	0
2.4113584E+003	8.547019808385812E+001	-9.7108376E-001	-4.027123189744564E-001	3.9106738E-004	-9.7103816E-001	0
2.3372563E+003	8.567019807880570E+001	-9.7310263E-001	-4.163440040095194E-001	4.0514543E-004	-9.7303814E-001	0
2.2654294E+003	8.587019807375327E+001	-9.7512782E-001	-4.304384097304883E-001	4.1973247E-004	-9.7503811E-001	0
2.1964849E+003	8.607019806870085E+001	-9.7713923E-001	-4.448650220489272E-001	4.3469507E-004	-9.7703809E-001	0
2.1301335E+003	8.627019806364842E+001	-9.7911984E-001	-4.596518547381869E-001	4.5005424E-004	-9.7903818E-001	0
2.0665396E+003	8.647019805859600E+001	-9.8115844E-001	-4.747832840321236E-001	4.6583763E-004	-9.8103815E-001	0
1.9988817E+003	8.667019805354357E+001	-9.8308235E-001	-4.918161579228242E-001	4.8349579E-004	-9.8303813E-001	0
1.9388943E+003	8.687019804849115E+001	-9.8510826E-001	-5.080773399429024E-001	5.0051120E-004	-9.8503810E-001	0
1.8833553E+003	8.707019804343872E+001	-9.8707056E-001	-5.241021342415007E-001	5.1732577E-004	-9.8703820E-001	0
1.8307495E+003	8.727019803838630E+001	-9.8910826E-001	-5.402750337069826E-001	5.3439051E-004	-9.8903805E-001	0
1.7806215E+003	8.747019803333387E+001	-9.9108344E-001	-5.565941317467318E-001	5.5163121E-004	-9.9103808E-001	0
1.7328436E+003	8.767019802828145E+001	-9.9310303E-001	-5.731059810792916E-001	5.6915329E-004	-9.9303812E-001	0
1.6872247E+003	8.787019802322902E+001	-9.9507874E-001	-5.897725130264506E-001	5.8687007E-004	-9.9503809E-001	0
1.6438896E+003	8.807019801817660E+001	-9.9709690E-001	-6.065473638669241E-001	6.0478650E-004	-9.9703813E-001	0
1.5970337E+003	8.827019801312417E+001	-9.9911988E-001	-6.256097501097346E-001	6.2505913E-004	-9.9903810E-001	0
1.5567992E+003	8.847019800807175E+001	-1.0011239E+000	-6.430655557898781E-001	6.4378831E-004	-1.0010381E+000	0
1.5200800E+003	8.867019800301932E+001	-1.0031977E+000	-6.599637721908032E-001	6.6207413E-004	-1.0030380E+000	0
1.4848668E+003	8.887019799796690E+001	-1.0051364E+000	-6.769202431989081E-001	6.8039715E-004	-1.0050380E+000	0
1.4510643E+003	8.907019799291447E+001	-1.0071094E+000	-6.940487809225822E-001	6.9898303E-004	-1.0070380E+000	0
1.4193928E+003	8.927019798786205E+001	-1.0091299E+000	-7.109588568400831E-001	7.1744982E-004	-1.0090381E+000	0
1.3891094E+003	8.947019798280962E+001	-1.0111278E+000	-7.278964569889292E-001	7.3599635E-004	-1.0110381E+000	0
1.3573394E+003	8.967019797775720E+001	-1.0130745E+000	-7.463678891840253E-001	7.5612630E-004	-1.0130382E+000	0
1.3275853E+003	8.987019797270477E+001	-1.0151078E+000	-7.646271582067761E-001	7.7617896E-004	-1.0150380E+000	0
1.3015914E+003	9.007019796765235E+001	-1.0171634E+000	-7.814766912427569E-001	7.9488946E-004	-1.0170381E+000	0
1.2767902E+003	9.027019796259992E+001	-1.0191464E+000	-7.982098083529223E-001	8.1349269E-004	-1.0190381E+000	0
1.2529337E+003	9.047019795754750E+001	-1.0211389E+000	-8.149983510881889E-001	8.3222653E-004	-1.0210382E+000	0
1.2303153E+003	9.067019795249507E+001	-1.0231472E+000	-8.316138659491976E-001	8.5086341E-004	-1.0230380E+000	0
1.2085963E+003	9.087019794744265E+001	-1.0251830E+000	-8.482427045010277E-001	8.6960394E-004	-1.0250381E+000	0
1.1877697E+003	9.107019794239022E+001	-1.0271300E+000	-8.647552502094484E-001	8.8821608E-004	-1.0270381E+000	0
1.1641730E+003	9.127019793733780E+001	-1.0291365E+000	-8.840065981238219E-001	9.0976350E-004	-1.0290381E+000	0
1.1455006E+003	9.147019793228537E+001	-1.0311600E+000	-9.001828411133666E-001	9.2823256E-004	-1.0310382E+000	0
1.1275953E+003	9.167019792723295E+001	-1.0331874E+000	-9.162749964110279E-001	9.4668375E-004	-1.0330381E+000	0
1.1103940E+003	9.187019792218052E+001	-1.0351638E+000	-9.322490122448002E-001	9.6503040E-004	-1.0350381E+000	0
1.0936703E+003	9.207019791712810E+001	-1.0371158E+000	-9.482892585956311E-001	9.8348584E-004	-1.0370380E+000	0
1.0775316E+003	9.227019791207567E+001	-1.0391563E+000	-9.643858654293609E-001	1.0021477E-003	-1.0390381E+000	0
1.0618964E+003	9.247019790702325E+001	-1.0411370E+000	-9.804506654219729E-001	1.0207834E-003	-1.0410382E+000	0
1.0463754E+003	9.267019790197082E+001	-1.0431652E+000	-9.969321481140142E-001	1.0399650E-003	-1.0430381E+000	0
1.0293379E+003	9.287019789691840E+001	-1.0451410E+000	-1.015352704940261E+000	1.0611868E-003	-1.0450381E+000	0
1.0158240E+003	9.307019789186597E+001	-1.0471244E+000	-1.030812773262227E+000	1.0793892E-003	-1.0470381E+000	0
1.0025069E+003	9.327019788681355E+001	-1.0491616E+000	-1.046537999258021E+000	1.0979874E-003	-1.0490382E+000	0
9.8850812E+002	9.348019788150850E+001	-1.0512455E+000	-1.063466696667961E+000	1.1179645E-003	-1.0511382E+000	0
9.7337054E+002	9.369019787620346E+001	-1.0533404E+000	-1.082157723200156E+000	1.1398805E-003	-1.0532382E+000	0
9.6130145E+002	9.389019787115103E+001	-1.0553094E+000	-1.097792377919286E+000	1.1585107E-003	-1.0552381E+000	0
9.4922009E+002	9.409019786609861E+001	-1.0573276E+000	-1.113890906310127E+000	1.1777476E-003	-1.0572381E+000	0
9.3605048E+002	9.429019786104618E+001	-1.0593070E+000	-1.131677180207642E+000	1.1987935E-003	-1.0592381E+000	0
9.2330420E+002	9.449019785599376E+001	-1.0613133E+000	-1.149473053181454E+000	1.2199510E-003	-1.0612382E+000	0
9.1209210E+002	9.469019785094133E+001	-1.0633324E+000	-1.165816981531258E+000	1.2396510E-003	-1.0632381E+000	0
9.0090924E+002	9.489019784588891E+001	-1.0653459E+000	-1.182522989496960E+000	1.2597960E-003	-1.0652381E+000	0
8.9016156E+002	9.509019784083648E+001	-1.0673095E+000	-1.199006476521895E+000	1.2797110E-003	-1.0672381E+000	0
8.7940350E+002	9.529019783578406E+001	-1.0693170E+000	-1.215957175247594E+000	1.3002437E-003	-1.0692382E+000	0
8.6870685E+002	9.549019783073163E+001	-1.0713154E+000	-1.233230093557411E+000	1.3211784E-003	-1.0712382E+000	0
8.5816937E+002	9.569019782567921E+001	-1.0733160E+000	-1.250704166705376E+000	1.3424008E-003	-1.0732381E+000	0
8.4486365E+002	9.589019782062678E+001	-1.0753217E+000	-1.272775395792360E+000	1.3686430E-003	-1.0752381E+000	0
8.3453064E+002	9.609019781557436E+001	-1.0773106E+000	-1.290917906513151E+000	1.3907196E-003	-1.0772380E+000	0
8.2410254E+002	9.629019781052193E+001	-1.0793209E+000	-1.309692508061660E+000	1.4135785E-003	-1.0792382E+000	0
8.1373816E+002	9.649019780546951E+001	-1.0813124E+000	-1.328821037902312E+000	1.4368707E-003	-1.0812382E+000	0
8.0320197E+002	9.669019780041708E+001	-1.0833226E+000	-1.348755006752321E+000	1.4611369E-003	-1.0832382E+000	0
7.9254077E+002	9.689019779536466E+001	-1.0853404E+000	-1.369444222660423E+000	1.4863131E-003	-1.0852381E+000	0
7.8041949E+002	9.709019779031223E+001	-1.0873369E+000	-1.393272387374894E+000	1.5149565E-003	-1.0872381E+000	0
7.6835760E+002	9.729019778525981E+001	-1.0893177E+000	-1.417722226751972E+000	1.5443499E-003	-1.0892382E+000	0
7.5774023E+002	9.749019778020738E+001	-1.0913134E+000	-1.440220911402143E+000	1.5717323E-003	-1.0912381E+000	0
7.4683887E+002	9.769019777515496E+001	-1.0932781E+000	-1.463874035326942E+000	1.6004214E-003	-1.0932380E+000	0
7.3606256E+002	9.789019777010253E+001	-1.0953130E+000	-1.488070437764911E+000	1.6299029E-003	-1.0952381E+000	0
7.2399261E+002	9.809019776505011E+001	-1.0973082E+000	-1.515634512668155E+000	1.6631181E-003	-1.0972381E+000	0
7.1205005E+002	9.829019775999768E+001	-1.0993004E+000	-1.543852698235281E+000	1.6971579E-003	-1.0992380E+000	0
7.0097754E+002	9.849019775494526E+001	-1.1012992E+000	-1.571090514520328E+000	1.7302406E-003	-1.1012381E+000	0
6.8993591E+002	9.869019774989283E+001	-1.1033381E+000	-1.599189270803044E+000	1.7644465E-003	-1.1032381E+000	0
6.7900665E+002	9.889019774484041E+001	-1.1053472E+000	-1.627888483559197E+000	1.7993819E-003	-1.1052381E+000	0
6.6538293E+002	9.909019773978798E+001	-1.1072898E+000	-1.664139146166859E+000	1.8426843E-003	-1.1072381E+000	0
6.5407941E+002	9.929019773473556E+001	-1.1092789E+000	-1.695939230168761E+000	1.8812696E-003	-1.1092381E+000	0
6.4277649E+002	9.949019772968313E+001	-1.1113456E+000	-1.728976893114115E+000	1.9214910E-003	-1.1112382E+000	0
6.3135486E+002	9.969019772463071E+001	-1.1133476E+000	-1.763426126198439E+000	1.9633062E-003	-1.1132381E+000	0
6.1791028E+002	9.989019771957828E+001	-1.1152416E+000	-1.804860173659122E+000	2.0128551E-003	-1.1152381E+000	0
6.0670978E+002	1.000901977145259E+002	-1.1173127E+000	-1.841593326388306E+000	2.0576355E-003	-1.1172380E+000	0
5.9514069E+002	1.002901977094734E+002	-1.1193564E+000	-1.880826626826178E+000	2.1053152E-003	-1.1192381E+000	0
5.8146625E+002	1.004901977044210E+002	-1.1212579E+000	-1.928328477995059E+000	2.1621536E-003	-1.1212381E+000	0
5.6985791E+002	1.006901976993686E+002	-1.1233156E+000	-1.971220482639174E+000	2.2143028E-003	-1.1232381E+000	0
5.5819952E+002	1.008901976943162E+002	-1.1252981E+000	-2.015942508637778E+000	2.2685362E-003	-1.1252382E+000	0
5.4424164E+002	1.010901976892637E+002	-1.1273471E+000	-2.071409221020547E+000	2.3351973E-003	-1.1272380E+000	0
5.3209241E+002	1.012901976842113E+002	-1.1293269E+000	-2.122426449357107E+000	2.3969135E-003	-1.1292381E+000	0
5.1871906E+002	1.014901976791589E+002	-1.1312881E+000	-2.180926263197215E+000	2.4672558E-003	-1.1312381E+000	0
5.0604434E+002	1.016901976741065E+002	-1.1332766E+000	-2.239480778507360E+000	2.5379511E-003	-1.1332381E+000	0
4.9328857E+002	1.018901976690540E+002	-1.1353240E+000	-2.301541290822477E+000	2.6129950E-003	-1.1352382E+000	0
4.8072726E+002	1.020901976640016E+002	-1.1373215E+000	-2.365835173718651E+000	2.6907152E-003	-1.1372381E+000	0
4.6829834E+002	1.022901976589492E+002	-1.1393056E+000	-2.432862744157686E+000	2.7717741E-003	-1.1392381E+000	0
4.5625925E+002	1.024901976538968E+002	-1.1413288E+000	-2.501491958490831E+000	2.8550248E-003	-1.1412382E+000	0
4.4335956E+002	1.026901976488443E+002	-1.1433187E+000	-2.578761793284455E+000	2.9483465E-003	-1.1432382E+000	0
4.3193427E+002	1.028901976437919E+002	-1.1452974E+000	-2.651554857555979E+000	3.0368189E-003	-1.1452380E+000	0
4.1926727E+002	1.030901976387395E+002	-1.1473302E+000	-2.736512661791171E+000	3.1396835E-003	-1.1472381E+000	0
4.0738678E+002	1.032901976336871E+002	-1.1493237E+000	-2.821210047808790E+000	3.2424836E-003	-1.1492381E+000	0
3.9600082E+002	1.034901976286346E+002	-1.1512873E+000	-2.907285110192916E+000	3.3471205E-003	-1.1512382E+000	0
3.8395728E+002	1.036901976235822E+002	-1.1533343E+000	-3.003808813249861E+000	3.4643956E-003	-1.1532382E+000	0
3.7208972E+002	1.038901976185298E+002	-1.1553510E+000	-3.105033518032712E+000	3.5874038E-003	-1.1552380E+000	0
3.6074774E+002	1.040901976134774E+002	-1.1572802E+000	-3.208003933704084E+000	3.7125594E-003	-1.1572381E+000	0
3.4945004E+002	1.042901976084249E+002	-1.1593260E+000	-3.317572942463997E+000	3.8461485E-003	-1.1592381E+000	0
3.3810217E+002	1.044901976033725E+002	-1.1613377E+000	-3.434872097946069E+000	3.9890464E-003	-1.1612381E+000	0
3.2585889E+002	1.046901975983201E+002	-1.1633077E+000	-3.569973580015485E+000	4.1529778E-003	-1.1632382E+000	0
3.1385342E+002	1.048901975932677E+002	-1.1653334E+000	-3.712986242203470E+000	4.3268669E-003	-1.1652381E+000	0
3.0300504E+002	1.050901975882152E+002	-1.1673213E+000	-3.852481613083486E+000	4.4970838E-003	-1.1672380E+000	0
2.9221805E+002	1.052901975831628E+002	-1.1693429E+000	-4.001610663134485E+000	4.6792547E-003	-1.1692381E+000	0
2.8139633E+002	1.054901975781104E+002	-1.1713412E+000	-4.162602750250798E+000	4.8758280E-003	-1.1712382E+000	0
2.7099231E+002	1.056901975730580E+002	-1.1733090E+000	-4.329676138300472E+000	5.0800480E-003	-1.1732380E+000	0
2.6100500E+002	1.058901975680055E+002	-1.1753561E+000	-4.503193964324318E+000	5.2928566E-003	-1.1752381E+000	0
2.5149487E+002	1.060901975629531E+002	-1.1773325E+000	-4.681337971941417E+000	5.5114916E-003	-1.1772381E+000	0
2.4174777E+002	1.062901975579007E+002	-1.1793178E+000	-4.878298653429077E+000	5.7530645E-003	-1.1792382E+000	0
2.3081009E+002	1.064901975528483E+002	-1.1813012E+000	-5.118065779137510E+000	6.0459776E-003	-1.1812382E+000	0
2.2180040E+002	1.066901975477958E+002	-1.1833231E+000	-5.335081131043349E+000	6.3131251E-003	-1.1832380E+000	0
2.1310065E+002	1.068901975427434E+002	-1.1853226E+000	-5.562266597435567E+000	6.5930807E-003	-1.1852381E+000	0
2.0458415E+002	1.070901975376910E+002	-1.1873249E+000	-5.803601353684797E+000	6.8907603E-003	-1.1872381E+000	0
1.9639664E+002	1.072901975326386E+002	-1.1892905E+000	-6.055554283922241E+000	7.2018132E-003	-1.1892381E+000	0
1.8814653E+002	1.074901975275861E+002	-1.1913146E+000	-6.331844695774073E+000	7.5432188E-003	-1.1912382E+000	0
1.7970000E+002	1.076901975225337E+002	-1.1933200E+000	-6.640623620375489E+000	7.9243891E-003	-1.1932381E+000	0
1.7220993E+002	1.078901975174813E+002	-1.1953477E+000	-6.941223664686511E+000	8.2971752E-003	-1.1952381E+000	0
1.6492912E+002	1.080901975124289E+002	-1.1973345E+000	-7.259691038775031E+000	8.6922785E-003	-1.1972381E+000	0
1.5754477E+002	1.082901975073764E+002	-1.1993502E+000	-7.612758368659172E+000	9.1303634E-003	-1.1992382E+000	0
1.5062668E+002	1.084901975023240E+002	-1.2013336E+000	-7.975569957102763E+000	9.5813209E-003	-1.2012382E+000	0
1.4420959E+002	1.086901974972716E+002	-1.2033098E+000	-8.344172798046458E+000	1.0040625E-002	-1.2032381E+000	0
1.3797522E+002	1.088901974922192E+002	-1.2053368E+000	-8.735893534627309E+000	1.0529694E-002	-1.2052381E+000	0
1.3172011E+002	1.090901974871667E+002	-1.2072966E+000	-9.165620952574287E+000	1.1065623E-002	-1.2072381E+000	0
1.2605270E+002	1.092901974821143E+002	-1.2093441E+000	-9.593957126478500E+000	1.1602396E-002	-1.2092382E+000	0
1.2035294E+002	1.094901974770619E+002	-1.2113693E+000	-1.006514065869810E+001	1.2192602E-002	-1.2112381E+000	0
1.1489363E+002	1.096901974720095E+002	-1.2133235E+000	-1.056040676502415E+001	1.2813189E-002	-1.2132381E+000	0
1.0874711E+002	1.099001974667044E+002	-1.2154875E+000	-1.117719345372545E+001	1.3585739E-002	-1.2153381E+000	0
1.0375945E+002	1.101101974613994E+002	-1.2175555E+000	-1.173440566415688E+001	1.4287290E-002	-1.2174381E+000	0
9.9139343E+001	1.103101974563469E+002	-1.2195580E+000	-1.230145302867675E+001	1.5002335E-002	-1.2194382E+000	0
9.4776802E+001	1.105101974512945E+002	-1.2215525E+000	-1.288872882703535E+001	1.5744260E-002	-1.2214382E+000	0
9.0536835E+001	1.107101974462421E+002	-1.2235460E+000	-1.351434549804176E+001	1.6535424E-002	-1.2234381E+000	0
8.6226372E+001	1.109101974411897E+002	-1.2255256E+000	-1.421288616722131E+001	1.7418256E-002	-1.2254381E+000	0
8.2581070E+001	1.111101974361372E+002	-1.2275568E+000	-1.486486958538325E+001	1.8247472E-002	-1.2274381E+000	0
7.8825645E+001	1.113101974310848E+002	-1.2295625E+000	-1.559850901230128E+001	1.9179342E-002	-1.2294382E+000	0
7.5341248E+001	1.115101974260324E+002	-1.2316154E+000	-1.634716001240838E+001	2.0133415E-002	-1.2314382E+000	0
7.1886108E+001	1.117101974209800E+002	-1.2336154E+000	-1.716069233944629E+001	2.1169694E-002	-1.2334381E+000	0
6.8651749E+001	1.119101974159275E+002	-1.2355188E+000	-1.799690273829864E+001	2.2235513E-002	-1.2354381E+000	0
6.5715157E+001	1.121101974108751E+002	-1.2375687E+000	-1.883231797996837E+001	2.3306288E-002	-1.2374381E+000	0
6.2736549E+001	1.123101974058227E+002	-1.2395810E+000	-1.975851414546941E+001	2.4492279E-002	-1.2394382E+000	0
6.0068024E+001	1.125101974007703E+002	-1.2415249E+000	-2.066865011150875E+001	2.5660645E-002	-1.2414382E+000	0
5.7442360E+001	1.127101973957178E+002	-1.2435931E+000	-2.164940830274507E+001	2.6923055E-002	-1.2434381E+000	0
5.4829491E+001	1.129101973906654E+002	-1.2455715E+000	-2.271718229566304E+001	2.8295875E-002	-1.2454381E+000	0
5.2596268E+001	1.131101973856130E+002	-1.2476010E+000	-2.372033350091951E+001	2.9593512E-002	-1.2474381E+000	0
5.0284172E+001	1.133101973805606E+002	-1.2495371E+000	-2.484951204034468E+001	3.1050388E-002	-1.2494382E+000	0
4.8019272E+001	1.135101973755081E+002	-1.2515022E+000	-2.606249737793632E+001	3.2617271E-002	-1.2514381E+000	0
4.5979088E+001	1.137101973704557E+002	-1.2535926E+000	-2.726440745713751E+001	3.4178458E-002	-1.2534381E+000	0
4.3996906E+001	1.139101973654033E+002	-1.2555329E+000	-2.853684488121348E+001	3.5828948E-002	-1.2554381E+000	0
4.2148254E+001	1.141101973603509E+002	-1.2575226E+000	-2.983569750331702E+001	3.7519064E-002	-1.2574381E+000	0
4.0426170E+001	1.143101973552984E+002	-1.2595630E+000	-3.115711926602989E+001	3.9244354E-002	-1.2594383E+000	0
3.8759727E+001	1.145101973502460E+002	-1.2615743E+000	-3.254858506861194E+001	4.1062456E-002	-1.2614381E+000	0
3.7086868E+001	1.147101973451936E+002	-1.2635583E+000	-3.407023365778718E+001	4.3049727E-002	-1.2634381E+000	0
3.5554214E+001	1.149101973401412E+002	-1.2655501E+000	-3.559494036530694E+001	4.5047183E-002	-1.2654382E+000	0
3.4075375E+001	1.151101973350887E+002	-1.2676101E+000	-3.720018029834688E+001	4.7155324E-002	-1.2674382E+000	0
3.2747700E+001	1.153101973300363E+002	-1.2695258E+000	-3.876686885567756E+001	4.9215540E-002	-1.2694383E+000	0
3.1438314E+001	1.155101973249839E+002	-1.2716203E+000	-4.044810558311536E+001	5.1434632E-002	-1.2714381E+000	0
3.0260647E+001	1.157101973199315E+002	-1.2736024E+000	-4.208774483555305E+001	5.3603053E-002	-1.2734381E+000	0
2.9123495E+001	1.159101973148790E+002	-1.2755754E+000	-4.379884461697009E+001	5.5868730E-002	-1.2754381E+000	0
2.8041599E+001	1.161101973098266E+002	-1.2775849E+000	-4.556034285681596E+001	5.8207206E-002	-1.2774380E+000	0
2.7012140E+001	1.163101973047742E+002	-1.2795864E+000	-4.737079058888298E+001	6.0615022E-002	-1.2794381E+000	0
2.6076925E+001	1.165101972997218E+002	-1.2815822E+000	-4.914621904674846E+001	6.2984921E-002	-1.2814381E+000	0
2.5166687E+001	1.167101972946693E+002	-1.2836034E+000	-5.100407024251604E+001	6.5468997E-002	-1.2834381E+000	0
2.4385914E+001	1.169101972896169E+002	-1.2855703E+000	-5.271773883707129E+001	6.7772359E-002	-1.2854381E+000	0
2.3721569E+001	1.171101972845645E+002	-1.2876058E+000	-5.427995618995345E+001	6.9891185E-002	-1.2874382E+000	0
2.2988846E+001	1.173101972795121E+002	-1.2895981E+000	-5.609668729094425E+001	7.2342180E-002	-1.2894381E+000	0
2.2243567E+001	1.175101972744596E+002	-1.2916048E+000	-5.806644175490533E+001	7.4998893E-002	-1.2914381E+000	0
2.1627449E+001	1.177101972694072E+002	-1.2935685E+000	-5.981142238424491E+001	7.7370174E-002	-1.2934382E+000	0
2.1070034E+001	1.179101972643548E+002	-1.2955871E+000	-6.148955713323994E+001	7.9665072E-002	-1.2954382E+000	0
2.0478308E+001	1.181101972593024E+002	-1.2975694E+000	-6.336311871556734E+001	8.2218044E-002	-1.2974381E+000	0
1.9943180E+001	1.183101972542499E+002	-1.2995558E+000	-6.516291897421252E+001	8.4682845E-002	-1.2994381E+000	0
1.9377844E+001	1.185101972491975E+002	-1.3015854E+000	-6.716874642923557E+001	8.7425865E-002	-1.3014381E+000	0
1.8839575E+001	1.187101972441451E+002	-1.3035506E+000	-6.919214422686537E+001	9.0195462E-002	-1.3034382E+000	0
1.8403755E+001	1.189101972390927E+002	-1.3055829E+000	-7.094110994652590E+001	9.2619501E-002	-1.3054382E+000	0
1.7824953E+001	1.191101972340402E+002	-1.3075829E+000	-7.335687284891293E+001	9.5920190E-002	-1.3074381E+000	0
1.7291752E+001	1.193101972289878E+002	-1.3096226E+000	-7.573684101688616E+001	9.9186681E-002	-1.3094382E+000	0
1.6962231E+001	1.195101972239354E+002	-1.3115335E+000	-7.732080842307887E+001	1.0140882E-001	-1.3114382E+000	0
1.6692598E+001	1.197101972188830E+002	-1.3135610E+000	-7.869122549465737E+001	1.0336572E-001	-1.3134382E+000	0
1.6457314E+001	1.199101972138305E+002	-1.3156025E+000	-7.994030008780987E+001	1.0516966E-001	-1.3154382E+000	0
1.5919345E+001	1.201101972087781E+002	-1.3175417E+000	-8.276356430226724E+001	1.0904445E-001	-1.3174381E+000	0
1.5270303E+001	1.203101972037257E+002	-1.3196121E+000	-8.641689533062799E+001	1.1403678E-001	-1.3194381E+000	0
1.4719484E+001	1.205101971986733E+002	-1.3216126E+000	-8.978660882465465E+001	1.1866311E-001	-1.3214382E+000	0
1.4315652E+001	1.207101971936208E+002	-1.3236384E+000	-9.246092604022988E+001	1.2238484E-001	-1.3234380E+000	0
1.4095322E+001	1.209101971885684E+002	-1.3255876E+000	-9.404451072891845E+001	1.2466424E-001	-1.3254380E+000	0
1.3922014E+001	1.211101971835160E+002	-1.3276184E+000	-9.536108097197462E+001	1.2660313E-001	-1.3274381E+000	0
1.3550335E+001	1.213101971784636E+002	-1.3296369E+000	-9.812575895337568E+001	1.3047163E-001	-1.3294382E+000	0
1.3225224E+001	1.215101971734111E+002	-1.3316379E+000	-1.006892430501189E+002	1.3408160E-001	-1.3314382E+000	0
1.2989692E+001	1.217101971683587E+002	-1.3336065E+000	-1.026665240069358E+002	1.3691674E-001	-1.3334382E+000	0
1.2387894E+001	1.219101971633063E+002	-1.3355894E+000	-1.078140834410433E+002	1.4399534E-001	-1.3354380E+000	0
1.2026450E+001	1.221201971580012E+002	-1.3377100E+000	-1.112306652412284E+002	1.4879438E-001	-1.3375382E+000	0
1.1858816E+001	1.223301971526962E+002	-1.3397692E+000	-1.129766457994503E+002	1.5136264E-001	-1.3396381E+000	0
1.1741073E+001	1.225301971476438E+002	-1.3417510E+000	-1.142783977666404E+002	1.5333316E-001	-1.3416382E+000	0
1.1459736E+001	1.227301971425914E+002	-1.3437855E+000	-1.172614791733877E+002	1.5757428E-001	-1.3436381E+000	0
1.1300082E+001	1.229301971375389E+002	-1.3457905E+000	-1.190956362704841E+002	1.6027778E-001	-1.3456380E+000	0
1.1229610E+001	1.231301971324865E+002	-1.3477726E+000	-1.200195352939259E+002	1.6175903E-001	-1.3476381E+000	0
1.0953311E+001	1.233301971274341E+002	-1.3497814E+000	-1.232304491683201E+002	1.6633417E-001	-1.3496382E+000	0
1.0549653E+001	1.235301971223817E+002	-1.3516979E+000	-1.281272425575860E+002	1.7318933E-001	-1.3516381E+000	0
1.0454849E+001	1.237301971173292E+002	-1.3537604E+000	-1.294863553112054E+002	1.7529349E-001	-1.3536382E+000	0
1.0257717E+001	1.239301971122768E+002	-1.3557895E+000	-1.321726333332713E+002	1.7919828E-001	-1.3556380E+000	0
1.0119229E+001	1.241301971072244E+002	-1.3577580E+000	-1.341760297027035E+002	1.8217859E-001	-1.3576381E+000	0
9.9629164E+000	1.243301971021720E+002	-1.3598063E+000	-1.364867740499192E+002	1.8559557E-001	-1.3596381E+000	0
9.6470604E+000	1.245301970971195E+002	-1.3618112E+000	-1.411633303376282E+002	1.9223779E-001	-1.3616381E+000	0
9.4956045E+000	1.247301970920671E+002	-1.3637753E+000	-1.436217454469124E+002	1.9586778E-001	-1.3636380E+000	0
9.3164225E+000	1.249301970870147E+002	-1.3658071E+000	-1.466020993180830E+002	2.0023018E-001	-1.3656380E+000	0
9.1967058E+000	1.251301970819623E+002	-1.3678323E+000	-1.487306836975946E+002	2.0343864E-001	-1.3676381E+000	0
9.1363859E+000	1.253301970769098E+002	-1.3697969E+000	-1.499276567716450E+002	2.0537044E-001	-1.3696382E+000	0
9.0615625E+000	1.255301970718574E+002	-1.3718097E+000	-1.513877605981029E+002	2.0767520E-001	-1.3716381E+000	0
8.9512634E+000	1.257301970668050E+002	-1.3737653E+000	-1.534716776785124E+002	2.1083407E-001	-1.3736380E+000	0
8.8357973E+000	1.259301970617526E+002	-1.3758312E+000	-1.557110400783777E+002	2.1423212E-001	-1.3756381E+000	0
8.7766190E+000	1.261301970567001E+002	-1.3778065E+000	-1.569860343706036E+002	2.1629639E-001	-1.3776381E+000	0
8.5419073E+000	1.263301970516477E+002	-1.3797292E+000	-1.615247213683699E+002	2.2286037E-001	-1.3796381E+000	0
8.2762432E+000	1.265202970468454E+002	-1.3816986E+000	-1.669475612544238E+002	2.3067121E-001	-1.3815389E+000	0
8.0378962E+000	1.267105970420380E+002	-1.3836362E+000	-1.721391005208061E+002	2.3817790E-001	-1.3834417E+000	0
7.9054446E+000	1.269108970369780E+002	-1.3856226E+000	-1.752744719742236E+002	2.4286427E-001	-1.3854449E+000	0
7.8933163E+000	1.271110970319205E+002	-1.3876454E+000	-1.758000473120117E+002	2.4394812E-001	-1.3874469E+000	0
7.7774887E+000	1.273112970268630E+002	-1.3896828E+000	-1.786801366301461E+002	2.4830870E-001	-1.3894491E+000	0
7.7016997E+000	1.275014970220582E+002	-1.3915726E+000	-1.806838253627670E+002	2.5143465E-001	-1.3913504E+000	0
7.6255455E+000	1.276818970175009E+002	-1.3933263E+000	-1.827182446782562E+002	2.5458613E-001	-1.3931547E+000	0
7.5820560E+000	1.278720970126960E+002	-1.3952487E+000	-1.840198287490039E+002	2.5675341E-001	-1.3950570E+000	0
7.5619230E+000	1.280722970076386E+002	-1.3972344E+000	-1.847723700429172E+002	2.5817031E-001	-1.3970590E+000	0
7.4644136E+000	1.282626970028286E+002	-1.3992127E+000	-1.874511276153208E+002	2.6228401E-001	-1.3989624E+000	0
7.2631540E+000	1.284531969980162E+002	-1.4010583E+000	-1.928994367522150E+002	2.7026337E-001	-1.4008676E+000	0
7.0694547E+000	1.286336969934564E+002	-1.4029164E+000	-1.984476148721062E+002	2.7840543E-001	-1.4026725E+000	0
6.9291205E+000	1.288139969889016E+002	-1.4046900E+000	-2.027227070738363E+002	2.8476256E-001	-1.4044756E+000	0
6.9192882E+000	1.290042969840943E+002	-1.4065588E+000	-2.032808440934959E+002	2.8592646E-001	-1.4063786E+000	0
6.8692951E+000	1.291846969795370E+002	-1.4083551E+000	-2.050217835381809E+002	2.8874347E-001	-1.4081824E+000	0
6.8277068E+000	1.293651969749772E+002	-1.4101987E+000	-2.065406002759889E+002	2.9126328E-001	-1.4099877E+000	0
6.7756653E+000	1.295356969706700E+002	-1.4119375E+000	-2.083835866677505E+002	2.9422459E-001	-1.4116924E+000	0
6.7620621E+000	1.297160969661127E+002	-1.4136695E+000	-2.090589315703787E+002	2.9554021E-001	-1.4134969E+000	0
6.7845016E+000	1.299162969610552E+002	-1.4156839E+000	-2.086643920434462E+002	2.9540282E-001	-1.4154990E+000	0
6.6144733E+000	1.300966969564979E+002	-1.4174895E+000	-2.143011921345283E+002	3.0376971E-001	-1.4173023E+000	0
6.4481683E+000	1.302471969526960E+002	-1.4190129E+000	-2.200644887882718E+002	3.1227434E-001	-1.4188069E+000	0
6.2551131E+000	1.304177969483862E+002	-1.4207035E+000	-2.271267599184812E+002	3.2267979E-001	-1.4205135E+000	0
6.2397652E+000	1.305980969438315E+002	-1.4225190E+000	-2.279763645528744E+002	3.2430071E-001	-1.4223167E+000	0
6.2339716E+000	1.307683969395293E+002	-1.4242438E+000	-2.284649155275661E+002	3.2538974E-001	-1.4240193E+000	0
6.1668773E+000	1.309487969349721E+002	-1.4260454E+000	-2.312427166716652E+002	3.2976261E-001	-1.4258236E+000	0
6.1059113E+000	1.311390969301647E+002	-1.4279490E+000	-2.338633709483281E+002	3.3394495E-001	-1.4277263E+000	0
5.9958091E+000	1.313398969250920E+002	-1.4299780E+000	-2.384962530786497E+002	3.4104440E-001	-1.4297345E+000	0
5.9540648E+000	1.315203969205322E+002	-1.4317806E+000	-2.404711065730207E+002	3.4430185E-001	-1.4315398E+000	0
5.8363571E+000	1.316806969164827E+002	-1.4333563E+000	-2.455909199320568E+002	3.5201928E-001	-1.4331425E+000	0
5.7528520E+000	1.318510969121780E+002	-1.4350735E+000	-2.494542747484538E+002	3.5798523E-001	-1.4348462E+000	0
5.6465182E+000	1.320315969076182E+002	-1.4368455E+000	-2.544657520991441E+002	3.6562797E-001	-1.4366513E+000	0
5.5993152E+000	1.322219969028083E+002	-1.4387978E+000	-2.569596020657373E+002	3.6971292E-001	-1.4385557E+000	0
5.5075688E+000	1.324124968979959E+002	-1.4407114E+000	-2.615875286434484E+002	3.7687212E-001	-1.4404604E+000	0
5.4452348E+000	1.325830968936862E+002	-1.4424338E+000	-2.648983795104919E+002	3.8209838E-001	-1.4421663E+000	0
5.4075155E+000	1.327633968891314E+002	-1.4442636E+000	-2.670844929164214E+002	3.8574040E-001	-1.4439697E+000	0
5.4025331E+000	1.329334968848343E+002	-1.4459622E+000	-2.676452258875502E+002	3.8700488E-001	-1.4456706E+000	0
5.4121957E+000	1.330840968810298E+002	-1.4474640E+000	-2.674448639404809E+002	3.8711682E-001	-1.4471766E+000	0
5.3361382E+000	1.332745968762174E+002	-1.4493306E+000	-2.716066342942886E+002	3.9364779E-001	-1.4490815E+000	0
5.3394027E+000	1.334250968724155E+002	-1.4508376E+000	-2.717228385233743E+002	3.9422572E-001	-1.4505864E+000	0
5.3730507E+000	1.335854968683634E+002	-1.4524578E+000	-2.703227291310577E+002	3.9263237E-001	-1.4521903E+000	0
5.2714643E+000	1.337559968640562E+002	-1.4541873E+000	-2.758602046780879E+002	4.0115240E-001	-1.4538954E+000	0
5.1633272E+000	1.339463968592463E+002	-1.4560364E+000	-2.819957634951952E+002	4.1059610E-001	-1.4557997E+000	0
5.1213889E+000	1.341467968541838E+002	-1.4580431E+000	-2.846968039636758E+002	4.1510022E-001	-1.4578040E+000	0
4.9334145E+000	1.343171968498791E+002	-1.4597478E+000	-2.958899434485375E+002	4.3192470E-001	-1.4595070E+000	0
4.8360739E+000	1.344875968455744E+002	-1.4614443E+000	-3.021964357623247E+002	4.4164324E-001	-1.4612117E+000	0
4.8310857E+000	1.346480968415199E+002	-1.4630477E+000	-3.028403721633849E+002	4.4306993E-001	-1.4628162E+000	0
4.8509531E+000	1.348186968372102E+002	-1.4647918E+000	-3.019595876129802E+002	4.4230792E-001	-1.4645224E+000	0
4.7984371E+000	1.349991968326503E+002	-1.4666150E+000	-3.056442877528057E+002	4.4826248E-001	-1.4663271E+000	0
4.7858028E+000	1.351895968278404E+002	-1.4684659E+000	-3.068379555896258E+002	4.5058107E-001	-1.4682318E+000	0
4.7663918E+000	1.353700968232806E+002	-1.4703090E+000	-3.084742430844769E+002	4.5355245E-001	-1.4700364E+000	0
4.7742395E+000	1.355402968189810E+002	-1.4720135E+000	-3.083241774502822E+002	4.5385733E-001	-1.4717385E+000	0
4.7677212E+000	1.356907968151791E+002	-1.4734542E+000	-3.090479082593210E+002	4.5536795E-001	-1.4732430E+000	0
4.7503710E+000	1.358611968108744E+002	-1.4752285E+000	-3.105501923895554E+002	4.5813251E-001	-1.4749471E+000	0
4.7636170E+000	1.360416968063146E+002	-1.4769870E+000	-3.100557893994255E+002	4.5794836E-001	-1.4767522E+000	0
4.7592368E+000	1.362219968017598E+002	-1.4788229E+000	-3.107268966655902E+002	4.5951006E-001	-1.4785557E+000	0
4.7056847E+000	1.364022967972051E+002	-1.4805609E+000	-3.146324095045052E+002	4.6583244E-001	-1.4803585E+000	0
4.6342735E+000	1.365926967923951E+002	-1.4825243E+000	-3.199043521949416E+002	4.7426596E-001	-1.4822630E+000	0
4.5150352E+000	1.367729967878404E+002	-1.4843715E+000	-3.287618951612249E+002	4.8800480E-001	-1.4840655E+000	0
4.4243827E+000	1.369531967832881E+002	-1.4860700E+000	-3.358818916009391E+002	4.9914402E-001	-1.4858680E+000	0
4.3864465E+000	1.371531967782357E+002	-1.4880842E+000	-3.392459340755086E+002	5.0482649E-001	-1.4878680E+000	0
4.1849289E+000	1.373531967731833E+002	-1.4901448E+000	-3.560741136252473E+002	5.3060198E-001	-1.4898679E+000	0
4.0994124E+000	1.375531967681309E+002	-1.4922338E+000	-3.640116111751067E+002	5.4319042E-001	-1.4918680E+000	0
4.0342436E+000	1.377531967630784E+002	-1.4941131E+000	-3.703576710024122E+002	5.5335623E-001	-1.4938679E+000	0
4.0399623E+000	1.379531967580260E+002	-1.4961641E+000	-3.703411159558636E+002	5.5409110E-001	-1.4958680E+000	0
4.0997367E+000	1.381531967529736E+002	-1.4981996E+000	-3.654380016651276E+002	5.4749906E-001	-1.4978679E+000	0
4.1304760E+000	1.383531967479212E+002	-1.5001699E+000	-3.631953955367044E+002	5.4485482E-001	-1.4998679E+000	0
4.1522713E+000	1.385531967428687E+002	-1.5021925E+000	-3.617760849474771E+002	5.4345733E-001	-1.5018680E+000	0
4.1107612E+000	1.387531967378163E+002	-1.5041872E+000	-3.659145338313656E+002	5.5040395E-001	-1.5038679E+000	0
4.1558704E+000	1.389531967327639E+002	-1.5062052E+000	-3.624283275712387E+002	5.4589140E-001	-1.5058680E+000	0
4.1346369E+000	1.391531967277115E+002	-1.5081130E+000	-3.647510152198292E+002	5.5008578E-001	-1.5078681E+000	0
4.1291199E+000	1.393531967226591E+002	-1.5101358E+000	-3.657282554276144E+002	5.5229932E-001	-1.5098679E+000	0
4.1097832E+000	1.395531967176066E+002	-1.5122194E+000	-3.679560265270759E+002	5.5643028E-001	-1.5118680E+000	0
4.1235809E+000	1.397531967125542E+002	-1.5141089E+000	-3.671830321612533E+002	5.5595511E-001	-1.5138679E+000	0
4.1402264E+000	1.399531967075018E+002	-1.5161486E+000	-3.661994171704810E+002	5.5521274E-001	-1.5158679E+000	0
4.1225886E+000	1.401531967024494E+002	-1.5181848E+000	-3.682600707121172E+002	5.5908686E-001	-1.5178680E+000	0
4.1699457E+000	1.403531966973969E+002	-1.5201639E+000	-3.645524614662808E+002	5.5417949E-001	-1.5198679E+000	0
4.2018623E+000	1.405531966923445E+002	-1.5221574E+000	-3.622578237278376E+002	5.5141342E-001	-1.5218678E+000	0
4.1834364E+000	1.407531966872921E+002	-1.5241845E+000	-3.643379130179646E+002	5.5531818E-001	-1.5238678E+000	0
4.1718841E+000	1.409531966822397E+002	-1.5262191E+000	-3.658345197495964E+002	5.5834365E-001	-1.5258679E+000	0
4.1252913E+000	1.411531966771872E+002	-1.5281579E+000	-3.704363643404045E+002	5.6608528E-001	-1.5278680E+000	0
4.0750494E+000	1.413531966721348E+002	-1.5301497E+000	-3.754923222751586E+002	5.7455945E-001	-1.5298678E+000	0
4.0105319E+000	1.415531966670824E+002	-1.5322176E+000	-3.820484783471056E+002	5.8538139E-001	-1.5318679E+000	0
3.8162415E+000	1.417531966620300E+002	-1.5341393E+000	-4.020026683980386E+002	6.1672807E-001	-1.5338678E+000	0
3.8548932E+000	1.419531966569775E+002	-1.5361309E+000	-3.984885749557398E+002	6.1213064E-001	-1.5358679E+000	0
3.8792787E+000	1.421531966519251E+002	-1.5381821E+000	-3.965124025452969E+002	6.0990828E-001	-1.5378680E+000	0
3.6569262E+000	1.423531966468727E+002	-1.5402570E+000	-4.211889792548282E+002	6.4873928E-001	-1.5398679E+000	0
3.6575453E+000	1.425531966418203E+002	-1.5426536E+000	-4.217729045020205E+002	6.5064949E-001	-1.5418679E+000	0
3.6716647E+000	1.427531966367678E+002	-1.5447043E+000	-4.207095125937949E+002	6.4987183E-001	-1.5438679E+000	0
3.5841336E+000	1.429531966317154E+002	-1.5467273E+000	-4.315484450377026E+002	6.6748774E-001	-1.5458679E+000	0
3.5167770E+000	1.431531966266630E+002	-1.5487249E+000	-4.403818773974626E+002	6.8203038E-001	-1.5478680E+000	0
3.5456734E+000	1.433531966216106E+002	-1.5507128E+000	-4.373535533091922E+002	6.7820978E-001	-1.5498679E+000	0
3.5580115E+000	1.435531966165581E+002	-1.5527202E+000	-4.364011010496542E+002	6.7760879E-001	-1.5518678E+000	0
3.4326930E+000	1.437531966115057E+002	-1.5547203E+000	-4.529156284981018E+002	7.0415711E-001	-1.5538679E+000	0
3.3756335E+000	1.439531966064533E+002	-1.5567615E+000	-4.611761060961271E+002	7.1794122E-001	-1.5558679E+000	0
3.4480579E+000	1.441531966014009E+002	-1.5587275E+000	-4.520595392413163E+002	7.0463765E-001	-1.5578679E+000	0
3.4091046E+000	1.443531965963484E+002	-1.5607331E+000	-4.578132130542863E+002	7.1452421E-001	-1.5598680E+000	0
3.2935174E+000	1.445531965912960E+002	-1.5627499E+000	-4.744926609938893E+002	7.4151331E-001	-1.5618678E+000	0
3.3319781E+000	1.447531965862436E+002	-1.5647254E+000	-4.696085646363344E+002	7.3480844E-001	-1.5638679E+000	0
3.2871118E+000	1.449531965811912E+002	-1.5667738E+000	-4.766414607171291E+002	7.4678934E-001	-1.5658680E+000	0
3.2972760E+000	1.451531965761387E+002	-1.5687641E+000	-4.757758004195020E+002	7.4637997E-001	-1.5678680E+000	0
3.3333807E+000	1.453531965710863E+002	-1.5707333E+000	-4.712133061285749E+002	7.4015045E-001	-1.5698681E+000	0
3.3619812E+000	1.455531965660339E+002	-1.5726892E+000	-4.677864251688243E+002	7.3568267E-001	-1.5718679E+000	0
3.3191690E+000	1.457531965609815E+002	-1.5747507E+000	-4.744412241868691E+002	7.4712664E-001	-1.5738679E+000	0
3.2842350E+000	1.459531965559290E+002	-1.5767255E+000	-4.800891053379278E+002	7.5696874E-001	-1.5758680E+000	0
3.3099225E+000	1.461531965508766E+002	-1.5787382E+000	-4.769713612467785E+002	7.5301290E-001	-1.5778680E+000	0
3.3271520E+000	1.463531965458242E+002	-1.5807437E+000	-4.751041450933026E+002	7.5101787E-001	-1.5798680E+000	0
3.3496492E+000	1.465531965407718E+002	-1.5827124E+000	-4.725009492324875E+002	7.4783313E-001	-1.5818681E+000	0
3.3552980E+000	1.467531965357193E+002	-1.5847082E+000	-4.723002980593365E+002	7.4845815E-001	-1.5838679E+000	0
3.4021230E+000	1.469531965306669E+002	-1.5867336E+000	-4.663951344003449E+002	7.4004483E-001	-1.5858680E+000	0
3.3507168E+000	1.471531965256145E+002	-1.5887260E+000	-4.741451230297826E+002	7.5328672E-001	-1.5878679E+000	0
3.1304321E+000	1.473531965205621E+002	-1.5907296E+000	-5.081501791817791E+002	8.0832952E-001	-1.5898679E+000	0
3.1068947E+000	1.475531965155096E+002	-1.5927713E+000	-5.126569712718865E+002	8.1654531E-001	-1.5918680E+000	0
3.1303854E+000	1.477531965104572E+002	-1.5947459E+000	-5.094407474751351E+002	8.1242853E-001	-1.5938679E+000	0
3.0478122E+000	1.479531965054048E+002	-1.5967834E+000	-5.239113292131833E+002	8.3657289E-001	-1.5958680E+000	0
2.9498005E+000	1.481531965003524E+002	-1.5987705E+000	-5.419927564564769E+002	8.6652201E-001	-1.5978681E+000	0
2.9548352E+000	1.483531964952999E+002	-1.6007560E+000	-5.417412315074544E+002	8.6719555E-001	-1.5998679E+000	0
2.9834025E+000	1.485531964902475E+002	-1.6027792E+000	-5.372319344630880E+002	8.6106414E-001	-1.6018680E+000	0
3.0113387E+000	1.487531964851951E+002	-1.6047454E+000	-5.329009825518315E+002	8.5517037E-001	-1.6038679E+000	0
3.0178642E+000	1.489531964801427E+002	-1.6067492E+000	-5.324126735782393E+002	8.5545361E-001	-1.6058680E+000	0
2.9597340E+000	1.491531964750902E+002	-1.6087728E+000	-5.435531819834487E+002	8.7445354E-001	-1.6078681E+000	0
2.9890411E+000	1.493531964700378E+002	-1.6108263E+000	-5.389107094113788E+002	8.6809152E-001	-1.6098679E+000	0
3.0013297E+000	1.495531964649854E+002	-1.6127584E+000	-5.373479770824779E+002	8.6661243E-001	-1.6118679E+000	0
2.9629791E+000	1.497531964599330E+002	-1.6147789E+000	-5.449849113282708E+002	8.8003010E-001	-1.6138679E+000	0
2.9708056E+000	1.499531964548805E+002	-1.6167275E+000	-5.442050812303871E+002	8.7983131E-001	-1.6158680E+000	0
2.9095714E+000	1.501531964498281E+002	-1.6187714E+000	-5.563607958406556E+002	9.0062094E-001	-1.6178681E+000	0
2.9406843E+000	1.503531964447757E+002	-1.6208630E+000	-5.511856264819380E+002	8.9339638E-001	-1.6198679E+000	0
2.9699216E+000	1.505531964397233E+002	-1.6227604E+000	-5.463983892367260E+002	8.8667369E-001	-1.6218679E+000	0
2.9565451E+000	1.507531964346708E+002	-1.6247542E+000	-5.495448656449762E+002	8.9287531E-001	-1.6238679E+000	0
2.9360268E+000	1.509531964296184E+002	-1.6268084E+000	-5.540849791762539E+002	9.0139008E-001	-1.6258680E+000	0
2.9298232E+000	1.511531964245660E+002	-1.6287822E+000	-5.559318827587997E+002	9.0549195E-001	-1.6278681E+000	0
2.8385005E+000	1.513531964195136E+002	-1.6307737E+000	-5.745194107323817E+002	9.3691111E-001	-1.6298679E+000	0
2.8262637E+000	1.515531964144611E+002	-1.6327779E+000	-5.777160488742811E+002	9.4328201E-001	-1.6318679E+000	0
2.8138459E+000	1.517531964094087E+002	-1.6347942E+000	-5.809821367544937E+002	9.4978625E-001	-1.6338680E+000	0
2.8250706E+000	1.518731964063772E+002	-1.6359650E+000	-5.790881964235890E+002	9.4736803E-001	-1.6350676E+000	0
2.8333080E+000	1.518971964057710E+002	-1.6363418E+000	-5.775375912314967E+002	9.4504893E-001	-1.6353676E+000	1