EC-Lab ASCII FILE
Nb header lines : 63                          

Linear Sweep Voltammetry

Run on channel : 1 (SN 1340)
User : 
Electrode connection : standard
Potential control : Ewe
Ewe ctrl range : min = -5.00 V, max = 5.00 V
Ewe,I filtering : <None>
Safety Limits :
	Do not start on E overload
Channel : Floating
Acquisition started on : 02/19/2026 11:48:30.898
Technique started on : 02/19/2026 11:48:33.581
Loaded Setting File :  C:\Users\volt\Documents\Platalytix\Ni_2_18_01_ZIR_C01.mpr
Saved on :
	File : PtPdCoNi_2-19_02_LSV_C01.mpr
	Directory : C:\Users\volt\Documents\Platalytix\
	Host : 127.0.0.1
Device : SP-200 (SN 0262)
Address : USB
EC-LAB for windows v11.60 (software)
Internet server v11.60 (firmware)
Command interpretor v11.60 (firmware)
Electrode material : PtPdCoNi
Initial state : 
Electrolyte : KOH (1 M)
Comments : 
Cable : standard
Reference electrode : Hg/HgO (0.140 V)
Electrode surface area : 1.000 cm˛
Characteristic mass : 0.001 g
Equivalent Weight : 0.000 g/eq.
Density : 0.000 g/cm3
Volume (V) : 0.001 cmł
Cycle Definition : Charge/Discharge alternance
tR (h:m:s)          0:00:5.0000         
dER/dt (mV/h)       0.0                 
dER (mV)            0                   
dtR (s)             0.0000              
dE/dt               10.000              
dE/dt unit          mV/s                
Ei (V)              -0.200              
vs.                 Ref                 
EL (V)              -2.000              
vs.                 Ref                 
record              <I>                 
dI                  0.000               
unit dI             µA                  
tI (s)              0.0000              
step percent        50                  
N                   10                  
E range min (V)     -5.000              
E range max (V)     5.000               
I Range             Auto                
I Range min         Unset               
I Range max         Unset               
I Range init        Unset               
Bandwidth           8                   

Rwe/Ohm	time/s	Ewe/V	<I>/mA	Pwe/W	control/V	error	
0.0000000E+000	2.683400127425557E+000	-1.3967539E-001	0.000000000000000E+000	0.0000000E+000	0.0000000E+000	0
0.0000000E+000	7.683200001119985E+000	-2.8357441E-002	0.000000000000000E+000	0.0000000E+000	-1.9984403E-001	0
2.1122161E+003	7.883199996067560E+000	-2.0149353E-001	-9.539437893778091E-002	1.9221350E-005	-2.0174381E-001	0
1.1585699E+003	8.003199993036105E+000	-2.0272906E-001	-1.749821427183182E-001	3.5473964E-005	-2.0294388E-001	0
1.2726832E+003	8.213199987731059E+000	-2.0482440E-001	-1.609390260505990E-001	3.2964239E-005	-2.0504387E-001	0
1.4013650E+003	8.413199982678634E+000	-2.0681851E-001	-1.475836061566325E-001	3.0523021E-005	-2.0704383E-001	0
1.5111580E+003	8.613199977626209E+000	-2.0885457E-001	-1.382082977275150E-001	2.8865436E-005	-2.0904373E-001	0
1.6072714E+003	8.813199972573784E+000	-2.1084440E-001	-1.311815852265541E-001	2.7658902E-005	-2.1104363E-001	0
1.6919454E+003	9.013199967521359E+000	-2.1279661E-001	-1.257703731294779E-001	2.6763510E-005	-2.1304354E-001	0
1.7702217E+003	9.213199962468934E+000	-2.1484858E-001	-1.213681739015833E-001	2.6075779E-005	-2.1504344E-001	0
1.8420637E+003	9.413199957416509E+000	-2.1683967E-001	-1.177156169491229E-001	2.5525416E-005	-2.1704331E-001	0
1.9090513E+003	9.613199952364084E+000	-2.1879445E-001	-1.146089993311663E-001	2.5075813E-005	-2.1904324E-001	0
1.9724070E+003	9.813199947311659E+000	-2.2079594E-001	-1.119423863665953E-001	2.4716424E-005	-2.2104312E-001	0
2.0347570E+003	1.001319994225923E+001	-2.2287525E-001	-1.095340889139425E-001	2.4412439E-005	-2.2304304E-001	0
2.0932305E+003	1.021319993720681E+001	-2.2484580E-001	-1.074156945945106E-001	2.4151968E-005	-2.2504294E-001	0
2.1482903E+003	1.041319993215438E+001	-2.2681881E-001	-1.055810824026036E-001	2.3947776E-005	-2.2704284E-001	0
2.2029324E+003	1.061319992710196E+001	-2.2883087E-001	-1.038755781171404E-001	2.3769939E-005	-2.2904274E-001	0
2.2568523E+003	1.081319992204953E+001	-2.3081602E-001	-1.022734316192619E-001	2.3606346E-005	-2.3104265E-001	0
2.3072468E+003	1.101319991699711E+001	-2.3287946E-001	-1.009339185330235E-001	2.3505436E-005	-2.3304255E-001	0
2.3580725E+003	1.121319991194468E+001	-2.3481643E-001	-9.957981432519825E-002	2.3382976E-005	-2.3504245E-001	0
2.4068662E+003	1.141319990689226E+001	-2.3683783E-001	-9.840091294239453E-002	2.3305060E-005	-2.3704235E-001	0
2.4565061E+003	1.161319990183983E+001	-2.3884800E-001	-9.723078017070286E-002	2.3223378E-005	-2.3904224E-001	0
2.5032612E+003	1.181319989678741E+001	-2.4086115E-001	-9.621894653609875E-002	2.3175406E-005	-2.4104214E-001	0
2.5473376E+003	1.201309989173751E+001	-2.4285048E-001	-9.533501659886578E-002	2.3152155E-005	-2.4304228E-001	0
2.5934395E+003	1.221299988668761E+001	-2.4482125E-001	-9.440021666427834E-002	2.3111179E-005	-2.4504195E-001	0
2.6404719E+003	1.241299988163519E+001	-2.4683693E-001	-9.348212486468777E-002	2.3074841E-005	-2.4704187E-001	0
2.6876963E+003	1.261299987658276E+001	-2.4880166E-001	-9.257059844892934E-002	2.3031718E-005	-2.4904177E-001	0
2.7323035E+003	1.281299987153034E+001	-2.5083438E-001	-9.180326508981107E-002	2.3027414E-005	-2.5104168E-001	0
2.7799624E+003	1.301299986647791E+001	-2.5280339E-001	-9.093770289597169E-002	2.2989359E-005	-2.5304154E-001	0
2.8242163E+003	1.321299986142549E+001	-2.5489163E-001	-9.025216638902500E-002	2.3004523E-005	-2.5504148E-001	0
2.8685386E+003	1.341299985637306E+001	-2.5679487E-001	-8.952115226247614E-002	2.2988572E-005	-2.5704136E-001	0
2.9148132E+003	1.361299985132064E+001	-2.5883132E-001	-8.879859338022422E-002	2.2983857E-005	-2.5904125E-001	0
2.9586370E+003	1.381299984626821E+001	-2.6083961E-001	-8.816208694522987E-002	2.2996164E-005	-2.6104116E-001	0
3.0035156E+003	1.401299984121579E+001	-2.6283854E-001	-8.751029820474998E-002	2.3001079E-005	-2.6304108E-001	0
3.0476646E+003	1.421299983616336E+001	-2.6481521E-001	-8.689119608527940E-002	2.3010110E-005	-2.6504099E-001	0
3.0908906E+003	1.441299983111094E+001	-2.6682642E-001	-8.632671213106946E-002	2.3034248E-005	-2.6704088E-001	0
3.1363882E+003	1.461299982605851E+001	-2.6885208E-001	-8.572028688938615E-002	2.3046077E-005	-2.6904079E-001	0
3.1795051E+003	1.481299982100609E+001	-2.7083910E-001	-8.518278513836547E-002	2.3070828E-005	-2.7104068E-001	0
3.2237710E+003	1.501299981595366E+001	-2.7285311E-001	-8.463787180192073E-002	2.3093706E-005	-2.7304056E-001	0
3.2662568E+003	1.521299981090124E+001	-2.7479982E-001	-8.413294951807382E-002	2.3119719E-005	-2.7504048E-001	0
3.3102461E+003	1.541299980584881E+001	-2.7682808E-001	-8.362764316767279E-002	2.3150480E-005	-2.7704039E-001	0
3.3516194E+003	1.561299980079639E+001	-2.7880788E-001	-8.318602073886971E-002	2.3192917E-005	-2.7904028E-001	0
3.3960225E+003	1.581299979574396E+001	-2.8083548E-001	-8.269541544941139E-002	2.3223807E-005	-2.8104019E-001	0
3.4370762E+003	1.601289979069406E+001	-2.8282374E-001	-8.228614345709251E-002	2.3272474E-005	-2.8304008E-001	0
3.4800457E+003	1.621279978564417E+001	-2.8482249E-001	-8.184446987712868E-002	2.3311146E-005	-2.8503999E-001	0
3.5250042E+003	1.641279978059174E+001	-2.8686449E-001	-8.137989924880606E-002	2.3345003E-005	-2.8703988E-001	0
3.5684355E+003	1.661279977553932E+001	-2.8880656E-001	-8.093366052589998E-002	2.3374172E-005	-2.8903979E-001	0
3.6093496E+003	1.681279977048689E+001	-2.9085153E-001	-8.058281257207962E-002	2.3437635E-005	-2.9103968E-001	0
3.6538882E+003	1.701279976543447E+001	-2.9284513E-001	-8.014616413388295E-002	2.3470413E-005	-2.9303959E-001	0
3.6972014E+003	1.721279976038204E+001	-2.9485402E-001	-7.975059519880912E-002	2.3514784E-005	-2.9503950E-001	0
3.7391030E+003	1.741279975532962E+001	-2.9687399E-001	-7.939711345366018E-002	2.3570938E-005	-2.9703939E-001	0
3.7803811E+003	1.761279975027719E+001	-2.9883468E-001	-7.904882491471188E-002	2.3622530E-005	-2.9903930E-001	0
3.8226316E+003	1.781279974522477E+001	-3.0082831E-001	-7.869665240953427E-002	2.3674182E-005	-3.0103919E-001	0
3.8645369E+003	1.801279974017234E+001	-3.0285144E-001	-7.836681497842923E-002	2.3733503E-005	-3.0303910E-001	0
3.9087461E+003	1.821279973511992E+001	-3.0485165E-001	-7.799218376029793E-002	2.3776047E-005	-3.0503899E-001	0
3.9500120E+003	1.841279973006749E+001	-3.0683061E-001	-7.767839985107683E-002	2.3834111E-005	-3.0703890E-001	0
3.9933296E+003	1.861279972501507E+001	-3.0884504E-001	-7.734023209063590E-002	2.3886147E-005	-3.0903879E-001	0
4.0324727E+003	1.881279971996264E+001	-3.1085500E-001	-7.708793771168099E-002	2.3963172E-005	-3.1103870E-001	0
4.0729988E+003	1.901279971491022E+001	-3.1285882E-001	-7.681289482587217E-002	2.4031591E-005	-3.1303862E-001	0
4.1147690E+003	1.921279970985779E+001	-3.1481850E-001	-7.650940020066044E-002	2.4086574E-005	-3.1503850E-001	0
4.1577808E+003	1.941279970480537E+001	-3.1684670E-001	-7.620572465389563E-002	2.4145533E-005	-3.1703842E-001	0
4.1966401E+003	1.961279969975294E+001	-3.1880060E-001	-7.596567774702545E-002	2.4217903E-005	-3.1903833E-001	0
4.2392183E+003	1.981279969470052E+001	-3.2080063E-001	-7.567448167303499E-002	2.4276422E-005	-3.2103825E-001	0
4.2810854E+003	2.001269968965062E+001	-3.2283264E-001	-7.540906305069328E-002	2.4344507E-005	-3.2303745E-001	0
4.3179902E+003	2.021259968460072E+001	-3.2484514E-001	-7.523062825202950E-002	2.4438303E-005	-3.2503802E-001	0
4.3637012E+003	2.041259967954829E+001	-3.2684109E-001	-7.489996964625079E-002	2.4480387E-005	-3.2703790E-001	0
4.4020532E+003	2.061259967449587E+001	-3.2881838E-001	-7.469659069998591E-002	2.4561612E-005	-3.2903782E-001	0
4.4398237E+003	2.081259966944344E+001	-3.3080542E-001	-7.450868165207039E-002	2.4647876E-005	-3.3103773E-001	0
4.4820933E+003	2.101259966439102E+001	-3.3283427E-001	-7.425866513713686E-002	2.4715830E-005	-3.3303761E-001	0
4.5208496E+003	2.121259965933859E+001	-3.3482790E-001	-7.406304599907287E-002	2.4798373E-005	-3.3503753E-001	0
4.5577617E+003	2.141259965428617E+001	-3.3683699E-001	-7.390403858694317E-002	2.4893614E-005	-3.3703744E-001	0
4.5953354E+003	2.161259964923374E+001	-3.3883256E-001	-7.373402062053835E-002	2.4983487E-005	-3.3903733E-001	0
4.6327695E+003	2.181259964418132E+001	-3.4083953E-001	-7.357144257309278E-002	2.5076057E-005	-3.4103721E-001	0
4.6691177E+003	2.201259963912889E+001	-3.4287173E-001	-7.343394265831149E-002	2.5178422E-005	-3.4303713E-001	0
4.7061060E+003	2.221259963407647E+001	-3.4485137E-001	-7.327743673004439E-002	2.5269825E-005	-3.4503701E-001	0
4.7417549E+003	2.241259962902404E+001	-3.4682292E-001	-7.314231346494404E-002	2.5367430E-005	-3.4703693E-001	0
4.7796724E+003	2.261259962397162E+001	-3.4882885E-001	-7.298175032068954E-002	2.5458141E-005	-3.4903684E-001	0
4.8173936E+003	2.281259961891919E+001	-3.5085773E-001	-7.283144561751209E-002	2.5553476E-005	-3.5103676E-001	0
4.8550156E+003	2.301259961386677E+001	-3.5286126E-001	-7.267973419857476E-002	2.5645862E-005	-3.5303664E-001	0
4.8873813E+003	2.321259960881434E+001	-3.5480210E-001	-7.259554193564188E-002	2.5757050E-005	-3.5503656E-001	0
4.9247339E+003	2.341259960376192E+001	-3.5681972E-001	-7.245461597865485E-002	2.5853236E-005	-3.5703644E-001	0
4.9606782E+003	2.361259959870949E+001	-3.5883325E-001	-7.233552019008327E-002	2.5956389E-005	-3.5903636E-001	0
4.9956890E+003	2.381259959365707E+001	-3.6083791E-001	-7.222986111022500E-002	2.6063271E-005	-3.6103624E-001	0
5.0346719E+003	2.401259958860464E+001	-3.6281264E-001	-7.206281789265967E-002	2.6145301E-005	-3.6303616E-001	0
5.0714678E+003	2.421239958355727E+001	-3.6480752E-001	-7.193332297997801E-002	2.6241816E-005	-3.6503604E-001	0
5.1043701E+003	2.441239957850485E+001	-3.6681369E-001	-7.186267686408032E-002	2.6360214E-005	-3.6703596E-001	0
5.1361563E+003	2.461239957345242E+001	-3.6884105E-001	-7.181265931724344E-002	2.6487456E-005	-3.6903587E-001	0
5.1709863E+003	2.481239956840000E+001	-3.7080094E-001	-7.170797196003575E-002	2.6589383E-005	-3.7103575E-001	0
5.2028994E+003	2.501239956334757E+001	-3.7280539E-001	-7.165339009365368E-002	2.6712771E-005	-3.7303567E-001	0
5.2353857E+003	2.521239955829515E+001	-3.7481704E-001	-7.159301400176177E-002	2.6834281E-005	-3.7503555E-001	0
5.2695254E+003	2.541239955324272E+001	-3.7681910E-001	-7.150911606157634E-002	2.6946002E-005	-3.7703547E-001	0
5.2997378E+003	2.561239954819030E+001	-3.7884992E-001	-7.148465700975537E-002	2.7081956E-005	-3.7903535E-001	0
5.3309775E+003	2.581239954313787E+001	-3.8078266E-001	-7.142829789691352E-002	2.7198657E-005	-3.8103527E-001	0
5.3617261E+003	2.601239953808545E+001	-3.8281167E-001	-7.139709753315915E-002	2.7331642E-005	-3.8303518E-001	0
5.3949023E+003	2.621239953303302E+001	-3.8480678E-001	-7.132784787210689E-002	2.7447441E-005	-3.8503507E-001	0
5.4229194E+003	2.641239952798060E+001	-3.8684160E-001	-7.133456486089329E-002	2.7595177E-005	-3.8703498E-001	0
5.4492388E+003	2.661239952292817E+001	-3.8884431E-001	-7.135754658274596E-002	2.7746975E-005	-3.8903487E-001	0
5.4800151E+003	2.681239951787575E+001	-3.9081478E-001	-7.131637140945912E-002	2.7871492E-005	-3.9103481E-001	0
5.5146133E+003	2.701239951282332E+001	-3.9282286E-001	-7.123307228698672E-002	2.7981980E-005	-3.9303467E-001	0
5.5450200E+003	2.721239950777090E+001	-3.9482328E-001	-7.120322332561224E-002	2.8112690E-005	-3.9503458E-001	0
5.5734800E+003	2.741239950271847E+001	-3.9682457E-001	-7.119870713126342E-002	2.8253397E-005	-3.9703447E-001	0
5.5966689E+003	2.761239949766605E+001	-3.9883408E-001	-7.126276174775611E-002	2.8422019E-005	-3.9903438E-001	0
5.6269414E+003	2.781239949261362E+001	-4.0080947E-001	-7.123043179742217E-002	2.8549832E-005	-4.0103433E-001	0
5.6581470E+003	2.801239948756120E+001	-4.0283957E-001	-7.119637515127653E-002	2.8680717E-005	-4.0303418E-001	0
5.6801597E+003	2.821229948251130E+001	-4.0484554E-001	-7.127361679396693E-002	2.8854805E-005	-4.0503412E-001	0
5.7125469E+003	2.841219947746140E+001	-4.0681300E-001	-7.121394441068118E-002	2.8970759E-005	-4.0703398E-001	0
5.7389810E+003	2.861219947240897E+001	-4.0879387E-001	-7.123108696226299E-002	2.9118832E-005	-4.0903392E-001	0
5.7665205E+003	2.881219946735655E+001	-4.1081598E-001	-7.124157257899709E-002	2.9267178E-005	-4.1103378E-001	0
5.7895459E+003	2.901219946230412E+001	-4.1288280E-001	-7.131522830919951E-002	2.9444831E-005	-4.1303369E-001	0
5.8146372E+003	2.921219945725170E+001	-4.1485178E-001	-7.134611669467428E-002	2.9598064E-005	-4.1503358E-001	0
5.8380112E+003	2.941219945219927E+001	-4.1682294E-001	-7.139810320684736E-002	2.9760367E-005	-4.1703349E-001	0
5.8683613E+003	2.961219944714685E+001	-4.1889679E-001	-7.138224062773835E-002	2.9901792E-005	-4.1903344E-001	0
5.8917183E+003	2.981219944209442E+001	-4.2082542E-001	-7.142660256830036E-002	3.0058131E-005	-4.2103329E-001	0
5.9159688E+003	3.001219943704200E+001	-4.2286935E-001	-7.147930599189437E-002	3.0226409E-005	-4.2303324E-001	0
5.9456470E+003	3.021219943198957E+001	-4.2485234E-001	-7.145602977095503E-002	3.0358262E-005	-4.2503309E-001	0
5.9701221E+003	3.041219942693715E+001	-4.2688096E-001	-7.150288830276874E-002	3.0523221E-005	-4.2703304E-001	0
5.9973345E+003	3.061219942188472E+001	-4.2884490E-001	-7.150591396021344E-002	3.0664945E-005	-4.2903289E-001	0
6.0213818E+003	3.081219941683230E+001	-4.3081373E-001	-7.154732234427580E-002	3.0823569E-005	-4.3103281E-001	0
6.0495112E+003	3.101219941177987E+001	-4.3291068E-001	-7.156126816015751E-002	3.0979638E-005	-4.3303269E-001	0
6.0716914E+003	3.121219940672745E+001	-4.3486550E-001	-7.162180789820294E-002	3.1145853E-005	-4.3503261E-001	0
6.1004312E+003	3.141219940167503E+001	-4.3683767E-001	-7.160767057040507E-002	3.1280928E-005	-4.3703255E-001	0
6.1272124E+003	3.161219939662260E+001	-4.3887037E-001	-7.162643259849402E-002	3.1434720E-005	-4.3903241E-001	0
6.1509224E+003	3.181219939157018E+001	-4.4083530E-001	-7.166978539719471E-002	3.1594573E-005	-4.4103235E-001	0
6.1852446E+003	3.201219938651775E+001	-4.4289234E-001	-7.160466212606126E-002	3.1713156E-005	-4.4303221E-001	0
6.2090845E+003	3.221209938146785E+001	-4.4483584E-001	-7.164274310190166E-002	3.1869258E-005	-4.4503126E-001	0
6.2385269E+003	3.241199937641795E+001	-4.4681832E-001	-7.162240640705853E-002	3.2002205E-005	-4.4703200E-001	0
6.2628032E+003	3.261199937136553E+001	-4.4887534E-001	-7.167322820479105E-002	3.2172346E-005	-4.4903195E-001	0
6.2880557E+003	3.281199936631310E+001	-4.5083839E-001	-7.169758479370641E-002	3.2324024E-005	-4.5103180E-001	0
6.3207285E+003	3.301199936126068E+001	-4.5286471E-001	-7.164754759934178E-002	3.2446645E-005	-4.5303172E-001	0
6.3523613E+003	3.321199935620825E+001	-4.5482776E-001	-7.159979069656153E-002	3.2565571E-005	-4.5503166E-001	0
6.3762319E+003	3.341199935115583E+001	-4.5690140E-001	-7.165695839802277E-002	3.2740165E-005	-4.5703152E-001	0
6.4071636E+003	3.361199934610340E+001	-4.5889607E-001	-7.162234321175365E-002	3.2867210E-005	-4.5903146E-001	0
6.4440732E+003	3.381199934105098E+001	-4.6083301E-001	-7.151268953362422E-002	3.2955410E-005	-4.6103132E-001	0
6.4713911E+003	3.401199933599855E+001	-4.6289691E-001	-7.152973780252209E-002	3.3110893E-005	-4.6303126E-001	0
6.5015063E+003	3.421199933094613E+001	-4.6481523E-001	-7.149346902292819E-002	3.3231252E-005	-4.6503112E-001	0
6.5391704E+003	3.441199932589370E+001	-4.6684295E-001	-7.139176758198373E-002	3.3328743E-005	-4.6703106E-001	0
6.5690923E+003	3.461199932084128E+001	-4.6887305E-001	-7.137562359034857E-002	3.3466105E-005	-4.6903095E-001	0
6.6061650E+003	3.481199931578885E+001	-4.7084042E-001	-7.127288161025136E-002	3.3558154E-005	-4.7103083E-001	0
6.6389023E+003	3.501199931073643E+001	-4.7284782E-001	-7.122379642871135E-002	3.3678018E-005	-4.7303078E-001	0
6.6712588E+003	3.521199930568400E+001	-4.7483468E-001	-7.117617378843422E-002	3.3796914E-005	-4.7503063E-001	0
6.7143037E+003	3.541199930063158E+001	-4.7684333E-001	-7.101902957633943E-002	3.3864952E-005	-4.7703058E-001	0
6.7494238E+003	3.561199929557915E+001	-4.7883868E-001	-7.094512153480224E-002	3.3971268E-005	-4.7903043E-001	0
6.7843335E+003	3.581199929052673E+001	-4.8088169E-001	-7.088119676600668E-002	3.4085471E-005	-4.8103037E-001	0
6.8329858E+003	3.601199928547430E+001	-4.8282868E-001	-7.066144816558385E-002	3.4117373E-005	-4.8303023E-001	0
6.8634668E+003	3.621199928042188E+001	-4.8484790E-001	-7.064183716938871E-002	3.4250548E-005	-4.8503017E-001	0
6.9112402E+003	3.641189927537198E+001	-4.8687875E-001	-7.044737875894885E-002	3.4299333E-005	-4.8703074E-001	0
6.9448223E+003	3.661179927032208E+001	-4.8884493E-001	-7.038983947474975E-002	3.4409717E-005	-4.8902994E-001	0
6.9857202E+003	3.681179926526966E+001	-4.9085838E-001	-7.026596418148995E-002	3.4490637E-005	-4.9102989E-001	0
7.0317480E+003	3.701179926021723E+001	-4.9284965E-001	-7.008920538887509E-002	3.4543442E-005	-4.9302974E-001	0
7.0777939E+003	3.721179925516481E+001	-4.9486214E-001	-6.991756612344191E-002	3.4599558E-005	-4.9502969E-001	0
7.1296147E+003	3.741179925011238E+001	-4.9687776E-001	-6.969208896155887E-002	3.4628451E-005	-4.9702954E-001	0
7.1795098E+003	3.761179924505996E+001	-4.9886397E-001	-6.948440606429190E-002	3.4663266E-005	-4.9902946E-001	0
7.2255317E+003	3.781179924000753E+001	-5.0084466E-001	-6.931595713039540E-002	3.4716526E-005	-5.0102937E-001	0
7.2791597E+003	3.801179923495511E+001	-5.0287014E-001	-6.908354240991266E-002	3.4740049E-005	-5.0302929E-001	0
7.3335356E+003	3.821179922990268E+001	-5.0487667E-001	-6.884492202207888E-002	3.4758195E-005	-5.0502920E-001	0
7.3783652E+003	3.841179922485026E+001	-5.0686884E-001	-6.869663341686802E-002	3.4820183E-005	-5.0702912E-001	0
7.4324238E+003	3.861179921979783E+001	-5.0885266E-001	-6.846389089037336E-002	3.4838034E-005	-5.0902903E-001	0
7.4801963E+003	3.881179921474541E+001	-5.1085973E-001	-6.829496438334123E-002	3.4889148E-005	-5.1102889E-001	0
7.5364160E+003	3.901179920969298E+001	-5.1290631E-001	-6.805705880353452E-002	3.4906894E-005	-5.1302880E-001	0
7.5900273E+003	3.921179920464056E+001	-5.1489645E-001	-6.783854938481763E-002	3.4929828E-005	-5.1502866E-001	0
7.6502695E+003	3.941179919958813E+001	-5.1686156E-001	-6.756122356603778E-002	3.4919798E-005	-5.1702863E-001	0
7.7105342E+003	3.961179919453571E+001	-5.1883036E-001	-6.728850952518539E-002	3.4911322E-005	-5.1902848E-001	0
7.7615581E+003	3.981179918948328E+001	-5.2085370E-001	-6.710684908418818E-002	3.4952849E-005	-5.2102840E-001	0
7.8274390E+003	4.001179918443086E+001	-5.2283931E-001	-6.679570424273318E-002	3.4923421E-005	-5.2302831E-001	0
7.8921069E+003	4.021179917937843E+001	-5.2484053E-001	-6.650195351607530E-002	3.4902921E-005	-5.2502817E-001	0
7.9491812E+003	4.041169917432853E+001	-5.2688158E-001	-6.628123728544072E-002	3.4922363E-005	-5.2702862E-001	0
8.0085488E+003	4.061159916927863E+001	-5.2883583E-001	-6.603391450310298E-002	3.4921100E-005	-5.2902800E-001	0
8.0778608E+003	4.081159916422621E+001	-5.3086507E-001	-6.571852286396929E-002	3.4887667E-005	-5.3102791E-001	0
8.1412095E+003	4.101159915917378E+001	-5.3287023E-001	-6.545344949488752E-002	3.4878194E-005	-5.3302777E-001	0
8.2011895E+003	4.121159915412136E+001	-5.3479016E-001	-6.520885068505078E-002	3.4873050E-005	-5.3502774E-001	0
8.2748486E+003	4.141159914906893E+001	-5.3684896E-001	-6.487719801649472E-002	3.4829256E-005	-5.3702760E-001	0
8.3365576E+003	4.161159914401651E+001	-5.3884262E-001	-6.463610325927288E-002	3.4828689E-005	-5.3902751E-001	0
8.4066875E+003	4.181159913896408E+001	-5.4087758E-001	-6.433896484094204E-002	3.4799505E-005	-5.4102743E-001	0
8.4755400E+003	4.201159913391166E+001	-5.4286951E-001	-6.405132028111615E-002	3.4771510E-005	-5.4302728E-001	0
8.5368936E+003	4.221159912885923E+001	-5.4487967E-001	-6.382645661900417E-002	3.4777739E-005	-5.4502726E-001	0
8.6147314E+003	4.241159912380681E+001	-5.4684907E-001	-6.347836584830518E-002	3.4713084E-005	-5.4702705E-001	0
8.6963936E+003	4.261159911875438E+001	-5.4889429E-001	-6.311745946337792E-002	3.4644814E-005	-5.4902703E-001	0
8.7659629E+003	4.281159911370196E+001	-5.5083913E-001	-6.283840403866747E-002	3.4613851E-005	-5.5102688E-001	0
8.8255420E+003	4.301159910864953E+001	-5.5286133E-001	-6.264332609246920E-002	3.4633074E-005	-5.5302685E-001	0
8.9022217E+003	4.321159910359711E+001	-5.5486852E-001	-6.232921999368135E-002	3.4584522E-005	-5.5502671E-001	0
8.9837080E+003	4.341159909854468E+001	-5.5681545E-001	-6.198058132284978E-002	3.4511744E-005	-5.5702668E-001	0
9.0505703E+003	4.361159909349226E+001	-5.5883354E-001	-6.174567280983456E-002	3.4505552E-005	-5.5902654E-001	0
9.1281797E+003	4.381159908843983E+001	-5.6083351E-001	-6.143979902924079E-002	3.4457498E-005	-5.6102639E-001	0
9.2097207E+003	4.401159908338741E+001	-5.6287152E-001	-6.111710969371353E-002	3.4401080E-005	-5.6302637E-001	0
9.2790527E+003	4.421159907833498E+001	-5.6483835E-001	-6.087241499724860E-002	3.4383076E-005	-5.6502616E-001	0
9.3540215E+003	4.441149907328509E+001	-5.6680363E-001	-6.059464574273088E-002	3.4345267E-005	-5.6702590E-001	0
9.4419805E+003	4.461139906823519E+001	-5.6883281E-001	-6.024507197705553E-002	3.4269375E-005	-5.6902599E-001	0
9.5094639E+003	4.481139906318276E+001	-5.7086480E-001	-6.003122965334318E-002	3.4269717E-005	-5.7102597E-001	0
9.5897686E+003	4.501139905813034E+001	-5.7286590E-001	-5.973719719685433E-002	3.4221404E-005	-5.7302582E-001	0
9.6658750E+003	4.521139905307791E+001	-5.7483220E-001	-5.947027160509410E-002	3.4185428E-005	-5.7502580E-001	0
9.7437041E+003	4.541139904802549E+001	-5.7684594E-001	-5.920191627954596E-002	3.4150384E-005	-5.7702565E-001	0
9.8284639E+003	4.561139904297306E+001	-5.7883209E-001	-5.889344686386755E-002	3.4089418E-005	-5.7902551E-001	0
9.8969844E+003	4.581139903792064E+001	-5.8083975E-001	-5.868855745018420E-002	3.4088647E-005	-5.8102548E-001	0
9.9823213E+003	4.601139903286821E+001	-5.8280557E-001	-5.838377360632532E-002	3.4026390E-005	-5.8302528E-001	0
1.0063111E+004	4.621139902781579E+001	-5.8486181E-001	-5.811938471709932E-002	3.3991808E-005	-5.8502525E-001	0
1.0138109E+004	4.641139902276336E+001	-5.8683658E-001	-5.788422216526101E-002	3.3968579E-005	-5.8702511E-001	0
1.0217404E+004	4.661139901771094E+001	-5.8883798E-001	-5.763088040795084E-002	3.3935252E-005	-5.8902508E-001	0
1.0298533E+004	4.681139901265851E+001	-5.9085387E-001	-5.737262550274677E-002	3.3898839E-005	-5.9102494E-001	0
1.0379301E+004	4.701139900760609E+001	-5.9284496E-001	-5.711800352693475E-002	3.3862121E-005	-5.9302491E-001	0
1.0449465E+004	4.721139900255366E+001	-5.9484583E-001	-5.692596168599429E-002	3.3862172E-005	-5.9502476E-001	0
1.0531431E+004	4.741139899750124E+001	-5.9684491E-001	-5.667272768228360E-002	3.3824828E-005	-5.9702462E-001	0
1.0607078E+004	4.761139899244881E+001	-5.9880656E-001	-5.645348677145590E-002	3.3804718E-005	-5.9902459E-001	0
1.0685292E+004	4.781139898739639E+001	-6.0081267E-001	-5.622800868775357E-002	3.3782500E-005	-6.0102439E-001	0
1.0760697E+004	4.801139898234396E+001	-6.0285664E-001	-5.602393954381979E-002	3.3774402E-005	-6.0302436E-001	0
1.0845296E+004	4.821139897729154E+001	-6.0484618E-001	-5.577036936644930E-002	3.3732496E-005	-6.0502422E-001	0
1.0933478E+004	4.841129897224164E+001	-6.0684359E-001	-5.550325475299367E-002	3.3681794E-005	-6.0702354E-001	0
1.0994691E+004	4.861129896718921E+001	-6.0887229E-001	-5.537875036963069E-002	3.3718588E-005	-6.0902494E-001	0
1.1076954E+004	4.881119896213932E+001	-6.1080575E-001	-5.514203140917584E-002	3.3681070E-005	-6.1102402E-001	0
1.1161109E+004	4.901119895708689E+001	-6.1287415E-001	-5.491157793630008E-002	3.3653887E-005	-6.1302388E-001	0
1.1223108E+004	4.921119895203447E+001	-6.1484355E-001	-5.478371054835862E-002	3.3683409E-005	-6.1502373E-001	0
1.1291355E+004	4.941119894698204E+001	-6.1682212E-001	-5.462781785113013E-002	3.3695647E-005	-6.1702371E-001	0
1.1367381E+004	4.961119894192962E+001	-6.1887175E-001	-5.444277609833659E-002	3.3693097E-005	-6.1902350E-001	0
1.1453325E+004	4.981119893687719E+001	-6.2087637E-001	-5.420926658863245E-002	3.3657252E-005	-6.2102348E-001	0
1.1505941E+004	5.001119893182477E+001	-6.2283456E-001	-5.413156239075145E-002	3.3715009E-005	-6.2302333E-001	0
1.1588889E+004	5.021119892677234E+001	-6.2487066E-001	-5.391981060692691E-002	3.3692908E-005	-6.2502331E-001	0
1.1679093E+004	5.041119892171992E+001	-6.2687910E-001	-5.367532402040467E-002	3.3647939E-005	-6.2702316E-001	0
1.1747278E+004	5.061119891666749E+001	-6.2888610E-001	-5.353462121337493E-002	3.3667180E-005	-6.2902313E-001	0
1.1800076E+004	5.081119891161507E+001	-6.3085747E-001	-5.346215242739616E-002	3.3726999E-005	-6.3102299E-001	0
1.1885329E+004	5.101119890656264E+001	-6.3283956E-001	-5.324544053991451E-002	3.3695822E-005	-6.3302290E-001	0
1.1962595E+004	5.121119890151022E+001	-6.3486087E-001	-5.307049746519527E-002	3.3692384E-005	-6.3502282E-001	0
1.2004210E+004	5.141119889645779E+001	-6.3685739E-001	-5.305283492570401E-002	3.3787092E-005	-6.3702267E-001	0
1.2086446E+004	5.161119889140537E+001	-6.3890171E-001	-5.286100771502011E-002	3.3772987E-005	-6.3902259E-001	0
1.2160691E+004	5.181119888635294E+001	-6.4090157E-001	-5.270272412214866E-002	3.3777258E-005	-6.4102244E-001	0
1.2212454E+004	5.201119888130052E+001	-6.4290720E-001	-5.264356967416584E-002	3.3844932E-005	-6.4302248E-001	0
1.2280591E+004	5.221119887624809E+001	-6.4482361E-001	-5.250753957805687E-002	3.3858101E-005	-6.4502227E-001	0
1.2353393E+004	5.241119887119567E+001	-6.4689082E-001	-5.236543775874025E-002	3.3874720E-005	-6.4702219E-001	0
1.2408072E+004	5.261099886614829E+001	-6.4891106E-001	-5.229749348453860E-002	3.3936423E-005	-6.4902186E-001	0
1.2470144E+004	5.281099886109587E+001	-6.5090954E-001	-5.219743831680840E-002	3.3975812E-005	-6.5102196E-001	0
1.2536133E+004	5.301099885604344E+001	-6.5287513E-001	-5.207946668157282E-002	3.4001387E-005	-6.5302193E-001	0
1.2595464E+004	5.321099885099102E+001	-6.5490478E-001	-5.199528853841908E-002	3.4051962E-005	-6.5502179E-001	0
1.2653819E+004	5.341099884593859E+001	-6.5689945E-001	-5.191313596642966E-002	3.4101711E-005	-6.5702170E-001	0
1.2718401E+004	5.361099884088617E+001	-6.5887105E-001	-5.180454790769606E-002	3.4132518E-005	-6.5902156E-001	0
1.2767147E+004	5.381099883583374E+001	-6.6089356E-001	-5.176517109348622E-002	3.4211269E-005	-6.6102153E-001	0
1.2843917E+004	5.401099883078132E+001	-6.6284198E-001	-5.160746391431803E-002	3.4207595E-005	-6.6302139E-001	0
1.2887893E+004	5.421099882572889E+001	-6.6488439E-001	-5.158984571507358E-002	3.4301283E-005	-6.6502130E-001	0
1.2935571E+004	5.441099882067647E+001	-6.6685909E-001	-5.155235001988423E-002	3.4378154E-005	-6.6702121E-001	0
1.2997640E+004	5.461099881562404E+001	-6.6887122E-001	-5.146097640830050E-002	3.4420766E-005	-6.6902107E-001	0
1.3035359E+004	5.481099881057162E+001	-6.7087328E-001	-5.146565464221764E-002	3.4526933E-005	-6.7102104E-001	0
1.3087534E+004	5.501099880551919E+001	-6.7288959E-001	-5.141454347823227E-002	3.4596313E-005	-6.7302090E-001	0
1.3152574E+004	5.521099880046677E+001	-6.7483914E-001	-5.130852203205860E-002	3.4624998E-005	-6.7502081E-001	0
1.3187162E+004	5.541099879541434E+001	-6.7686409E-001	-5.132750194158631E-002	3.4741744E-005	-6.7702067E-001	0
1.3211554E+004	5.561099879036192E+001	-6.7883289E-001	-5.138175903667452E-002	3.4879627E-005	-6.7902064E-001	0
1.3271032E+004	5.581099878530949E+001	-6.8084669E-001	-5.130322079613503E-002	3.4929628E-005	-6.8102050E-001	0
1.3306566E+004	5.601099878025707E+001	-6.8287957E-001	-5.131898991670691E-002	3.5044690E-005	-6.8302041E-001	0
1.3329571E+004	5.621099877520464E+001	-6.8481684E-001	-5.137575905751057E-002	3.5182984E-005	-6.8502033E-001	0
1.3385608E+004	5.641099877015222E+001	-6.8688893E-001	-5.131548038808453E-002	3.5248035E-005	-6.8702018E-001	0
1.3411043E+004	5.661089876510232E+001	-6.8886870E-001	-5.136577977932599E-002	3.5384277E-005	-6.8902040E-001	0
1.3447478E+004	5.681079876005242E+001	-6.9085598E-001	-5.137439288279189E-002	3.5492307E-005	-6.9102001E-001	0
1.3477730E+004	5.701079875500000E+001	-6.9286025E-001	-5.140778467179521E-002	3.5618410E-005	-6.9301993E-001	0
1.3502767E+004	5.721079874994757E+001	-6.9485563E-001	-5.146024140155547E-002	3.5757439E-005	-6.9501978E-001	0
1.3543994E+004	5.741079874489515E+001	-6.9683367E-001	-5.144964189420709E-002	3.5851845E-005	-6.9701976E-001	0
1.3567862E+004	5.761079873984272E+001	-6.9889051E-001	-5.151073180895105E-002	3.6000361E-005	-6.9901967E-001	0
1.3602868E+004	5.781079873479030E+001	-7.0088506E-001	-5.152479872474935E-002	3.6112961E-005	-7.0101959E-001	0
1.3603083E+004	5.801079872973787E+001	-7.0280564E-001	-5.166517371098456E-002	3.6310576E-005	-7.0301944E-001	0
1.3643002E+004	5.821079872468545E+001	-7.0486122E-001	-5.166467312193312E-002	3.6416426E-005	-7.0501935E-001	0
1.3640282E+004	5.841079871963302E+001	-7.0690197E-001	-5.182458692528047E-002	3.6634901E-005	-7.0701927E-001	0
1.3669808E+004	5.861079871458060E+001	-7.0888114E-001	-5.185743291068268E-002	3.6760757E-005	-7.0901918E-001	0
1.3688979E+004	5.881079870952817E+001	-7.1082592E-001	-5.192687886275016E-002	3.6910973E-005	-7.1101910E-001	0
1.3691678E+004	5.901079870447575E+001	-7.1288389E-001	-5.206695049388677E-002	3.7117690E-005	-7.1301889E-001	0
1.3708711E+004	5.921079869942332E+001	-7.1484393E-001	-5.214523367558432E-002	3.7275702E-005	-7.1501887E-001	0
1.3711602E+004	5.941079869437090E+001	-7.1683997E-001	-5.227981297121886E-002	3.7476260E-005	-7.1701878E-001	0
1.3724417E+004	5.961079868931847E+001	-7.1879095E-001	-5.237315026853140E-002	3.7645346E-005	-7.1901870E-001	0
1.3718064E+004	5.981079868426605E+001	-7.2089970E-001	-5.255112525914085E-002	3.7884092E-005	-7.2101855E-001	0
1.3724514E+004	6.001079867921362E+001	-7.2283351E-001	-5.266733244726718E-002	3.8069713E-005	-7.2301847E-001	0
1.3708121E+004	6.021079867416120E+001	-7.2480190E-001	-5.287390380206580E-002	3.8323105E-005	-7.2501838E-001	0
1.3707469E+004	6.041079866910877E+001	-7.2687864E-001	-5.302792607042106E-002	3.8544866E-005	-7.2701830E-001	0
1.3709622E+004	6.061069866405887E+001	-7.2883934E-001	-5.316261446275605E-002	3.8747006E-005	-7.2901750E-001	0
1.3688788E+004	6.081059865900897E+001	-7.3089629E-001	-5.339379012088386E-002	3.9025323E-005	-7.3101801E-001	0
1.3661131E+004	6.101059865395655E+001	-7.3279613E-001	-5.364095683942371E-002	3.9307884E-005	-7.3301798E-001	0
1.3677858E+004	6.121059864890412E+001	-7.3488665E-001	-5.372819451239330E-002	3.9484134E-005	-7.3501790E-001	0
1.3633525E+004	6.141059864385170E+001	-7.3685354E-001	-5.404717446454804E-002	3.9824852E-005	-7.3701781E-001	0
1.3632888E+004	6.161059863879927E+001	-7.3883361E-001	-5.419494363832000E-002	4.0041046E-005	-7.3901767E-001	0
1.3606224E+004	6.181059863374685E+001	-7.4093604E-001	-5.445567004186236E-002	4.0348168E-005	-7.4101758E-001	0
1.3584435E+004	6.201059862869442E+001	-7.4286884E-001	-5.468529599872896E-002	4.0624003E-005	-7.4301749E-001	0
1.3560791E+004	6.221059862364200E+001	-7.4488872E-001	-5.492959118684715E-002	4.0916431E-005	-7.4501741E-001	0
1.3531376E+004	6.241059861858957E+001	-7.4688005E-001	-5.519616588646059E-002	4.1224914E-005	-7.4701732E-001	0
1.3499620E+004	6.261059861353715E+001	-7.4886793E-001	-5.547325957572813E-002	4.1542145E-005	-7.4901712E-001	0
1.3487163E+004	6.281059860848472E+001	-7.5084841E-001	-5.567133626235421E-002	4.1800733E-005	-7.5101709E-001	0
1.3432169E+004	6.301059860343230E+001	-7.5285894E-001	-5.604894895237500E-002	4.2196953E-005	-7.5301701E-001	0
1.3402705E+004	6.321059859837987E+001	-7.5486094E-001	-5.632153520404934E-002	4.2514926E-005	-7.5501692E-001	0
1.3369720E+004	6.341059859332745E+001	-7.5686926E-001	-5.661070579874117E-002	4.2846903E-005	-7.5701678E-001	0
1.3336849E+004	6.361059858827502E+001	-7.5888741E-001	-5.690155359610161E-002	4.3181873E-005	-7.5901669E-001	0
1.3290782E+004	6.381059858322260E+001	-7.6088297E-001	-5.724892149998262E-002	4.3559729E-005	-7.6101661E-001	0
1.3240502E+004	6.401059857817017E+001	-7.6285303E-001	-5.761511321496343E-002	4.3951863E-005	-7.6301652E-001	0
1.3209064E+004	6.421059857311775E+001	-7.6485538E-001	-5.790382614433175E-002	4.4288052E-005	-7.6501644E-001	0
1.3177560E+004	6.441059856806532E+001	-7.6686549E-001	-5.819480281318978E-002	4.4627584E-005	-7.6701623E-001	0
1.3110060E+004	6.461049856301543E+001	-7.6884955E-001	-5.864576906413665E-002	4.5089771E-005	-7.6901537E-001	0
1.3080868E+004	6.481049855796300E+001	-7.7087104E-001	-5.893118226678906E-002	4.5428344E-005	-7.7101701E-001	0
1.3011337E+004	6.501039855291310E+001	-7.7288926E-001	-5.940121902805473E-002	4.5910565E-005	-7.7301604E-001	0
1.2966181E+004	6.521039854786068E+001	-7.7481437E-001	-5.975656234606452E-002	4.6300243E-005	-7.7501589E-001	0
1.2902258E+004	6.541039854280825E+001	-7.7683866E-001	-6.020951351782322E-002	4.6773079E-005	-7.7701581E-001	0
1.2850546E+004	6.561039853775583E+001	-7.7886754E-001	-6.060968745339354E-002	4.7206919E-005	-7.7901572E-001	0
1.2791117E+004	6.581039853270340E+001	-7.8085840E-001	-6.104692681840362E-002	4.7669004E-005	-7.8101563E-001	0
1.2750960E+004	6.601039852765098E+001	-7.8285187E-001	-6.139552370326196E-002	4.8063601E-005	-7.8301555E-001	0
1.2683754E+004	6.621039852259855E+001	-7.8487265E-001	-6.188015593215818E-002	4.8568043E-005	-7.8501540E-001	0
1.2640305E+004	6.641039851754613E+001	-7.8685248E-001	-6.224948471853425E-002	4.8981161E-005	-7.8701544E-001	0
1.2581917E+004	6.661039851249370E+001	-7.8887558E-001	-6.269915415504169E-002	4.9461833E-005	-7.8901523E-001	0
1.2516353E+004	6.681039850744128E+001	-7.9087305E-001	-6.318718411847835E-002	4.9973041E-005	-7.9101515E-001	0
1.2454556E+004	6.701039850238885E+001	-7.9284924E-001	-6.365937646108832E-002	5.0472288E-005	-7.9301512E-001	0
1.2387217E+004	6.721039849733643E+001	-7.9485583E-001	-6.416742611769344E-002	5.1003852E-005	-7.9501492E-001	0
1.2335453E+004	6.741039849228400E+001	-7.9687822E-001	-6.460064484382999E-002	5.1478848E-005	-7.9701483E-001	0
1.2271480E+004	6.761039848723158E+001	-7.9887170E-001	-6.509986510943805E-002	5.2006439E-005	-7.9901475E-001	0
1.2225911E+004	6.781039848217915E+001	-8.0083662E-001	-6.550322632018091E-002	5.2457384E-005	-8.0101466E-001	0
1.2291496E+004	6.801039847712673E+001	-8.0285805E-001	-6.531817360322867E-002	5.2441221E-005	-8.0301452E-001	0
1.2217999E+004	6.821039847207430E+001	-8.0486524E-001	-6.587537138906563E-002	5.3020798E-005	-8.0501455E-001	0
1.2147101E+004	6.841039846702188E+001	-8.0683070E-001	-6.642167055039594E-002	5.3591044E-005	-8.0701435E-001	0
1.2060357E+004	6.861039846196945E+001	-8.0885637E-001	-6.706736167542232E-002	5.4247863E-005	-8.0901426E-001	0
1.1997359E+004	6.881029845691955E+001	-8.1082773E-001	-6.758385054441818E-002	5.4798860E-005	-8.1101495E-001	0
1.1921481E+004	6.901019845186966E+001	-8.1288373E-001	-6.818647166743652E-002	5.5427674E-005	-8.1301403E-001	0
1.1824277E+004	6.921019844681723E+001	-8.1483150E-001	-6.891173864408594E-002	5.6151453E-005	-8.1501395E-001	0
1.1756086E+004	6.941019844176481E+001	-8.1690019E-001	-6.948742933852192E-002	5.6764293E-005	-8.1701386E-001	0
1.1677575E+004	6.961019843671238E+001	-8.1885248E-001	-7.012178946250525E-002	5.7419402E-005	-8.1901377E-001	0
1.1590277E+004	6.981019843165996E+001	-8.2087791E-001	-7.082469981584039E-002	5.8138430E-005	-8.2101363E-001	0
1.1498139E+004	7.001019842660753E+001	-8.2290268E-001	-7.156833992318540E-002	5.8893780E-005	-8.2301366E-001	0
1.1409472E+004	7.021019842155511E+001	-8.2490295E-001	-7.229983970225107E-002	5.9640352E-005	-8.2501346E-001	0
1.1342880E+004	7.041019841650268E+001	-8.2686722E-001	-7.289746632089966E-002	6.0276525E-005	-8.2701337E-001	0
1.1226827E+004	7.061019841145026E+001	-8.2888144E-001	-7.383042808871321E-002	6.1196675E-005	-8.2901335E-001	0
1.1144535E+004	7.081019840639783E+001	-8.3088404E-001	-7.455529042101494E-002	6.1946797E-005	-8.3101314E-001	0
1.1036205E+004	7.101019840134541E+001	-8.3287978E-001	-7.546795134605769E-002	6.2855732E-005	-8.3301306E-001	0
1.0917238E+004	7.121019839629298E+001	-8.3490914E-001	-7.647622497583395E-002	6.3850697E-005	-8.3501297E-001	0
1.0809923E+004	7.141019839124056E+001	-8.3687544E-001	-7.741733418424879E-002	6.4788663E-005	-8.3701289E-001	0
1.0672939E+004	7.161019838618813E+001	-8.3894163E-001	-7.860455001058153E-002	6.5944630E-005	-8.3901274E-001	0
1.0556462E+004	7.181019838113571E+001	-8.4087539E-001	-7.965503583552380E-002	6.6979956E-005	-8.4101278E-001	0
1.0427526E+004	7.201019837608328E+001	-8.4290183E-001	-8.083430069441677E-002	6.8135378E-005	-8.4301257E-001	0
1.0296990E+004	7.221019837103086E+001	-8.4488118E-001	-8.205127511532484E-002	6.9323578E-005	-8.4501249E-001	0
1.0153659E+004	7.241019836597843E+001	-8.4685254E-001	-8.340367825771566E-002	7.0630616E-005	-8.4701240E-001	0
9.9992559E+003	7.261019836092601E+001	-8.4889913E-001	-8.489622899633124E-002	7.2068331E-005	-8.4901226E-001	0
9.8211670E+003	7.281019835587358E+001	-8.5090089E-001	-8.663948694594581E-002	7.3721618E-005	-8.5101217E-001	0
9.6466484E+003	7.300999835082621E+001	-8.5285479E-001	-8.840944212408175E-002	7.5400414E-005	-8.5301191E-001	0
9.4473145E+003	7.320999834577378E+001	-8.5488284E-001	-9.048950645962797E-002	7.7357923E-005	-8.5501200E-001	0
9.2471328E+003	7.340999834072136E+001	-8.5687172E-001	-9.266349870675650E-002	7.9400728E-005	-8.5701185E-001	0
9.0556455E+003	7.360999833566893E+001	-8.5887742E-001	-9.484441813805855E-002	8.1459730E-005	-8.5901189E-001	0
8.8330254E+003	7.380999833061651E+001	-8.6085594E-001	-9.745878465273083E-002	8.3897976E-005	-8.6101168E-001	0
8.6197666E+003	7.400999832556408E+001	-8.6286539E-001	-1.001031056707489E-001	8.6375505E-005	-8.6301160E-001	0
8.4137627E+003	7.420999832051166E+001	-8.6487979E-001	-1.027934578555698E-001	8.8903987E-005	-8.6501151E-001	0
8.2249639E+003	7.440999831545923E+001	-8.6683172E-001	-1.053903357848076E-001	9.1355687E-005	-8.6701137E-001	0
8.0389536E+003	7.460999831040681E+001	-8.6889416E-001	-1.080854777816915E-001	9.3914838E-005	-8.6901128E-001	0
7.8932314E+003	7.480999830535438E+001	-8.7086684E-001	-1.103308346384374E-001	9.6083466E-005	-8.7101120E-001	0
7.7520601E+003	7.500999830030196E+001	-8.7286371E-001	-1.125976424020148E-001	9.8282399E-005	-8.7301111E-001	0
7.6254336E+003	7.520999829524953E+001	-8.7488836E-001	-1.147329298929310E-001	1.0037851E-004	-8.7501097E-001	0
7.4891328E+003	7.540999829019711E+001	-8.7687248E-001	-1.170859809694575E-001	1.0266947E-004	-8.7701100E-001	0
7.3495698E+003	7.560999828514468E+001	-8.7887418E-001	-1.195817191614148E-001	1.0509729E-004	-8.7901080E-001	0
7.2020679E+003	7.580999828009226E+001	-8.8089597E-001	-1.223115310338990E-001	1.0774373E-004	-8.8101071E-001	0
7.0387944E+003	7.600999827503983E+001	-8.8288319E-001	-1.254310261103369E-001	1.1074095E-004	-8.8301063E-001	0
6.8555073E+003	7.620999826998741E+001	-8.8485819E-001	-1.290726087894503E-001	1.1421095E-004	-8.8501048E-001	0
6.6530024E+003	7.640999826493498E+001	-8.8683456E-001	-1.332984002087427E-001	1.1821363E-004	-8.8701040E-001	0
6.4510146E+003	7.660999825988256E+001	-8.8887239E-001	-1.377879985694749E-001	1.2247595E-004	-8.8901031E-001	0
6.2310601E+003	7.680999825483013E+001	-8.9088303E-001	-1.429745522538894E-001	1.2737360E-004	-8.9101022E-001	0
5.9917061E+003	7.700989824978024E+001	-8.9284718E-001	-1.490138498988891E-001	1.3304659E-004	-8.9301062E-001	0
5.7583950E+003	7.720979824473034E+001	-8.9487118E-001	-1.554028863296368E-001	1.3906557E-004	-8.9501011E-001	0
5.5147500E+003	7.740979823967791E+001	-8.9686221E-001	-1.626297056457431E-001	1.4585644E-004	-8.9700997E-001	0
5.2599214E+003	7.760979823462549E+001	-8.9887530E-001	-1.708913913721011E-001	1.5361005E-004	-8.9901000E-001	0
5.0051782E+003	7.780979822957306E+001	-9.0089655E-001	-1.799928942334130E-001	1.6215497E-004	-9.0101004E-001	0
4.7512163E+003	7.800979822452064E+001	-9.0284503E-001	-1.900239845034570E-001	1.7156221E-004	-9.0301001E-001	0
4.4930303E+003	7.820979821946821E+001	-9.0487170E-001	-2.013945348831134E-001	1.8223621E-004	-9.0500993E-001	0
4.2308203E+003	7.840979821441579E+001	-9.0685964E-001	-2.143460441097753E-001	1.9438178E-004	-9.0701002E-001	0
3.9690896E+003	7.860979820936336E+001	-9.0884674E-001	-2.289811584173522E-001	2.0810877E-004	-9.0900999E-001	0
3.7105117E+003	7.880979820431094E+001	-9.1086441E-001	-2.454821515929746E-001	2.2360096E-004	-9.1100991E-001	0
3.4567041E+003	7.900979819925851E+001	-9.1286159E-001	-2.640843784178948E-001	2.4107248E-004	-9.1301006E-001	0
3.2074585E+003	7.920979819420609E+001	-9.1491115E-001	-2.852448825270365E-001	2.6097373E-004	-9.1500992E-001	0
2.9371824E+003	7.940979818915366E+001	-9.1682285E-001	-3.121436589593900E-001	2.8618044E-004	-9.1701001E-001	0
2.6915334E+003	7.960979818410124E+001	-9.1887218E-001	-3.413935626039704E-001	3.1369703E-004	-9.1900998E-001	0
2.4885649E+003	7.980979817904881E+001	-9.2081195E-001	-3.700172321896268E-001	3.4071630E-004	-9.2101008E-001	0
2.2926338E+003	8.000979817399639E+001	-9.2289019E-001	-4.025458512603883E-001	3.7150562E-004	-9.2301005E-001	0
2.1079814E+003	8.020979816894396E+001	-9.2487597E-001	-4.387495950785176E-001	4.0578895E-004	-9.2500997E-001	0
1.9042651E+003	8.040979816389154E+001	-9.2686784E-001	-4.867325667376345E-001	4.5113676E-004	-9.2701000E-001	0
1.7522104E+003	8.060979815883911E+001	-9.2887759E-001	-5.301176108031314E-001	4.9241434E-004	-9.2900997E-001	0
1.6136790E+003	8.080979815378669E+001	-9.3090039E-001	-5.768808044594547E-001	5.3701858E-004	-9.3100995E-001	0
1.4682400E+003	8.100979814873426E+001	-9.3287778E-001	-6.353714352097697E-001	5.9272390E-004	-9.3300998E-001	0
1.3458529E+003	8.120979814368184E+001	-9.3485337E-001	-6.946177717272946E-001	6.4936577E-004	-9.3501002E-001	0
1.2438186E+003	8.140979813862941E+001	-9.3687952E-001	-7.532284441456856E-001	7.0568430E-004	-9.3700999E-001	0
1.1296500E+003	8.160979813357699E+001	-9.3886721E-001	-8.311133045289267E-001	7.8030501E-004	-9.3900990E-001	0
1.0490964E+003	8.180979812852456E+001	-9.4086313E-001	-8.968319326571588E-001	8.4379612E-004	-9.4101000E-001	0
9.5817773E+002	8.200979812347214E+001	-9.4289374E-001	-9.840488924461157E-001	9.2785357E-004	-9.4300997E-001	0
8.8383740E+002	8.221979811816709E+001	-9.4499475E-001	-1.069195264034110E+000	1.0103839E-003	-9.4511002E-001	0
8.1598462E+002	8.242979811286204E+001	-9.4702184E-001	-1.160587825835631E+000	1.0991020E-003	-9.4721001E-001	0
7.5752765E+002	8.262979810780962E+001	-9.4906473E-001	-1.252844957284241E+000	1.1890309E-003	-9.4920999E-001	0
7.0449469E+002	8.282979810275720E+001	-9.5104825E-001	-1.349972256921791E+000	1.2838887E-003	-9.5120996E-001	0
6.5291382E+002	8.302979809770477E+001	-9.5304680E-001	-1.459682422067104E+000	1.3911456E-003	-9.5321000E-001	0
6.1093231E+002	8.322979809265235E+001	-9.5502210E-001	-1.563220819986320E+000	1.4929104E-003	-9.5521003E-001	0
5.7148938E+002	8.342979808759992E+001	-9.5701498E-001	-1.674598034057357E+000	1.6026153E-003	-9.5720994E-001	0
5.3422943E+002	8.362979808254750E+001	-9.5906925E-001	-1.795238587963071E+000	1.7217582E-003	-9.5920992E-001	0
5.0151840E+002	8.382979807749507E+001	-9.6105105E-001	-1.916282682343809E+000	1.8416455E-003	-9.6121001E-001	0
4.7212634E+002	8.402979807244265E+001	-9.6303135E-001	-2.039774714869836E+000	1.9643670E-003	-9.6320999E-001	0
4.4529675E+002	8.422979806739022E+001	-9.6509558E-001	-2.167308778111350E+000	2.0916602E-003	-9.6520990E-001	0
4.2085587E+002	8.442979806233780E+001	-9.6708685E-001	-2.297905139185815E+000	2.2222737E-003	-9.6721005E-001	0
3.9796985E+002	8.462979805728537E+001	-9.6907306E-001	-2.435041395410931E+000	2.3597330E-003	-9.6920991E-001	0
3.7698843E+002	8.482979805223295E+001	-9.7107995E-001	-2.575887931988073E+000	2.5013932E-003	-9.7121000E-001	0
3.5803186E+002	8.502979804718052E+001	-9.7306156E-001	-2.717807237337642E+000	2.6445938E-003	-9.7320998E-001	0
3.4073615E+002	8.522979804212810E+001	-9.7508067E-001	-2.861688486640404E+000	2.7903770E-003	-9.7521007E-001	0
3.2490817E+002	8.542979803707567E+001	-9.7705227E-001	-3.007164414169573E+000	2.9381567E-003	-9.7721004E-001	0
3.1016333E+002	8.562979803202325E+001	-9.7904015E-001	-3.156530835612967E+000	3.0903704E-003	-9.7920996E-001	0
2.9624097E+002	8.582979802697082E+001	-9.8109317E-001	-3.311807963177728E+000	3.2491921E-003	-9.8120999E-001	0
2.8331339E+002	8.602979802191840E+001	-9.8304296E-001	-3.469807838907053E+000	3.4109701E-003	-9.8320997E-001	0
2.7129797E+002	8.622979801686597E+001	-9.8503274E-001	-3.630815125748413E+000	3.5764717E-003	-9.8520994E-001	0
2.6020026E+002	8.642979801181355E+001	-9.8706532E-001	-3.793483178834521E+000	3.7444157E-003	-9.8720998E-001	0
2.4996034E+002	8.662979800676112E+001	-9.8909271E-001	-3.956998645313206E+000	3.9138384E-003	-9.8921001E-001	0
2.4018324E+002	8.682979800170870E+001	-9.9106246E-001	-4.126276481415128E+000	4.0893978E-003	-9.9120998E-001	0
2.3124435E+002	8.702979799665627E+001	-9.9305230E-001	-4.294385047490088E+000	4.2645489E-003	-9.9320990E-001	0
2.2271333E+002	8.722979799160385E+001	-9.9506235E-001	-4.467906418841437E+000	4.4458453E-003	-9.9520999E-001	0
2.1464114E+002	8.742979798655142E+001	-9.9707127E-001	-4.645294198103204E+000	4.6316893E-003	-9.9720985E-001	0
2.0709021E+002	8.762979798149900E+001	-9.9904984E-001	-4.824225451907052E+000	4.8196418E-003	-9.9920988E-001	0
1.9997304E+002	8.782979797644657E+001	-1.0010657E+000	-5.006003531874470E+000	5.0113387E-003	-1.0012100E+000	0
1.9316582E+002	8.802979797139415E+001	-1.0030751E+000	-5.192818959959510E+000	5.2087875E-003	-1.0032099E+000	0
1.8663196E+002	8.822979796634172E+001	-1.0050827E+000	-5.385373022719833E+000	5.4127453E-003	-1.0052099E+000	0
1.8062198E+002	8.842979796128930E+001	-1.0070641E+000	-5.575534618732036E+000	5.6149210E-003	-1.0072099E+000	0
1.7492407E+002	8.862979795623687E+001	-1.0090895E+000	-5.768728461564280E+000	5.8211633E-003	-1.0092100E+000	0
1.6940547E+002	8.882979795118445E+001	-1.0110691E+000	-5.968337704129752E+000	6.0344017E-003	-1.0112100E+000	0
1.6417036E+002	8.902979794613202E+001	-1.0130531E+000	-6.170742349830078E+000	6.2512895E-003	-1.0132099E+000	0
1.5911351E+002	8.922979794107960E+001	-1.0150665E+000	-6.379511628561829E+000	6.4756284E-003	-1.0152100E+000	0
1.5447430E+002	8.942979793602717E+001	-1.0170343E+000	-6.583841422788112E+000	6.6959923E-003	-1.0172099E+000	0
1.4979938E+002	8.962979793097475E+001	-1.0190657E+000	-6.802870010640333E+000	6.9325715E-003	-1.0192099E+000	0
1.4538208E+002	8.982979792592232E+001	-1.0210811E+000	-7.023431294629343E+000	7.1714930E-003	-1.0212100E+000	0
1.4131732E+002	9.002979792086990E+001	-1.0230944E+000	-7.239695901976148E+000	7.4068923E-003	-1.0232100E+000	0
1.3723949E+002	9.022979791581747E+001	-1.0250908E+000	-7.469357782345497E+000	7.6567698E-003	-1.0252099E+000	0
1.3329018E+002	9.042979791076505E+001	-1.0270834E+000	-7.705619628399660E+000	7.9143140E-003	-1.0272099E+000	0
1.2962411E+002	9.062979790571262E+001	-1.0290905E+000	-7.939035873091420E+000	8.1699863E-003	-1.0292100E+000	0
1.2617995E+002	9.082979790066020E+001	-1.0310670E+000	-8.171401014268531E+000	8.4252618E-003	-1.0312099E+000	0
1.2264613E+002	9.102979789560777E+001	-1.0330946E+000	-8.423377917196767E+000	8.7021468E-003	-1.0332099E+000	0
1.1923180E+002	9.122979789055535E+001	-1.0351005E+000	-8.681412670415011E+000	8.9861341E-003	-1.0352099E+000	0
1.1605269E+002	9.142979788550292E+001	-1.0371023E+000	-8.936478580206678E+000	9.2680426E-003	-1.0372099E+000	0
1.1294058E+002	9.162979788045050E+001	-1.0390912E+000	-9.200335369020891E+000	9.5599880E-003	-1.0392100E+000	0
1.0982913E+002	9.182979787539807E+001	-1.0410827E+000	-9.479112609376168E+000	9.8685408E-003	-1.0412099E+000	0
1.0697014E+002	9.202979787034565E+001	-1.0430961E+000	-9.751282721149668E+000	1.0171524E-002	-1.0432100E+000	0
1.0419041E+002	9.222979786529322E+001	-1.0450794E+000	-1.003047537290044E+001	1.0482643E-002	-1.0452100E+000	0
1.0135150E+002	9.242979786024080E+001	-1.0471159E+000	-1.033152841697205E+001	1.0818308E-002	-1.0472100E+000	0
9.8771065E+001	9.262979785518837E+001	-1.0490943E+000	-1.062147423037057E+001	1.1142928E-002	-1.0492100E+000	0
9.5854355E+001	9.283979784988333E+001	-1.0512072E+000	-1.096671242969376E+001	1.1528287E-002	-1.0513101E+000	0
9.3269112E+001	9.304979784457828E+001	-1.0532843E+000	-1.129295968076815E+001	1.1894697E-002	-1.0534101E+000	0
9.0811028E+001	9.324979783952585E+001	-1.0552784E+000	-1.162059731210445E+001	1.2262966E-002	-1.0554099E+000	0
8.8468536E+001	9.344979783447343E+001	-1.0572913E+000	-1.195104305638746E+001	1.2635734E-002	-1.0574099E+000	0
8.6177795E+001	9.364979782942100E+001	-1.0592706E+000	-1.229168852373050E+001	1.3020225E-002	-1.0594100E+000	0
8.4037712E+001	9.384979782436858E+001	-1.0612706E+000	-1.262850449874551E+001	1.3402261E-002	-1.0614100E+000	0
8.1912201E+001	9.404979781931615E+001	-1.0632701E+000	-1.298060739959439E+001	1.3801891E-002	-1.0634100E+000	0
7.9848320E+001	9.424979781426373E+001	-1.0652702E+000	-1.334117179960356E+001	1.4211953E-002	-1.0654099E+000	0
7.7764847E+001	9.444979780921130E+001	-1.0672575E+000	-1.372416443430109E+001	1.4647217E-002	-1.0674100E+000	0
7.5726791E+001	9.464979780415888E+001	-1.0692716E+000	-1.412012247649994E+001	1.5098246E-002	-1.0694100E+000	0
7.3879425E+001	9.484979779910645E+001	-1.0712883E+000	-1.450049640072717E+001	1.5534213E-002	-1.0714101E+000	0
7.2079147E+001	9.504979779405403E+001	-1.0732409E+000	-1.488975490801991E+001	1.5980294E-002	-1.0734100E+000	0
7.0298042E+001	9.524979778900160E+001	-1.0752662E+000	-1.529581983762534E+001	1.6447078E-002	-1.0754100E+000	0
6.8546707E+001	9.544979778394918E+001	-1.0772737E+000	-1.571590754099174E+001	1.6930334E-002	-1.0774100E+000	0
6.6775993E+001	9.564979777889675E+001	-1.0792618E+000	-1.616242226775815E+001	1.7443484E-002	-1.0794100E+000	0
6.5146629E+001	9.584979777384433E+001	-1.0812685E+000	-1.659745968307236E+001	1.7946310E-002	-1.0814101E+000	0
6.3573929E+001	9.604979776879190E+001	-1.0832946E+000	-1.703991909321739E+001	1.8459253E-002	-1.0834100E+000	0
6.1965813E+001	9.624979776373948E+001	-1.0852773E+000	-1.751413006158097E+001	1.9007688E-002	-1.0854100E+000	0
6.0504627E+001	9.644979775868705E+001	-1.0872813E+000	-1.797021828095123E+001	1.9538684E-002	-1.0874100E+000	0
5.9007900E+001	9.664979775363463E+001	-1.0892564E+000	-1.845950153922820E+001	2.0107130E-002	-1.0894099E+000	0
5.7590069E+001	9.684979774858220E+001	-1.0912690E+000	-1.894890945122623E+001	2.0678358E-002	-1.0914100E+000	0
5.6163769E+001	9.704979774352978E+001	-1.0932938E+000	-1.946617516152163E+001	2.1282248E-002	-1.0934100E+000	0
5.4846012E+001	9.724979773847735E+001	-1.0952775E+000	-1.997004902457437E+001	2.1872746E-002	-1.0954100E+000	0
5.3449997E+001	9.744979773342493E+001	-1.0972872E+000	-2.052922837696386E+001	2.2526460E-002	-1.0974101E+000	0
5.2239037E+001	9.764979772837250E+001	-1.0992879E+000	-2.104341763609392E+001	2.3132773E-002	-1.0994101E+000	0
5.0948681E+001	9.784979772332008E+001	-1.1013076E+000	-2.161601812350237E+001	2.3805887E-002	-1.1014100E+000	0
4.9734688E+001	9.804979771826766E+001	-1.1033008E+000	-2.218372876803616E+001	2.4475327E-002	-1.1034101E+000	0
4.8517883E+001	9.824979771321523E+001	-1.1052790E+000	-2.278085688479632E+001	2.5179202E-002	-1.1054100E+000	0
4.7287434E+001	9.844979770816281E+001	-1.1073129E+000	-2.341664286562641E+001	2.5929552E-002	-1.1074098E+000	0
4.6259644E+001	9.864979770311038E+001	-1.1093087E+000	-2.398005268822445E+001	2.6601281E-002	-1.1094100E+000	0
4.5145943E+001	9.884979769805796E+001	-1.1113250E+000	-2.461627667142153E+001	2.7356684E-002	-1.1114100E+000	0
4.4028442E+001	9.904979769300553E+001	-1.1132579E+000	-2.528497009644968E+001	2.8148692E-002	-1.1134101E+000	0
4.3055351E+001	9.924979768795311E+001	-1.1153209E+000	-2.590435046241380E+001	2.8891664E-002	-1.1154100E+000	0
4.2038670E+001	9.944979768290068E+001	-1.1173012E+000	-2.657793881130874E+001	2.9695563E-002	-1.1174099E+000	0
4.0992558E+001	9.964979767784826E+001	-1.1193020E+000	-2.730500684087247E+001	3.0562550E-002	-1.1194100E+000	0
4.0037315E+001	9.984979767279583E+001	-1.1212776E+000	-2.800581394463708E+001	3.1402290E-002	-1.1214100E+000	0
3.9087856E+001	1.000497976677434E+002	-1.1232928E+000	-2.873764128776901E+001	3.2280784E-002	-1.1234099E+000	0
3.8176765E+001	1.002497976626910E+002	-1.1252766E+000	-2.947542859150968E+001	3.3168010E-002	-1.1254100E+000	0
3.7243183E+001	1.004497976576386E+002	-1.1272941E+000	-3.026846581035204E+001	3.4121461E-002	-1.1274099E+000	0
3.6395390E+001	1.006497976525861E+002	-1.1292905E+000	-3.102839311423492E+001	3.5040069E-002	-1.1294099E+000	0
3.5569973E+001	1.008497976475337E+002	-1.1312748E+000	-3.180420735660863E+001	3.5979301E-002	-1.1314100E+000	0
3.4701794E+001	1.010497976424813E+002	-1.1333252E+000	-3.265898208201867E+001	3.7013248E-002	-1.1334100E+000	0
3.3868179E+001	1.012497976374289E+002	-1.1353251E+000	-3.352188078346163E+001	3.8058233E-002	-1.1354100E+000	0
3.3084717E+001	1.014497976323764E+002	-1.1372460E+000	-3.437375761024555E+001	3.9091419E-002	-1.1374099E+000	0
3.2304222E+001	1.016497976273240E+002	-1.1393008E+000	-3.526786092484610E+001	4.0180702E-002	-1.1394100E+000	0
3.1541269E+001	1.018497976222716E+002	-1.1412650E+000	-3.618323043009053E+001	4.1294657E-002	-1.1414101E+000	0
3.0823326E+001	1.020497976172192E+002	-1.1432750E+000	-3.709122858269139E+001	4.2405475E-002	-1.1434100E+000	0
3.0106262E+001	1.022497976121667E+002	-1.1452922E+000	-3.804165938949365E+001	4.3568816E-002	-1.1454099E+000	0
2.9395763E+001	1.024497976071143E+002	-1.1473383E+000	-3.903073511102041E+001	4.4781458E-002	-1.1474099E+000	0
2.8731771E+001	1.026497976020619E+002	-1.1493045E+000	-4.000117168053441E+001	4.5973528E-002	-1.1494100E+000	0
2.8050140E+001	1.028497975970095E+002	-1.1513170E+000	-4.104496418510701E+001	4.7255766E-002	-1.1514100E+000	0
2.7383657E+001	1.030497975919570E+002	-1.1533312E+000	-4.211749994133061E+001	4.8575424E-002	-1.1534100E+000	0
2.6725529E+001	1.032497975869046E+002	-1.1552992E+000	-4.322829917390879E+001	4.9941618E-002	-1.1554101E+000	0
2.6085396E+001	1.034497975818522E+002	-1.1573144E+000	-4.436637439614248E+001	5.1345844E-002	-1.1574099E+000	0
2.5516470E+001	1.036497975767998E+002	-1.1592889E+000	-4.543296572545751E+001	5.2669931E-002	-1.1594100E+000	0
2.4929350E+001	1.038497975717473E+002	-1.1613033E+000	-4.658377893360301E+001	5.4097895E-002	-1.1614100E+000	0
2.4337566E+001	1.040497975666949E+002	-1.1632990E+000	-4.779849024532632E+001	5.5603933E-002	-1.1634099E+000	0
2.3768400E+001	1.042497975616425E+002	-1.1653211E+000	-4.902816748429854E+001	5.7133559E-002	-1.1654100E+000	0
2.3222067E+001	1.044497975565901E+002	-1.1673495E+000	-5.026897273204236E+001	5.8681458E-002	-1.1674100E+000	0
2.2645361E+001	1.046497975515376E+002	-1.1693653E+000	-5.163818481179305E+001	6.0383901E-002	-1.1694100E+000	0
2.2126707E+001	1.048497975464852E+002	-1.1713369E+000	-5.293769611306698E+001	6.2007878E-002	-1.1714101E+000	0
2.1615871E+001	1.050497975414328E+002	-1.1733848E+000	-5.428348370149843E+001	6.3695416E-002	-1.1734101E+000	0
2.1117231E+001	1.052497975363804E+002	-1.1753556E+000	-5.565860013896909E+001	6.5418646E-002	-1.1754099E+000	0
2.0631025E+001	1.054497975313279E+002	-1.1773479E+000	-5.706686572909621E+001	6.7187555E-002	-1.1774100E+000	0
2.0177187E+001	1.056497975262755E+002	-1.1793424E+000	-5.844929573216950E+001	6.8931729E-002	-1.1794100E+000	0
1.9728359E+001	1.058497975212231E+002	-1.1813620E+000	-5.988141547254946E+001	7.0741631E-002	-1.1814101E+000	0
1.9284140E+001	1.060497975161707E+002	-1.1833597E+000	-6.136440414311949E+001	7.2616167E-002	-1.1834100E+000	0
1.8837925E+001	1.062497975111182E+002	-1.1853876E+000	-6.292559460231232E+001	7.4591219E-002	-1.1854099E+000	0
1.8444220E+001	1.064497975060658E+002	-1.1873689E+000	-6.437620733114068E+001	7.6438308E-002	-1.1874100E+000	0
1.8024446E+001	1.066497975010134E+002	-1.1893609E+000	-6.598598687178423E+001	7.8481153E-002	-1.1894100E+000	0
1.7632126E+001	1.068497974959610E+002	-1.1913799E+000	-6.756870313512496E+001	8.0499992E-002	-1.1914099E+000	0
1.7243780E+001	1.070497974909085E+002	-1.1933790E+000	-6.920634563007070E+001	8.2589403E-002	-1.1934100E+000	0
1.6892752E+001	1.072497974858561E+002	-1.1953518E+000	-7.076123089260503E+001	8.4584564E-002	-1.1954100E+000	0
1.6507349E+001	1.074497974808037E+002	-1.1973757E+000	-7.253591201851430E+001	8.6852737E-002	-1.1974099E+000	0
1.6155218E+001	1.076497974757513E+002	-1.1993439E+000	-7.423879113705516E+001	8.9037843E-002	-1.1994100E+000	0
1.5804191E+001	1.078497974706988E+002	-1.2013857E+000	-7.601690896352125E+001	9.1325633E-002	-1.2014101E+000	0
1.5477503E+001	1.080497974656464E+002	-1.2033554E+000	-7.774867877776410E+001	9.3559295E-002	-1.2034099E+000	0
1.5180696E+001	1.082497974605940E+002	-1.2053698E+000	-7.940149098134646E+001	9.5708162E-002	-1.2054100E+000	0
1.4836652E+001	1.084497974555416E+002	-1.2073828E+000	-8.137838768472477E+001	9.8254867E-002	-1.2074100E+000	0
1.4557358E+001	1.086497974504891E+002	-1.2093542E+000	-8.307511390471973E+001	1.0046723E-001	-1.2094101E+000	0
1.4235040E+001	1.088497974454367E+002	-1.2113420E+000	-8.509579413277748E+001	1.0308011E-001	-1.2114100E+000	0
1.3945814E+001	1.090497974403843E+002	-1.2134216E+000	-8.700973723372658E+001	1.0557950E-001	-1.2134099E+000	0
1.3642689E+001	1.092497974353319E+002	-1.2154167E+000	-8.908923074934205E+001	1.0828054E-001	-1.2154100E+000	0
1.3389137E+001	1.094497974302794E+002	-1.2173818E+000	-9.092310079209119E+001	1.1068813E-001	-1.2174100E+000	0
1.3125179E+001	1.096497974252270E+002	-1.2193900E+000	-9.290463749459605E+001	1.1328699E-001	-1.2194099E+000	0
1.2853619E+001	1.098497974201746E+002	-1.2213929E+000	-9.502327296955559E+001	1.1606075E-001	-1.2214100E+000	0
1.2609676E+001	1.100497974151222E+002	-1.2233945E+000	-9.702029311684009E+001	1.1869410E-001	-1.2234100E+000	0
1.2391167E+001	1.102497974100697E+002	-1.2254132E+000	-9.889409267010342E+001	1.2118613E-001	-1.2254100E+000	0
1.2101551E+001	1.104497974050173E+002	-1.2274140E+000	-1.014261754418717E+002	1.2449191E-001	-1.2274100E+000	0
1.1893481E+001	1.106497973999649E+002	-1.2294141E+000	-1.033687373926850E+002	1.2708299E-001	-1.2294101E+000	0
1.1698712E+001	1.108497973949125E+002	-1.2314162E+000	-1.052608319572311E+002	1.2961990E-001	-1.2314100E+000	0
1.1470621E+001	1.110497973898600E+002	-1.2334099E+000	-1.075277343737027E+002	1.3262577E-001	-1.2334100E+000	0
1.1222326E+001	1.112597973845550E+002	-1.2354780E+000	-1.100910804135461E+002	1.3601512E-001	-1.2355099E+000	0
1.0970977E+001	1.114697973792499E+002	-1.2375977E+000	-1.128065144426428E+002	1.3960908E-001	-1.2376100E+000	0
1.0778903E+001	1.116697973741975E+002	-1.2395754E+000	-1.150001477654559E+002	1.4255135E-001	-1.2396100E+000	0
1.0593058E+001	1.118697973691451E+002	-1.2415469E+000	-1.172038252596954E+002	1.4551404E-001	-1.2416099E+000	0
1.0400772E+001	1.120697973640927E+002	-1.2435775E+000	-1.195658768353276E+002	1.4868943E-001	-1.2436100E+000	0
1.0200088E+001	1.122697973590402E+002	-1.2455388E+000	-1.221106000314235E+002	1.5209350E-001	-1.2456100E+000	0
1.0059390E+001	1.124697973539878E+002	-1.2475698E+000	-1.240204255607932E+002	1.5472414E-001	-1.2476100E+000	0
9.9052258E+000	1.126697973489354E+002	-1.2495822E+000	-1.261538362351680E+002	1.5763958E-001	-1.2496101E+000	0
9.7365465E+000	1.128697973438830E+002	-1.2515556E+000	-1.285420386299253E+002	1.6087750E-001	-1.2516100E+000	0
9.5909958E+000	1.130697973388305E+002	-1.2535855E+000	-1.307044113520328E+002	1.6384915E-001	-1.2536100E+000	0
9.4153500E+000	1.132697973337781E+002	-1.2555693E+000	-1.333534368127919E+002	1.6743448E-001	-1.2556100E+000	0
9.2410898E+000	1.134697973287257E+002	-1.2575463E+000	-1.360820284971035E+002	1.7112945E-001	-1.2576100E+000	0
9.1122589E+000	1.136697973236733E+002	-1.2595499E+000	-1.382258608476376E+002	1.7410237E-001	-1.2596101E+000	0
8.9722223E+000	1.138697973186208E+002	-1.2616092E+000	-1.406127925459758E+002	1.7739840E-001	-1.2616100E+000	0
8.8280792E+000	1.140697973135684E+002	-1.2635630E+000	-1.431300077222097E+002	1.8085378E-001	-1.2636100E+000	0
8.6814480E+000	1.142697973085160E+002	-1.2655777E+000	-1.457795571145558E+002	1.8449536E-001	-1.2656100E+000	0
8.5672636E+000	1.144697973034636E+002	-1.2675350E+000	-1.479509752504952E+002	1.8753304E-001	-1.2676101E+000	0
8.4457684E+000	1.146697972984111E+002	-1.2695507E+000	-1.503179585766088E+002	1.9083627E-001	-1.2696100E+000	0
8.3226013E+000	1.148697972933587E+002	-1.2715205E+000	-1.527792219207397E+002	1.9426191E-001	-1.2716101E+000	0
8.2167339E+000	1.150697972883063E+002	-1.2735808E+000	-1.549984125323306E+002	1.9740300E-001	-1.2736100E+000	0
8.0842333E+000	1.152697972832539E+002	-1.2755884E+000	-1.577871875049307E+002	2.0127150E-001	-1.2756100E+000	0
7.9410887E+000	1.154697972782014E+002	-1.2775830E+000	-1.608826012492455E+002	2.0554088E-001	-1.2776101E+000	0
7.8223209E+000	1.156697972731490E+002	-1.2795324E+000	-1.635745252330285E+002	2.0929891E-001	-1.2796100E+000	0
7.6770082E+000	1.158697972680966E+002	-1.2815927E+000	-1.669390867042970E+002	2.1394792E-001	-1.2816100E+000	0
7.5096879E+000	1.160697972630442E+002	-1.2835641E+000	-1.709210951831067E+002	2.1938819E-001	-1.2836100E+000	0
7.3947711E+000	1.162697972579917E+002	-1.2855823E+000	-1.738501782525418E+002	2.2349872E-001	-1.2856100E+000	0
7.2569718E+000	1.164697972529393E+002	-1.2876027E+000	-1.774297472354773E+002	2.2845902E-001	-1.2876099E+000	0
7.1702418E+000	1.166697972478869E+002	-1.2895811E+000	-1.798518196233542E+002	2.3193350E-001	-1.2896101E+000	0
7.0976243E+000	1.168697972428345E+002	-1.2915908E+000	-1.819750887509649E+002	2.3503736E-001	-1.2916100E+000	0
7.0010662E+000	1.170697972377820E+002	-1.2935896E+000	-1.847703728729912E+002	2.3901702E-001	-1.2936101E+000	0
6.8808870E+000	1.172697972327296E+002	-1.2955418E+000	-1.882812086914137E+002	2.4392617E-001	-1.2956101E+000	0
6.7525544E+000	1.174697972276772E+002	-1.2976151E+000	-1.921665393414141E+002	2.4935819E-001	-1.2976099E+000	0
6.6373339E+000	1.176697972226248E+002	-1.2995569E+000	-1.957950052512215E+002	2.5444674E-001	-1.2996100E+000	0
6.5589657E+000	1.178697972175723E+002	-1.3016506E+000	-1.984536389190871E+002	2.5831732E-001	-1.3016100E+000	0
6.4674816E+000	1.180697972125199E+002	-1.3035202E+000	-2.015498910242204E+002	2.6272434E-001	-1.3036100E+000	0
6.3778434E+000	1.182697972074675E+002	-1.3056240E+000	-2.047124548780130E+002	2.6727751E-001	-1.3056099E+000	0
6.3090076E+000	1.184697972024151E+002	-1.3075697E+000	-2.072544279747272E+002	2.7099961E-001	-1.3076099E+000	0
6.2224722E+000	1.186697971973626E+002	-1.3096231E+000	-2.104666829595762E+002	2.7563202E-001	-1.3096100E+000	0
6.1401863E+000	1.188697971923102E+002	-1.3115562E+000	-2.136020151557832E+002	2.8015104E-001	-1.3116100E+000	0
6.0821424E+000	1.190697971872578E+002	-1.3136135E+000	-2.159787525427855E+002	2.8371263E-001	-1.3136100E+000	0
6.0114880E+000	1.192697971822054E+002	-1.3155339E+000	-2.188366445792230E+002	2.8788701E-001	-1.3156099E+000	0
5.9687452E+000	1.194697971771529E+002	-1.3175868E+000	-2.207476986411480E+002	2.9085425E-001	-1.3176100E+000	0
5.8714290E+000	1.196697971721005E+002	-1.3195959E+000	-2.247486916431762E+002	2.9657745E-001	-1.3196100E+000	0
5.7928343E+000	1.198697971670481E+002	-1.3216162E+000	-2.281467177743539E+002	3.0152240E-001	-1.3216100E+000	0
5.7306213E+000	1.200697971619957E+002	-1.3236257E+000	-2.309742041931681E+002	3.0572340E-001	-1.3236101E+000	0
5.6129293E+000	1.202697971569432E+002	-1.3255942E+000	-2.361679756744120E+002	3.1306291E-001	-1.3256100E+000	0
5.5158978E+000	1.204697971518908E+002	-1.3275921E+000	-2.406846854692139E+002	3.1953108E-001	-1.3276100E+000	0
5.4659534E+000	1.206697971468384E+002	-1.3296138E+000	-2.432537781311003E+002	3.2343358E-001	-1.3296100E+000	0
5.4061608E+000	1.208697971417860E+002	-1.3316090E+000	-2.463132443049599E+002	3.2799295E-001	-1.3316101E+000	0
5.3268247E+000	1.210697971367335E+002	-1.3336339E+000	-2.503618939631114E+002	3.3389112E-001	-1.3336101E+000	0
5.2679720E+000	1.212697971316811E+002	-1.3356031E+000	-2.535326824901866E+002	3.3861905E-001	-1.3356100E+000	0
5.1920986E+000	1.214697971266287E+002	-1.3376257E+000	-2.576271746218063E+002	3.4460875E-001	-1.3376100E+000	0
5.1576481E+000	1.216697971215763E+002	-1.3396254E+000	-2.597357076765993E+002	3.4794855E-001	-1.3396101E+000	0
5.1194248E+000	1.218698971165213E+002	-1.3416380E+000	-2.620681155006766E+002	3.5160053E-001	-1.3416108E+000	0
5.0620775E+000	1.220699971114664E+002	-1.3436388E+000	-2.654322719357715E+002	3.5664511E-001	-1.3436120E+000	0
5.0405645E+000	1.222699971064139E+002	-1.3456715E+000	-2.669684180586239E+002	3.5925180E-001	-1.3456119E+000	0
5.0053821E+000	1.224699971013615E+002	-1.3476739E+000	-2.692449590051519E+002	3.6285439E-001	-1.3476120E+000	0
4.9321389E+000	1.226699970963091E+002	-1.3496398E+000	-2.736418683231541E+002	3.6931795E-001	-1.3496120E+000	0
4.8764706E+000	1.228699970912567E+002	-1.3516259E+000	-2.771729788077391E+002	3.7463418E-001	-1.3516120E+000	0
4.7835941E+000	1.230699970862042E+002	-1.3536538E+000	-2.829783932778831E+002	3.8305476E-001	-1.3536121E+000	0
4.7342491E+000	1.232700970811493E+002	-1.3556113E+000	-2.863413449649674E+002	3.8816756E-001	-1.3556129E+000	0
4.6640911E+000	1.234701970760943E+002	-1.3576490E+000	-2.910854404259153E+002	3.9519185E-001	-1.3576139E+000	0
4.5308433E+000	1.236701970710419E+002	-1.3596458E+000	-3.000867045417663E+002	4.0801165E-001	-1.3596140E+000	0
4.5005107E+000	1.238701970659895E+002	-1.3616576E+000	-3.025562364945858E+002	4.1197801E-001	-1.3616139E+000	0
4.4562354E+000	1.240701970609371E+002	-1.3636376E+000	-3.060066136405576E+002	4.1728210E-001	-1.3636140E+000	0
4.3913550E+000	1.242701970558846E+002	-1.3656389E+000	-3.109834877909448E+002	4.2469114E-001	-1.3656139E+000	0
4.3404670E+000	1.244701970508322E+002	-1.3676920E+000	-3.151025138279761E+002	4.3096319E-001	-1.3676139E+000	0
4.2916827E+000	1.246701970457798E+002	-1.3696754E+000	-3.191464548262337E+002	4.3712705E-001	-1.3696140E+000	0
4.2596502E+000	1.248701970407274E+002	-1.3716338E+000	-3.220061893398247E+002	4.4167456E-001	-1.3716140E+000	0
4.2225652E+000	1.250701970356749E+002	-1.3736628E+000	-3.253147676364097E+002	4.4687280E-001	-1.3736140E+000	0
4.1689467E+000	1.252701970306225E+002	-1.3757021E+000	-3.299879499854942E+002	4.5396513E-001	-1.3756139E+000	0
4.1573439E+000	1.254701970255701E+002	-1.3776661E+000	-3.313813422391208E+002	4.5653284E-001	-1.3776140E+000	0
4.1139588E+000	1.256701970205177E+002	-1.3796419E+000	-3.353562883260302E+002	4.6267158E-001	-1.3796140E+000	0
4.0783806E+000	1.258701970154652E+002	-1.3816799E+000	-3.387815193448746E+002	4.6808761E-001	-1.3816140E+000	0
4.0573626E+000	1.260701970104128E+002	-1.3836952E+000	-3.410331629993152E+002	4.7188598E-001	-1.3836141E+000	0
3.9997649E+000	1.262701970053604E+002	-1.3856884E+000	-3.464424724924830E+002	4.8006132E-001	-1.3856140E+000	0
3.9598744E+000	1.264701970003080E+002	-1.3876908E+000	-3.504380835016293E+002	4.8629969E-001	-1.3876140E+000	0
3.9286101E+000	1.266701969952555E+002	-1.3897225E+000	-3.537440538319870E+002	4.9160606E-001	-1.3896140E+000	0
3.8715141E+000	1.268701969902031E+002	-1.3917063E+000	-3.594734012188565E+002	5.0028139E-001	-1.3916141E+000	0
3.8457503E+000	1.270703969851456E+002	-1.3937165E+000	-3.624043103049826E+002	5.0508887E-001	-1.3936160E+000	0
3.7738707E+000	1.272703969800932E+002	-1.3957078E+000	-3.698345789703908E+002	5.1618105E-001	-1.3956161E+000	0
3.6963279E+000	1.274703969750408E+002	-1.3977304E+000	-3.781402459393285E+002	5.2853811E-001	-1.3976159E+000	0
3.6471324E+000	1.276703969699884E+002	-1.3997304E+000	-3.837893073131714E+002	5.3720158E-001	-1.3996160E+000	0
3.6333067E+000	1.278703969649359E+002	-1.4017388E+000	-3.858024779231100E+002	5.4079431E-001	-1.4016161E+000	0
3.5952761E+000	1.280704969598810E+002	-1.4036994E+000	-3.904288252911938E+002	5.4804468E-001	-1.4036169E+000	0
3.5641782E+000	1.282705969548260E+002	-1.4057863E+000	-3.944208753092744E+002	5.5447143E-001	-1.4056181E+000	0
3.5313215E+000	1.284705969497736E+002	-1.4076895E+000	-3.986296550097659E+002	5.6114674E-001	-1.4076179E+000	0
3.5106249E+000	1.286705969447212E+002	-1.4097036E+000	-4.015534784745214E+002	5.6607139E-001	-1.4096180E+000	0
3.4661150E+000	1.288705969396688E+002	-1.4117436E+000	-4.072985686347592E+002	5.7500118E-001	-1.4116181E+000	0
3.4485478E+000	1.290705969346163E+002	-1.4137483E+000	-4.099546697188416E+002	5.7957268E-001	-1.4136180E+000	0
3.4227278E+000	1.292705969295639E+002	-1.4157777E+000	-4.136401653289786E+002	5.8562249E-001	-1.4156181E+000	0
3.4156644E+000	1.294705969245115E+002	-1.4177374E+000	-4.150692769480941E+002	5.8845919E-001	-1.4176179E+000	0
3.3839657E+000	1.296705969194591E+002	-1.4197303E+000	-4.195463151910135E+002	5.9564263E-001	-1.4196180E+000	0
3.3705273E+000	1.298705969144066E+002	-1.4217334E+000	-4.218133395707528E+002	5.9970611E-001	-1.4216181E+000	0
3.3229544E+000	1.300705969093542E+002	-1.4237674E+000	-4.284643280306093E+002	6.1003357E-001	-1.4236180E+000	0
3.2912393E+000	1.302705969043018E+002	-1.4257697E+000	-4.332014842563194E+002	6.1764556E-001	-1.4256181E+000	0
3.2674186E+000	1.304705968992494E+002	-1.4277254E+000	-4.369582092302444E+002	6.2385637E-001	-1.4276179E+000	0
3.2558656E+000	1.306705968941969E+002	-1.4297626E+000	-4.391344107803034E+002	6.2785798E-001	-1.4296180E+000	0
3.2155530E+000	1.308705968891445E+002	-1.4317318E+000	-4.452521251150802E+002	6.3748163E-001	-1.4316177E+000	0
3.2055874E+000	1.310705968840921E+002	-1.4337237E+000	-4.472577095550741E+002	6.4124399E-001	-1.4336178E+000	0
3.2058828E+000	1.312705968790397E+002	-1.4357166E+000	-4.478381435281835E+002	6.4296865E-001	-1.4356177E+000	0
3.1904557E+000	1.314705968739872E+002	-1.4377327E+000	-4.506355259002203E+002	6.4789343E-001	-1.4376178E+000	0
3.1901622E+000	1.316705968689348E+002	-1.4397231E+000	-4.513009113562630E+002	6.4974838E-001	-1.4396178E+000	0
3.1796374E+000	1.318705968638824E+002	-1.4416891E+000	-4.534130743723063E+002	6.5368068E-001	-1.4416177E+000	0
3.1225193E+000	1.320705968588300E+002	-1.4437469E+000	-4.623660497600540E+002	6.6753954E-001	-1.4436178E+000	0
3.0883598E+000	1.322705968537775E+002	-1.4457576E+000	-4.681312012315607E+002	6.7680424E-001	-1.4456179E+000	0
3.0594368E+000	1.324705968487251E+002	-1.4477589E+000	-4.732109144258397E+002	6.8509531E-001	-1.4476178E+000	0
3.0438249E+000	1.326705968436727E+002	-1.4497801E+000	-4.763020785108974E+002	6.9053328E-001	-1.4496177E+000	0
3.0372019E+000	1.328705968386203E+002	-1.4517837E+000	-4.780003963435859E+002	6.9395316E-001	-1.4516177E+000	0
3.0214345E+000	1.330705968335678E+002	-1.4537960E+000	-4.811608683484483E+002	6.9950974E-001	-1.4536178E+000	0
2.9581466E+000	1.332705968285154E+002	-1.4557906E+000	-4.921293135748965E+002	7.1643722E-001	-1.4556179E+000	0
2.9676261E+000	1.334705968234630E+002	-1.4577538E+000	-4.912188132495828E+002	7.1607608E-001	-1.4576178E+000	0
2.9649811E+000	1.336705968184106E+002	-1.4597614E+000	-4.923341266779098E+002	7.1869034E-001	-1.4596177E+000	0
2.9095106E+000	1.338705968133581E+002	-1.4617639E+000	-5.024088348553014E+002	7.3440307E-001	-1.4616178E+000	0
2.8380449E+000	1.340705968083057E+002	-1.4637944E+000	-5.157756365388973E+002	7.5498945E-001	-1.4636178E+000	0
2.8358600E+000	1.342705968032533E+002	-1.4658506E+000	-5.168980644987282E+002	7.5769532E-001	-1.4656178E+000	0
2.8343647E+000	1.344705967982009E+002	-1.4677609E+000	-5.178447675423813E+002	7.6007229E-001	-1.4676179E+000	0
2.8308072E+000	1.346705967931484E+002	-1.4697922E+000	-5.192131158564880E+002	7.6313543E-001	-1.4696177E+000	0
2.8366518E+000	1.348705967880960E+002	-1.4717532E+000	-5.188346530239589E+002	7.6359659E-001	-1.4716178E+000	0
2.8228278E+000	1.350705967830436E+002	-1.4738308E+000	-5.221114674133532E+002	7.6950395E-001	-1.4736178E+000	0
2.7846696E+000	1.352705967779912E+002	-1.4757944E+000	-5.299710830160830E+002	7.8212839E-001	-1.4756178E+000	0
2.7685919E+000	1.354705967729387E+002	-1.4778010E+000	-5.337734887389097E+002	7.8881097E-001	-1.4776179E+000	0
2.7633672E+000	1.356705967678863E+002	-1.4798144E+000	-5.355113032075033E+002	7.9245734E-001	-1.4796178E+000	0
2.7549462E+000	1.358705967628339E+002	-1.4817810E+000	-5.378620553568067E+002	7.9699379E-001	-1.4816178E+000	0
2.7521796E+000	1.360705967577815E+002	-1.4837939E+000	-5.391341036885233E+002	7.9996389E-001	-1.4836179E+000	0
2.7421129E+000	1.362705967527290E+002	-1.4858421E+000	-5.418603104442191E+002	8.0511886E-001	-1.4856178E+000	0
2.7162035E+000	1.364705967476766E+002	-1.4878190E+000	-5.477567944559105E+002	8.1496292E-001	-1.4876179E+000	0
2.7121260E+000	1.366705967426242E+002	-1.4898416E+000	-5.493260950144722E+002	8.1840885E-001	-1.4896177E+000	0
2.7238352E+000	1.368705967375718E+002	-1.4917332E+000	-5.476591288335194E+002	8.1696129E-001	-1.4916178E+000	0
2.7329438E+000	1.370705967325193E+002	-1.4938296E+000	-5.466009501718884E+002	8.1652868E-001	-1.4936179E+000	0
2.7071855E+000	1.372705967274669E+002	-1.4962474E+000	-5.526948241798225E+002	8.2696819E-001	-1.4956177E+000	0
2.6929972E+000	1.374705967224145E+002	-1.4982871E+000	-5.563641552741319E+002	8.3359325E-001	-1.4976178E+000	0
2.6952689E+000	1.376705967173621E+002	-1.5002755E+000	-5.566329548331905E+002	8.3510280E-001	-1.4996177E+000	0
2.6161289E+000	1.378705967123096E+002	-1.5022670E+000	-5.742327680695907E+002	8.6265093E-001	-1.5016178E+000	0
2.5900035E+000	1.380705967072572E+002	-1.5043446E+000	-5.808272676619251E+002	8.7376434E-001	-1.5036176E+000	0
2.5780869E+000	1.381805967044784E+002	-1.5052413E+000	-5.838597947724015E+002	8.7884986E-001	-1.5047175E+000	0
2.5784135E+000	1.381809967044683E+002	-1.5057181E+000	-5.839707946777344E+002	8.7929541E-001	-1.5049175E+000	1