EC-Lab ASCII FILE
Nb header lines : 61                          

Linear Sweep Voltammetry

Run on channel : 1 (SN 1340)
User : 
Electrode connection : standard
Potential control : Ewe
Ewe ctrl range : min = -5.00 V, max = 5.00 V
Ewe,I filtering : <None>
Channel : Grounded
Acquisition started on : 02/05/2026 17:31:34.514
Technique started on : 02/05/2026 17:31:37.040
Loaded Setting File :  NONE
Saved on :
	File : PtPdNi_25_Co_25_Cr_01_02_LSV_C01.mpr
	Directory : C:\Users\volt\Documents\Platalytix\
	Host : 127.0.0.1
Device : SP-200 (SN 0262)
Address : USB
EC-LAB for windows v11.60 (software)
Internet server v11.60 (firmware)
Command interpretor v11.60 (firmware)
Electrode material : PtPdNiCoCr
Initial state : 
Electrolyte : 1 M KOH
Comments : 
Cable : standard
Reference electrode : Hg/HgO (0.140 V)
Electrode surface area : 1.000 cm˛
Characteristic mass : 0.001 g
Equivalent Weight : 0.000 g/eq.
Density : 0.000 g/cm3
Volume (V) : 0.001 cmł
Cycle Definition : Charge/Discharge alternance
tR (h:m:s)          0:00:5.0000         
dER/dt (mV/h)       0.0                 
dER (mV)            0                   
dtR (s)             0.0000              
dE/dt               10.000              
dE/dt unit          mV/s                
Ei (V)              -0.200              
vs.                 Ref                 
EL (V)              -2.000              
vs.                 Ref                 
record              <I>                 
dI                  0.000               
unit dI             µA                  
tI (s)              0.0000              
step percent        50                  
N                   10                  
E range min (V)     -5.000              
E range max (V)     5.000               
I Range             Auto                
I Range min         Unset               
I Range max         Unset               
I Range init        Unset               
Bandwidth           8                   

Rwe/Ohm	time/s	Ewe/V	<I>/mA	Pwe/W	control/V	error	
0.0000000E+000	2.526400119968457E+000	-1.6194347E-001	0.000000000000000E+000	0.0000000E+000	0.0000000E+000	0
0.0000000E+000	7.526199993662885E+000	-5.7431929E-002	0.000000000000000E+000	0.0000000E+000	-1.9999628E-001	0
2.4728582E+003	7.726199988610460E+000	-2.0179574E-001	8.160425052046771E-002	-1.6467391E-005	-2.0189606E-001	0
3.6586033E+003	7.846199985579005E+000	-2.0300874E-001	-5.548804384357497E-002	1.1264558E-005	-2.0309611E-001	0
2.7308298E+003	8.056199980273959E+000	-2.0510556E-001	-7.510740838283914E-002	1.5404947E-005	-2.0519611E-001	0
2.7608113E+003	8.256199975221534E+000	-2.0707512E-001	-7.500516714120609E-002	1.5531705E-005	-2.0719612E-001	0
2.8549033E+003	8.456199970169109E+000	-2.0912082E-001	-7.324970652224705E-002	1.5318039E-005	-2.0919609E-001	0
2.9578550E+003	8.656199965116684E+000	-2.1106830E-001	-7.135856789726847E-002	1.5061531E-005	-2.1119612E-001	0
3.0603594E+003	8.856199960064259E+000	-2.1309362E-001	-6.963026299154018E-002	1.4837765E-005	-2.1319610E-001	0
3.1641589E+003	9.056199955011834E+000	-2.1512003E-001	-6.798647993240003E-002	1.4625254E-005	-2.1519609E-001	0
3.2614873E+003	9.256199949959409E+000	-2.1717151E-001	-6.658664568118278E-002	1.4460722E-005	-2.1719612E-001	0
3.3554707E+003	9.456199944906984E+000	-2.1912679E-001	-6.530433857619192E-002	1.4309931E-005	-2.1919610E-001	0
3.4513694E+003	9.656199939854559E+000	-2.2122578E-001	-6.409797145110768E-002	1.4180124E-005	-2.2119610E-001	0
3.5348833E+003	9.856199934802135E+000	-2.2308265E-001	-6.310891297005983E-002	1.4078503E-005	-2.2319610E-001	0
3.6228381E+003	1.005619992974971E+001	-2.2518012E-001	-6.215572317422294E-002	1.3996233E-005	-2.2519611E-001	0
3.7113870E+003	1.025619992469728E+001	-2.2722207E-001	-6.122295444624304E-002	1.3911206E-005	-2.2719610E-001	0
3.7903435E+003	1.045619991964486E+001	-2.2915806E-001	-6.045838735908982E-002	1.3854527E-005	-2.2919610E-001	0
3.8703052E+003	1.065619991459243E+001	-2.3106520E-001	-5.970206155173480E-002	1.3795068E-005	-2.3119614E-001	0
3.9547727E+003	1.085619990954001E+001	-2.3318434E-001	-5.896276761957198E-002	1.3749194E-005	-2.3319609E-001	0
4.0264890E+003	1.105619990448758E+001	-2.3509255E-001	-5.838648915711081E-002	1.3726229E-005	-2.3519611E-001	0
4.1083486E+003	1.125619989943516E+001	-2.3710963E-001	-5.771409962569152E-002	1.3684569E-005	-2.3719610E-001	0
4.1873765E+003	1.145619989438273E+001	-2.3921542E-001	-5.712775327054054E-002	1.3665839E-005	-2.3919609E-001	0
4.2610200E+003	1.165619988933031E+001	-2.4109878E-001	-5.658241075964121E-002	1.3641950E-005	-2.4119611E-001	0
4.3356582E+003	1.185619988427788E+001	-2.4309146E-001	-5.606794848355978E-002	1.3629639E-005	-2.4319611E-001	0
4.4106592E+003	1.205619987922546E+001	-2.4513929E-001	-5.557882936688285E-002	1.3624554E-005	-2.4519610E-001	0
4.4809673E+003	1.225619987417303E+001	-2.4709991E-001	-5.514432265277525E-002	1.3626157E-005	-2.4719611E-001	0
4.5576060E+003	1.245619986912061E+001	-2.4911380E-001	-5.465891372461029E-002	1.3616290E-005	-2.4919613E-001	0
4.6266851E+003	1.265619986406819E+001	-2.5111133E-001	-5.427456677990569E-002	1.3628958E-005	-2.5119612E-001	0
4.6979673E+003	1.285619985901576E+001	-2.5310275E-001	-5.387494734186442E-002	1.3635898E-005	-2.5319609E-001	0
4.7774331E+003	1.305619985396334E+001	-2.5514743E-001	-5.340680396268793E-002	1.3626609E-005	-2.5519612E-001	0
4.8421704E+003	1.325619984891091E+001	-2.5714263E-001	-5.310482760656909E-002	1.3655515E-005	-2.5719610E-001	0
4.9130591E+003	1.345619984385849E+001	-2.5911236E-001	-5.273951353640394E-002	1.3665460E-005	-2.5919613E-001	0
4.9819097E+003	1.365619983880606E+001	-2.6112413E-001	-5.241446632547653E-002	1.3686682E-005	-2.6119608E-001	0
5.0560923E+003	1.385619983375364E+001	-2.6310259E-001	-5.203674854541762E-002	1.3691003E-005	-2.6319611E-001	0
5.1285112E+003	1.405619982870121E+001	-2.6509547E-001	-5.169052930069390E-002	1.3702926E-005	-2.6519611E-001	0
5.1991279E+003	1.425619982364879E+001	-2.6708665E-001	-5.137143167825464E-002	1.3720623E-005	-2.6719609E-001	0
5.2691924E+003	1.445619981859636E+001	-2.6908079E-001	-5.106679950692949E-002	1.3741094E-005	-2.6919609E-001	0
5.3417769E+003	1.465619981354394E+001	-2.7114180E-001	-5.075872964341843E-002	1.3762813E-005	-2.7119610E-001	0
5.4134614E+003	1.485619980849151E+001	-2.7311939E-001	-5.045189655622428E-002	1.3779391E-005	-2.7319613E-001	0
5.4789526E+003	1.505619980343909E+001	-2.7504075E-001	-5.019951052013449E-002	1.3806911E-005	-2.7519611E-001	0
5.5550371E+003	1.525619979838666E+001	-2.7710876E-001	-4.988423051933438E-002	1.3823357E-005	-2.7719614E-001	0
5.6200396E+003	1.545619979333424E+001	-2.7909040E-001	-4.965986609152689E-002	1.3859592E-005	-2.7919608E-001	0
5.6954146E+003	1.565619978828181E+001	-2.8110069E-001	-4.935561436388947E-002	1.3873897E-005	-2.8119609E-001	0
5.7676367E+003	1.585619978322939E+001	-2.8312495E-001	-4.908855476727081E-002	1.3898195E-005	-2.8319609E-001	0
5.8347744E+003	1.605619977817696E+001	-2.8508857E-001	-4.886025381290338E-002	1.3929500E-005	-2.8519610E-001	0
5.9064463E+003	1.625619977312454E+001	-2.8708014E-001	-4.860454475292791E-002	1.3953400E-005	-2.8719610E-001	0
5.9778413E+003	1.645619976807211E+001	-2.8912926E-001	-4.836683388553378E-002	1.3984267E-005	-2.8919610E-001	0
6.0491528E+003	1.665619976301969E+001	-2.9114079E-001	-4.812918337618477E-002	1.4012368E-005	-2.9119611E-001	0
6.1222256E+003	1.685619975796726E+001	-2.9311800E-001	-4.787768809179743E-002	1.4033812E-005	-2.9319611E-001	0
6.1994351E+003	1.705619975291484E+001	-2.9516333E-001	-4.761132657292461E-002	1.4053117E-005	-2.9519612E-001	0
6.2648379E+003	1.725619974786241E+001	-2.9708043E-001	-4.742028780968943E-002	1.4087639E-005	-2.9719612E-001	0
6.3353257E+003	1.745619974280999E+001	-2.9901367E-001	-4.719783675085015E-002	1.4112798E-005	-2.9919609E-001	0
6.4113643E+003	1.765619973775756E+001	-3.0115297E-001	-4.697174684787631E-002	1.4145681E-005	-3.0119610E-001	0
6.4856104E+003	1.785619973270514E+001	-3.0311340E-001	-4.673629419512748E-002	1.4166397E-005	-3.0319610E-001	0
6.5585571E+003	1.805619972765271E+001	-3.0510437E-001	-4.652004461770320E-002	1.4193469E-005	-3.0519611E-001	0
6.6289077E+003	1.825619972260029E+001	-3.0706945E-001	-4.632278291805281E-002	1.4224312E-005	-3.0719611E-001	0
6.7059580E+003	1.845619971754786E+001	-3.0908057E-001	-4.609044129847240E-002	1.4245660E-005	-3.0919611E-001	0
6.7750063E+003	1.865619971249544E+001	-3.1110299E-001	-4.591921693038253E-002	1.4285605E-005	-3.1119612E-001	0
6.8542222E+003	1.885619970744301E+001	-3.1310794E-001	-4.568103031474929E-002	1.4303093E-005	-3.1319612E-001	0
6.9294238E+003	1.905619970239059E+001	-3.1506005E-001	-4.546698940312799E-002	1.4324832E-005	-3.1519613E-001	0
6.9995825E+003	1.925619969733816E+001	-3.1710026E-001	-4.530273777878327E-002	1.4365510E-005	-3.1719610E-001	0
7.0772915E+003	1.945619969228574E+001	-3.1912687E-001	-4.509166862695246E-002	1.4389963E-005	-3.1919613E-001	0
7.1785278E+003	1.967619968672807E+001	-3.2134670E-001	-4.476498633199566E-002	1.4385080E-005	-3.2139611E-001	0
7.2756479E+003	1.989619968117040E+001	-3.2349271E-001	-4.446239216657588E-002	1.4383259E-005	-3.2359612E-001	0
7.3579287E+003	2.009619967611798E+001	-3.2560501E-001	-4.425226322421683E-002	1.4408758E-005	-3.2559612E-001	0
7.4294448E+003	2.029619967106555E+001	-3.2751667E-001	-4.408360044408544E-002	1.4438114E-005	-3.2759613E-001	0
7.5066294E+003	2.049619966601313E+001	-3.2949427E-001	-4.389376990109584E-002	1.4462746E-005	-3.2959610E-001	0
7.5859111E+003	2.069619966096070E+001	-3.3153042E-001	-4.370344233648438E-002	1.4489021E-005	-3.3159614E-001	0
7.6597192E+003	2.089619965590828E+001	-3.3346432E-001	-4.353479782827918E-002	1.4517302E-005	-3.3359608E-001	0
7.7458213E+003	2.109619965085585E+001	-3.3554482E-001	-4.331946462211189E-002	1.4535623E-005	-3.3559608E-001	0
7.8247764E+003	2.129619964580343E+001	-3.3755362E-001	-4.313907488523794E-002	1.4561751E-005	-3.3759609E-001	0
7.9027124E+003	2.149619964075100E+001	-3.3946118E-001	-4.295502129050977E-002	1.4581562E-005	-3.3959612E-001	0
7.9824985E+003	2.169619963569858E+001	-3.4152919E-001	-4.278474957038098E-002	1.4612241E-005	-3.4159613E-001	0
8.0592627E+003	2.189619963064615E+001	-3.4342933E-001	-4.261299616355203E-002	1.4634553E-005	-3.4359613E-001	0
8.1369932E+003	2.209619962559373E+001	-3.4547189E-001	-4.245694629877561E-002	1.4667681E-005	-3.4559610E-001	0
8.2174355E+003	2.229619962054130E+001	-3.4746879E-001	-4.228433281132554E-002	1.4692486E-005	-3.4759611E-001	0
8.2992188E+003	2.249619961548888E+001	-3.4952644E-001	-4.211558310062657E-002	1.4720509E-005	-3.4959614E-001	0
8.3812275E+003	2.269619961043645E+001	-3.5152414E-001	-4.194184267986356E-002	1.4743570E-005	-3.5159612E-001	0
8.4617461E+003	2.289619960538403E+001	-3.5346910E-001	-4.177259580684134E-002	1.4765322E-005	-3.5359609E-001	0
8.5431758E+003	2.309619960033160E+001	-3.5549778E-001	-4.161189814507876E-002	1.4792938E-005	-3.5559613E-001	0
8.6224014E+003	2.329619959527918E+001	-3.5746354E-001	-4.145753702471905E-002	1.4819558E-005	-3.5759610E-001	0
8.7058848E+003	2.349619959022675E+001	-3.5946298E-001	-4.128965410634095E-002	1.4842102E-005	-3.5959613E-001	0
8.7929316E+003	2.369619958517433E+001	-3.6150429E-001	-4.111305557881945E-002	1.4862546E-005	-3.6159611E-001	0
8.8735801E+003	2.389619958012190E+001	-3.6346832E-001	-4.096072887666011E-002	1.4887927E-005	-3.6359611E-001	0
8.9487324E+003	2.409619957506948E+001	-3.6548409E-001	-4.084199645620909E-002	1.4927100E-005	-3.6559615E-001	0
9.0360029E+003	2.429619957001705E+001	-3.6749882E-001	-4.067050781636350E-002	1.4946363E-005	-3.6759612E-001	0
9.1155928E+003	2.449619956496463E+001	-3.6952165E-001	-4.053731298875585E-002	1.4979415E-005	-3.6959615E-001	0
9.1963809E+003	2.469619955991220E+001	-3.7138188E-001	-4.038348167610950E-002	1.4997693E-005	-3.7159613E-001	0
9.2780146E+003	2.489619955485978E+001	-3.7360245E-001	-4.026749741936489E-002	1.5044036E-005	-3.7359610E-001	0
9.3631465E+003	2.509619954980735E+001	-3.7541008E-001	-4.009443641135524E-002	1.5051855E-005	-3.7559611E-001	0
9.4509609E+003	2.529619954475493E+001	-3.7743863E-001	-3.993653566914429E-002	1.5073591E-005	-3.7759611E-001	0
9.5352705E+003	2.549619953970250E+001	-3.7957919E-001	-3.980791104045123E-002	1.5110255E-005	-3.7959614E-001	0
9.6149639E+003	2.569619953465008E+001	-3.8150224E-001	-3.967797105800353E-002	1.5137235E-005	-3.8159612E-001	0
9.6977461E+003	2.589619952959765E+001	-3.8349023E-001	-3.954426463125293E-002	1.5164839E-005	-3.8359612E-001	0
9.7849160E+003	2.609619952454523E+001	-3.8555127E-001	-3.940261595950045E-002	1.5191728E-005	-3.8559613E-001	0
9.8699814E+003	2.629619951949280E+001	-3.8747939E-001	-3.925837152700901E-002	1.5211810E-005	-3.8759613E-001	0
9.9512070E+003	2.649619951444038E+001	-3.8957438E-001	-3.914845407499074E-002	1.5251235E-005	-3.8959610E-001	0
1.0036567E+004	2.669619950938795E+001	-3.9150316E-001	-3.900767376545045E-002	1.5271627E-005	-3.9159617E-001	0
1.0114269E+004	2.689619950433553E+001	-3.9344430E-001	-3.889992780288642E-002	1.5304955E-005	-3.9359611E-001	0
1.0195266E+004	2.709619949928310E+001	-3.9543775E-001	-3.878641037625213E-002	1.5337611E-005	-3.9559615E-001	0
1.0280190E+004	2.729619949423068E+001	-3.9755821E-001	-3.867226185529477E-002	1.5374475E-005	-3.9759618E-001	0
1.0378187E+004	2.749619948917825E+001	-3.9955452E-001	-3.849945346114203E-002	1.5382631E-005	-3.9959612E-001	0
1.0459415E+004	2.769619948412583E+001	-4.0146327E-001	-3.838295596514474E-002	1.5409347E-005	-4.0159613E-001	0
1.0546161E+004	2.789619947907340E+001	-4.0349185E-001	-3.825959534534248E-002	1.5437436E-005	-4.0359616E-001	0
1.0628309E+004	2.809619947402098E+001	-4.0543824E-001	-3.814701384800333E-002	1.5466258E-005	-4.0559611E-001	0
1.0718003E+004	2.829619946896855E+001	-4.0742287E-001	-3.801294500108537E-002	1.5487343E-005	-4.0759614E-001	0
1.0809896E+004	2.849619946391613E+001	-4.0951481E-001	-3.788332265823900E-002	1.5513782E-005	-4.0959615E-001	0
1.0886813E+004	2.869619945886370E+001	-4.1155842E-001	-3.780338603236594E-002	1.5558302E-005	-4.1159618E-001	0
1.0979403E+004	2.889619945381128E+001	-4.1354069E-001	-3.766513497240254E-002	1.5576066E-005	-4.1359612E-001	0
1.1063868E+004	2.909619944875885E+001	-4.1560426E-001	-3.756410187974046E-002	1.5611800E-005	-4.1559616E-001	0
1.1146985E+004	2.929619944370643E+001	-4.1754851E-001	-3.745842386298953E-002	1.5640710E-005	-4.1759613E-001	0
1.1231509E+004	2.949619943865400E+001	-4.1950089E-001	-3.735035909931117E-002	1.5668509E-005	-4.1959614E-001	0
1.1315797E+004	2.969619943360158E+001	-4.2159647E-001	-3.725733671177911E-002	1.5707561E-005	-4.2159614E-001	0
1.1410546E+004	2.989619942854915E+001	-4.2352590E-001	-3.711705987448352E-002	1.5720036E-005	-4.2359614E-001	0
1.1488559E+004	3.009619942349673E+001	-4.2556354E-001	-3.704237998801113E-002	1.5763886E-005	-4.2559615E-001	0
1.1581046E+004	3.029619941844430E+001	-4.2758593E-001	-3.692118523277083E-002	1.5786980E-005	-4.2759609E-001	0
1.1661526E+004	3.049619941339188E+001	-4.2952067E-001	-3.683228430294919E-002	1.5820227E-005	-4.2959616E-001	0
1.1749984E+004	3.069619940833945E+001	-4.3155935E-001	-3.672850587116983E-002	1.5850530E-005	-4.3159616E-001	0
1.1842150E+004	3.089619940328703E+001	-4.3352208E-001	-3.660839042745644E-002	1.5870546E-005	-4.3359613E-001	0
1.1927494E+004	3.109619939823460E+001	-4.3555021E-001	-3.651649066798224E-002	1.5904765E-005	-4.3559611E-001	0
1.2014844E+004	3.129619939318218E+001	-4.3755603E-001	-3.641795345461687E-002	1.5934895E-005	-4.3759614E-001	0
1.2098572E+004	3.149619938812975E+001	-4.3961090E-001	-3.633576642765187E-002	1.5973599E-005	-4.3959612E-001	0
1.2182012E+004	3.169619938307733E+001	-4.4155112E-001	-3.624615840938006E-002	1.6004531E-005	-4.4159615E-001	0
1.2273108E+004	3.189619937802490E+001	-4.4356695E-001	-3.614137031226650E-002	1.6031117E-005	-4.4359612E-001	0
1.2364392E+004	3.209619937297248E+001	-4.4567588E-001	-3.604511074804162E-002	1.6064436E-005	-4.4559616E-001	0
1.2447953E+004	3.229619936792005E+001	-4.4748271E-001	-3.594829484027379E-002	1.6086240E-005	-4.4759610E-001	0
1.2536868E+004	3.249619936286763E+001	-4.4947830E-001	-3.585251846958937E-002	1.6114929E-005	-4.4959614E-001	0
1.2624878E+004	3.269619935781520E+001	-4.5162907E-001	-3.577294649029372E-002	1.6156102E-005	-4.5159617E-001	0
1.2708201E+004	3.289619935276278E+001	-4.5350716E-001	-3.568618127689727E-002	1.6183938E-005	-4.5359612E-001	0
1.2788078E+004	3.309619934771035E+001	-4.5551306E-001	-3.562013381646523E-002	1.6225436E-005	-4.5559612E-001	0
1.2883893E+004	3.329619934265793E+001	-4.5756084E-001	-3.551417575249462E-002	1.6249896E-005	-4.5759615E-001	0
1.2961960E+004	3.349619933760550E+001	-4.5951125E-001	-3.545075242751847E-002	1.6290020E-005	-4.5959619E-001	0
1.3049723E+004	3.369619933255308E+001	-4.6152303E-001	-3.536650122411522E-002	1.6322454E-005	-4.6159613E-001	0
1.3143183E+004	3.389619932750065E+001	-4.6355665E-001	-3.526974068965150E-002	1.6349522E-005	-4.6359614E-001	0
1.3231382E+004	3.409619932244823E+001	-4.6553805E-001	-3.518438716646053E-002	1.6379670E-005	-4.6559614E-001	0
1.3307425E+004	3.429619931739580E+001	-4.6752924E-001	-3.513296227822960E-002	1.6425687E-005	-4.6759611E-001	0
1.3402646E+004	3.449619931234338E+001	-4.6961084E-001	-3.503866866653331E-002	1.6454538E-005	-4.6959615E-001	0
1.3490927E+004	3.469619930729095E+001	-4.7148338E-001	-3.494818218748241E-002	1.6477486E-005	-4.7159618E-001	0
1.3579684E+004	3.489619930223853E+001	-4.7338372E-001	-3.485970216900397E-002	1.6502016E-005	-4.7359616E-001	0
1.3664219E+004	3.509619929718610E+001	-4.7560450E-001	-3.480656433860025E-002	1.6554159E-005	-4.7559613E-001	0
1.3741103E+004	3.529619929213368E+001	-4.7755051E-001	-3.475343350393895E-002	1.6596519E-005	-4.7759613E-001	0
1.3815725E+004	3.549619928708125E+001	-4.7945467E-001	-3.470354836355971E-002	1.6638778E-005	-4.7959620E-001	0
1.3907821E+004	3.569619928202883E+001	-4.8151401E-001	-3.462181556621430E-002	1.6670889E-005	-4.8159614E-001	0
1.3997533E+004	3.589619927697640E+001	-4.8351580E-001	-3.454292884657190E-002	1.6702052E-005	-4.8359615E-001	0
1.4080250E+004	3.609619927192398E+001	-4.8548260E-001	-3.447968635973142E-002	1.6739288E-005	-4.8559615E-001	0
1.4182913E+004	3.629619926687155E+001	-4.8762614E-001	-3.438123932547543E-002	1.6765191E-005	-4.8759615E-001	0
1.4260566E+004	3.649619926181913E+001	-4.8947451E-001	-3.432363653481595E-002	1.6800544E-005	-4.8959610E-001	0
1.4340073E+004	3.669619925676670E+001	-4.9155268E-001	-3.427825468569129E-002	1.6849568E-005	-4.9159613E-001	0
1.4426598E+004	3.689619925171428E+001	-4.9356061E-001	-3.421185203472074E-002	1.6885622E-005	-4.9359617E-001	0
1.4511060E+004	3.709619924666185E+001	-4.9551910E-001	-3.414768635669135E-002	1.6920831E-005	-4.9559614E-001	0
1.4593041E+004	3.729619924160943E+001	-4.9746698E-001	-3.408933012712473E-002	1.6958316E-005	-4.9759611E-001	0
1.4692564E+004	3.749619923655700E+001	-4.9961543E-001	-3.400464421703087E-002	1.6989245E-005	-4.9959615E-001	0
1.4775019E+004	3.769619923150458E+001	-5.0158030E-001	-3.394786299727931E-002	1.7027580E-005	-5.0159609E-001	0
1.4867765E+004	3.789619922645215E+001	-5.0352418E-001	-3.386683850348526E-002	1.7052773E-005	-5.0359613E-001	0
1.4905151E+004	3.809619922139973E+001	-5.0556076E-001	-3.391852637472020E-002	1.7147875E-005	-5.0559616E-001	0
1.5005392E+004	3.829619921634730E+001	-5.0747222E-001	-3.381932494726858E-002	1.7162367E-005	-5.0759614E-001	0
1.5107590E+004	3.849619921129488E+001	-5.0951815E-001	-3.372597065780647E-002	1.7183995E-005	-5.0959611E-001	0
1.5185804E+004	3.869619920624245E+001	-5.1158571E-001	-3.368841772798725E-002	1.7234514E-005	-5.1159614E-001	0
1.5274098E+004	3.889619920119003E+001	-5.1357239E-001	-3.362374643260890E-002	1.7268228E-005	-5.1359618E-001	0
1.5351163E+004	3.909619919613760E+001	-5.1546556E-001	-3.357827364252736E-002	1.7308443E-005	-5.1559609E-001	0
1.5447343E+004	3.929619919108518E+001	-5.1756471E-001	-3.350509610317426E-002	1.7341055E-005	-5.1759613E-001	0
1.5524962E+004	3.949619918603275E+001	-5.1945359E-001	-3.345924918645415E-002	1.7380527E-005	-5.1959616E-001	0
1.5609757E+004	3.969619918098033E+001	-5.2159142E-001	-3.341444838019159E-002	1.7428691E-005	-5.2159613E-001	0
1.5695156E+004	3.989619917592790E+001	-5.2352959E-001	-3.335612382430397E-002	1.7462919E-005	-5.2359617E-001	0
1.5779773E+004	4.009619917087548E+001	-5.2553439E-001	-3.330430512732574E-002	1.7502558E-005	-5.2559614E-001	0
1.5865342E+004	4.029619916582305E+001	-5.2759963E-001	-3.325485495418584E-002	1.7545250E-005	-5.2759618E-001	0
1.5939083E+004	4.049619916077063E+001	-5.2956575E-001	-3.322435453108585E-002	1.7594481E-005	-5.2959621E-001	0
1.6015396E+004	4.069619915571820E+001	-5.3150028E-001	-3.318683185921922E-002	1.7638811E-005	-5.3159612E-001	0
1.6110734E+004	4.089619915066578E+001	-5.3351986E-001	-3.311580089538615E-002	1.7667937E-005	-5.3359616E-001	0
1.6195072E+004	4.109619914561335E+001	-5.3558874E-001	-3.307109357379451E-002	1.7712506E-005	-5.3559613E-001	0
1.6273920E+004	4.129619914056093E+001	-5.3751475E-001	-3.302921079491994E-002	1.7753688E-005	-5.3759611E-001	0
1.6349431E+004	4.149619913550850E+001	-5.3956789E-001	-3.300224267455282E-002	1.7806949E-005	-5.3959614E-001	0
1.6437877E+004	4.169619913045608E+001	-5.4156333E-001	-3.294606509728272E-002	1.7842382E-005	-5.4159617E-001	0
1.6510783E+004	4.189619912540365E+001	-5.4349977E-001	-3.291786902889299E-002	1.7890854E-005	-5.4359621E-001	0
1.6595404E+004	4.209619912035123E+001	-5.4557240E-001	-3.287490932513759E-002	1.7935643E-005	-5.4559612E-001	0
1.6667447E+004	4.229619911529880E+001	-5.4751784E-001	-3.284953285326508E-002	1.7985705E-005	-5.4759616E-001	0
1.6753352E+004	4.249619911024638E+001	-5.4947799E-001	-3.279809257154975E-002	1.8021830E-005	-5.4959619E-001	0
1.6834059E+004	4.269619910519395E+001	-5.5157340E-001	-3.276532581825742E-002	1.8072482E-005	-5.5159611E-001	0
1.6918313E+004	4.289619910014153E+001	-5.5354226E-001	-3.271852690164778E-002	1.8111086E-005	-5.5359614E-001	0
1.6994699E+004	4.309619909508911E+001	-5.5553180E-001	-3.268853201406282E-002	1.8159519E-005	-5.5559617E-001	0
1.7070582E+004	4.329619909003668E+001	-5.5754972E-001	-3.266143540180200E-002	1.8210374E-005	-5.5759615E-001	0
1.7151234E+004	4.349619908498426E+001	-5.5952322E-001	-3.262291437114198E-002	1.8253279E-005	-5.5959618E-001	0
1.7232457E+004	4.369619907993183E+001	-5.6151193E-001	-3.258455539140162E-002	1.8296616E-005	-5.6159616E-001	0
1.7295283E+004	4.389619907487941E+001	-5.6347740E-001	-3.257983120194219E-002	1.8357998E-005	-5.6359619E-001	0
1.7382260E+004	4.409619906982698E+001	-5.6553608E-001	-3.253524641790417E-002	1.8399856E-005	-5.6559610E-001	0
1.7473551E+004	4.429619906477456E+001	-5.6753385E-001	-3.247959596340400E-002	1.8433269E-005	-5.6759614E-001	0
1.7537943E+004	4.449619905972213E+001	-5.6947070E-001	-3.247078179799942E-002	1.8491159E-005	-5.6959617E-001	0
1.7616166E+004	4.469619905466971E+001	-5.7145613E-001	-3.243930250102163E-002	1.8537638E-005	-5.7159609E-001	0
1.7692412E+004	4.489619904961728E+001	-5.7346791E-001	-3.241321363548644E-002	1.8587938E-005	-5.7359618E-001	0
1.7764713E+004	4.509619904456486E+001	-5.7556480E-001	-3.239933146552421E-002	1.8647916E-005	-5.7559621E-001	0
1.7841285E+004	4.529619903951243E+001	-5.7755339E-001	-3.237173647346298E-002	1.8696406E-005	-5.7759619E-001	0
1.7910412E+004	4.549619903446001E+001	-5.7952082E-001	-3.235664198628063E-002	1.8751347E-005	-5.7959610E-001	0
1.7993129E+004	4.569619902940758E+001	-5.8149475E-001	-3.231760171055154E-002	1.8792516E-005	-5.8159614E-001	0
1.8074133E+004	4.589619902435516E+001	-5.8348572E-001	-3.228291797492849E-002	1.8836621E-005	-5.8359623E-001	0
1.8139145E+004	4.609619901930273E+001	-5.8556223E-001	-3.228168848288476E-002	1.8902938E-005	-5.8559608E-001	0
1.8214830E+004	4.629619901425031E+001	-5.8754450E-001	-3.225638041887313E-002	1.8952060E-005	-5.8759612E-001	0
1.8288230E+004	4.649619900919788E+001	-5.8956796E-001	-3.223756025677293E-002	1.9006233E-005	-5.8959621E-001	0
1.8345047E+004	4.669619900414546E+001	-5.9151816E-001	-3.224402667543810E-002	1.9072928E-005	-5.9159613E-001	0
1.8418211E+004	4.689619899909303E+001	-5.9354967E-001	-3.222623930836438E-002	1.9127874E-005	-5.9359616E-001	0
1.8484223E+004	4.709619899404061E+001	-5.9550309E-001	-3.221683216158731E-002	1.9185223E-005	-5.9559613E-001	0
1.8534283E+004	4.729619898898818E+001	-5.9743041E-001	-3.223380191587422E-002	1.9257453E-005	-5.9759617E-001	0
1.8619748E+004	4.749619898393576E+001	-5.9953982E-001	-3.219913694291655E-002	1.9304665E-005	-5.9959614E-001	0
1.8688201E+004	4.769619897888333E+001	-6.0155374E-001	-3.218895855545578E-002	1.9363388E-005	-6.0159612E-001	0
1.8749727E+004	4.789619897383091E+001	-6.0346824E-001	-3.218544359359049E-002	1.9422892E-005	-6.0359621E-001	0
1.8818725E+004	4.809619896877848E+001	-6.0559607E-001	-3.218050381800153E-002	1.9488387E-005	-6.0559607E-001	0
1.8890607E+004	4.829619896372606E+001	-6.0748625E-001	-3.215810975990119E-002	1.9535610E-005	-6.0759616E-001	0
1.8927734E+004	4.849619895867363E+001	-6.0952222E-001	-3.220259838145184E-002	1.9628200E-005	-6.0959619E-001	0
1.9025449E+004	4.869619895362121E+001	-6.1162567E-001	-3.214776608142633E-002	1.9662399E-005	-6.1159617E-001	0
1.9075973E+004	4.889619894856878E+001	-6.1359388E-001	-3.216579672273323E-002	1.9736735E-005	-6.1359614E-001	0
1.9125805E+004	4.909619894351636E+001	-6.1546415E-001	-3.217977733834909E-002	1.9805499E-005	-6.1559612E-001	0
1.9190783E+004	4.929619893846393E+001	-6.1753446E-001	-3.217869871053125E-002	1.9871455E-005	-6.1759621E-001	0
1.9221221E+004	4.949619893341151E+001	-6.1952519E-001	-3.223131344571306E-002	1.9968111E-005	-6.1959612E-001	0
1.9300098E+004	4.969619892835908E+001	-6.2153280E-001	-3.220360761412255E-002	2.0015599E-005	-6.2159610E-001	0
1.9367549E+004	4.989619892330666E+001	-6.2353814E-001	-3.219499448926733E-002	2.0074807E-005	-6.2359619E-001	0
1.9439643E+004	5.009619891825423E+001	-6.2550688E-001	-3.217687182943607E-002	2.0126854E-005	-6.2559617E-001	0
1.9501043E+004	5.029619891320181E+001	-6.2754387E-001	-3.218001505104481E-002	2.0194371E-005	-6.2759614E-001	0
1.9543615E+004	5.049619890814938E+001	-6.2948644E-001	-3.220931345875666E-002	2.0275325E-005	-6.2959611E-001	0
1.8866877E+004	5.069619890309696E+001	-6.3152069E-001	-3.347245556679340E-002	2.1138549E-005	-6.3159621E-001	0
1.9481303E+004	5.089619889804453E+001	-6.3354522E-001	-3.252068177882425E-002	2.0603322E-005	-6.3359618E-001	0
1.9665363E+004	5.109619889299211E+001	-6.3554019E-001	-3.231774303294471E-002	2.0539224E-005	-6.3559616E-001	0
1.9757541E+004	5.129619888793968E+001	-6.3753664E-001	-3.226801663818757E-002	2.0572043E-005	-6.3759619E-001	0
1.9829256E+004	5.149619888288726E+001	-6.3959575E-001	-3.225515495120945E-002	2.0630259E-005	-6.3959616E-001	0
1.9883014E+004	5.169619887783483E+001	-6.4159262E-001	-3.226837775297242E-002	2.0703153E-005	-6.4159614E-001	0
1.9931543E+004	5.189619887278241E+001	-6.4355141E-001	-3.228808865304866E-002	2.0779045E-005	-6.4359617E-001	0
1.9996475E+004	5.209619886772998E+001	-6.4564842E-001	-3.228811131971901E-002	2.0846768E-005	-6.4559621E-001	0
2.0060037E+004	5.229619886267756E+001	-6.4754027E-001	-3.228011325370231E-002	2.0902673E-005	-6.4759612E-001	0
2.0118258E+004	5.249619885762513E+001	-6.4950705E-001	-3.228445835026139E-002	2.0968982E-005	-6.4959615E-001	0
2.0176453E+004	5.269619885257271E+001	-6.5164745E-001	-3.229742416005377E-002	2.1046533E-005	-6.5159619E-001	0
2.0226615E+004	5.289619884752028E+001	-6.5350789E-001	-3.230930507249587E-002	2.1114385E-005	-6.5359616E-001	0
2.0245221E+004	5.309619884246786E+001	-6.5554577E-001	-3.238027243845404E-002	2.1226751E-005	-6.5559614E-001	0
2.0315992E+004	5.329619883741543E+001	-6.5751493E-001	-3.236440125437845E-002	2.1280077E-005	-6.5759617E-001	0
2.0364051E+004	5.349619883236301E+001	-6.5949655E-001	-3.238533138320721E-002	2.1358013E-005	-6.5959620E-001	0
2.0409664E+004	5.369619882731058E+001	-6.6159505E-001	-3.241577467331025E-002	2.1446116E-005	-6.6159612E-001	0
2.0466633E+004	5.389619882225816E+001	-6.6350538E-001	-3.241888359120393E-002	2.1510103E-005	-6.6359615E-001	0
2.0520697E+004	5.409619881720573E+001	-6.6560000E-001	-3.243554392623626E-002	2.1589098E-005	-6.6559619E-001	0
2.0589205E+004	5.429619881215331E+001	-6.6755974E-001	-3.242280225632743E-002	2.1644157E-005	-6.6759616E-001	0
2.0643555E+004	5.449619880710088E+001	-6.6957617E-001	-3.243511843298658E-002	2.1717782E-005	-6.6959614E-001	0
2.0685293E+004	5.469619880204846E+001	-6.7159194E-001	-3.246712234703275E-002	2.1804657E-005	-6.7159617E-001	0
2.0708994E+004	5.489619879699603E+001	-6.7351502E-001	-3.252282633040682E-002	2.1904612E-005	-6.7359620E-001	0
2.0767533E+004	5.509619879194361E+001	-6.7545843E-001	-3.252473164243153E-002	2.1969105E-005	-6.7559612E-001	0
2.0802936E+004	5.529619878689118E+001	-6.7751545E-001	-3.256826027314436E-002	2.2065500E-005	-6.7759615E-001	0
2.0853877E+004	5.549619878183876E+001	-6.7954248E-001	-3.258590771296099E-002	2.2143509E-005	-6.7959619E-001	0
2.0901549E+004	5.569619877678633E+001	-6.8152642E-001	-3.260650212534377E-002	2.2222193E-005	-6.8159610E-001	0
2.0947350E+004	5.589619877173391E+001	-6.8358278E-001	-3.263337883566100E-002	2.2307617E-005	-6.8359613E-001	0
2.0989359E+004	5.609619876668148E+001	-6.8545955E-001	-3.265747775549666E-002	2.2385380E-005	-6.8559617E-001	0
2.1008834E+004	5.629619876162906E+001	-6.8751478E-001	-3.272503239177628E-002	2.2498944E-005	-6.8759620E-001	0
2.1071654E+004	5.649619875657663E+001	-6.8952578E-001	-3.272290549546157E-002	2.2563287E-005	-6.8959612E-001	0
2.1113510E+004	5.669619875152421E+001	-6.9154942E-001	-3.275388122753760E-002	2.2650927E-005	-6.9159615E-001	0
2.1149020E+004	5.689619874647178E+001	-6.9354081E-001	-3.279304908654007E-002	2.2743317E-005	-6.9359618E-001	0
2.1226875E+004	5.709619874141936E+001	-6.9560033E-001	-3.276979297588545E-002	2.2794678E-005	-6.9559610E-001	0
2.1276555E+004	5.729619873636693E+001	-6.9755977E-001	-3.278537380246155E-002	2.2869757E-005	-6.9759619E-001	0
2.1309186E+004	5.749619873131451E+001	-6.9947082E-001	-3.282485123409093E-002	2.2960026E-005	-6.9959623E-001	0
2.1369672E+004	5.769619872626208E+001	-7.0154160E-001	-3.282884216145132E-002	2.3030798E-005	-7.0159614E-001	0
2.1413102E+004	5.789619872120966E+001	-7.0349628E-001	-3.285354446797140E-002	2.3112347E-005	-7.0359612E-001	0
2.1453006E+004	5.809619871615723E+001	-7.0556659E-001	-3.288893681732286E-002	2.3205335E-005	-7.0559621E-001	0
2.1480336E+004	5.829619871110481E+001	-7.0745713E-001	-3.293510537453073E-002	2.3300176E-005	-7.0759618E-001	0
2.1524334E+004	5.849619870605238E+001	-7.0957476E-001	-3.296616637515401E-002	2.3391960E-005	-7.0959616E-001	0
2.1578584E+004	5.869619870099996E+001	-7.1154076E-001	-3.297439629376750E-002	2.3462628E-005	-7.1159613E-001	0
2.1601143E+004	5.889619869594753E+001	-7.1350485E-001	-3.303088563654882E-002	2.3567698E-005	-7.1359622E-001	0
2.1646363E+004	5.909619869089511E+001	-7.1555036E-001	-3.305637793137123E-002	2.3653503E-005	-7.1559614E-001	0
2.1698545E+004	5.929619868584268E+001	-7.1748769E-001	-3.306616492656021E-002	2.3724566E-005	-7.1759617E-001	0
2.1648434E+004	5.949619868079026E+001	-7.1957010E-001	-3.323889831176058E-002	2.3917717E-005	-7.1959621E-001	0
2.1742754E+004	5.969619867573783E+001	-7.2149336E-001	-3.318316425390044E-002	2.3941433E-005	-7.2159618E-001	0
2.1821029E+004	5.989619867068541E+001	-7.2354835E-001	-3.315830562219363E-002	2.3991637E-005	-7.2359616E-001	0
2.1857477E+004	6.009619866563298E+001	-7.2551584E-001	-3.319302923046059E-002	2.4082068E-005	-7.2559613E-001	0
2.1908777E+004	6.029619866058056E+001	-7.2748512E-001	-3.320519138436961E-002	2.4156283E-005	-7.2759628E-001	0
2.1951254E+004	6.049619865552813E+001	-7.2956604E-001	-3.323573520372225E-002	2.4247664E-005	-7.2959608E-001	0
2.1970252E+004	6.069619865047571E+001	-7.3152280E-001	-3.329605872446118E-002	2.4356827E-005	-7.3159617E-001	0
2.2022965E+004	6.089619864542328E+001	-7.3350328E-001	-3.330629213677194E-002	2.4430274E-005	-7.3359621E-001	0
2.2077561E+004	6.109619864037086E+001	-7.3551780E-001	-3.331517504238840E-002	2.4503905E-005	-7.3559612E-001	0
2.2099615E+004	6.129619863531843E+001	-7.3751915E-001	-3.337248658118308E-002	2.4612847E-005	-7.3759621E-001	0
2.2131947E+004	6.149619863026601E+001	-7.3954660E-001	-3.341534371142506E-002	2.4712204E-005	-7.3959619E-001	0
2.2171129E+004	6.169619862521358E+001	-7.4156457E-001	-3.344730641497533E-002	2.4803338E-005	-7.4159628E-001	0
2.2219203E+004	6.189619862016116E+001	-7.4353856E-001	-3.346378036485370E-002	2.4881610E-005	-7.4359614E-001	0
2.2266271E+004	6.209619861510873E+001	-7.4562013E-001	-3.348652767033311E-002	2.4968229E-005	-7.4559611E-001	0
2.2292682E+004	6.229619861005631E+001	-7.4752808E-001	-3.353244394788299E-002	2.5066443E-005	-7.4759620E-001	0
2.2340564E+004	6.249619860500388E+001	-7.4957401E-001	-3.355215026050917E-002	2.5149820E-005	-7.4959618E-001	0
2.2367260E+004	6.269619859995146E+001	-7.5151151E-001	-3.359872842251881E-002	2.5249832E-005	-7.5159615E-001	0
2.2412463E+004	6.289619859489903E+001	-7.5352174E-001	-3.362065807403036E-002	2.5333897E-005	-7.5359619E-001	0
2.2461049E+004	6.309619858984661E+001	-7.5556093E-001	-3.363871899572812E-002	2.5416102E-005	-7.5559622E-001	0
2.2488080E+004	6.329619858479418E+001	-7.5753552E-001	-3.368609075781920E-002	2.5518410E-005	-7.5759614E-001	0
2.2517416E+004	6.349619857974176E+001	-7.5954843E-001	-3.373159794612055E-002	2.5620782E-005	-7.5959611E-001	0
2.2546973E+004	6.369619857468933E+001	-7.6151621E-001	-3.377465497572482E-002	2.5719948E-005	-7.6159626E-001	0
2.2597932E+004	6.389619856963691E+001	-7.6354271E-001	-3.378816730582496E-002	2.5798709E-005	-7.6359618E-001	0
2.2612049E+004	6.409619856458448E+001	-7.6553023E-001	-3.385496828541401E-002	2.5917001E-005	-7.6559615E-001	0
2.2658287E+004	6.429619855953206E+001	-7.6750398E-001	-3.387299165855062E-002	2.5997655E-005	-7.6759624E-001	0
2.2675613E+004	6.449619855447963E+001	-7.6952660E-001	-3.393630689335245E-002	2.6114891E-005	-7.6959622E-001	0
2.2734461E+004	6.469619854942721E+001	-7.7155554E-001	-3.393771103820854E-002	2.6184829E-005	-7.7159619E-001	0
2.2744895E+004	6.489619854437478E+001	-7.7356118E-001	-3.401032077093646E-002	2.6309064E-005	-7.7359617E-001	0
2.2770912E+004	6.509619853932236E+001	-7.7556318E-001	-3.405938036407208E-002	2.6415202E-005	-7.7559614E-001	0
2.2792734E+004	6.529619853426993E+001	-7.7752107E-001	-3.411267307780201E-002	2.6523323E-005	-7.7759624E-001	0
2.2844340E+004	6.549619852921751E+001	-7.7950358E-001	-3.412239629191356E-002	2.6598531E-005	-7.7959615E-001	0
2.2837830E+004	6.569619852416508E+001	-7.8145802E-001	-3.421770026506068E-002	2.6739697E-005	-7.8159624E-001	0
2.2890148E+004	6.589619851911266E+001	-7.8356928E-001	-3.423172605668489E-002	2.6822929E-005	-7.8359628E-001	0
2.2933674E+004	6.609619851406023E+001	-7.8561246E-001	-3.425584856131447E-002	2.6911821E-005	-7.8559613E-001	0
2.2930246E+004	6.629619850900781E+001	-7.8754061E-001	-3.434505722540385E-002	2.7048127E-005	-7.8759623E-001	0
2.2948590E+004	6.649619850395538E+001	-7.8960425E-001	-3.440752690932508E-002	2.7168329E-005	-7.8959632E-001	0
2.2967904E+004	6.669619849890296E+001	-7.9145586E-001	-3.445920974196748E-002	2.7272943E-005	-7.9159617E-001	0
2.3010869E+004	6.689619849385053E+001	-7.9349834E-001	-3.448363145905209E-002	2.7362705E-005	-7.9359615E-001	0
2.3008609E+004	6.709619848879811E+001	-7.9555029E-001	-3.457619955783267E-002	2.7507105E-005	-7.9559624E-001	0
2.2997670E+004	6.729619848374568E+001	-7.9750955E-001	-3.467784074394885E-002	2.7655909E-005	-7.9759622E-001	0
2.3024734E+004	6.749619847869326E+001	-7.9949522E-001	-3.472331965256648E-002	2.7761129E-005	-7.9959619E-001	0
2.3064371E+004	6.769619847364083E+001	-8.0144662E-001	-3.474825223809619E-002	2.7848870E-005	-8.0159622E-001	0
2.3055254E+004	6.789619846858841E+001	-8.0352998E-001	-3.485235999773378E-002	2.8004915E-005	-8.0359626E-001	0
2.3072209E+004	6.809619846353598E+001	-8.0550271E-001	-3.491225006964788E-002	2.8121913E-005	-8.0559617E-001	0
2.3059004E+004	6.829619845848356E+001	-8.0753398E-001	-3.502033251076900E-002	2.8280108E-005	-8.0759615E-001	0
2.3085570E+004	6.849619845343113E+001	-8.0947435E-001	-3.506408361591351E-002	2.8383476E-005	-8.0959624E-001	0
2.3090277E+004	6.869619844837871E+001	-8.1153989E-001	-3.514638998970193E-002	2.8522698E-005	-8.1159621E-001	0
2.3096379E+004	6.889619844332628E+001	-8.1355476E-001	-3.522434331320412E-002	2.8656932E-005	-8.1359619E-001	0
2.3082867E+004	6.909619843827386E+001	-8.1551969E-001	-3.533008666297238E-002	2.8812381E-005	-8.1559622E-001	0
2.3102926E+004	6.929619843322143E+001	-8.1759167E-001	-3.538909617757596E-002	2.8933830E-005	-8.1759626E-001	0
2.3111217E+004	6.949619842816901E+001	-8.1953555E-001	-3.546051205586764E-002	2.9061150E-005	-8.1959611E-001	0
2.3078639E+004	6.969619842311658E+001	-8.2144421E-001	-3.559326852752076E-002	2.9237885E-005	-8.2159621E-001	0
2.3070887E+004	6.989619841806416E+001	-8.2359111E-001	-3.569828715046545E-002	2.9400791E-005	-8.2359630E-001	0
2.3043859E+004	7.009619841301173E+001	-8.2551092E-001	-3.582346485874902E-002	2.9572662E-005	-8.2559615E-001	0
2.3055777E+004	7.029619840795931E+001	-8.2759237E-001	-3.589522802268821E-002	2.9706616E-005	-8.2759625E-001	0
2.3029998E+004	7.049619840290688E+001	-8.2949042E-001	-3.601782331153414E-002	2.9876439E-005	-8.2959622E-001	0
2.3011539E+004	7.069619839785446E+001	-8.3154637E-001	-3.613606065748223E-002	3.0048810E-005	-8.3159620E-001	0
2.2992092E+004	7.089619839280203E+001	-8.3354348E-001	-3.625348627925254E-002	3.0218856E-005	-8.3359617E-001	0
2.2921072E+004	7.109619838774961E+001	-8.3551615E-001	-3.645187973672021E-002	3.0456134E-005	-8.3559620E-001	0
2.2916664E+004	7.129619838269718E+001	-8.3748567E-001	-3.654483299387734E-002	3.0605774E-005	-8.3759624E-001	0
2.2843707E+004	7.149619837764476E+001	-8.3953571E-001	-3.675129190625831E-002	3.0854022E-005	-8.3959621E-001	0
2.2825637E+004	7.169619837259233E+001	-8.4152675E-001	-3.686761230656943E-002	3.1025083E-005	-8.4159613E-001	0
2.2762367E+004	7.189619836753991E+001	-8.4352326E-001	-3.705780201775275E-002	3.1259118E-005	-8.4359628E-001	0
2.2731416E+004	7.209619836248748E+001	-8.4554601E-001	-3.719724309889408E-002	3.1451982E-005	-8.4559625E-001	0
2.2629736E+004	7.229619835743506E+001	-8.4752184E-001	-3.745168715645730E-002	3.1741121E-005	-8.4759617E-001	0
2.2555586E+004	7.249619835238263E+001	-8.4951735E-001	-3.766328059643717E-002	3.1995609E-005	-8.4959626E-001	0
2.2499168E+004	7.269619834733021E+001	-8.5157949E-001	-3.784937821534554E-002	3.2231754E-005	-8.5159624E-001	0
2.2364461E+004	7.289619834227778E+001	-8.5355520E-001	-3.816569528474878E-002	3.2576529E-005	-8.5359621E-001	0
2.2264447E+004	7.309619833722536E+001	-8.5553843E-001	-3.842621574879457E-002	3.2875105E-005	-8.5559618E-001	0
2.2134232E+004	7.329619833217293E+001	-8.5754603E-001	-3.874297451403169E-002	3.3223885E-005	-8.5759628E-001	0
2.1984375E+004	7.349619832712051E+001	-8.5963404E-001	-3.910204524210248E-002	3.3613451E-005	-8.5959613E-001	0
2.1825523E+004	7.369619832206809E+001	-8.6154008E-001	-3.947397238995165E-002	3.4008408E-005	-8.6159623E-001	0
2.1686650E+004	7.389619831701566E+001	-8.6356837E-001	-3.982027291474427E-002	3.4387529E-005	-8.6359620E-001	0
2.1484074E+004	7.409619831196324E+001	-8.6555129E-001	-4.028804292200167E-002	3.4871369E-005	-8.6559618E-001	0
2.1249352E+004	7.429619830691081E+001	-8.6751473E-001	-4.082546797723569E-002	3.5416695E-005	-8.6759627E-001	0
2.0991037E+004	7.449619830185839E+001	-8.6952919E-001	-4.142383212628076E-002	3.6019232E-005	-8.6959618E-001	0
2.0709693E+004	7.469619829680596E+001	-8.7158370E-001	-4.208578426885023E-002	3.6681282E-005	-8.7159634E-001	0
2.0402057E+004	7.489619829175354E+001	-8.7359339E-001	-4.281888903692039E-002	3.7406298E-005	-8.7359619E-001	0
2.0040779E+004	7.509619828670111E+001	-8.7558413E-001	-4.369012404960726E-002	3.8254380E-005	-8.7559611E-001	0
1.9704535E+004	7.529619828164869E+001	-8.7744021E-001	-4.452986306512982E-002	3.9072293E-005	-8.7759626E-001	0
1.9300186E+004	7.549619827659626E+001	-8.7948340E-001	-4.556865020562184E-002	4.0076873E-005	-8.7959623E-001	0
1.8856309E+004	7.569619827154384E+001	-8.8145679E-001	-4.674599110703181E-002	4.1204570E-005	-8.8159621E-001	0
1.8342051E+004	7.589619826649141E+001	-8.8350493E-001	-4.816827375828270E-002	4.2556909E-005	-8.8359624E-001	0
1.7829676E+004	7.609619826143899E+001	-8.8561249E-001	-4.967070143889463E-002	4.3988992E-005	-8.8559622E-001	0
1.7275131E+004	7.629619825638656E+001	-8.8755709E-001	-5.137773213777133E-002	4.5600671E-005	-8.8759619E-001	0
1.6713078E+004	7.649619825133414E+001	-8.8954550E-001	-5.322451627699243E-002	4.7345628E-005	-8.8959616E-001	0
1.6066263E+004	7.669619824628171E+001	-8.9155900E-001	-5.549261830176921E-002	4.9474944E-005	-8.9159626E-001	0
1.5410116E+004	7.689619824122929E+001	-8.9349705E-001	-5.798120178913724E-002	5.1806033E-005	-8.9359623E-001	0
1.4715354E+004	7.709619823617686E+001	-8.9553261E-001	-6.085701861953075E-002	5.4499444E-005	-8.9559621E-001	0
1.3991376E+004	7.729619823112444E+001	-8.9753228E-001	-6.414896481440246E-002	5.7575766E-005	-8.9759624E-001	0
1.3206354E+004	7.749619822607201E+001	-8.9951950E-001	-6.811262540732543E-002	6.1268634E-005	-8.9959615E-001	0
1.2515282E+004	7.769619822101959E+001	-9.0153736E-001	-7.203491870577849E-002	6.4942171E-005	-9.0159625E-001	0
1.1774421E+004	7.789619821596716E+001	-9.0352023E-001	-7.673585315577058E-002	6.9332396E-005	-9.0359622E-001	0
1.1023668E+004	7.809619821091474E+001	-9.0549332E-001	-8.214083867983857E-002	7.4377982E-005	-9.0559632E-001	0
1.0281424E+004	7.829619820586231E+001	-9.0757233E-001	-8.827302305454454E-002	8.0114150E-005	-9.0759629E-001	0
9.2937197E+003	7.851619820030464E+001	-9.0967733E-001	-9.788086240633215E-002	8.9040004E-005	-9.0979618E-001	0
8.6205537E+003	7.871619819525222E+001	-9.1168535E-001	-1.057571657730554E-001	9.6417258E-005	-9.1179627E-001	0
7.9624419E+003	7.891619819019979E+001	-9.1373879E-001	-1.147561042005716E-001	1.0485711E-004	-9.1379625E-001	0
7.3377295E+003	7.911619818514737E+001	-9.1571659E-001	-1.247956279164728E-001	1.1427743E-004	-9.1579622E-001	0
6.7228135E+003	7.931619818009494E+001	-9.1763884E-001	-1.364962465125572E-001	1.2525426E-004	-9.1779631E-001	0
6.1559067E+003	7.951619817504252E+001	-9.1973197E-001	-1.494064152192183E-001	1.3741385E-004	-9.1979617E-001	0
5.6192969E+003	7.971619816999009E+001	-9.2172796E-001	-1.640290613212277E-001	1.5119016E-004	-9.2179626E-001	0
5.1171836E+003	7.991619816493767E+001	-9.2373538E-001	-1.805163569898340E-001	1.6674935E-004	-9.2379624E-001	0
4.6572495E+003	8.011619815988524E+001	-9.2575127E-001	-1.987764023670970E-001	1.8401751E-004	-9.2579621E-001	0
4.1765156E+003	8.031619815483282E+001	-9.2766392E-001	-2.221143302357760E-001	2.0604745E-004	-9.2779619E-001	0
3.7846211E+003	8.051619814978039E+001	-9.2975098E-001	-2.456655427729069E-001	2.2840778E-004	-9.2979622E-001	0
3.4362227E+003	8.071619814472797E+001	-9.3171430E-001	-2.711449048741637E-001	2.5262957E-004	-9.3179625E-001	0
3.1166846E+003	8.091619813967554E+001	-9.3367702E-001	-2.995737855641551E-001	2.7970516E-004	-9.3379623E-001	0
2.8011301E+003	8.111619813462312E+001	-9.3575692E-001	-3.340640739683494E-001	3.1260276E-004	-9.3579620E-001	0
2.5261863E+003	8.131619812957069E+001	-9.3766820E-001	-3.711793503160168E-001	3.4804308E-004	-9.3779624E-001	0
2.2938528E+003	8.151619812451827E+001	-9.3965304E-001	-4.096396584359412E-001	3.8491914E-004	-9.3979627E-001	0
2.0644583E+003	8.171619811946584E+001	-9.4171000E-001	-4.561535429184114E-001	4.2956436E-004	-9.4179618E-001	0
1.8659192E+003	8.191619811441342E+001	-9.4369978E-001	-5.057559748034492E-001	4.7728181E-004	-9.4379616E-001	0
1.6908739E+003	8.211619810936099E+001	-9.4578588E-001	-5.593473913397254E-001	5.2902289E-004	-9.4579625E-001	0
1.5259034E+003	8.231619810430857E+001	-9.4769681E-001	-6.210725879858399E-001	5.8858853E-004	-9.4779623E-001	0
1.3843064E+003	8.251619809925614E+001	-9.4972599E-001	-6.860663164280254E-001	6.5157498E-004	-9.4979620E-001	0
1.2559794E+003	8.271619809420372E+001	-9.5174116E-001	-7.577681116920303E-001	7.2119909E-004	-9.5179629E-001	0
1.1379009E+003	8.291619808915129E+001	-9.5374900E-001	-8.381653164773191E-001	7.9939933E-004	-9.5379615E-001	0
1.0368827E+003	8.311619808409887E+001	-9.5577270E-001	-9.217751243419947E-001	8.8100752E-004	-9.5579624E-001	0
9.4020337E+002	8.332619807879382E+001	-9.5786846E-001	-1.018788568252084E+000	9.7586541E-004	-9.5789623E-001	0
8.5445996E+002	8.353619807348878E+001	-9.5990562E-001	-1.123406187316530E+000	1.0783640E-003	-9.5999628E-001	0
7.8003314E+002	8.373619806843635E+001	-9.6185106E-001	-1.233090011077739E+000	1.1860490E-003	-9.6199620E-001	0
7.1400989E+002	8.393619806338393E+001	-9.6390575E-001	-1.349989410624950E+000	1.3012625E-003	-9.6399617E-001	0
6.5503400E+002	8.413619805833150E+001	-9.6590537E-001	-1.474588099782636E+000	1.4243126E-003	-9.6599627E-001	0
6.0115881E+002	8.433619805327908E+001	-9.6790648E-001	-1.610067900489852E+000	1.5583951E-003	-9.6799624E-001	0
5.5325604E+002	8.453619804822665E+001	-9.6993613E-001	-1.753141593179603E+000	1.7004354E-003	-9.6999615E-001	0
5.1042447E+002	8.473619804317423E+001	-9.7190726E-001	-1.904115703387733E+000	1.8506239E-003	-9.7199631E-001	0
4.7078464E+002	8.493619803812180E+001	-9.7391748E-001	-2.068711326810238E+000	2.0147541E-003	-9.7399616E-001	0
4.3627170E+002	8.513619803306938E+001	-9.7595149E-001	-2.237026767159001E+000	2.1832297E-003	-9.7599626E-001	0
4.0409885E+002	8.533619802801695E+001	-9.7787750E-001	-2.419896779231344E+000	2.3663626E-003	-9.7799623E-001	0
3.7604391E+002	8.553619802296453E+001	-9.7991931E-001	-2.605864106696480E+000	2.5535366E-003	-9.7999620E-001	0
3.4943454E+002	8.573619801791210E+001	-9.8188013E-001	-2.809911371848614E+000	2.7589961E-003	-9.8199630E-001	0
3.2562146E+002	8.593619801285968E+001	-9.8392886E-001	-3.021695293638174E+000	2.9731332E-003	-9.8399621E-001	0
3.0438229E+002	8.613619800780725E+001	-9.8592710E-001	-3.239108047990829E+000	3.1935244E-003	-9.8599625E-001	0
2.8473215E+002	8.633619800275483E+001	-9.8790956E-001	-3.469610138747704E+000	3.4276610E-003	-9.8799622E-001	0
2.6690125E+002	8.653619799770240E+001	-9.8988217E-001	-3.708795729340331E+000	3.6712708E-003	-9.8999619E-001	0
2.5057460E+002	8.673619799264998E+001	-9.9192244E-001	-3.958591336363298E+000	3.9266157E-003	-9.9199623E-001	0
2.3553488E+002	8.693619798759755E+001	-9.9387813E-001	-4.219664169107993E+000	4.1938317E-003	-9.9399626E-001	0
2.2178654E+002	8.713619798254513E+001	-9.9588299E-001	-4.490276947718911E+000	4.4717905E-003	-9.9599618E-001	0
2.0936815E+002	8.733619797749270E+001	-9.9800640E-001	-4.766753575699141E+000	4.7572507E-003	-9.9799615E-001	0
1.9789746E+002	8.753629797243775E+001	-9.9993330E-001	-5.052784857302314E+000	5.0524478E-003	-9.9999702E-001	0
1.8732796E+002	8.773649796738027E+001	-1.0019325E+000	-5.348547847386961E+000	5.3588841E-003	-1.0019990E+000	0
1.7740146E+002	8.793689796231774E+001	-1.0039098E+000	-5.658971486935940E+000	5.6810970E-003	-1.0040028E+000	0
1.6839841E+002	8.813719795725774E+001	-1.0059513E+000	-5.973638806295611E+000	6.0091894E-003	-1.0060059E+000	0
1.6009897E+002	8.833759795219521E+001	-1.0079436E+000	-6.295753192212487E+000	6.3457643E-003	-1.0080098E+000	0
1.5231743E+002	8.853789794713521E+001	-1.0099211E+000	-6.630371137032881E+000	6.6961516E-003	-1.0100131E+000	0
1.4508102E+002	8.873809794207773E+001	-1.0118946E+000	-6.974686192564992E+000	7.0576472E-003	-1.0120150E+000	0
1.3839145E+002	8.893839793701773E+001	-1.0140049E+000	-7.327078179215334E+000	7.4296934E-003	-1.0140178E+000	0
1.3212363E+002	8.913869793195772E+001	-1.0159396E+000	-7.689310821506979E+000	7.8118751E-003	-1.0160210E+000	0
1.2639851E+002	8.933889792690024E+001	-1.0178721E+000	-8.052880520846401E+000	8.1968028E-003	-1.0180230E+000	0
1.2095551E+002	8.953919792184024E+001	-1.0199950E+000	-8.432810899951853E+000	8.6014243E-003	-1.0200261E+000	0
1.1594045E+002	8.973939791678276E+001	-1.0219383E+000	-8.814337769381854E+000	9.0077100E-003	-1.0220282E+000	0
1.1118954E+002	8.993959791172529E+001	-1.0239568E+000	-9.209110414549315E+000	9.4297314E-003	-1.0240302E+000	0
1.0681067E+002	9.013989790666528E+001	-1.0259441E+000	-9.605258823192976E+000	9.8544592E-003	-1.0260329E+000	0
1.0268990E+002	9.034009790160781E+001	-1.0279835E+000	-1.001056101474464E+001	1.0290692E-002	-1.0280349E+000	0
9.8758560E+001	9.054029789655033E+001	-1.0299644E+000	-1.042911603744759E+001	1.0741618E-002	-1.0300369E+000	0
9.4853241E+001	9.075049789124023E+001	-1.0320617E+000	-1.088061586240255E+001	1.1229467E-002	-1.0321389E+000	0
9.1060371E+001	9.096069788593013E+001	-1.0341827E+000	-1.135711046018321E+001	1.1745327E-002	-1.0342410E+000	0
8.7800591E+001	9.116099788087013E+001	-1.0362006E+000	-1.180174976022542E+001	1.2228981E-002	-1.0362437E+000	0
8.4709389E+001	9.136139787580760E+001	-1.0381212E+000	-1.225509017940652E+001	1.2722270E-002	-1.0382478E+000	0
8.1865112E+001	9.156169787074759E+001	-1.0400865E+000	-1.270488155311246E+001	1.3214176E-002	-1.0402511E+000	0
7.9139160E+001	9.176209786568506E+001	-1.0422301E+000	-1.316958785651947E+001	1.3725741E-002	-1.0422549E+000	0
7.6552498E+001	9.196219786063011E+001	-1.0441588E+000	-1.363977394704099E+001	1.4242090E-002	-1.0442562E+000	0
7.4132568E+001	9.216239785557264E+001	-1.0462008E+000	-1.411256545272818E+001	1.4764576E-002	-1.0462581E+000	0
7.1816750E+001	9.236249785051768E+001	-1.0481874E+000	-1.459530567010809E+001	1.5298615E-002	-1.0482590E+000	0
6.9624596E+001	9.256269784546021E+001	-1.0501477E+000	-1.508299885453468E+001	1.5839376E-002	-1.0502610E+000	0
6.7502098E+001	9.276319784039515E+001	-1.0521901E+000	-1.558751702004847E+001	1.6401030E-002	-1.0522658E+000	0
6.5501648E+001	9.296349783533515E+001	-1.0542129E+000	-1.609444944008249E+001	1.6966976E-002	-1.0542690E+000	0
6.3577061E+001	9.316369783027767E+001	-1.0561551E+000	-1.661220367788428E+001	1.7545063E-002	-1.0562712E+000	0
6.1765800E+001	9.336399782521767E+001	-1.0582143E+000	-1.713268991401770E+001	1.8130058E-002	-1.0582738E+000	0
6.0015427E+001	9.356439782015514E+001	-1.0602080E+000	-1.766559015120617E+001	1.8729199E-002	-1.0602778E+000	0
5.8372974E+001	9.376469781509513E+001	-1.0622109E+000	-1.819696443296816E+001	1.9329015E-002	-1.0622810E+000	0
5.6813732E+001	9.396489781003766E+001	-1.0641940E+000	-1.873128103241831E+001	1.9933715E-002	-1.0642831E+000	0
5.5326065E+001	9.416539780497260E+001	-1.0662401E+000	-1.927193024791777E+001	2.0548504E-002	-1.0662878E+000	0
5.3862160E+001	9.436569779991260E+001	-1.0682319E+000	-1.983269821806732E+001	2.1185922E-002	-1.0682909E+000	0
5.2497166E+001	9.456599779485259E+001	-1.0702469E+000	-2.038675629154523E+001	2.1818863E-002	-1.0702939E+000	0
5.1197277E+001	9.476639778979006E+001	-1.0722536E+000	-2.094356670438742E+001	2.2456814E-002	-1.0722977E+000	0
4.9911079E+001	9.496689778472501E+001	-1.0742412E+000	-2.152309993099447E+001	2.3120999E-002	-1.0743029E+000	0
4.8712471E+001	9.516699777967006E+001	-1.0762079E+000	-2.209306754141446E+001	2.3776732E-002	-1.0763043E+000	0
4.7550400E+001	9.536729777461005E+001	-1.0782444E+000	-2.267582242504693E+001	2.4450080E-002	-1.0783069E+000	0
4.6467564E+001	9.556749776955257E+001	-1.0802517E+000	-2.324743548406627E+001	2.5113082E-002	-1.0803090E+000	0
4.5403446E+001	9.576799776448752E+001	-1.0822797E+000	-2.383694942468355E+001	2.5798246E-002	-1.0823138E+000	0
4.4419868E+001	9.596839775942499E+001	-1.0842512E+000	-2.440914803060105E+001	2.6465647E-002	-1.0843177E+000	0
4.3454895E+001	9.616859775436751E+001	-1.0862881E+000	-2.499806045904727E+001	2.7155096E-002	-1.0863202E+000	0
4.2561172E+001	9.636879774931003E+001	-1.0882714E+000	-2.556958225866930E+001	2.7826644E-002	-1.0883217E+000	0
4.1626621E+001	9.656919774424750E+001	-1.0902724E+000	-2.619171169001714E+001	2.8556101E-002	-1.0903258E+000	0
4.0785931E+001	9.676949773918750E+001	-1.0922228E+000	-2.677940115605173E+001	2.9249072E-002	-1.0923291E+000	0
3.9970066E+001	9.696999773412244E+001	-1.0942438E+000	-2.737658149023378E+001	2.9956654E-002	-1.0943336E+000	0
3.9153229E+001	9.717029772906244E+001	-1.0962453E+000	-2.799884684217432E+001	3.0693604E-002	-1.0963370E+000	0
3.8404510E+001	9.737059772400244E+001	-1.0983007E+000	-2.859822248491443E+001	3.1409446E-002	-1.0983398E+000	0
3.7688023E+001	9.757099771893991E+001	-1.1002222E+000	-2.919288752199782E+001	3.2118663E-002	-1.1003437E+000	0
3.6963242E+001	9.777149771387485E+001	-1.1023685E+000	-2.982337260994200E+001	3.2876346E-002	-1.1023487E+000	0
3.6256374E+001	9.797199770880979E+001	-1.1043169E+000	-3.045855882004886E+001	3.3635903E-002	-1.1043538E+000	0
3.5599072E+001	9.817229770374979E+001	-1.1063040E+000	-3.107676726424867E+001	3.4380354E-002	-1.1063571E+000	0
3.5029804E+001	9.837259769868979E+001	-1.1083202E+000	-3.163934838116143E+001	3.5066530E-002	-1.1083598E+000	0
3.4502422E+001	9.857309769362473E+001	-1.1103122E+000	-3.218070331038780E+001	3.5730626E-002	-1.1103648E+000	0
3.3972080E+001	9.877329768856725E+001	-1.1123545E+000	-3.274319787130361E+001	3.6422044E-002	-1.1123670E+000	0
3.3470173E+001	9.897369768350472E+001	-1.1142730E+000	-3.329151942141638E+001	3.7095841E-002	-1.1143709E+000	0
3.2981091E+001	9.917379767844977E+001	-1.1163015E+000	-3.384671307150728E+001	3.7783138E-002	-1.1163722E+000	0
3.2535664E+001	9.937409767338977E+001	-1.1183302E+000	-3.437244403851414E+001	3.8439743E-002	-1.1183748E+000	0
3.2027264E+001	9.957449766832724E+001	-1.1203446E+000	-3.498096863941288E+001	3.9190739E-002	-1.1203786E+000	0
3.1564425E+001	9.977489766326471E+001	-1.1223232E+000	-3.555658596434114E+001	3.9905980E-002	-1.1223830E+000	0
3.1207188E+001	9.997519765820471E+001	-1.1243482E+000	-3.602850065797884E+001	4.0508579E-002	-1.1243857E+000	0
3.0663832E+001	1.001753976531472E+002	-1.1263078E+000	-3.673082604159572E+001	4.1370217E-002	-1.1263882E+000	0
3.0324774E+001	1.003754976480923E+002	-1.1283447E+000	-3.720867483776215E+001	4.1984208E-002	-1.1283890E+000	0
2.9903753E+001	1.005758976430297E+002	-1.1303539E+000	-3.779973530220053E+001	4.2727079E-002	-1.1303926E+000	0
2.9614531E+001	1.007762976379672E+002	-1.1323442E+000	-3.823610380695658E+001	4.3296434E-002	-1.1323971E+000	0
2.9231262E+001	1.009765976329072E+002	-1.1342561E+000	-3.880284489771488E+001	4.4012364E-002	-1.1343998E+000	0
2.8921732E+001	1.011768976278472E+002	-1.1364012E+000	-3.929229455725442E+001	4.4651810E-002	-1.1364030E+000	0
2.8476364E+001	1.013770976227897E+002	-1.1383119E+000	-3.997391764743941E+001	4.5502786E-002	-1.1384051E+000	0
2.8198498E+001	1.015772976177323E+002	-1.1404208E+000	-4.044260709012411E+001	4.6121590E-002	-1.1404070E+000	0
2.7724644E+001	1.017774976126748E+002	-1.1423916E+000	-4.120491457958838E+001	4.7072146E-002	-1.1424091E+000	0
2.7427971E+001	1.019778976076122E+002	-1.1443832E+000	-4.172321774506707E+001	4.7747348E-002	-1.1444124E+000	0
2.7166506E+001	1.021785976025421E+002	-1.1463566E+000	-4.219742482206345E+001	4.8373297E-002	-1.1464198E+000	0
2.6857475E+001	1.023787975974847E+002	-1.1484067E+000	-4.275929590201423E+001	4.9105063E-002	-1.1484222E+000	0
2.6514021E+001	1.025788975924297E+002	-1.1503400E+000	-4.338610040628981E+001	4.9908765E-002	-1.1504230E+000	0
2.6029690E+001	1.027790975873722E+002	-1.1524035E+000	-4.427265461034068E+001	5.1019959E-002	-1.1524251E+000	0
2.5272120E+001	1.029794975823097E+002	-1.1544745E+000	-4.568174451622781E+001	5.2738409E-002	-1.1544286E+000	0
2.4729607E+001	1.031799975772446E+002	-1.1564348E+000	-4.676317030771133E+001	5.4078557E-002	-1.1564337E+000	0
2.4097425E+001	1.033802975721846E+002	-1.1584094E+000	-4.807191557299154E+001	5.5686958E-002	-1.1584369E+000	0
2.3283333E+001	1.035804975671272E+002	-1.1604643E+000	-4.984098643770562E+001	5.7838686E-002	-1.1604390E+000	0
2.2405420E+001	1.037808975620646E+002	-1.1624041E+000	-5.188048518406907E+001	6.0306087E-002	-1.1624428E+000	0
2.1827940E+001	1.039810975570072E+002	-1.1644360E+000	-5.334612392113013E+001	6.2118147E-002	-1.1644450E+000	0
2.1446421E+001	1.041812975519497E+002	-1.1664387E+000	-5.438850047129915E+001	6.3440852E-002	-1.1664470E+000	0
2.1188908E+001	1.043814975468922E+002	-1.1684467E+000	-5.514426073784460E+001	6.4433128E-002	-1.1684490E+000	0
2.1010494E+001	1.045817975418322E+002	-1.1704572E+000	-5.570822281226776E+001	6.5204091E-002	-1.1704519E+000	0
2.0809904E+001	1.047821975367697E+002	-1.1724927E+000	-5.634301620274800E+001	6.6061780E-002	-1.1724557E+000	0
2.0554710E+001	1.049825975317071E+002	-1.1744791E+000	-5.713917286257788E+001	6.7108765E-002	-1.1744598E+000	0
2.0374872E+001	1.051827975266497E+002	-1.1765574E+000	-5.774551237034905E+001	6.7940913E-002	-1.1764622E+000	0
2.0271414E+001	1.053828975215947E+002	-1.1784588E+000	-5.813401926937661E+001	6.8508551E-002	-1.1784631E+000	0
2.0172148E+001	1.055830975165372E+002	-1.1804529E+000	-5.851895342664852E+001	6.9078870E-002	-1.1804651E+000	0
1.9931696E+001	1.057833975114772E+002	-1.1825112E+000	-5.932818087312978E+001	7.0156239E-002	-1.1824677E+000	0
1.9658485E+001	1.059839975064097E+002	-1.1844624E+000	-6.025196650596240E+001	7.1366191E-002	-1.1844738E+000	0
1.9158876E+001	1.061843975013471E+002	-1.1864746E+000	-6.192819147836707E+001	7.3476225E-002	-1.1864778E+000	0
1.8903048E+001	1.063847974962846E+002	-1.1885457E+000	-6.287587872076608E+001	7.4730858E-002	-1.1884817E+000	0
1.8427725E+001	1.065850974912246E+002	-1.1905004E+000	-6.460376605197814E+001	7.6910809E-002	-1.1904850E+000	0
1.8206715E+001	1.067851974861696E+002	-1.1925212E+000	-6.549897963065428E+001	7.8108922E-002	-1.1924863E+000	0
1.8053940E+001	1.069852974811147E+002	-1.1944791E+000	-6.616168718389099E+001	7.9028755E-002	-1.1944871E+000	0
1.7711819E+001	1.071855974760547E+002	-1.1965244E+000	-6.755513720186107E+001	8.0831371E-002	-1.1964898E+000	0
1.7486591E+001	1.073858974709947E+002	-1.1985066E+000	-6.853860722599688E+001	8.2143970E-002	-1.1984930E+000	0
1.6936899E+001	1.075862974659321E+002	-1.2005298E+000	-7.088250101646747E+001	8.5096553E-002	-1.2004969E+000	0
1.6346153E+001	1.077865974608721E+002	-1.2025155E+000	-7.356565618163927E+001	8.8463843E-002	-1.2024997E+000	0
1.5792089E+001	1.079869974558096E+002	-1.2045368E+000	-7.627469892234626E+001	9.1875680E-002	-1.2045039E+000	0
1.5420183E+001	1.081873974507471E+002	-1.2065626E+000	-7.824567588691195E+001	9.4408311E-002	-1.2065078E+000	0
1.5283606E+001	1.083877974456846E+002	-1.2085205E+000	-7.907299708951030E+001	9.5561340E-002	-1.2085118E+000	0
1.5149123E+001	1.085882974406195E+002	-1.2105517E+000	-7.990902916471168E+001	9.6734017E-002	-1.2105166E+000	0
1.5085666E+001	1.087887974355544E+002	-1.2125661E+000	-8.037869374192985E+001	9.7464480E-002	-1.2125218E+000	0
1.5069983E+001	1.089890974304944E+002	-1.2144954E+000	-8.059036355959540E+001	9.7876631E-002	-1.2145250E+000	0
1.4924245E+001	1.091895974254294E+002	-1.2166153E+000	-8.151938647675185E+001	9.9177733E-002	-1.2165296E+000	0
1.4717337E+001	1.093899974203669E+002	-1.2184973E+000	-8.279332845227259E+001	1.0088345E-001	-1.2185342E+000	0
1.4581992E+001	1.095900974153119E+002	-1.2205465E+000	-8.370231457170621E+001	1.0216256E-001	-1.2205349E+000	0
1.4370184E+001	1.097904974102494E+002	-1.2225479E+000	-8.507531096734385E+001	1.0400864E-001	-1.2225386E+000	0
1.4174890E+001	1.099908974051868E+002	-1.2246187E+000	-8.639352254643347E+001	1.0579912E-001	-1.2245431E+000	0
1.4083752E+001	1.101910974001294E+002	-1.2265292E+000	-8.708824684674232E+001	1.0681628E-001	-1.2265450E+000	0
1.3951235E+001	1.103912973950719E+002	-1.2286028E+000	-8.806408700110691E+001	1.0819578E-001	-1.2285470E+000	0
1.3428230E+001	1.105915973900119E+002	-1.2305743E+000	-9.164083409861360E+001	1.1277085E-001	-1.2305497E+000	0
1.3226492E+001	1.107919973849494E+002	-1.2326543E+000	-9.319586245623577E+001	1.1487828E-001	-1.2325538E+000	0
1.3166682E+001	1.109923973798868E+002	-1.2346373E+000	-9.376980814879266E+001	1.1577170E-001	-1.2345577E+000	0
1.3138543E+001	1.111925973748293E+002	-1.2365882E+000	-9.411913033677843E+001	1.1638661E-001	-1.2365602E+000	0
1.3002519E+001	1.113929973697668E+002	-1.2385992E+000	-9.525840387286644E+001	1.1798698E-001	-1.2385638E+000	0
1.2955267E+001	1.115931973647093E+002	-1.2405913E+000	-9.575960992847672E+001	1.1879854E-001	-1.2405663E+000	0
1.2605709E+001	1.117934973596493E+002	-1.2426132E+000	-9.857542988402179E+001	1.2249113E-001	-1.2425685E+000	0
1.2352756E+001	1.119939973545843E+002	-1.2446856E+000	-1.007617773333363E+002	1.2541674E-001	-1.2445738E+000	0
1.2319766E+001	1.121945973495167E+002	-1.2466326E+000	-1.011896308669011E+002	1.2614629E-001	-1.2465798E+000	0
1.2098748E+001	1.123949973444542E+002	-1.2485970E+000	-1.032005106942238E+002	1.2885585E-001	-1.2485837E+000	0
1.1748863E+001	1.125952973393942E+002	-1.2506306E+000	-1.064469487995780E+002	1.3312581E-001	-1.2505870E+000	0
1.1568463E+001	1.127957973343291E+002	-1.2526330E+000	-1.082799796081222E+002	1.3563508E-001	-1.2525916E+000	0
1.1302961E+001	1.130062973290114E+002	-1.2546668E+000	-1.110033683245169E+002	1.3927224E-001	-1.2546971E+000	0
1.1144773E+001	1.132166973236963E+002	-1.2568668E+000	-1.127763516498098E+002	1.4174485E-001	-1.2568005E+000	0
1.0741048E+001	1.134173973186262E+002	-1.2588665E+000	-1.172014631367057E+002	1.4754100E-001	-1.2588078E+000	0
1.0640042E+001	1.136177973135636E+002	-1.2608147E+000	-1.184971504989865E+002	1.4940295E-001	-1.2608118E+000	0
1.0670139E+001	1.138179973085062E+002	-1.2628542E+000	-1.183540567497548E+002	1.4946392E-001	-1.2628142E+000	0
1.0725710E+001	1.140179973034537E+002	-1.2647860E+000	-1.179209566573527E+002	1.4914477E-001	-1.2648140E+000	0
1.0596172E+001	1.142180972983988E+002	-1.2668490E+000	-1.195572370175408E+002	1.5146098E-001	-1.2668152E+000	0
1.0477388E+001	1.144182972933413E+002	-1.2688544E+000	-1.211040755884997E+002	1.5366344E-001	-1.2688172E+000	0
1.0354245E+001	1.146186972882788E+002	-1.2708359E+000	-1.227357308652126E+002	1.5597697E-001	-1.2708205E+000	0
1.0234245E+001	1.148190972832163E+002	-1.2728760E+000	-1.243742010300600E+002	1.5831293E-001	-1.2728248E+000	0
1.0269729E+001	1.150192972781588E+002	-1.2748224E+000	-1.241339831274909E+002	1.5824878E-001	-1.2748269E+000	0
1.0210829E+001	1.152196972730962E+002	-1.2768017E+000	-1.250438907263241E+002	1.5965626E-001	-1.2768308E+000	0
1.0102547E+001	1.154198972680388E+002	-1.2788341E+000	-1.265853239694898E+002	1.6188163E-001	-1.2788330E+000	0
9.9436035E+000	1.156201972629788E+002	-1.2808301E+000	-1.288094496055312E+002	1.6498302E-001	-1.2808361E+000	0
9.9292068E+000	1.158202972579238E+002	-1.2828480E+000	-1.291994490099106E+002	1.6574326E-001	-1.2828370E+000	0
9.8427429E+000	1.160205972528638E+002	-1.2848663E+000	-1.305394581220069E+002	1.6772576E-001	-1.2848397E+000	0
9.6263695E+000	1.162209972478013E+002	-1.2868901E+000	-1.336838517930087E+002	1.7203644E-001	-1.2868439E+000	0
9.5402184E+000	1.164214972427362E+002	-1.2888856E+000	-1.351002249192561E+002	1.7412873E-001	-1.2888485E+000	0
9.3175983E+000	1.166218972376737E+002	-1.2908885E+000	-1.385430557129716E+002	1.7884365E-001	-1.2908530E+000	0
8.9065418E+000	1.168224972326061E+002	-1.2928662E+000	-1.451591642317090E+002	1.8767138E-001	-1.2928585E+000	0
8.8559656E+000	1.170229972275411E+002	-1.2948583E+000	-1.462131197636220E+002	1.8932527E-001	-1.2948637E+000	0
8.6173420E+000	1.172235972224735E+002	-1.2969213E+000	-1.505013015551076E+002	1.9518834E-001	-1.2968698E+000	0
8.5536270E+000	1.174238972174135E+002	-1.2988825E+000	-1.518516576592060E+002	1.9723746E-001	-1.2988729E+000	0
8.5948801E+000	1.176239972123585E+002	-1.3008835E+000	-1.513556390479041E+002	1.9689606E-001	-1.3008742E+000	0
8.5047216E+000	1.178240972073036E+002	-1.3028514E+000	-1.531915403623357E+002	1.9958583E-001	-1.3028750E+000	0
8.4209013E+000	1.180243972022436E+002	-1.3048978E+000	-1.549593986232780E+002	2.0220618E-001	-1.3048778E+000	0
8.3800173E+000	1.182247971971810E+002	-1.3068663E+000	-1.559503025206090E+002	2.0380619E-001	-1.3068818E+000	0
8.4526558E+000	1.184250971921210E+002	-1.3088914E+000	-1.548497317953261E+002	2.0268148E-001	-1.3088845E+000	0
8.4849596E+000	1.186251971870661E+002	-1.3108581E+000	-1.544919762838458E+002	2.0251706E-001	-1.3108863E+000	0
8.2622452E+000	1.188253971820086E+002	-1.3128842E+000	-1.589016265492868E+002	2.0861943E-001	-1.3128878E+000	0
7.8823457E+000	1.190256971769486E+002	-1.3149070E+000	-1.668167095907279E+002	2.1934845E-001	-1.3148911E+000	0
7.8625350E+000	1.192258971718911E+002	-1.3168291E+000	-1.674814862395547E+002	2.2054449E-001	-1.3168929E+000	0
7.9219184E+000	1.194261971668311E+002	-1.3189207E+000	-1.664900647531989E+002	2.1958719E-001	-1.3188958E+000	0
7.9091763E+000	1.196267971617635E+002	-1.3208630E+000	-1.670038593226091E+002	2.2058922E-001	-1.3209016E+000	0
7.9520597E+000	1.198271971567010E+002	-1.3228627E+000	-1.663547327309980E+002	2.2006448E-001	-1.3229058E+000	0
7.8865242E+000	1.200276971516359E+002	-1.3248960E+000	-1.679949148392902E+002	2.2257578E-001	-1.3249104E+000	0
7.7833347E+000	1.202283971465658E+002	-1.3269573E+000	-1.704869968389189E+002	2.2622897E-001	-1.3269178E+000	0
7.7839770E+000	1.204288971415008E+002	-1.3288922E+000	-1.707214950570935E+002	2.2687046E-001	-1.3289223E+000	0
7.6268868E+000	1.206295971364307E+002	-1.3309424E+000	-1.745066368304820E+002	2.3225828E-001	-1.3309296E+000	0
7.5605898E+000	1.208300971313656E+002	-1.3329281E+000	-1.762994858401062E+002	2.3499453E-001	-1.3329346E+000	0
7.5104842E+000	1.210305971263006E+002	-1.3349543E+000	-1.777454289954012E+002	2.3728202E-001	-1.3349397E+000	0
7.4651814E+000	1.212013971219858E+002	-1.3366694E+000	-1.790538484383812E+002	2.3933581E-001	-1.3366468E+000	0
7.4508319E+000	1.213319971186866E+002	-1.3379934E+000	-1.795763740447583E+002	2.4027200E-001	-1.3379537E+000	0
7.4482989E+000	1.214425971158926E+002	-1.3390714E+000	-1.797821745076981E+002	2.4074116E-001	-1.3390588E+000	0
7.4058013E+000	1.215435971133411E+002	-1.3400941E+000	-1.809519364445863E+002	2.4249262E-001	-1.3400693E+000	0
7.3467646E+000	1.216446971107871E+002	-1.3411094E+000	-1.825442195025748E+002	2.4481177E-001	-1.3410795E+000	0
7.3190446E+000	1.217655971077329E+002	-1.3423061E+000	-1.833990965764733E+002	2.4617773E-001	-1.3422889E+000	0
7.2972226E+000	1.219162971039259E+002	-1.3438481E+000	-1.841588479436496E+002	2.4748152E-001	-1.3437959E+000	0
7.3116846E+000	1.220372971008692E+002	-1.3449696E+000	-1.839479847140744E+002	2.4740446E-001	-1.3450063E+000	0
7.3065686E+000	1.221185970988154E+002	-1.3458445E+000	-1.841965240917416E+002	2.4789988E-001	-1.3458188E+000	0
7.2963362E+000	1.222491970955161E+002	-1.3471893E+000	-1.846391444655548E+002	2.4874388E-001	-1.3471252E+000	0
7.3292522E+000	1.223600970927146E+002	-1.3482506E+000	-1.839547335864681E+002	2.4801709E-001	-1.3482337E+000	0
7.2659535E+000	1.224711970899079E+002	-1.3494333E+000	-1.857200619583674E+002	2.5061685E-001	-1.3493443E+000	0
7.2255049E+000	1.225720970873590E+002	-1.3504076E+000	-1.868945629925611E+002	2.5238383E-001	-1.3503541E+000	0
7.1350389E+000	1.227024970840648E+002	-1.3517176E+000	-1.894478257105343E+002	2.5607997E-001	-1.3516577E+000	0
7.0437489E+000	1.228231970810157E+002	-1.3528987E+000	-1.920708325835689E+002	2.5985238E-001	-1.3528653E+000	0
6.9999304E+000	1.229637970774638E+002	-1.3542918E+000	-1.934721743372988E+002	2.6201779E-001	-1.3542706E+000	0
6.7534757E+000	1.230350970756626E+002	-1.3550293E+000	-2.006417713912053E+002	2.7187550E-001	-1.3549845E+000	0
6.5507150E+000	1.230765970746143E+002	-1.3554339E+000	-2.069139011717498E+002	2.8045812E-001	-1.3553987E+000	0
6.4430647E+000	1.231379970730632E+002	-1.3560214E+000	-2.104621742751327E+002	2.8539121E-001	-1.3560123E+000	0
6.3533301E+000	1.232292970707567E+002	-1.3569353E+000	-2.135785833584925E+002	2.8981230E-001	-1.3569260E+000	0
6.3557167E+000	1.233107970686979E+002	-1.3577235E+000	-2.136224003162465E+002	2.9004014E-001	-1.3577410E+000	0
6.4230127E+000	1.233820970668967E+002	-1.3585165E+000	-2.115076738817107E+002	2.8733665E-001	-1.3584536E+000	0
6.4580827E+000	1.234928970640976E+002	-1.3596231E+000	-2.105304502406484E+002	2.8624207E-001	-1.3595618E+000	0
6.4260221E+000	1.236036970612986E+002	-1.3607130E+000	-2.117504341951171E+002	2.8813156E-001	-1.3606697E+000	0
6.4029393E+000	1.237345970579918E+002	-1.3620687E+000	-2.127255230538949E+002	2.8974676E-001	-1.3619789E+000	0
6.3920622E+000	1.238552970549426E+002	-1.3632330E+000	-2.132696591614658E+002	2.9073623E-001	-1.3631867E+000	0
6.4360561E+000	1.239561970523937E+002	-1.3642498E+000	-2.119698398389360E+002	2.8917983E-001	-1.3641942E+000	0
6.4305215E+000	1.240273970505950E+002	-1.3649433E+000	-2.122601240015783E+002	2.8972304E-001	-1.3649069E+000	0
6.3864169E+000	1.241382970477935E+002	-1.3660262E+000	-2.138955480719733E+002	2.9218692E-001	-1.3660159E+000	0
6.3497667E+000	1.242692970444841E+002	-1.3673339E+000	-2.153360753981016E+002	2.9443631E-001	-1.3673254E+000	0
6.3139262E+000	1.243802970416800E+002	-1.3684915E+000	-2.167417652938839E+002	2.9660928E-001	-1.3684356E+000	0
6.3587580E+000	1.244713970393786E+002	-1.3693819E+000	-2.153536711193497E+002	2.9490143E-001	-1.3693461E+000	0
6.4112153E+000	1.245724970368246E+002	-1.3704487E+000	-2.137580165899435E+002	2.9294440E-001	-1.3703573E+000	0
6.4278769E+000	1.246933970337705E+002	-1.3716195E+000	-2.133860719671434E+002	2.9268450E-001	-1.3715668E+000	0
6.3877387E+000	1.248338970302211E+002	-1.3729695E+000	-2.149382653380840E+002	2.9510370E-001	-1.3729725E+000	0
6.3501968E+000	1.249446970274221E+002	-1.3741499E+000	-2.163948523042559E+002	2.9735896E-001	-1.3740795E+000	0
6.3149438E+000	1.250556970246180E+002	-1.3753111E+000	-2.177867555337787E+002	2.9952455E-001	-1.3751899E+000	0
6.3452711E+000	1.251862970213188E+002	-1.3765460E+000	-2.169404541973904E+002	2.9862851E-001	-1.3764956E+000	0
6.3220997E+000	1.253070970182671E+002	-1.3777577E+000	-2.179272264757651E+002	3.0025092E-001	-1.3777041E+000	0
6.2468762E+000	1.254180970154630E+002	-1.3788468E+000	-2.207257937259633E+002	3.0434704E-001	-1.3788136E+000	0
6.2182236E+000	1.255487970121612E+002	-1.3802017E+000	-2.219607637589206E+002	3.0635062E-001	-1.3801209E+000	0
6.1773572E+000	1.256495970096148E+002	-1.3811623E+000	-2.235846626271505E+002	3.0880672E-001	-1.3811287E+000	0
6.1785536E+000	1.257502970070709E+002	-1.3821521E+000	-2.237015629798129E+002	3.0918959E-001	-1.3821357E+000	0
6.2040496E+000	1.258214970052722E+002	-1.3829540E+000	-2.229114979419411E+002	3.0827636E-001	-1.3828474E+000	0
6.1972218E+000	1.259422970022206E+002	-1.3841134E+000	-2.233441861098117E+002	3.0913368E-001	-1.3840561E+000	0
6.2156878E+000	1.260528969994266E+002	-1.3852143E+000	-2.228577783574265E+002	3.0870578E-001	-1.3851620E+000	0
6.1477695E+000	1.261437969971303E+002	-1.3861376E+000	-2.254700057671480E+002	3.1253245E-001	-1.3860710E+000	0
5.8895578E+000	1.262151969953266E+002	-1.3868115E+000	-2.354695400672654E+002	3.2655185E-001	-1.3867849E+000	0
5.8463807E+000	1.263063969930226E+002	-1.3877856E+000	-2.373751499416037E+002	3.2942581E-001	-1.3876967E+000	0
5.8612833E+000	1.264173969902185E+002	-1.3888843E+000	-2.369590750691817E+002	3.2910874E-001	-1.3888066E+000	0
5.8994045E+000	1.264887969884148E+002	-1.3896056E+000	-2.355501528643645E+002	3.2732183E-001	-1.3895203E+000	0
5.9386220E+000	1.265797969861160E+002	-1.3905357E+000	-2.341512323143093E+002	3.2559565E-001	-1.3904305E+000	0
5.9372020E+000	1.266409969845699E+002	-1.3910855E+000	-2.342998516823120E+002	3.2593113E-001	-1.3910429E+000	0
5.8745484E+000	1.267515969817759E+002	-1.3921452E+000	-2.369790932139481E+002	3.2990929E-001	-1.3921489E+000	0
5.8773232E+000	1.268622969789794E+002	-1.3933043E+000	-2.370644415427987E+002	3.3030292E-001	-1.3932558E+000	0
5.8583484E+000	1.269429969769408E+002	-1.3940793E+000	-2.379645745672192E+002	3.3174148E-001	-1.3940629E+000	0
5.8212533E+000	1.270437969743944E+002	-1.3951048E+000	-2.396571154322924E+002	3.3434677E-001	-1.3950710E+000	0
5.8542628E+000	1.271745969710901E+002	-1.3964251E+000	-2.385313336860945E+002	3.3309114E-001	-1.3963788E+000	0
5.8454289E+000	1.272954969680359E+002	-1.3976462E+000	-2.391007024913506E+002	3.3417818E-001	-1.3975885E+000	0
5.7437305E+000	1.273864969657370E+002	-1.3985120E+000	-2.434849683150695E+002	3.4051666E-001	-1.3984979E+000	0
5.6585712E+000	1.274773969634407E+002	-1.3994787E+000	-2.473201459595000E+002	3.4611928E-001	-1.3994071E+000	0
5.6577430E+000	1.275781969608943E+002	-1.4004455E+000	-2.475272290888024E+002	3.4664840E-001	-1.4004143E+000	0
5.6311426E+000	1.276889969580952E+002	-1.4015989E+000	-2.489013296047679E+002	3.4885985E-001	-1.4015230E+000	0
5.5228329E+000	1.278194969547985E+002	-1.4028536E+000	-2.540097790913352E+002	3.5633853E-001	-1.4028281E+000	0
5.3803935E+000	1.279301969520020E+002	-1.4040103E+000	-2.609493652587080E+002	3.6637560E-001	-1.4039347E+000	0
5.3414488E+000	1.280112969499532E+002	-1.4048232E+000	-2.630041404394879E+002	3.6947432E-001	-1.4047453E+000	0
5.3405051E+000	1.281121969474043E+002	-1.4058203E+000	-2.632373138061030E+002	3.7006435E-001	-1.4057546E+000	0
5.3750219E+000	1.282030969451080E+002	-1.4067129E+000	-2.617129627244194E+002	3.6815500E-001	-1.4066644E+000	0
5.3774104E+000	1.282940969428091E+002	-1.4075893E+000	-2.617597022397304E+002	3.6845016E-001	-1.4075738E+000	0
5.3962040E+000	1.284248969395048E+002	-1.4090016E+000	-2.611097711417373E+002	3.6790410E-001	-1.4088815E+000	0
5.4071307E+000	1.285356969367058E+002	-1.4100327E+000	-2.607728300957817E+002	3.6769822E-001	-1.4099898E+000	0
5.4330430E+000	1.286462969339118E+002	-1.4112470E+000	-2.597525868970743E+002	3.6657506E-001	-1.4110955E+000	0
5.4779272E+000	1.287571969311102E+002	-1.4122800E+000	-2.578128330287700E+002	3.6410391E-001	-1.4122047E+000	0
5.3747215E+000	1.288383969290589E+002	-1.4131067E+000	-2.629171800850918E+002	3.7153003E-001	-1.4130166E+000	0
5.3838234E+000	1.289197969270026E+002	-1.4139053E+000	-2.626210334501850E+002	3.7132126E-001	-1.4138305E+000	0
5.3853688E+000	1.289514969262018E+002	-1.4141688E+000	-2.625946125951086E+002	3.7135312E-001	-1.4141474E+000	0
5.3860159E+000	1.289633969259012E+002	-1.4142703E+000	-2.625819080174455E+002	3.7136179E-001	-1.4142661E+000	0
5.3860478E+000	1.290446969238474E+002	-1.4151704E+000	-2.627474582865407E+002	3.7183243E-001	-1.4150795E+000	0
5.3727155E+000	1.291555969210458E+002	-1.4162394E+000	-2.635984243750177E+002	3.7331846E-001	-1.4161891E+000	0
5.3452430E+000	1.292960969174965E+002	-1.4176860E+000	-2.652238528963435E+002	3.7600413E-001	-1.4175936E+000	0
5.2361417E+000	1.294069969146949E+002	-1.4187572E+000	-2.709546886468297E+002	3.8441890E-001	-1.4187024E+000	0
5.1169310E+000	1.295077969121485E+002	-1.4197853E+000	-2.774681167820563E+002	3.9394516E-001	-1.4197105E+000	0
5.1049871E+000	1.296084969096046E+002	-1.4208007E+000	-2.783162230260534E+002	3.9543188E-001	-1.4207177E+000	0
5.1266212E+000	1.296894969075584E+002	-1.4216573E+000	-2.773088368711644E+002	3.9423814E-001	-1.4215276E+000	0
5.1315489E+000	1.297705969055096E+002	-1.4224257E+000	-2.771922701499389E+002	3.9428541E-001	-1.4223386E+000	0
5.1622901E+000	1.298713969029632E+002	-1.4234375E+000	-2.757376042425285E+002	3.9249524E-001	-1.4233468E+000	0
5.1880169E+000	1.299721969004167E+002	-1.4243985E+000	-2.745554828802399E+002	3.9107642E-001	-1.4243543E+000	0
5.1963444E+000	1.300236968991157E+002	-1.4248935E+000	-2.742107615503992E+002	3.9072114E-001	-1.4248695E+000	0
5.2086253E+000	1.300650968980699E+002	-1.4253497E+000	-2.736518020505700E+002	3.9004952E-001	-1.4252841E+000	0
5.1964726E+000	1.301460968960237E+002	-1.4261875E+000	-2.744530015284547E+002	3.9142144E-001	-1.4260932E+000	0
5.1645532E+000	1.302074968944726E+002	-1.4267228E+000	-2.762529049187829E+002	3.9413631E-001	-1.4267085E+000	0
5.1531692E+000	1.303082968919261E+002	-1.4277974E+000	-2.770717075277626E+002	3.9560229E-001	-1.4277155E+000	0
5.1451936E+000	1.303795968901250E+002	-1.4285562E+000	-2.776486897997947E+002	3.9663675E-001	-1.4284283E+000	0
5.1469297E+000	1.304310968888240E+002	-1.4290140E+000	-2.776439500036869E+002	3.9675710E-001	-1.4289432E+000	0
5.1439304E+000	1.305022968870253E+002	-1.4296868E+000	-2.779366581160093E+002	3.9736238E-001	-1.4296556E+000	0
5.1649361E+000	1.305832968849791E+002	-1.4304883E+000	-2.769614935233917E+002	3.9619020E-001	-1.4304653E+000	0
5.2176342E+000	1.306740968826853E+002	-1.4314543E+000	-2.743493108705884E+002	3.9271849E-001	-1.4313738E+000	0
5.2597160E+000	1.307451968808891E+002	-1.4322101E+000	-2.722979973341639E+002	3.8998795E-001	-1.4320847E+000	0
5.2629561E+000	1.308064968793406E+002	-1.4327979E+000	-2.722420415037341E+002	3.9006782E-001	-1.4326977E+000	0
5.2499471E+000	1.309170968765466E+002	-1.4339153E+000	-2.731294717286046E+002	3.9164451E-001	-1.4338049E+000	0
5.1663942E+000	1.310276968737526E+002	-1.4349942E+000	-2.777554642416688E+002	3.9857748E-001	-1.4349101E+000	0
5.1052432E+000	1.311286968712011E+002	-1.4359713E+000	-2.812738330024092E+002	4.0390113E-001	-1.4359200E+000	0
5.1061568E+000	1.312492968681545E+002	-1.4372385E+000	-2.814716514723302E+002	4.0454188E-001	-1.4371260E+000	0
5.1382556E+000	1.313200968663659E+002	-1.4379331E+000	-2.798485026845119E+002	4.0240341E-001	-1.4378343E+000	0
5.1746545E+000	1.313911968645698E+002	-1.4385905E+000	-2.780070787194728E+002	3.9993834E-001	-1.4385445E+000	0
5.1109533E+000	1.315121968615131E+002	-1.4398769E+000	-2.817237553841614E+002	4.0564755E-001	-1.4397545E+000	0
5.1204343E+000	1.316034968592066E+002	-1.4407635E+000	-2.813752456315431E+002	4.0539518E-001	-1.4406680E+000	0
5.1256042E+000	1.316845968571579E+002	-1.4415509E+000	-2.812450571550825E+002	4.0542907E-001	-1.4414787E+000	0
5.1067953E+000	1.317655968551117E+002	-1.4423335E+000	-2.824341729309498E+002	4.0736425E-001	-1.4422889E+000	0
5.0750961E+000	1.318763968523126E+002	-1.4434671E+000	-2.844216352951071E+002	4.1055328E-001	-1.4433970E+000	0
5.0495658E+000	1.319576968502588E+002	-1.4443332E+000	-2.860311534111192E+002	4.1312429E-001	-1.4442097E+000	0
5.0547051E+000	1.320485968479625E+002	-1.4451455E+000	-2.859010432855539E+002	4.1316861E-001	-1.4451187E+000	0
5.0897346E+000	1.321593968451634E+002	-1.4463434E+000	-2.841687252587644E+002	4.1100556E-001	-1.4462270E+000	0
5.1166997E+000	1.322702968423619E+002	-1.4473647E+000	-2.828707645691734E+002	4.0941715E-001	-1.4473354E+000	0
5.0763741E+000	1.323712968398104E+002	-1.4484000E+000	-2.853217772542314E+002	4.1326007E-001	-1.4483455E+000	0
5.1010489E+000	1.324720968372640E+002	-1.4494574E+000	-2.841488848975296E+002	4.1186172E-001	-1.4493539E+000	0
5.1333995E+000	1.325926968342174E+002	-1.4505963E+000	-2.825800614799164E+002	4.0990961E-001	-1.4505601E+000	0
5.1536469E+000	1.326836968319185E+002	-1.4514903E+000	-2.816433348176424E+002	4.0880257E-001	-1.4514700E+000	0
4.9740620E+000	1.327943968291220E+002	-1.4526736E+000	-2.920497494845868E+002	4.2425296E-001	-1.4525775E+000	0
4.8222036E+000	1.329049968263280E+002	-1.4537441E+000	-3.014688293164972E+002	4.3825853E-001	-1.4536829E+000	0
4.8785806E+000	1.329760968245319E+002	-1.4544252E+000	-2.981246668485314E+002	4.3360004E-001	-1.4543943E+000	0
4.8876967E+000	1.330771968219779E+002	-1.4554744E+000	-2.977832794239312E+002	4.3341592E-001	-1.4554051E+000	0
4.8352900E+000	1.331880968191763E+002	-1.4565895E+000	-3.012413898933687E+002	4.3878505E-001	-1.4565136E+000	0
4.8344359E+000	1.332888968166299E+002	-1.4576083E+000	-3.015053615774304E+002	4.3947673E-001	-1.4575218E+000	0
4.8455348E+000	1.333501968150813E+002	-1.4582522E+000	-3.009476362896603E+002	4.3885756E-001	-1.4581342E+000	0
4.8247733E+000	1.334314968130275E+002	-1.4589863E+000	-3.023947972447677E+002	4.4118986E-001	-1.4589483E+000	0
4.8429375E+000	1.334830968117240E+002	-1.4595480E+000	-3.013765821238630E+002	4.3987358E-001	-1.4594635E+000	0
4.8321214E+000	1.334949968114233E+002	-1.4596654E+000	-3.020755006268569E+002	4.4092917E-001	-1.4595823E+000	0
4.7816286E+000	1.335068968111227E+002	-1.4598079E+000	-3.052951270441217E+002	4.4567224E-001	-1.4597013E+000	0
4.7439637E+000	1.335585968098167E+002	-1.4603062E+000	-3.078240582342187E+002	4.4951737E-001	-1.4602183E+000	0
4.7465296E+000	1.336597968072601E+002	-1.4613370E+000	-3.078748131891739E+002	4.4990885E-001	-1.4612310E+000	0
4.7332134E+000	1.337410968052063E+002	-1.4621294E+000	-3.089083790083819E+002	4.5166400E-001	-1.4620439E+000	0
4.7422099E+000	1.338221968031576E+002	-1.4628506E+000	-3.084744456829794E+002	4.5125201E-001	-1.4628556E+000	0
4.7396421E+000	1.338932968013614E+002	-1.4636569E+000	-3.088116956004687E+002	4.5199436E-001	-1.4635653E+000	0
4.7576766E+000	1.339444968000680E+002	-1.4641558E+000	-3.077459608442678E+002	4.5058802E-001	-1.4640783E+000	0
4.4202180E+000	1.340354967977692E+002	-1.4650919E+000	-3.314524181049715E+002	4.8560828E-001	-1.4649884E+000	0
4.0816512E+000	1.342255967929668E+002	-1.4670367E+000	-3.594223756119791E+002	5.2728581E-001	-1.4668901E+000	0
3.9882162E+000	1.344255967879144E+002	-1.4690005E+000	-3.683352219306953E+002	5.4108459E-001	-1.4688901E+000	0
3.9901977E+000	1.346255967828620E+002	-1.4710619E+000	-3.686689508528948E+002	5.4233485E-001	-1.4708899E+000	0
3.9905858E+000	1.348255967778096E+002	-1.4730392E+000	-3.691285581329248E+002	5.4374081E-001	-1.4728900E+000	0
4.0356436E+000	1.350255967727571E+002	-1.4749497E+000	-3.654806757449032E+002	5.3906560E-001	-1.4748901E+000	0
4.1552806E+000	1.352255967677047E+002	-1.4769976E+000	-3.554507393653157E+002	5.2499992E-001	-1.4768901E+000	0
4.1867080E+000	1.354255967626523E+002	-1.4790337E+000	-3.532688827103766E+002	5.2249658E-001	-1.4788901E+000	0
3.9028411E+000	1.356255967575999E+002	-1.4809839E+000	-3.794630232916943E+002	5.6197864E-001	-1.4808899E+000	0
3.7286747E+000	1.358255967525474E+002	-1.4830815E+000	-3.977502877587904E+002	5.8989608E-001	-1.4828900E+000	0
3.8306575E+000	1.360255967474950E+002	-1.4850285E+000	-3.876693541879285E+002	5.7570004E-001	-1.4848901E+000	0
3.8294201E+000	1.362255967424426E+002	-1.4870044E+000	-3.883105934536643E+002	5.7741958E-001	-1.4868900E+000	0
3.9081366E+000	1.364255967373902E+002	-1.4889932E+000	-3.809982341217083E+002	5.6730378E-001	-1.4888901E+000	0
3.9798486E+000	1.366255967323377E+002	-1.4910086E+000	-3.746395440047563E+002	5.5859077E-001	-1.4908899E+000	0
4.0527501E+000	1.368255967272853E+002	-1.4929997E+000	-3.683917441422172E+002	5.5000877E-001	-1.4928900E+000	0
3.9264920E+000	1.370255967222329E+002	-1.4950230E+000	-3.807528480045385E+002	5.6923425E-001	-1.4948901E+000	0
3.8970473E+000	1.372255967171805E+002	-1.4970322E+000	-3.841452500501200E+002	5.7507777E-001	-1.4968899E+000	0
3.8985624E+000	1.374255967121280E+002	-1.4990280E+000	-3.845078716321332E+002	5.7638806E-001	-1.4988900E+000	0
3.8166535E+000	1.376255967070756E+002	-1.5009921E+000	-3.932743949176511E+002	5.9030175E-001	-1.5008899E+000	0
3.7540097E+000	1.378255967020232E+002	-1.5030245E+000	-4.003784217445200E+002	6.0177857E-001	-1.5028900E+000	0
3.7227218E+000	1.380255966969708E+002	-1.5051545E+000	-4.043156016235171E+002	6.0855746E-001	-1.5048901E+000	0
3.5570364E+000	1.382255966919183E+002	-1.5075166E+000	-4.238125389341340E+002	6.3890445E-001	-1.5068899E+000	0
3.6056187E+000	1.384255966868659E+002	-1.5095334E+000	-4.186614067786945E+002	6.3198340E-001	-1.5088900E+000	0
3.5686541E+000	1.386255966818135E+002	-1.5115356E+000	-4.235590308009887E+002	6.4022458E-001	-1.5108900E+000	0
3.6691558E+000	1.388255966767611E+002	-1.5135373E+000	-4.125028697638816E+002	6.2433845E-001	-1.5128900E+000	0
3.7144237E+000	1.390255966717086E+002	-1.5154881E+000	-4.080008931451912E+002	6.1832052E-001	-1.5148901E+000	0
3.7171905E+000	1.392255966666562E+002	-1.5175722E+000	-4.082578504653220E+002	6.1956078E-001	-1.5168902E+000	0
3.6256466E+000	1.394255966616038E+002	-1.5195378E+000	-4.191081003245317E+002	6.3685060E-001	-1.5188899E+000	0
3.6994369E+000	1.396255966565514E+002	-1.5214367E+000	-4.112616885438258E+002	6.2570864E-001	-1.5208900E+000	0
3.7668669E+000	1.398255966514989E+002	-1.5235374E+000	-4.044574468487262E+002	6.1620605E-001	-1.5228900E+000	0
3.7989757E+000	1.400255966464465E+002	-1.5255065E+000	-4.015573096891624E+002	6.1257827E-001	-1.5248901E+000	0
3.7773960E+000	1.402255966413941E+002	-1.5274771E+000	-4.043730648455985E+002	6.1767060E-001	-1.5268900E+000	0
3.8489034E+000	1.404255966363417E+002	-1.5295129E+000	-3.973892689681124E+002	6.0781199E-001	-1.5288900E+000	0
3.8633516E+000	1.406255966312892E+002	-1.5314913E+000	-3.964151967215166E+002	6.0710639E-001	-1.5308900E+000	0
3.8492069E+000	1.408255966262368E+002	-1.5335355E+000	-3.984029772643871E+002	6.1096507E-001	-1.5328901E+000	0
3.8083730E+000	1.410255966211844E+002	-1.5354490E+000	-4.031771594737397E+002	6.1905795E-001	-1.5348901E+000	0
3.7997420E+000	1.412255966161320E+002	-1.5375024E+000	-4.046333676336030E+002	6.2212479E-001	-1.5368898E+000	0
3.7427320E+000	1.414255966110795E+002	-1.5395221E+000	-4.113364379346522E+002	6.3326150E-001	-1.5388901E+000	0
3.6656649E+000	1.416255966060271E+002	-1.5415606E+000	-4.205405131791986E+002	6.4828873E-001	-1.5408900E+000	0
3.7007856E+000	1.418255966009747E+002	-1.5434177E+000	-4.170513722685737E+002	6.4368445E-001	-1.5428901E+000	0
3.7817457E+000	1.420255965959223E+002	-1.5455233E+000	-4.086798658262842E+002	6.3162422E-001	-1.5448902E+000	0
3.7689643E+000	1.422255965908698E+002	-1.5475281E+000	-4.105977284308201E+002	6.3541156E-001	-1.5468900E+000	0
3.7446215E+000	1.424255965858174E+002	-1.5494636E+000	-4.137837721463529E+002	6.4114290E-001	-1.5488901E+000	0
3.7276404E+000	1.426255965807650E+002	-1.5515298E+000	-4.162230319457803E+002	6.4578241E-001	-1.5508900E+000	0
3.7877002E+000	1.428255965757126E+002	-1.5535061E+000	-4.101449687810700E+002	6.3716274E-001	-1.5528901E+000	0
3.6934764E+000	1.430255965706601E+002	-1.5555975E+000	-4.211743494539840E+002	6.5517777E-001	-1.5548902E+000	0
3.6705475E+000	1.432255965656077E+002	-1.5575413E+000	-4.243348532739410E+002	6.6091901E-001	-1.5568900E+000	0
3.6053369E+000	1.434255965605553E+002	-1.5595517E+000	-4.325675476229953E+002	6.7461145E-001	-1.5588901E+000	0
3.4967740E+000	1.436255965555029E+002	-1.5616230E+000	-4.465896135663252E+002	6.9740462E-001	-1.5608900E+000	0
3.5259099E+000	1.438255965504504E+002	-1.5635239E+000	-4.434384192295900E+002	6.9332653E-001	-1.5628901E+000	0
3.5608563E+000	1.440255965453980E+002	-1.5655127E+000	-4.396449820503340E+002	6.8826979E-001	-1.5648901E+000	0
3.5152144E+000	1.442255965403456E+002	-1.5675892E+000	-4.459441092225143E+002	6.9905716E-001	-1.5668902E+000	0
3.5294180E+000	1.444255965352932E+002	-1.5695090E+000	-4.446934348601608E+002	6.9795036E-001	-1.5688901E+000	0
3.5596502E+000	1.446255965302407E+002	-1.5715177E+000	-4.414809436538599E+002	6.9379514E-001	-1.5708899E+000	0
3.5337064E+000	1.448255965251883E+002	-1.5735962E+000	-4.453104176034740E+002	7.0073879E-001	-1.5728900E+000	0
3.2270596E+000	1.450255965201359E+002	-1.5755548E+000	-4.882323394957057E+002	7.6923680E-001	-1.5748901E+000	0
3.2154226E+000	1.452255965150835E+002	-1.5775605E+000	-4.906230647417979E+002	7.7398759E-001	-1.5768900E+000	0
3.2413900E+000	1.454255965100310E+002	-1.5796053E+000	-4.873234317026991E+002	7.6977867E-001	-1.5788901E+000	0
3.2084861E+000	1.456255965049786E+002	-1.5815992E+000	-4.929425182861542E+002	7.7963752E-001	-1.5808899E+000	0
3.1903839E+000	1.458255964999262E+002	-1.5835283E+000	-4.963441013457286E+002	7.8597492E-001	-1.5828900E+000	0
3.2490935E+000	1.460255964948738E+002	-1.5855454E+000	-4.879962553729265E+002	7.7374023E-001	-1.5848901E+000	0
3.1695311E+000	1.462255964898213E+002	-1.5875484E+000	-5.008780025040996E+002	7.9516804E-001	-1.5868902E+000	0
3.1435521E+000	1.464255964847689E+002	-1.5896198E+000	-5.056762882630574E+002	8.0383301E-001	-1.5888901E+000	0
3.2177095E+000	1.466255964797165E+002	-1.5915385E+000	-4.946184710677779E+002	7.8720438E-001	-1.5908900E+000	0
3.2358491E+000	1.468255964746641E+002	-1.5936145E+000	-4.924872478087200E+002	7.8483480E-001	-1.5928900E+000	0
3.2824690E+000	1.470255964696116E+002	-1.5955968E+000	-4.860965400228688E+002	7.7561408E-001	-1.5948901E+000	0
3.3155024E+000	1.472255964645592E+002	-1.5975958E+000	-4.818563355426395E+002	7.6981169E-001	-1.5968902E+000	0
3.3099728E+000	1.474255964595068E+002	-1.5995545E+000	-4.832530672025787E+002	7.7298963E-001	-1.5988901E+000	0
3.3081150E+000	1.476255964544544E+002	-1.6015885E+000	-4.841392878361571E+002	7.7539194E-001	-1.6008900E+000	0
3.2910147E+000	1.478255964494019E+002	-1.6035620E+000	-4.872545736187431E+002	7.8134292E-001	-1.6028900E+000	0
3.2235327E+000	1.480255964443495E+002	-1.6055961E+000	-4.980858825242426E+002	7.9972476E-001	-1.6048901E+000	0
3.2058072E+000	1.482255964392971E+002	-1.6076378E+000	-5.014767573782647E+002	8.0619299E-001	-1.6068902E+000	0
3.1297820E+000	1.484255964342447E+002	-1.6095934E+000	-5.142829130133814E+002	8.2778639E-001	-1.6088901E+000	0
3.1242721E+000	1.486255964291922E+002	-1.6115534E+000	-5.158172639989532E+002	8.3126706E-001	-1.6108900E+000	0
3.0847869E+000	1.488255964241398E+002	-1.6135607E+000	-5.230703752262506E+002	8.4400576E-001	-1.6128901E+000	0
3.0879540E+000	1.490255964190874E+002	-1.6156031E+000	-5.231953213966335E+002	8.4527600E-001	-1.6148901E+000	0
3.1334743E+000	1.492255964140350E+002	-1.6175355E+000	-5.162115076631635E+002	8.3499044E-001	-1.6168902E+000	0
3.0839794E+000	1.494255964089825E+002	-1.6196434E+000	-5.251797447983097E+002	8.5060394E-001	-1.6188900E+000	0
3.1242554E+000	1.496255964039301E+002	-1.6215802E+000	-5.190293639479319E+002	8.4164774E-001	-1.6208900E+000	0
3.0503995E+000	1.498255963988777E+002	-1.6236509E+000	-5.322748299985788E+002	8.6422849E-001	-1.6228901E+000	0
3.0331435E+000	1.500255963938253E+002	-1.6255951E+000	-5.359440225570897E+002	8.7122798E-001	-1.6248901E+000	0
2.9985578E+000	1.502255963887728E+002	-1.6275946E+000	-5.427924693490340E+002	8.8344610E-001	-1.6268901E+000	0
3.0169623E+000	1.504255963837204E+002	-1.6295600E+000	-5.401326975357515E+002	8.8017863E-001	-1.6288902E+000	0
3.0614436E+000	1.506255963786680E+002	-1.6316051E+000	-5.329528808982989E+002	8.6956865E-001	-1.6308900E+000	0
3.1101713E+000	1.508255963736156E+002	-1.6335558E+000	-5.252301431426658E+002	8.5799271E-001	-1.6328901E+000	0
3.1103179E+000	1.510255963685631E+002	-1.6356962E+000	-5.258935438143135E+002	8.6020207E-001	-1.6348902E+000	0
3.1143079E+000	1.512255963635107E+002	-1.6375805E+000	-5.258248755180366E+002	8.6108059E-001	-1.6368901E+000	0
3.0477393E+000	1.514255963584583E+002	-1.6396289E+000	-5.379820092865120E+002	8.8209087E-001	-1.6388901E+000	0
3.0190403E+000	1.516255963534059E+002	-1.6417105E+000	-5.437855695780718E+002	8.9273846E-001	-1.6408900E+000	0
3.0493243E+000	1.518255963483534E+002	-1.6435641E+000	-5.389929074267948E+002	8.8586938E-001	-1.6428901E+000	0
3.0500567E+000	1.520255963433010E+002	-1.6456399E+000	-5.395440240111748E+002	8.8789517E-001	-1.6448902E+000	0
3.0445595E+000	1.522255963382486E+002	-1.6476568E+000	-5.411806801560269E+002	8.9168000E-001	-1.6468900E+000	0
3.0721970E+000	1.524255963331962E+002	-1.6496353E+000	-5.369562375161653E+002	8.8578194E-001	-1.6488899E+000	0
3.0896778E+000	1.526255963281437E+002	-1.6516035E+000	-5.345552265660272E+002	8.8287324E-001	-1.6508900E+000	0
3.0867796E+000	1.528255963230913E+002	-1.6536168E+000	-5.357093650272909E+002	8.8585800E-001	-1.6528901E+000	0
3.1300638E+000	1.530255963180389E+002	-1.6555783E+000	-5.289279618598448E+002	8.7568164E-001	-1.6548902E+000	0
3.1210191E+000	1.532255963129865E+002	-1.6576111E+000	-5.311121261103617E+002	8.8037735E-001	-1.6568900E+000	0
3.1571169E+000	1.534255963079340E+002	-1.6595732E+000	-5.256610050677182E+002	8.7237293E-001	-1.6588900E+000	0
3.2087700E+000	1.536255963028816E+002	-1.6614856E+000	-5.177951615089182E+002	8.6030918E-001	-1.6608900E+000	0
3.2072735E+000	1.538255962978292E+002	-1.6636721E+000	-5.187184929101613E+002	8.6297750E-001	-1.6628901E+000	0
3.1638973E+000	1.540255962927768E+002	-1.6656220E+000	-5.264462887554224E+002	8.7686050E-001	-1.6648902E+000	0
3.0864789E+000	1.542255962877243E+002	-1.6675843E+000	-5.402869320824016E+002	9.0097398E-001	-1.6668900E+000	0
3.1318784E+000	1.544255962826719E+002	-1.6696180E+000	-5.331043689104980E+002	8.9008063E-001	-1.6688900E+000	0
3.1701899E+000	1.546255962776195E+002	-1.6715595E+000	-5.272742399228664E+002	8.8137025E-001	-1.6708900E+000	0
3.1614499E+000	1.548255962725671E+002	-1.6735525E+000	-5.293623224807725E+002	8.8591564E-001	-1.6728901E+000	0
3.1511588E+000	1.550255962675146E+002	-1.6755990E+000	-5.317405529843963E+002	8.9098394E-001	-1.6748902E+000	0
3.2118645E+000	1.552255962624622E+002	-1.6775821E+000	-5.223078797831295E+002	8.7621439E-001	-1.6768900E+000	0
3.1860337E+000	1.554255962574098E+002	-1.6795675E+000	-5.271656094116443E+002	8.8541019E-001	-1.6788900E+000	0
3.1573625E+000	1.556255962523574E+002	-1.6816161E+000	-5.326015450051564E+002	8.9563131E-001	-1.6808901E+000	0
3.1581323E+000	1.558255962473049E+002	-1.6835732E+000	-5.330914256123992E+002	8.9749849E-001	-1.6828901E+000	0
3.1823592E+000	1.560255962422525E+002	-1.6856148E+000	-5.296745758575671E+002	8.9282733E-001	-1.6848902E+000	0
3.1940124E+000	1.562255962372001E+002	-1.6876221E+000	-5.283705457570602E+002	8.9168978E-001	-1.6868901E+000	0
3.1504636E+000	1.564255962321477E+002	-1.6896205E+000	-5.363085389731937E+002	9.0615791E-001	-1.6888901E+000	0
3.1344192E+000	1.566255962270952E+002	-1.6916183E+000	-5.396911605566805E+002	9.1295147E-001	-1.6908901E+000	0
3.1299691E+000	1.568255962220428E+002	-1.6935915E+000	-5.410888786834921E+002	9.1638350E-001	-1.6928899E+000	0
3.1036298E+000	1.570255962169904E+002	-1.6956058E+000	-5.463299001490423E+002	9.2636013E-001	-1.6948901E+000	0
3.1231892E+000	1.572255962119380E+002	-1.6976219E+000	-5.435539708342967E+002	9.2274916E-001	-1.6968901E+000	0
3.1020658E+000	1.574255962068855E+002	-1.6996223E+000	-5.479001532963325E+002	9.3122333E-001	-1.6988901E+000	0
3.0427053E+000	1.576255962018331E+002	-1.7015831E+000	-5.592336356580372E+002	9.5158255E-001	-1.7008901E+000	0
3.0325611E+000	1.578255961967807E+002	-1.7036154E+000	-5.617744794962373E+002	9.5704764E-001	-1.7028902E+000	0
3.0572715E+000	1.580255961917283E+002	-1.7056273E+000	-5.578920179051356E+002	9.5155585E-001	-1.7048900E+000	0
2.9787982E+000	1.582255961866758E+002	-1.7076292E+000	-5.732611560605246E+002	9.7891748E-001	-1.7068901E+000	0
2.8567312E+000	1.583855961826339E+002	-1.7092861E+000	-5.983363212896893E+002	1.0227280E+000	-1.7084900E+000	0
2.8636847E+000	1.584449961811333E+002	-1.7100326E+000	-5.971441533514799E+002	1.0211359E+000	-1.7091898E+000	1