EC-Lab ASCII FILE
Nb header lines : 61                          

Linear Sweep Voltammetry

Run on channel : 1 (SN 1340)
User : 
Electrode connection : standard
Potential control : Ewe
Ewe ctrl range : min = -5.00 V, max = 5.00 V
Ewe,I filtering : 50 kHz
Channel : Grounded
Acquisition started on : 11/23/2025 16:41:16.415
Technique started on : 11/23/2025 16:41:19.254
Loaded Setting File :  NONE
Saved on :
	File : Ni_Magnet_South_Test1_IR_02_LSV_C01.mpr
	Directory : C:\Users\volt\Documents\Platalytix\
	Host : 127.0.0.1
Device : SP-200 (SN 0262)
Address : USB
EC-LAB for windows v11.60 (software)
Internet server v11.60 (firmware)
Command interpretor v11.60 (firmware)
Electrode material : Ni
Initial state : 
Electrolyte : KOH (1 M)
Comments : Magnet South side
Cable : standard
Reference electrode : Hg/HgO (0.140 V)
Electrode surface area : 10.000 cm˛
Characteristic mass : 0.001 g
Equivalent Weight : 0.000 g/eq.
Density : 0.000 g/cm3
Volume (V) : 0.001 cmł
Cycle Definition : Charge/Discharge alternance
tR (h:m:s)          0:00:5.0000         
dER/dt (mV/h)       0.0                 
dER (mV)            0                   
dtR (s)             0.0000              
dE/dt               10.000              
dE/dt unit          mV/s                
Ei (V)              -0.200              
vs.                 Ref                 
EL (V)              -2.500              
vs.                 Ref                 
record              <I>                 
dI                  0.000               
unit dI             µA                  
tI (s)              0.0000              
step percent        50                  
N                   10                  
E range min (V)     -5.000              
E range max (V)     5.000               
I Range             Auto                
I Range min         Unset               
I Range max         Unset               
I Range init        Unset               
Bandwidth           8                   

<I>/mA	Ewe/V	control/V	Rwe/Ohm	time/s	
0.000000000000000E+000	-2.0474710E-001	0.0000000E+000	0.0000000E+000	2.839400134835159E+000
0.000000000000000E+000	-3.6628196E-001	-1.9986655E-001	0.0000000E+000	7.839200008529588E+000
6.182246382037793E-001	-2.0050217E-001	-2.0076634E-001	3.2431927E+002	7.939200006003375E+000
1.196100626155936E-001	-2.0195250E-001	-2.0216639E-001	1.6884241E+003	8.079200002466678E+000
4.762326018844321E-002	-2.0445746E-001	-2.0466636E-001	4.2932271E+003	8.329199996151146E+000
3.436619047996268E-002	-2.0666678E-001	-2.0686640E-001	6.0136655E+003	8.549199990593479E+000
2.779105096150508E-002	-2.0868661E-001	-2.0886639E-001	7.5091299E+003	8.749199985541054E+000
2.350306094773510E-002	-2.1068919E-001	-2.1086638E-001	8.9643301E+003	8.949199980488629E+000
2.039100663354215E-002	-2.1268396E-001	-2.1286640E-001	1.0430282E+004	9.149199975436204E+000
1.805688197924615E-002	-2.1467848E-001	-2.1486636E-001	1.1889012E+004	9.349199970383779E+000
1.614205577582870E-002	-2.1667853E-001	-2.1686639E-001	1.3423230E+004	9.549199965331354E+000
1.462271822249002E-002	-2.1869004E-001	-2.1886639E-001	1.4955498E+004	9.749199960278929E+000
1.334249265684667E-002	-2.2070453E-001	-2.2086635E-001	1.6541477E+004	9.949199955226504E+000
1.220669114184535E-002	-2.2269800E-001	-2.2286639E-001	1.8243930E+004	1.014919995017408E+001
1.125217648816995E-002	-2.2469676E-001	-2.2486639E-001	1.9969182E+004	1.034919994512165E+001
1.041754722067784E-002	-2.2668135E-001	-2.2686639E-001	2.1759570E+004	1.054919994006923E+001
9.693466933510711E-003	-2.2868291E-001	-2.2886637E-001	2.3591447E+004	1.074919993501680E+001
9.035234204773299E-003	-2.3069143E-001	-2.3086640E-001	2.5532424E+004	1.094919992996438E+001
8.417243374218064E-003	-2.3270145E-001	-2.3286636E-001	2.7645803E+004	1.114919992491195E+001
7.881918943251118E-003	-2.3471870E-001	-2.3486637E-001	2.9779385E+004	1.134919991985953E+001
7.398585208082932E-003	-2.3670581E-001	-2.3686640E-001	3.1993389E+004	1.154919991480710E+001
6.937699579072004E-003	-2.3870842E-001	-2.3886636E-001	3.4407430E+004	1.174919990975468E+001
6.524699985811511E-003	-2.4070866E-001	-2.4086638E-001	3.6891914E+004	1.194919990470225E+001
6.131877771923491E-003	-2.4271575E-001	-2.4286638E-001	3.9582613E+004	1.214919989964983E+001
5.786290823854439E-003	-2.4469607E-001	-2.4486637E-001	4.2288934E+004	1.234919989459740E+001
5.456207488018561E-003	-2.4670374E-001	-2.4686638E-001	4.5215242E+004	1.254919988954498E+001
5.140802279735610E-003	-2.4872161E-001	-2.4886638E-001	4.8381867E+004	1.274919988449255E+001
4.881523430666584E-003	-2.5069389E-001	-2.5086638E-001	5.1355668E+004	1.294919987944013E+001
4.610694626036319E-003	-2.5270668E-001	-2.5286639E-001	5.4808809E+004	1.314919987438770E+001
4.340319098749518E-003	-2.5472200E-001	-2.5486639E-001	5.8687391E+004	1.334919986933528E+001
4.132748613311702E-003	-2.5670740E-001	-2.5686637E-001	6.2115418E+004	1.354919986428285E+001
3.900728026206217E-003	-2.5869048E-001	-2.5886637E-001	6.6318508E+004	1.374919985923043E+001
3.704991386014104E-003	-2.6068842E-001	-2.6086637E-001	7.0361414E+004	1.394919985417800E+001
3.489063910547575E-003	-2.6268378E-001	-2.6286638E-001	7.5287750E+004	1.414919984912558E+001
3.264339686025700E-003	-2.6467970E-001	-2.6486638E-001	8.1082156E+004	1.434919984407316E+001
3.109683623851431E-003	-2.6667491E-001	-2.6686636E-001	8.5756281E+004	1.454919983902073E+001
2.965649376402117E-003	-2.6867983E-001	-2.6886639E-001	9.0597297E+004	1.474919983396831E+001
2.785812725653272E-003	-2.7068353E-001	-2.7086639E-001	9.7165016E+004	1.494919982891588E+001
2.612841594347215E-003	-2.7268505E-001	-2.7286637E-001	1.0436341E+005	1.514919982386346E+001
2.475433444141376E-003	-2.7469888E-001	-2.7486640E-001	1.1097002E+005	1.534919981881103E+001
2.341204550128612E-003	-2.7667475E-001	-2.7686638E-001	1.1817624E+005	1.554919981375861E+001
2.205693234833973E-003	-2.7868286E-001	-2.7886638E-001	1.2634706E+005	1.574919980870618E+001
2.085842900543583E-003	-2.8069606E-001	-2.8086635E-001	1.3457200E+005	1.594919980365376E+001
1.932700786149009E-003	-2.8267616E-001	-2.8286639E-001	1.4625966E+005	1.614919979860133E+001
1.839347939673892E-003	-2.8468448E-001	-2.8486639E-001	1.5477467E+005	1.634919979354891E+001
1.710814977502931E-003	-2.8668562E-001	-2.8686637E-001	1.6757255E+005	1.654919978849648E+001
1.603714097168323E-003	-2.8867444E-001	-2.8886637E-001	1.8000369E+005	1.674919978344406E+001
1.519616772262644E-003	-2.9069337E-001	-2.9086637E-001	1.9129388E+005	1.694919977839163E+001
1.398730565415874E-003	-2.9267687E-001	-2.9286638E-001	2.0924464E+005	1.714919977333921E+001
1.313772645010024E-003	-2.9466972E-001	-2.9486638E-001	2.2429278E+005	1.734919976828678E+001
1.222732020257756E-003	-2.9668313E-001	-2.9686642E-001	2.4263953E+005	1.754919976323436E+001
1.109919780002508E-003	-2.9869401E-001	-2.9886636E-001	2.6911316E+005	1.774919975818193E+001
1.037626043527784E-003	-3.0068409E-001	-3.0086637E-001	2.8978078E+005	1.794919975312951E+001
9.468446812113777E-004	-3.0269623E-001	-3.0286637E-001	3.1968941E+005	1.814919974807708E+001
8.564100945488984E-004	-3.0468845E-001	-3.0486637E-001	3.5577400E+005	1.834919974302466E+001
7.875872937495032E-004	-3.0667830E-001	-3.0686638E-001	3.8938959E+005	1.854919973797223E+001
7.199757702956305E-004	-3.0870086E-001	-3.0886638E-001	4.2876563E+005	1.874919973291981E+001
6.295247436056400E-004	-3.1068859E-001	-3.1086636E-001	4.9352878E+005	1.894919972786738E+001
5.555347962103606E-004	-3.1266809E-001	-3.1286639E-001	5.6282356E+005	1.914919972281496E+001
4.765565677461449E-004	-3.1467623E-001	-3.1486639E-001	6.6031244E+005	1.934919971776253E+001
4.026501957657309E-004	-3.1667325E-001	-3.1686640E-001	7.8647238E+005	1.954919971271011E+001
3.332525004597561E-004	-3.1866506E-001	-3.1886640E-001	9.5622706E+005	1.974919970765768E+001
2.751202052887801E-004	-3.2066464E-001	-3.2086638E-001	1.1655438E+006	1.994919970260526E+001
1.936410823812462E-004	-3.2267216E-001	-3.2286638E-001	1.6663414E+006	2.014919969755283E+001
1.307581371799362E-004	-3.2466075E-001	-3.2486638E-001	2.4829105E+006	2.034919969250041E+001
5.108292121307288E-005	-3.2667375E-001	-3.2686639E-001	6.3949700E+006	2.054919968744798E+001
1.445548868692030E-005	-3.2866955E-001	-3.2886639E-001	2.2736662E+007	2.074919968239556E+001
-4.755430041445720E-005	-3.3066875E-001	-3.3086640E-001	6.9534985E+006	2.094919967734313E+001
-1.390309058339534E-004	-3.3266646E-001	-3.3286637E-001	2.3927518E+006	2.114919967229071E+001
-1.692773638258629E-004	-3.3468777E-001	-3.3486637E-001	1.9771561E+006	2.134919966723828E+001
-2.503603972932250E-004	-3.3666721E-001	-3.3686638E-001	1.3447303E+006	2.154919966218586E+001
-3.111121763292118E-004	-3.3865622E-001	-3.3886638E-001	1.0885341E+006	2.174919965713343E+001
-3.719890630696373E-004	-3.4067583E-001	-3.4086636E-001	9.1582219E+005	2.194919965208101E+001
-4.167364477145035E-004	-3.4266949E-001	-3.4286636E-001	8.2226906E+005	2.214919964702858E+001
-5.208784903159916E-004	-3.4468612E-001	-3.4486637E-001	6.6174000E+005	2.234919964197616E+001
-5.468647664765118E-004	-3.4668764E-001	-3.4686640E-001	6.3395500E+005	2.254919963692373E+001
-6.151178821017667E-004	-3.4869340E-001	-3.4886640E-001	5.6687250E+005	2.274919963187131E+001
-6.518608562247289E-004	-3.5069200E-001	-3.5086638E-001	5.3798600E+005	2.294919962681888E+001
-7.138849730162385E-004	-3.5269165E-001	-3.5286641E-001	4.9404550E+005	2.314919962176646E+001
-7.873268341839790E-004	-3.5469186E-001	-3.5486639E-001	4.5050144E+005	2.334919961671403E+001
-8.330119127297718E-004	-3.5667244E-001	-3.5686642E-001	4.2817206E+005	2.354919961166161E+001
-8.811584135290686E-004	-3.5870516E-001	-3.5886639E-001	4.0708363E+005	2.374919960660918E+001
-9.647042316191547E-004	-3.6068889E-001	-3.6086637E-001	3.7388547E+005	2.394919960155676E+001
-9.829545294694538E-004	-3.6269149E-001	-3.6286637E-001	3.6898094E+005	2.414919959650433E+001
-1.052319384176045E-003	-3.6466947E-001	-3.6486638E-001	3.4653878E+005	2.434919959145191E+001
-1.126150918331039E-003	-3.6667269E-001	-3.6686641E-001	3.2559819E+005	2.454919958639948E+001
-1.154736242266460E-003	-3.6867359E-001	-3.6886638E-001	3.1927081E+005	2.474919958134706E+001
-1.227872566178551E-003	-3.7066776E-001	-3.7086639E-001	3.0187803E+005	2.494919957629463E+001
-1.283856677362197E-003	-3.7266776E-001	-3.7286642E-001	2.9027209E+005	2.514919957124221E+001
-1.338952697248415E-003	-3.7467438E-001	-3.7486640E-001	2.7982644E+005	2.534919956618978E+001
-1.418933109617885E-003	-3.7669992E-001	-3.7686637E-001	2.6548109E+005	2.554919956113736E+001
-1.471391303211180E-003	-3.7869662E-001	-3.7886640E-001	2.5737316E+005	2.574919955608493E+001
-1.505304083659207E-003	-3.8065016E-001	-3.8086638E-001	2.5287261E+005	2.594919955103251E+001
-1.559412899270926E-003	-3.8268098E-001	-3.8286638E-001	2.4540067E+005	2.614919954598008E+001
-1.642163068742642E-003	-3.8468933E-001	-3.8486639E-001	2.3425769E+005	2.634919954092766E+001
-1.695446379071611E-003	-3.8668895E-001	-3.8686642E-001	2.2807502E+005	2.654919953587523E+001
-1.764618549895694E-003	-3.8868624E-001	-3.8886636E-001	2.2026644E+005	2.674919953082281E+001
-1.819190251119502E-003	-3.9068311E-001	-3.9086643E-001	2.1475659E+005	2.694919952577038E+001
-1.877801302785670E-003	-3.9267999E-001	-3.9286637E-001	2.0911691E+005	2.714919952071796E+001
-1.935051799290641E-003	-3.9468026E-001	-3.9486641E-001	2.0396367E+005	2.734919951566553E+001
-1.983521332496671E-003	-3.9668733E-001	-3.9686644E-001	1.9999145E+005	2.754919951061311E+001
-2.081539199858033E-003	-3.9867634E-001	-3.9886642E-001	1.9152958E+005	2.774919950556068E+001
-2.125326843109308E-003	-4.0067491E-001	-4.0086639E-001	1.8852391E+005	2.794919950050826E+001
-2.185110655964075E-003	-4.0268281E-001	-4.0286642E-001	1.8428486E+005	2.814919949545583E+001
-2.247781950012766E-003	-4.0467629E-001	-4.0486640E-001	1.8003361E+005	2.834919949040341E+001
-2.329178341531585E-003	-4.0668422E-001	-4.0686640E-001	1.7460416E+005	2.854919948535098E+001
-2.395456383012404E-003	-4.0868765E-001	-4.0886641E-001	1.7060952E+005	2.874919948029856E+001
-2.464798297152154E-003	-4.1069341E-001	-4.1086641E-001	1.6662353E+005	2.894919947524613E+001
-2.501323180872539E-003	-4.1271847E-001	-4.1286638E-001	1.6500006E+005	2.914919947019371E+001
-2.603460847427731E-003	-4.1472134E-001	-4.1486642E-001	1.5929617E+005	2.934919946514128E+001
-2.644519155675838E-003	-4.1672686E-001	-4.1686639E-001	1.5758133E+005	2.954919946008886E+001
-2.721475205904754E-003	-4.1871807E-001	-4.1886643E-001	1.5385702E+005	2.974919945503643E+001
-2.801948255168217E-003	-4.2070580E-001	-4.2086640E-001	1.5014759E+005	2.994919944998401E+001
-2.874079279100952E-003	-4.2272028E-001	-4.2286637E-001	1.4708025E+005	3.014919944493158E+001
-2.940451492694810E-003	-4.2470527E-001	-4.2486641E-001	1.4443539E+005	3.034919943987916E+001
-2.997341339754639E-003	-4.2670232E-001	-4.2686641E-001	1.4236027E+005	3.054919943482673E+001
-3.090990366760138E-003	-4.2871088E-001	-4.2886642E-001	1.3869694E+005	3.074919942977431E+001
-3.174539041131810E-003	-4.3071097E-001	-4.3086642E-001	1.3567670E+005	3.094919942472188E+001
-3.207189815098835E-003	-4.3271038E-001	-4.3286642E-001	1.3491886E+005	3.114919941966946E+001
-3.314151100116375E-003	-4.3469936E-001	-4.3486637E-001	1.3116461E+005	3.134919941461703E+001
-3.405343000350732E-003	-4.3671367E-001	-4.3686640E-001	1.2824366E+005	3.154919940956461E+001
-3.469215211588605E-003	-4.3870881E-001	-4.3886644E-001	1.2645766E+005	3.174919940451218E+001
-3.543836374945562E-003	-4.4070104E-001	-4.4086641E-001	1.2435705E+005	3.194919939945976E+001
-3.608231477414601E-003	-4.4270957E-001	-4.4286638E-001	1.2269434E+005	3.214919939440733E+001
-3.703727050481928E-003	-4.4471154E-001	-4.4486642E-001	1.2007136E+005	3.234919938935491E+001
-3.790724080672619E-003	-4.4670460E-001	-4.4686639E-001	1.1784149E+005	3.254919938430248E+001
-3.890586549397965E-003	-4.4871125E-001	-4.4886640E-001	1.1533255E+005	3.274919937925006E+001
-3.998156213792892E-003	-4.5070934E-001	-4.5086640E-001	1.1272930E+005	3.294919937419763E+001
-4.048216234667695E-003	-4.5270622E-001	-4.5286644E-001	1.1182856E+005	3.314919936914521E+001
-4.178805676087756E-003	-4.5471647E-001	-4.5486638E-001	1.0881494E+005	3.334919936409278E+001
-4.221391896491535E-003	-4.5669806E-001	-4.5686641E-001	1.0818661E+005	3.354919935904036E+001
-4.327038761155447E-003	-4.5867965E-001	-4.5886645E-001	1.0600313E+005	3.374919935398793E+001
-4.433083961961432E-003	-4.6071410E-001	-4.6086639E-001	1.0392632E+005	3.394919934893551E+001
-4.512879027826110E-003	-4.6270904E-001	-4.6286640E-001	1.0253079E+005	3.414919934388308E+001
-4.631064742094258E-003	-4.6469763E-001	-4.6486643E-001	1.0034359E+005	3.434919933883066E+001
-4.716360408454010E-003	-4.6669704E-001	-4.6686646E-001	9.8952797E+004	3.454919933377823E+001
-4.791480592093493E-003	-4.6868142E-001	-4.6886641E-001	9.7815570E+004	3.474919932872581E+001
-4.919775404069598E-003	-4.7069356E-001	-4.7086641E-001	9.5673789E+004	3.494919932367338E+001
-5.036136997552676E-003	-4.7268489E-001	-4.7286642E-001	9.3858625E+004	3.514919931862096E+001
-5.097401439256591E-003	-4.7468111E-001	-4.7486639E-001	9.3122172E+004	3.534919931356853E+001
-5.239097764703687E-003	-4.7668186E-001	-4.7686642E-001	9.0985484E+004	3.554919930851611E+001
-5.330389942746830E-003	-4.7868150E-001	-4.7886646E-001	8.9802344E+004	3.574919930346368E+001
-5.426672049505060E-003	-4.8068574E-001	-4.8086643E-001	8.8578367E+004	3.594919929841126E+001
-5.564415225419395E-003	-4.8269302E-001	-4.8286641E-001	8.6746406E+004	3.614919929335883E+001
-5.666476017660876E-003	-4.8468760E-001	-4.8486641E-001	8.5535984E+004	3.634919928830641E+001
-5.751399516148836E-003	-4.8668525E-001	-4.8686641E-001	8.4620313E+004	3.654919928325398E+001
-5.885162201593630E-003	-4.8868126E-001	-4.8886636E-001	8.3036156E+004	3.674919927820156E+001
-6.013709839138820E-003	-4.9069032E-001	-4.9086639E-001	8.1595273E+004	3.694919927314913E+001
-6.117996310418190E-003	-4.9269244E-001	-4.9286643E-001	8.0531664E+004	3.714919926809671E+001
-6.255366209479418E-003	-4.9468639E-001	-4.9486643E-001	7.9081922E+004	3.734919926304428E+001
-6.353062187712692E-003	-4.9669108E-001	-4.9686638E-001	7.8181367E+004	3.754919925799186E+001
-6.497196142723816E-003	-4.9868494E-001	-4.9886641E-001	7.6753867E+004	3.774919925293943E+001
-6.595061127296502E-003	-5.0069273E-001	-5.0086647E-001	7.5919344E+004	3.794919924788701E+001
-6.737488250619289E-003	-5.0268996E-001	-5.0286639E-001	7.4610883E+004	3.814919924283458E+001
-6.856016181023911E-003	-5.0468856E-001	-5.0486636E-001	7.3612508E+004	3.834919923778216E+001
-6.981181746080561E-003	-5.0668323E-001	-5.0686646E-001	7.2578430E+004	3.854919923272973E+001
-7.121364779948805E-003	-5.0869668E-001	-5.0886637E-001	7.1432469E+004	3.874919922767731E+001
-7.238308285812317E-003	-5.1068574E-001	-5.1086640E-001	7.0553188E+004	3.894919922262488E+001
-7.382446005710797E-003	-5.1269233E-001	-5.1286638E-001	6.9447484E+004	3.914919921757246E+001
-7.518490745731937E-003	-5.1468122E-001	-5.1486641E-001	6.8455391E+004	3.934919921252003E+001
-7.640570237157723E-003	-5.1668400E-001	-5.1686639E-001	6.7623750E+004	3.954919920746761E+001
-7.806886711552247E-003	-5.1869190E-001	-5.1886642E-001	6.6440297E+004	3.974919920241518E+001
-7.922490325039958E-003	-5.2067095E-001	-5.2086645E-001	6.5720617E+004	3.994919919736276E+001
-8.079882560901294E-003	-5.2265507E-001	-5.2286643E-001	6.4685973E+004	4.014919919231033E+001
-8.218991888270993E-003	-5.2467704E-001	-5.2486640E-001	6.3837152E+004	4.034919918725791E+001
-8.388421400500286E-003	-5.2668124E-001	-5.2686644E-001	6.2786695E+004	4.054919918220548E+001
-8.506835648175490E-003	-5.2868009E-001	-5.2886641E-001	6.2147680E+004	4.074919917715306E+001
-8.678888955590144E-003	-5.3068668E-001	-5.3086644E-001	6.1146844E+004	4.094919917210063E+001
-8.826012517111209E-003	-5.3267872E-001	-5.3286642E-001	6.0353270E+004	4.114919916704821E+001
-8.967067171500608E-003	-5.3466302E-001	-5.3486645E-001	5.9625184E+004	4.134919916199578E+001
-9.136584555189588E-003	-5.3667545E-001	-5.3686643E-001	5.8739176E+004	4.154919915694336E+001
-9.270932264319798E-003	-5.3866720E-001	-5.3886640E-001	5.8102809E+004	4.174919915189093E+001
-9.443870840764194E-003	-5.4069424E-001	-5.4086643E-001	5.7253457E+004	4.194919914683851E+001
-9.611904844649605E-003	-5.4268557E-001	-5.4286641E-001	5.6459730E+004	4.214919914178608E+001
-9.758137324558339E-003	-5.4468268E-001	-5.4486638E-001	5.5818305E+004	4.234919913673366E+001
-9.934052953334452E-003	-5.4669631E-001	-5.4686642E-001	5.5032555E+004	4.254919913168123E+001
-1.009907117151751E-002	-5.4869056E-001	-5.4886645E-001	5.4330793E+004	4.274919912662881E+001
-1.026777570660421E-002	-5.5069762E-001	-5.5086643E-001	5.3633586E+004	4.294919912157638E+001
-1.041702771123262E-002	-5.5269688E-001	-5.5286640E-001	5.3057063E+004	4.314919911652396E+001
-1.058786178045736E-002	-5.5467427E-001	-5.5486643E-001	5.2387750E+004	4.334919911147153E+001
-1.074892288128538E-002	-5.5665749E-001	-5.5686641E-001	5.1787281E+004	4.354919910641911E+001
-1.092978878236589E-002	-5.5867964E-001	-5.5886638E-001	5.1115320E+004	4.374919910136668E+001
-1.115052951883915E-002	-5.6069368E-001	-5.6086642E-001	5.0284039E+004	4.394919909631426E+001
-1.130256798359098E-002	-5.6266344E-001	-5.6286645E-001	4.9781910E+004	4.414919909126183E+001
-1.147909460716265E-002	-5.6469816E-001	-5.6486642E-001	4.9193613E+004	4.434919908620941E+001
-1.164702867416989E-002	-5.6665671E-001	-5.6686646E-001	4.8652469E+004	4.454919908115698E+001
-1.180803725426510E-002	-5.6866360E-001	-5.6886643E-001	4.8159027E+004	4.474919907610456E+001
-1.201888307141846E-002	-5.7065511E-001	-5.7086647E-001	4.7479879E+004	4.494919907105214E+001
-1.220741513830106E-002	-5.7266092E-001	-5.7286638E-001	4.6910906E+004	4.514919906599971E+001
-1.239418487004884E-002	-5.7467967E-001	-5.7486641E-001	4.6366879E+004	4.534919906094729E+001
-1.259518663893627E-002	-5.7665759E-001	-5.7686645E-001	4.5783965E+004	4.554919905589486E+001
-1.273899464186939E-002	-5.7867211E-001	-5.7886636E-001	4.5425258E+004	4.574919905084244E+001
-1.295653897967997E-002	-5.8066577E-001	-5.8086646E-001	4.4816426E+004	4.594919904579001E+001
-1.314398908302344E-002	-5.8266926E-001	-5.8286643E-001	4.4329711E+004	4.614919904073759E+001
-1.333800333292302E-002	-5.8465910E-001	-5.8486640E-001	4.3834078E+004	4.634919903568516E+001
-1.353519069809098E-002	-5.8665836E-001	-5.8686638E-001	4.3343191E+004	4.654919903063274E+001
-1.371212868358359E-002	-5.8865285E-001	-5.8886641E-001	4.2929355E+004	4.674919902558031E+001
-1.392559107757846E-002	-5.9066159E-001	-5.9086651E-001	4.2415547E+004	4.694919902052789E+001
-1.414135882320500E-002	-5.9266436E-001	-5.9286642E-001	4.1910000E+004	4.714919901547546E+001
-1.431572864683722E-002	-5.9467232E-001	-5.9486639E-001	4.1539789E+004	4.734919901042304E+001
-1.451112754704215E-002	-5.9667426E-001	-5.9686643E-001	4.1118395E+004	4.754919900537061E+001
-1.470310381685475E-002	-5.9866500E-001	-5.9886640E-001	4.0716914E+004	4.774919900031819E+001
-1.492025032985307E-002	-6.0066569E-001	-6.0086644E-001	4.0258418E+004	4.794919899526576E+001
-1.512726666836078E-002	-6.0267121E-001	-6.0286641E-001	3.9840059E+004	4.814919899021334E+001
-1.536307915413748E-002	-6.0466731E-001	-6.0486645E-001	3.9358473E+004	4.834919898516091E+001
-1.555137747245075E-002	-6.0667342E-001	-6.0686642E-001	3.9010910E+004	4.854919898010849E+001
-1.577621904284164E-002	-6.0867673E-001	-6.0886639E-001	3.8581914E+004	4.874919897505606E+001
-1.593767979093602E-002	-6.1066103E-001	-6.1086649E-001	3.8315555E+004	4.894919897000364E+001
-1.617604249596272E-002	-6.1268950E-001	-6.1286634E-001	3.7876352E+004	4.914919896495121E+001
-1.639795111365034E-002	-6.1469001E-001	-6.1486644E-001	3.7485781E+004	4.934919895989879E+001
-1.661200127461415E-002	-6.1669409E-001	-6.1686647E-001	3.7123406E+004	4.954919895484636E+001
-1.681899335702602E-002	-6.1871195E-001	-6.1886638E-001	3.6786504E+004	4.974919894979394E+001
-1.700160258514026E-002	-6.2068230E-001	-6.2086642E-001	3.6507281E+004	4.994919894474151E+001
-1.726001281544146E-002	-6.2270057E-001	-6.2286639E-001	3.6077641E+004	5.014919893968909E+001
-1.743633906837966E-002	-6.2468922E-001	-6.2486649E-001	3.5826855E+004	5.034919893463666E+001
-1.765184465356481E-002	-6.2669730E-001	-6.2686640E-001	3.5503219E+004	5.054919892958424E+001
-1.790018904098370E-002	-6.2867957E-001	-6.2886637E-001	3.5121395E+004	5.074919892453181E+001
-1.809970348864348E-002	-6.3067198E-001	-6.3086647E-001	3.4844328E+004	5.094919891947939E+001
-1.829109771537241E-002	-6.3267118E-001	-6.3286638E-001	3.4589023E+004	5.114919891442696E+001
-1.854423589343432E-002	-6.3467318E-001	-6.3486642E-001	3.4224824E+004	5.134919890937454E+001
-1.878958615849791E-002	-6.3669097E-001	-6.3686639E-001	3.3885313E+004	5.154919890432211E+001
-1.898738532472302E-002	-6.3868451E-001	-6.3886648E-001	3.3637309E+004	5.174919889926969E+001
-1.918631551476824E-002	-6.4068288E-001	-6.4086640E-001	3.3392699E+004	5.194919889421726E+001
-1.943245167762690E-002	-6.4272404E-001	-6.4286643E-001	3.3074777E+004	5.214919888916484E+001
-1.961791699687800E-002	-6.4469719E-001	-6.4486647E-001	3.2862672E+004	5.234919888411241E+001
-1.988701674046597E-002	-6.4671141E-001	-6.4686644E-001	3.2519277E+004	5.254919887905999E+001
-2.008078432002568E-002	-6.4870340E-001	-6.4886636E-001	3.2304684E+004	5.274919887400756E+001
-2.033181282068135E-002	-6.5069568E-001	-6.5086645E-001	3.2003820E+004	5.294919886895514E+001
-2.054106072647303E-002	-6.5271145E-001	-6.5286642E-001	3.1775938E+004	5.314919886390271E+001
-2.079520539022651E-002	-6.5469915E-001	-6.5486640E-001	3.1483178E+004	5.334919885885029E+001
-2.101453626567990E-002	-6.5670389E-001	-6.5686643E-001	3.1249982E+004	5.354919885379786E+001
-2.124249015891472E-002	-6.5869647E-001	-6.5886647E-001	3.1008439E+004	5.374919884874544E+001
-2.147611595749390E-002	-6.6070628E-001	-6.6086644E-001	3.0764701E+004	5.394919884369301E+001
-2.170155469796470E-002	-6.6271400E-001	-6.6286635E-001	3.0537629E+004	5.414919883864059E+001
-2.191477903080979E-002	-6.6470391E-001	-6.6486645E-001	3.0331309E+004	5.434919883358816E+001
-2.215186178778214E-002	-6.6672701E-001	-6.6686636E-001	3.0098012E+004	5.454919882853574E+001
-2.238976124179382E-002	-6.6871351E-001	-6.6886640E-001	2.9866934E+004	5.474919882348331E+001
-2.262093937404608E-002	-6.7069918E-001	-6.7086643E-001	2.9649484E+004	5.494919881843089E+001
-2.285135271003391E-002	-6.7268622E-001	-6.7286640E-001	2.9437479E+004	5.514919881337846E+001
-2.310212837324149E-002	-6.7467189E-001	-6.7486644E-001	2.9203885E+004	5.534919880832604E+001
-2.328993918140822E-002	-6.7669547E-001	-6.7686641E-001	2.9055270E+004	5.554919880327361E+001
-2.358201069809079E-002	-6.7868048E-001	-6.7886645E-001	2.8779584E+004	5.574919879822119E+001
-2.378490469270644E-002	-6.8070471E-001	-6.8086642E-001	2.8619189E+004	5.594919879316876E+001
-2.402783519640678E-002	-6.8267679E-001	-6.8286639E-001	2.8411914E+004	5.614919878811634E+001
-2.428423100699678E-002	-6.8467879E-001	-6.8486643E-001	2.8194379E+004	5.634919878306391E+001
-2.449196948004095E-002	-6.8667680E-001	-6.8686646E-001	2.8036814E+004	5.654919877801149E+001
-2.476786571695289E-002	-6.8866783E-001	-6.8886638E-001	2.7804893E+004	5.674919877295906E+001
-2.498394588949346E-002	-6.9067615E-001	-6.9086641E-001	2.7644799E+004	5.694919876790664E+001
-2.525002463502160E-002	-6.9269210E-001	-6.9286644E-001	2.7433324E+004	5.714919876285421E+001
-2.549451665452301E-002	-6.9467455E-001	-6.9486648E-001	2.7247998E+004	5.734919875780179E+001
-2.573375296097913E-002	-6.9667423E-001	-6.9686645E-001	2.7072391E+004	5.754919875274936E+001
-2.596918043422841E-002	-6.9868696E-001	-6.9886643E-001	2.6904467E+004	5.774919874769694E+001
-2.621502963939040E-002	-7.0067495E-001	-7.0086652E-001	2.6727986E+004	5.794919874264451E+001
-2.647354268567110E-002	-7.0269108E-001	-7.0286638E-001	2.6543145E+004	5.814919873759209E+001
-2.670088524100234E-002	-7.0468378E-001	-7.0486647E-001	2.6391775E+004	5.834919873253966E+001
-2.697491366917781E-002	-7.0670438E-001	-7.0686650E-001	2.6198578E+004	5.854919872748724E+001
-2.722745472955990E-002	-7.0868868E-001	-7.0886642E-001	2.6028459E+004	5.874919872243481E+001
-2.748049725435209E-002	-7.1067834E-001	-7.1086639E-001	2.5861189E+004	5.894919871738239E+001
-2.773490105650039E-002	-7.1265829E-001	-7.1286649E-001	2.5695361E+004	5.914919871232996E+001
-2.802188052608917E-002	-7.1470761E-001	-7.1486646E-001	2.5505340E+004	5.934919870727754E+001
-2.824512590857997E-002	-7.1669006E-001	-7.1686637E-001	2.5373938E+004	5.954919870222511E+001
-2.852417707502354E-002	-7.1871257E-001	-7.1886641E-001	2.5196609E+004	5.974919869717269E+001
-2.876461596468932E-002	-7.2070366E-001	-7.2086650E-001	2.5055217E+004	5.994919869212026E+001
-2.902823408813227E-002	-7.2270399E-001	-7.2286642E-001	2.4896588E+004	6.014919868706784E+001
-2.930465622624512E-002	-7.2469276E-001	-7.2486645E-001	2.4729611E+004	6.034919868201541E+001
-2.956608497028720E-002	-7.2669452E-001	-7.2686648E-001	2.4578652E+004	6.054919867696299E+001
-2.984848556472008E-002	-7.2870010E-001	-7.2886646E-001	2.4413303E+004	6.074919867191056E+001
-3.011732047018245E-002	-7.3068810E-001	-7.3086643E-001	2.4261391E+004	6.094919866685814E+001
-3.039759299992384E-002	-7.3270041E-001	-7.3286641E-001	2.4103896E+004	6.114919866180571E+001
-3.066260094438678E-002	-7.3470771E-001	-7.3486656E-001	2.3961037E+004	6.134919865675329E+001
-3.094598597053927E-002	-7.3670137E-001	-7.3686635E-001	2.3806039E+004	6.154919865170086E+001
-3.124887334281068E-002	-7.3870403E-001	-7.3886645E-001	2.3639381E+004	6.174919864664844E+001
-3.151049213948554E-002	-7.4070632E-001	-7.4086648E-001	2.3506656E+004	6.194919864159601E+001
-3.180551194282821E-002	-7.4269557E-001	-7.4286640E-001	2.3351158E+004	6.214919863654359E+001
-3.212017908242534E-002	-7.4470133E-001	-7.4486637E-001	2.3184844E+004	6.234919863149116E+001
-3.242075851909348E-002	-7.4668998E-001	-7.4686646E-001	2.3031230E+004	6.254919862643874E+001
-3.270642528660977E-002	-7.4870467E-001	-7.4886656E-001	2.2891670E+004	6.274919862138631E+001
-3.303786362531912E-002	-7.5069880E-001	-7.5086641E-001	2.2722377E+004	6.294919861633389E+001
-3.333458952925661E-002	-7.5269353E-001	-7.5286639E-001	2.2579955E+004	6.314919861128146E+001
-3.365104730677093E-002	-7.5468975E-001	-7.5486648E-001	2.2426932E+004	6.334919860622904E+001
-3.397997418210513E-002	-7.5668275E-001	-7.5686640E-001	2.2268490E+004	6.354919860117661E+001
-3.427273683754661E-002	-7.5868183E-001	-7.5886643E-001	2.2136600E+004	6.374919859612419E+001
-3.463163222988765E-002	-7.6070583E-001	-7.6086646E-001	2.1965637E+004	6.394919859107176E+001
-3.495425834951937E-002	-7.6267767E-001	-7.6286644E-001	2.1819307E+004	6.414919858601934E+001
-3.529261750493268E-002	-7.6468980E-001	-7.6486641E-001	2.1667133E+004	6.434919858096691E+001
-3.564861023591620E-002	-7.6669157E-001	-7.6686639E-001	2.1506914E+004	6.454919857591449E+001
-3.601154217352909E-002	-7.6870042E-001	-7.6886654E-001	2.1345945E+004	6.474919857086206E+001
-3.636874648971508E-002	-7.7068830E-001	-7.7086645E-001	2.1190949E+004	6.494919856580964E+001
-3.671359600020943E-002	-7.7265185E-001	-7.7286643E-001	2.1045387E+004	6.514919856075721E+001
-3.710314718945174E-002	-7.7465862E-001	-7.7486652E-001	2.0878516E+004	6.534919855570479E+001
-3.749381004496904E-002	-7.7666217E-001	-7.7686638E-001	2.0714410E+004	6.554919855065236E+001
-3.788403391361855E-002	-7.7865386E-001	-7.7886635E-001	2.0553615E+004	6.574919854559994E+001
-3.828163350939695E-002	-7.8065652E-001	-7.8086644E-001	2.0392455E+004	6.594919854054751E+001
-3.870932380256994E-002	-7.8266507E-001	-7.8286642E-001	2.0219033E+004	6.614919853549509E+001
-3.913953543383016E-002	-7.8466237E-001	-7.8486657E-001	2.0047820E+004	6.634919853044266E+001
-3.960747573479290E-002	-7.8666389E-001	-7.8686643E-001	1.9861500E+004	6.654919852539024E+001
-4.005235727019008E-002	-7.8868651E-001	-7.8886652E-001	1.9691389E+004	6.674919852033781E+001
-4.051448760608049E-002	-7.9067743E-001	-7.9086655E-001	1.9515918E+004	6.694919851528539E+001
-4.098415668671523E-002	-7.9266346E-001	-7.9286641E-001	1.9340729E+004	6.714919851023296E+001
-4.147055049959048E-002	-7.9466325E-001	-7.9486650E-001	1.9162109E+004	6.734919850518054E+001
-4.200399654168770E-002	-7.9667825E-001	-7.9686648E-001	1.8966725E+004	6.754919850012811E+001
-4.251970846470998E-002	-7.9866254E-001	-7.9886645E-001	1.8783350E+004	6.774919849507569E+001
-4.306577875721328E-002	-8.0065137E-001	-8.0086643E-001	1.8591359E+004	6.794919849002326E+001
-4.363648617923133E-002	-8.0267280E-001	-8.0286652E-001	1.8394533E+004	6.814919848497084E+001
-4.421614310593314E-002	-8.0466461E-001	-8.0486649E-001	1.8198436E+004	6.834919847991841E+001
-4.483700012619218E-002	-8.0665994E-001	-8.0686647E-001	1.7990943E+004	6.854919847486599E+001
-4.545650512292632E-002	-8.0868208E-001	-8.0886650E-001	1.7790238E+004	6.874919846981356E+001
-4.610279047900789E-002	-8.1067687E-001	-8.1086648E-001	1.7584117E+004	6.894919846476114E+001
-4.675717808701141E-002	-8.1266588E-001	-8.1286645E-001	1.7380559E+004	6.914919845970871E+001
-4.746544143436338E-002	-8.1467062E-001	-8.1486642E-001	1.7163447E+004	6.934919845465629E+001
-4.818757782350214E-002	-8.1668073E-001	-8.1686652E-001	1.6947951E+004	6.954919844960386E+001
-4.894317746824473E-002	-8.1868768E-001	-8.1886649E-001	1.6727309E+004	6.974919844455144E+001
-4.971143666732969E-002	-8.2067847E-001	-8.2086647E-001	1.6508846E+004	6.994919843949901E+001
-5.056702961317350E-002	-8.2269138E-001	-8.2286650E-001	1.6269324E+004	7.014919843444659E+001
-5.141393673266226E-002	-8.2467782E-001	-8.2486653E-001	1.6039967E+004	7.034919842939416E+001
-5.230142670797600E-002	-8.2668686E-001	-8.2686639E-001	1.5806201E+004	7.054919842434174E+001
-5.321299424236581E-002	-8.2870454E-001	-8.2886648E-001	1.5573349E+004	7.074919841928931E+001
-5.416135623937046E-002	-8.3069569E-001	-8.3086658E-001	1.5337424E+004	7.094919841423689E+001
-5.513604046605830E-002	-8.3269274E-001	-8.3286643E-001	1.5102513E+004	7.114919840918446E+001
-5.618130620790696E-002	-8.3467704E-001	-8.3486652E-001	1.4856847E+004	7.134919840413204E+001
-5.726125961182271E-002	-8.3668560E-001	-8.3686650E-001	1.4611722E+004	7.154919839907961E+001
-5.838510519328644E-002	-8.3866912E-001	-8.3886647E-001	1.4364437E+004	7.174919839402719E+001
-5.957125365689753E-002	-8.4069538E-001	-8.4086645E-001	1.4112434E+004	7.194919838897476E+001
-6.079912344162730E-002	-8.4267050E-001	-8.4286648E-001	1.3859912E+004	7.214919838392234E+001
-6.208830899791273E-002	-8.4467876E-001	-8.4486651E-001	1.3604474E+004	7.234919837886991E+001
-6.341607190294785E-002	-8.4667337E-001	-8.4686643E-001	1.3351085E+004	7.254919837381749E+001
-6.479055436260470E-002	-8.4867615E-001	-8.4886640E-001	1.3098764E+004	7.274919836876506E+001
-6.626920597659458E-002	-8.5068798E-001	-8.5086656E-001	1.2836852E+004	7.294919836371264E+001
-6.777786304582911E-002	-8.5269201E-001	-8.5286647E-001	1.2580686E+004	7.314919835866021E+001
-6.937697470661164E-002	-8.5467696E-001	-8.5486645E-001	1.2319317E+004	7.334919835360779E+001
-7.101139315834770E-002	-8.5669506E-001	-8.5686654E-001	1.2064191E+004	7.354919834855536E+001
-7.272349228626274E-002	-8.5866243E-001	-8.5886651E-001	1.1807222E+004	7.374919834350294E+001
-7.457629450525083E-002	-8.6070412E-001	-8.6086637E-001	1.1541256E+004	7.394919833845051E+001
-7.647693319121596E-002	-8.6270803E-001	-8.6286646E-001	1.1280631E+004	7.414919833339809E+001
-7.841291338207457E-002	-8.6469632E-001	-8.6486655E-001	1.1027474E+004	7.434919832834566E+001
-8.051147858259555E-002	-8.6670250E-001	-8.6686641E-001	1.0764956E+004	7.454919832329324E+001
-8.268095439356971E-002	-8.6872935E-001	-8.6886650E-001	1.0507007E+004	7.474919831824081E+001
-8.493968234249660E-002	-8.7070984E-001	-8.7086648E-001	1.0250919E+004	7.494919831318839E+001
-8.728382777836560E-002	-8.7272406E-001	-8.7286645E-001	9.9986914E+003	7.514919830813596E+001
-8.975758670318168E-002	-8.7470400E-001	-8.7486655E-001	9.7451816E+003	7.534919830308354E+001
-9.229702065073697E-002	-8.7670875E-001	-8.7686646E-001	9.4987764E+003	7.554919829803112E+001
-9.501483739045424E-002	-8.7869507E-001	-8.7886661E-001	9.2479775E+003	7.574919829297869E+001
-9.803230915196282E-002	-8.8079566E-001	-8.8096642E-001	8.9847490E+003	7.595919828767364E+001
-1.012404675282914E-001	-8.8287067E-001	-8.8306648E-001	8.7205313E+003	7.616919828236860E+001
-1.043292099658542E-001	-8.8487977E-001	-8.8506657E-001	8.4816113E+003	7.636919827731617E+001
-1.075661686521501E-001	-8.8689017E-001	-8.8706642E-001	8.2450664E+003	7.656919827226375E+001
-1.109406669167996E-001	-8.8888204E-001	-8.8906652E-001	8.0122290E+003	7.676919826721132E+001
-1.144735490250706E-001	-8.9088321E-001	-8.9106649E-001	7.7824370E+003	7.696919826215890E+001
-1.181587969679427E-001	-8.9288443E-001	-8.9306647E-001	7.5566479E+003	7.716919825710647E+001
-1.220346629342950E-001	-8.9487332E-001	-8.9506644E-001	7.3329438E+003	7.736919825205405E+001
-1.259407679246243E-001	-8.9686573E-001	-8.9706647E-001	7.1213296E+003	7.756919824700162E+001
-1.301829615267853E-001	-8.9886469E-001	-8.9906651E-001	6.9046260E+003	7.776919824194920E+001
-1.345503346449657E-001	-9.0087318E-001	-9.0106648E-001	6.6954360E+003	7.796919823689677E+001
-1.390812126201597E-001	-9.0287417E-001	-9.0306652E-001	6.4917046E+003	7.816919823184435E+001
-1.438058448803363E-001	-9.0487063E-001	-9.0506655E-001	6.2923076E+003	7.836919822679192E+001
-1.487084319044217E-001	-9.0686142E-001	-9.0706646E-001	6.0982515E+003	7.856919822173950E+001
-1.538307518083724E-001	-9.0885758E-001	-9.0906650E-001	5.9081660E+003	7.876919821668707E+001
-1.591202167048630E-001	-9.1086501E-001	-9.1106653E-001	5.7243828E+003	7.896919821163465E+001
-1.646139673041835E-001	-9.1286701E-001	-9.1306657E-001	5.5455015E+003	7.916919820658222E+001
-1.703259089144362E-001	-9.1488123E-001	-9.1506648E-001	5.3713569E+003	7.936919820152980E+001
-1.770235533000326E-001	-9.1685551E-001	-9.1706645E-001	5.1792856E+003	7.956919819647737E+001
-1.831438164026080E-001	-9.1887200E-001	-9.1906655E-001	5.0172153E+003	7.976919819142495E+001
-1.894206461631809E-001	-9.2088902E-001	-9.2106652E-001	4.8616084E+003	7.996919818637252E+001
-1.959273449320533E-001	-9.2288315E-001	-9.2306644E-001	4.7103335E+003	8.016919818132010E+001
-2.025623980301385E-001	-9.2488378E-001	-9.2506647E-001	4.5659204E+003	8.036919817626767E+001
-2.094380322235576E-001	-9.2689443E-001	-9.2706645E-001	4.4256260E+003	8.056919817121525E+001
-2.164723827987225E-001	-9.2890215E-001	-9.2906654E-001	4.2910884E+003	8.076919816616282E+001
-2.236628743826223E-001	-9.3089479E-001	-9.3106651E-001	4.1620444E+003	8.096919816111040E+001
-2.310271941066255E-001	-9.3288302E-001	-9.3306649E-001	4.0379792E+003	8.116919815605797E+001
-2.385539215294612E-001	-9.3488103E-001	-9.3506646E-001	3.9189507E+003	8.136919815100555E+001
-2.463388169150547E-001	-9.3688685E-001	-9.3706650E-001	3.8032449E+003	8.156919814595312E+001
-2.542881936557129E-001	-9.3888772E-001	-9.3906653E-001	3.6922190E+003	8.176919814090070E+001
-2.623390903645739E-001	-9.4086409E-001	-9.4106650E-001	3.5864426E+003	8.196919813584827E+001
-2.706612982975152E-001	-9.4288123E-001	-9.4306648E-001	3.4836204E+003	8.216919813079585E+001
-2.790697216311819E-001	-9.4488579E-001	-9.4506651E-001	3.3858413E+003	8.236919812574342E+001
-2.876886204434159E-001	-9.4686955E-001	-9.4706655E-001	3.2913000E+003	8.256919812069100E+001
-2.965525920331773E-001	-9.4888401E-001	-9.4906646E-001	3.1997158E+003	8.276919811563857E+001
-3.056439988910640E-001	-9.5086461E-001	-9.5106643E-001	3.1110200E+003	8.296919811058615E+001
-3.149228412615741E-001	-9.5286793E-001	-9.5306653E-001	3.0257188E+003	8.316919810553372E+001
-3.244104600868383E-001	-9.5489025E-001	-9.5506650E-001	2.9434631E+003	8.336919810048130E+001
-3.342002026711390E-001	-9.5687973E-001	-9.5706642E-001	2.8631931E+003	8.356919809542887E+001
-3.441902304030195E-001	-9.5888162E-001	-9.5906657E-001	2.7859060E+003	8.376919809037645E+001
-3.544629935994594E-001	-9.6088123E-001	-9.6106642E-001	2.7108083E+003	8.396919808532402E+001
-3.654583297762812E-001	-9.6288842E-001	-9.6306652E-001	2.6347419E+003	8.416919808027160E+001
-3.773412885684984E-001	-9.6488935E-001	-9.6506649E-001	2.5570732E+003	8.436919807521917E+001
-3.884002847761723E-001	-9.6690035E-001	-9.6706659E-001	2.4894429E+003	8.456919807016675E+001
-3.996117177573524E-001	-9.6889353E-001	-9.6906656E-001	2.4245874E+003	8.476919806511432E+001
-4.111134564871479E-001	-9.7089928E-001	-9.7106647E-001	2.3616335E+003	8.496919806006190E+001
-4.227411714498630E-001	-9.7289962E-001	-9.7306651E-001	2.3014072E+003	8.516919805500947E+001
-4.345177882973967E-001	-9.7489947E-001	-9.7506648E-001	2.2436353E+003	8.536919804995705E+001
-4.464172978342726E-001	-9.7689271E-001	-9.7706646E-001	2.1882949E+003	8.556919804490462E+001
-4.584620887975367E-001	-9.7887939E-001	-9.7906649E-001	2.1351370E+003	8.576919803985220E+001
-4.706902280323155E-001	-9.8088253E-001	-9.8106652E-001	2.0839238E+003	8.596919803479977E+001
-4.829398598564190E-001	-9.8288655E-001	-9.8306650E-001	2.0352152E+003	8.616919802974735E+001
-4.952876568854235E-001	-9.8487020E-001	-9.8506653E-001	1.9884812E+003	8.636919802469492E+001
-5.076957540143106E-001	-9.8687345E-001	-9.8706651E-001	1.9438285E+003	8.656919801964250E+001
-5.200726329655176E-001	-9.8887229E-001	-9.8906648E-001	1.9014119E+003	8.676919801459007E+001
-5.324855454924979E-001	-9.9087876E-001	-9.9106646E-001	1.8608557E+003	8.696919800953765E+001
-5.448072402106572E-001	-9.9288499E-001	-9.9306655E-001	1.8224519E+003	8.716919800448522E+001
-5.569854387189854E-001	-9.9488646E-001	-9.9506652E-001	1.7861984E+003	8.736919799943280E+001
-5.713488545201226E-001	-9.9688280E-001	-9.9706650E-001	1.7447883E+003	8.756919799438037E+001
-5.834618026428657E-001	-9.9888110E-001	-9.9906647E-001	1.7119906E+003	8.776919798932795E+001
-5.955136868925299E-001	-1.0008905E+000	-1.0010666E+000	1.6807179E+003	8.796919798427552E+001
-6.072196808312071E-001	-1.0028883E+000	-1.0030664E+000	1.6516071E+003	8.816919797922310E+001
-6.188563543188117E-001	-1.0048839E+000	-1.0050665E+000	1.6237756E+003	8.836919797417067E+001
-6.303667338467838E-001	-1.0068898E+000	-1.0070665E+000	1.5973080E+003	8.856919796911825E+001
-6.416258097556584E-001	-1.0088894E+000	-1.0090666E+000	1.5723954E+003	8.876919796406582E+001
-6.528148580756445E-001	-1.0108836E+000	-1.0110664E+000	1.5484996E+003	8.896919795901340E+001
-6.639715876649888E-001	-1.0128858E+000	-1.0130665E+000	1.5254957E+003	8.916919795396097E+001
-6.747424512544038E-001	-1.0148920E+000	-1.0150665E+000	1.5041176E+003	8.936919794890855E+001
-6.854080369108910E-001	-1.0168958E+000	-1.0170665E+000	1.4836356E+003	8.956919794385612E+001
-6.960405289890250E-001	-1.0188814E+000	-1.0190666E+000	1.4638248E+003	8.976919793880370E+001
-7.064600817757771E-001	-1.0208714E+000	-1.0210665E+000	1.4450518E+003	8.996919793375127E+001
-7.167571841563833E-001	-1.0228919E+000	-1.0230665E+000	1.4271107E+003	9.016919792869885E+001
-7.269174768980129E-001	-1.0248780E+000	-1.0250664E+000	1.4098960E+003	9.036919792364642E+001
-7.371360561905460E-001	-1.0268902E+000	-1.0270666E+000	1.3930809E+003	9.056919791859400E+001
-7.470129394899558E-001	-1.0288941E+000	-1.0290666E+000	1.3773444E+003	9.076919791354158E+001
-7.577849239355885E-001	-1.0308807E+000	-1.0310665E+000	1.3603870E+003	9.096919790848915E+001
-7.690662699381980E-001	-1.0328900E+000	-1.0330665E+000	1.3430442E+003	9.116919790343673E+001
-7.786923850508494E-001	-1.0348891E+000	-1.0350664E+000	1.3290089E+003	9.136919789838430E+001
-7.881588701944366E-001	-1.0368785E+000	-1.0370666E+000	1.3155704E+003	9.156919789333188E+001
-7.976327940923049E-001	-1.0388867E+000	-1.0390666E+000	1.3024623E+003	9.176919788827945E+001
-8.070885216956647E-001	-1.0408762E+000	-1.0410665E+000	1.2896678E+003	9.196919788322703E+001
-8.164071215489805E-001	-1.0428680E+000	-1.0430665E+000	1.2773872E+003	9.216919787817460E+001
-8.259920759249084E-001	-1.0448788E+000	-1.0450664E+000	1.2649987E+003	9.236919787312218E+001
-8.353227899999052E-001	-1.0468779E+000	-1.0470666E+000	1.2532615E+003	9.256919786806975E+001
-8.447613101241422E-001	-1.0488812E+000	-1.0490665E+000	1.2416302E+003	9.276919786301733E+001
-8.544834047184224E-001	-1.0508672E+000	-1.0510665E+000	1.2298275E+003	9.296919785796490E+001
-8.642157727594828E-001	-1.0528911E+000	-1.0530665E+000	1.2183197E+003	9.316919785291248E+001
-8.738973983172826E-001	-1.0548849E+000	-1.0550665E+000	1.2071039E+003	9.336919784786005E+001
-8.838342634661132E-001	-1.0568973E+000	-1.0570666E+000	1.1958093E+003	9.356919784280763E+001
-8.936680796853942E-001	-1.0588832E+000	-1.0590665E+000	1.1848730E+003	9.376919783775520E+001
-9.037679057154406E-001	-1.0608797E+000	-1.0610664E+000	1.1738408E+003	9.396919783270278E+001
-9.139553518741987E-001	-1.0628784E+000	-1.0630665E+000	1.1629435E+003	9.416919782765035E+001
-9.245213662483280E-001	-1.0648719E+000	-1.0650665E+000	1.1518088E+003	9.436919782259793E+001
-9.352358658703013E-001	-1.0668888E+000	-1.0670664E+000	1.1407698E+003	9.456919781754550E+001
-9.463091535987886E-001	-1.0688716E+000	-1.0690665E+000	1.1295164E+003	9.476919781249308E+001
-9.604586515736155E-001	-1.0708854E+000	-1.0710665E+000	1.1149729E+003	9.496919780744065E+001
-9.720596512800750E-001	-1.0728896E+000	-1.0730665E+000	1.1037281E+003	9.516919780238823E+001
-9.838461819064706E-001	-1.0748898E+000	-1.0750664E+000	1.0925385E+003	9.536919779733580E+001
-9.957130217667096E-001	-1.0768757E+000	-1.0770665E+000	1.0815121E+003	9.556919779228338E+001
-1.008065065871627E+000	-1.0788713E+000	-1.0790665E+000	1.0702397E+003	9.576919778723095E+001
-1.020863335976660E+000	-1.0808785E+000	-1.0810665E+000	1.0587886E+003	9.596919778217853E+001
-1.034215133121908E+000	-1.0828928E+000	-1.0830665E+000	1.0470673E+003	9.616919777712610E+001
-1.047870629769065E+000	-1.0848962E+000	-1.0850664E+000	1.0353341E+003	9.636919777207368E+001
-1.063093810405586E+000	-1.0869762E+000	-1.0871665E+000	1.0224650E+003	9.657919776676863E+001
-1.080492874484957E+000	-1.0890275E+000	-1.0892665E+000	1.0078989E+003	9.678919776146358E+001
-1.095549808667291E+000	-1.0910283E+000	-1.0912665E+000	9.9587286E+002	9.698919775641116E+001
-1.111233499796548E+000	-1.0930437E+000	-1.0932665E+000	9.8363098E+002	9.718919775135873E+001
-1.127667087487151E+000	-1.0950371E+000	-1.0952665E+000	9.7106415E+002	9.738919774630631E+001
-1.146759827551591E+000	-1.0970522E+000	-1.0972666E+000	9.5665387E+002	9.758919774125388E+001
-1.166504581794644E+000	-1.0990378E+000	-1.0992665E+000	9.4216327E+002	9.778919773620146E+001
-1.185024470741309E+000	-1.1010561E+000	-1.1012665E+000	9.2914209E+002	9.798919773114903E+001
-1.204433358690434E+000	-1.1030515E+000	-1.1032665E+000	9.1582611E+002	9.818919772609661E+001
-1.224373342634059E+000	-1.1050369E+000	-1.1052665E+000	9.0253259E+002	9.838919772104418E+001
-1.245265978280784E+000	-1.1070324E+000	-1.1072665E+000	8.8899274E+002	9.858919771599176E+001
-1.267187363436431E+000	-1.1090469E+000	-1.1092665E+000	8.7520361E+002	9.878919771093933E+001
-1.290147635325489E+000	-1.1110616E+000	-1.1112665E+000	8.6118945E+002	9.898919770588691E+001
-1.313901045872848E+000	-1.1130477E+000	-1.1132665E+000	8.4713208E+002	9.918919770083448E+001
-1.340906855817083E+000	-1.1150588E+000	-1.1152664E+000	8.3157062E+002	9.938919769578206E+001
-1.370135109744915E+000	-1.1170399E+000	-1.1172665E+000	8.1527722E+002	9.958919769072963E+001
-1.397652863104599E+000	-1.1190383E+000	-1.1192665E+000	8.0065540E+002	9.978919768567721E+001
-1.426481063302411E+000	-1.1210376E+000	-1.1212665E+000	7.8587628E+002	9.998919768062478E+001
-1.457046683117447E+000	-1.1230406E+000	-1.1232665E+000	7.7076495E+002	1.001891976755724E+002
-1.488858492094650E+000	-1.1250415E+000	-1.1252666E+000	7.5564032E+002	1.003891976705199E+002
-1.522394257194271E+000	-1.1270453E+000	-1.1272665E+000	7.4031104E+002	1.005891976654675E+002
-1.562978111528484E+000	-1.1290411E+000	-1.1292665E+000	7.2236523E+002	1.007891976604151E+002
-1.600159543999331E+000	-1.1310468E+000	-1.1312666E+000	7.0683374E+002	1.009891976553627E+002
-1.639180947407702E+000	-1.1330401E+000	-1.1332664E+000	6.9122333E+002	1.011891976503102E+002
-1.680095351810081E+000	-1.1350487E+000	-1.1352665E+000	6.7558594E+002	1.013891976452578E+002
-1.724394715849368E+000	-1.1370434E+000	-1.1372665E+000	6.5938696E+002	1.015891976402054E+002
-1.775929748522053E+000	-1.1390632E+000	-1.1392666E+000	6.4138983E+002	1.017891976351530E+002
-1.823737339959258E+000	-1.1410586E+000	-1.1412665E+000	6.2567047E+002	1.019891976301005E+002
-1.874142725671099E+000	-1.1430504E+000	-1.1432664E+000	6.0990576E+002	1.021891976250481E+002
-1.930219126464024E+000	-1.1450359E+000	-1.1452665E+000	5.9321545E+002	1.023891976199957E+002
-1.991134436239324E+000	-1.1470497E+000	-1.1472665E+000	5.7607849E+002	1.025891976149433E+002
-2.050068198147816E+000	-1.1490626E+000	-1.1492665E+000	5.6049969E+002	1.027891976098908E+002
-2.113737306052862E+000	-1.1510475E+000	-1.1512665E+000	5.4455560E+002	1.029891976048384E+002
-2.187537270557996E+000	-1.1530491E+000	-1.1532664E+000	5.2709918E+002	1.031891975997860E+002
-2.256916771129688E+000	-1.1550475E+000	-1.1552664E+000	5.1178119E+002	1.033891975947336E+002
-2.334992901419966E+000	-1.1570503E+000	-1.1572665E+000	4.9552625E+002	1.035891975896811E+002
-2.417539871384367E+000	-1.1590376E+000	-1.1592666E+000	4.7942853E+002	1.037891975846287E+002
-2.499548857951378E+000	-1.1610612E+000	-1.1612664E+000	4.6450830E+002	1.039891975795763E+002
-2.596083085789694E+000	-1.1630503E+000	-1.1632664E+000	4.4800195E+002	1.041891975745239E+002
-2.687983108671745E+000	-1.1650497E+000	-1.1652665E+000	4.3342896E+002	1.043891975694714E+002
-2.795482032795071E+000	-1.1670641E+000	-1.1672666E+000	4.1748224E+002	1.045891975644190E+002
-2.899920573766401E+000	-1.1690665E+000	-1.1692665E+000	4.0313745E+002	1.047891975593666E+002
-3.016501052207943E+000	-1.1710722E+000	-1.1712664E+000	3.8822205E+002	1.049891975543142E+002
-3.138127133182657E+000	-1.1730635E+000	-1.1732664E+000	3.7381006E+002	1.051891975492617E+002
-3.262738087685463E+000	-1.1750711E+000	-1.1752665E+000	3.6014877E+002	1.053891975442093E+002
-3.401639078783894E+000	-1.1770595E+000	-1.1772665E+000	3.4602716E+002	1.055891975391569E+002
-3.544834618125098E+000	-1.1790529E+000	-1.1792665E+000	3.3261154E+002	1.057891975341045E+002
-3.693780072489574E+000	-1.1810477E+000	-1.1812665E+000	3.1973956E+002	1.059891975290520E+002
-3.850551238777697E+000	-1.1830479E+000	-1.1832665E+000	3.0724118E+002	1.061891975239996E+002
-4.020469689855766E+000	-1.1850587E+000	-1.1852665E+000	2.9475629E+002	1.063891975189472E+002
-4.200087524291591E+000	-1.1870521E+000	-1.1872666E+000	2.8262558E+002	1.065891975138948E+002
-4.386513734417978E+000	-1.1890430E+000	-1.1892666E+000	2.7106790E+002	1.067891975088423E+002
-4.583057333147146E+000	-1.1910437E+000	-1.1912665E+000	2.5987973E+002	1.069891975037899E+002
-4.788866648429391E+000	-1.1930603E+000	-1.1932665E+000	2.4913208E+002	1.071891974987375E+002
-5.006975296504649E+000	-1.1950520E+000	-1.1952665E+000	2.3867743E+002	1.073891974936851E+002
-5.237910182196266E+000	-1.1970567E+000	-1.1972666E+000	2.2853706E+002	1.075891974886326E+002
-5.474882544235850E+000	-1.1990722E+000	-1.1992666E+000	2.1901332E+002	1.077891974835802E+002
-5.723465745073383E+000	-1.2010751E+000	-1.2012664E+000	2.0985101E+002	1.079891974785278E+002
-5.988205200453976E+000	-1.2030604E+000	-1.2032665E+000	2.0090500E+002	1.081891974734754E+002
-6.258370486584376E+000	-1.2050483E+000	-1.2052665E+000	1.9254985E+002	1.083891974684229E+002
-6.546251476081324E+000	-1.2070681E+000	-1.2072666E+000	1.8439073E+002	1.085891974633705E+002
-6.842372875838056E+000	-1.2090755E+000	-1.2092665E+000	1.7670412E+002	1.087891974583181E+002
-7.153985227519456E+000	-1.2110786E+000	-1.2112665E+000	1.6928728E+002	1.089891974532657E+002
-7.470912971734435E+000	-1.2130580E+000	-1.2132665E+000	1.6237079E+002	1.091891974482132E+002
-7.796885750258596E+000	-1.2150694E+000	-1.2152666E+000	1.5584035E+002	1.093891974431608E+002
-8.139646584755120E+000	-1.2170724E+000	-1.2172666E+000	1.4952399E+002	1.095891974381084E+002
-8.493987187236343E+000	-1.2190791E+000	-1.2192665E+000	1.4352260E+002	1.097891974330560E+002
-8.873932657733789E+000	-1.2210925E+000	-1.2212665E+000	1.3760443E+002	1.099891974280035E+002
-9.269872413335747E+000	-1.2231189E+000	-1.2232664E+000	1.3194560E+002	1.101891974229511E+002
-9.666840813057263E+000	-1.2250965E+000	-1.2252665E+000	1.2673183E+002	1.103891974178987E+002
-1.008637794588695E+001	-1.2270868E+000	-1.2272666E+000	1.2165782E+002	1.105891974128463E+002
-1.050563231015963E+001	-1.2290787E+000	-1.2292665E+000	1.1699236E+002	1.107891974077938E+002
-1.098660436765269E+001	-1.2311831E+000	-1.2313665E+000	1.1206220E+002	1.109991974024888E+002
-1.149000483061997E+001	-1.2332677E+000	-1.2334665E+000	1.0733395E+002	1.112091973971837E+002
-1.197568821528601E+001	-1.2352611E+000	-1.2354665E+000	1.0314740E+002	1.114091973921313E+002
-1.247161928603174E+001	-1.2372631E+000	-1.2374666E+000	9.9206291E+001	1.116091973870789E+002
-1.297115364474780E+001	-1.2392764E+000	-1.2394665E+000	9.5540955E+001	1.118091973820265E+002
-1.350535276498381E+001	-1.2412691E+000	-1.2414665E+000	9.1909416E+001	1.120091973769740E+002
-1.406633000471151E+001	-1.2432837E+000	-1.2434664E+000	8.8387215E+001	1.122091973719216E+002
-1.464268809408293E+001	-1.2452931E+000	-1.2454665E+000	8.5045395E+001	1.124091973668692E+002
-1.524289340726914E+001	-1.2472738E+000	-1.2474666E+000	8.1826576E+001	1.126091973618168E+002
-1.586517300113798E+001	-1.2492765E+000	-1.2494664E+000	7.8743324E+001	1.128091973567643E+002
-1.651926766366370E+001	-1.2513022E+000	-1.2514665E+000	7.5748047E+001	1.130091973517119E+002
-1.719942726691568E+001	-1.2533023E+000	-1.2534665E+000	7.2868843E+001	1.132091973466595E+002
-1.790241415660128E+001	-1.2552981E+000	-1.2554666E+000	7.0118927E+001	1.134091973416071E+002
-1.863179720488807E+001	-1.2572968E+000	-1.2574666E+000	6.7481239E+001	1.136091973365546E+002
-1.937988997978960E+001	-1.2592951E+000	-1.2594665E+000	6.4979477E+001	1.138091973315022E+002
-2.016015828304548E+001	-1.2612894E+000	-1.2614665E+000	6.2563465E+001	1.140091973264498E+002
-2.096612938420852E+001	-1.2632848E+000	-1.2634665E+000	6.0253601E+001	1.142091973213974E+002
-2.181006263362043E+001	-1.2652863E+000	-1.2654665E+000	5.8013878E+001	1.144091973163449E+002
-2.270308407363979E+001	-1.2672844E+000	-1.2674665E+000	5.5819923E+001	1.146091973112925E+002
-2.363301159654350E+001	-1.2692683E+000	-1.2694665E+000	5.3707428E+001	1.148091973062401E+002
-2.453106668017081E+001	-1.2712822E+000	-1.2714665E+000	5.1823357E+001	1.150091973011877E+002
-2.545448741161380E+001	-1.2732848E+000	-1.2734665E+000	5.0022018E+001	1.152091972961352E+002
-2.648943055000433E+001	-1.2752831E+000	-1.2754666E+000	4.8143093E+001	1.154091972910828E+002
-2.764850733339654E+001	-1.2772671E+000	-1.2774665E+000	4.6196602E+001	1.156091972860304E+002
-2.878692935410550E+001	-1.2792798E+000	-1.2794665E+000	4.4439606E+001	1.158091972809780E+002
-2.992770510844366E+001	-1.2812893E+000	-1.2814665E+000	4.2812817E+001	1.160091972759255E+002
-3.106531281968643E+001	-1.2832906E+000	-1.2834665E+000	4.1309437E+001	1.162091972708731E+002
-3.229775984757623E+001	-1.2852954E+000	-1.2854666E+000	3.9795185E+001	1.164091972658207E+002
-3.363635367520010E+001	-1.2872794E+000	-1.2874665E+000	3.8270477E+001	1.166091972607683E+002
-3.491671818913784E+001	-1.2892904E+000	-1.2894665E+000	3.6924732E+001	1.168091972557158E+002
-3.633836427324223E+001	-1.2912853E+000	-1.2914665E+000	3.5535042E+001	1.170091972506634E+002
-3.773998384059428E+001	-1.2933000E+000	-1.2934666E+000	3.4268696E+001	1.172091972456110E+002
-3.909826608634040E+001	-1.2952847E+000	-1.2954665E+000	3.3128956E+001	1.174091972405586E+002
-4.050618703862702E+001	-1.2972966E+000	-1.2974666E+000	3.2027122E+001	1.176091972355061E+002
-4.208227614183295E+001	-1.2992984E+000	-1.2994665E+000	3.0875193E+001	1.178091972304537E+002
-4.358429766079746E+001	-1.3012873E+000	-1.3014665E+000	2.9856792E+001	1.180091972254013E+002
-4.500339784805999E+001	-1.3033004E+000	-1.3034664E+000	2.8960045E+001	1.182091972203489E+002
-4.637308262751515E+001	-1.3053069E+000	-1.3054665E+000	2.8147943E+001	1.184091972152964E+002
-4.803066560930125E+001	-1.3073040E+000	-1.3074665E+000	2.7218111E+001	1.186091972102440E+002
-4.945794909097731E+001	-1.3093073E+000	-1.3094665E+000	2.6473143E+001	1.188091972051916E+002
-5.097596722557425E+001	-1.3113242E+000	-1.3114665E+000	2.5724361E+001	1.190091972001392E+002
-5.289631492102217E+001	-1.3133252E+000	-1.3134664E+000	2.4828293E+001	1.192091971950867E+002
-5.486350794930570E+001	-1.3153093E+000	-1.3154665E+000	2.3974211E+001	1.194091971900343E+002
-5.679774282308381E+001	-1.3173138E+000	-1.3174666E+000	2.3193066E+001	1.196091971849819E+002
-5.875963205815433E+001	-1.3193318E+000	-1.3194665E+000	2.2453030E+001	1.198091971799295E+002
-6.076496732964802E+001	-1.3213238E+000	-1.3214666E+000	2.1744827E+001	1.200091971748770E+002
-6.264869853536572E+001	-1.3233067E+000	-1.3234664E+000	2.1122652E+001	1.202091971698246E+002
-6.465481783257042E+001	-1.3253113E+000	-1.3254665E+000	2.0498260E+001	1.204091971647722E+002
-6.687702812413215E+001	-1.3273230E+000	-1.3274665E+000	1.9847218E+001	1.206091971597198E+002
-6.871316374240257E+001	-1.3293142E+000	-1.3294665E+000	1.9345846E+001	1.208091971546673E+002
-7.094442710097917E+001	-1.3313177E+000	-1.3314664E+000	1.8765640E+001	1.210091971496149E+002
-7.311805861390894E+001	-1.3333217E+000	-1.3334664E+000	1.8235189E+001	1.212091971445625E+002
-7.507890866294701E+001	-1.3353275E+000	-1.3354665E+000	1.7785654E+001	1.214091971395101E+002
-7.730171867454885E+001	-1.3373088E+000	-1.3374666E+000	1.7299858E+001	1.216091971344576E+002
-7.934003419832817E+001	-1.3393291E+000	-1.3394665E+000	1.6880875E+001	1.218091971294052E+002
-8.146273812847602E+001	-1.3413112E+000	-1.3414664E+000	1.6465334E+001	1.220091971243528E+002
-8.416931128015321E+001	-1.3433217E+000	-1.3434665E+000	1.5959756E+001	1.222091971193004E+002
-8.713443862986401E+001	-1.3453209E+000	-1.3454665E+000	1.5439601E+001	1.224091971142479E+002
-8.940148842253660E+001	-1.3473365E+000	-1.3474665E+000	1.5070627E+001	1.226091971091955E+002
-9.189246712141858E+001	-1.3493229E+000	-1.3494666E+000	1.4683716E+001	1.228091971041431E+002
-9.448024661416639E+001	-1.3513310E+000	-1.3514665E+000	1.4302789E+001	1.230091970990907E+002
-9.693594087440715E+001	-1.3533128E+000	-1.3534665E+000	1.3960898E+001	1.232091970940382E+002
-1.003111307999452E+002	-1.3553121E+000	-1.3554665E+000	1.3511084E+001	1.234091970889858E+002
-1.029204603993167E+002	-1.3573272E+000	-1.3574666E+000	1.3188118E+001	1.236091970839334E+002
-1.045522733545631E+002	-1.3593237E+000	-1.3594666E+000	1.3001379E+001	1.238091970788810E+002
-1.061685422358873E+002	-1.3613083E+000	-1.3614665E+000	1.2822144E+001	1.240091970738285E+002
-1.102144502177539E+002	-1.3634008E+000	-1.3635665E+000	1.2370436E+001	1.242191970685235E+002
-1.141137539178066E+002	-1.3654999E+000	-1.3656665E+000	1.1966128E+001	1.244291970632185E+002
-1.180281224758987E+002	-1.3674825E+000	-1.3676665E+000	1.1586074E+001	1.246291970581660E+002
-1.208521458156524E+002	-1.3694962E+000	-1.3696666E+000	1.1331998E+001	1.248291970531136E+002
-1.234968905427286E+002	-1.3714893E+000	-1.3716666E+000	1.1105456E+001	1.250291970480612E+002
-1.256681514478319E+002	-1.3734953E+000	-1.3736665E+000	1.0929542E+001	1.252291970430088E+002
-1.298386238534973E+002	-1.3754975E+000	-1.3756665E+000	1.0593901E+001	1.254291970379563E+002
-1.328072920505142E+002	-1.3774998E+000	-1.3776666E+000	1.0372170E+001	1.256291970329039E+002
-1.361988256242546E+002	-1.3794937E+000	-1.3796666E+000	1.0128529E+001	1.258291970278515E+002
-1.385399804169363E+002	-1.3815023E+000	-1.3816665E+000	9.9718676E+000	1.260291970227991E+002
-1.411246373994009E+002	-1.3835143E+000	-1.3836665E+000	9.8034925E+000	1.262291970177466E+002
-1.444445754816747E+002	-1.3855143E+000	-1.3856666E+000	9.5920134E+000	1.264291970126942E+002
-1.468605516146099E+002	-1.3875184E+000	-1.3876666E+000	9.4478636E+000	1.266291970076418E+002
-1.500201689142752E+002	-1.3895296E+000	-1.3896666E+000	9.2622852E+000	1.268291970025894E+002
-1.528016408079070E+002	-1.3915179E+000	-1.3916667E+000	9.1066942E+000	1.270291969975369E+002
-1.549550905249282E+002	-1.3935084E+000	-1.3936665E+000	8.9929829E+000	1.272291969924845E+002
-1.574898270284780E+002	-1.3955106E+000	-1.3956666E+000	8.8609571E+000	1.274291969874321E+002
-1.603266442941165E+002	-1.3975391E+000	-1.3976666E+000	8.7168236E+000	1.276291969823797E+002
-1.638106834774923E+002	-1.3995401E+000	-1.3996665E+000	8.5436430E+000	1.278291969773272E+002
-1.658451269878551E+002	-1.4015379E+000	-1.4016666E+000	8.4508839E+000	1.280291969722748E+002
-1.687117166151534E+002	-1.4035212E+000	-1.4036665E+000	8.3190498E+000	1.282291969672224E+002
-1.738894295238315E+002	-1.4055427E+000	-1.4056666E+000	8.0829678E+000	1.284291969621700E+002
-1.758474908696819E+002	-1.4075567E+000	-1.4076667E+000	8.0044174E+000	1.286291969571175E+002
-1.789821093087830E+002	-1.4095225E+000	-1.4096665E+000	7.8752146E+000	1.288291969520651E+002
-1.853490524843432E+002	-1.4115399E+000	-1.4116664E+000	7.6155767E+000	1.290291969470127E+002
-1.887807586522865E+002	-1.4135367E+000	-1.4136665E+000	7.4877157E+000	1.292291969419603E+002
-1.927244763925773E+002	-1.4155432E+000	-1.4156666E+000	7.3449063E+000	1.294291969369078E+002
-1.964668173768359E+002	-1.4175344E+000	-1.4176667E+000	7.2151337E+000	1.296291969318554E+002
-2.008894170103699E+002	-1.4195591E+000	-1.4196665E+000	7.0663710E+000	1.298291969268030E+002
-2.051395485936373E+002	-1.4215424E+000	-1.4216664E+000	6.9296360E+000	1.300291969217506E+002
-2.079302355188903E+002	-1.4235443E+000	-1.4236665E+000	6.8462591E+000	1.302291969166981E+002
-2.140603992957317E+002	-1.4255776E+000	-1.4256675E+000	6.6596980E+000	1.304292969116432E+002
-2.165892800723856E+002	-1.4275657E+000	-1.4276726E+000	6.5911188E+000	1.306298969065756E+002
-2.180002941516736E+002	-1.4295745E+000	-1.4296774E+000	6.5576725E+000	1.308302969015131E+002
-2.203398433637528E+002	-1.4315780E+000	-1.4316800E+000	6.4971366E+000	1.310305968964531E+002
-2.241011746809290E+002	-1.4335722E+000	-1.4336840E+000	6.3969865E+000	1.312309968913905E+002
-2.258407363433826E+002	-1.4355886E+000	-1.4356900E+000	6.3566413E+000	1.314315968863230E+002
-2.288133931170792E+002	-1.4375995E+000	-1.4376925E+000	6.2828469E+000	1.316317968812655E+002
-2.318564091680255E+002	-1.4395970E+000	-1.4396925E+000	6.2090025E+000	1.318317968762130E+002
-2.389075680429719E+002	-1.4416064E+000	-1.4416959E+000	6.0341597E+000	1.320321968711505E+002
-2.408546229564536E+002	-1.4436053E+000	-1.4436994E+000	5.9936790E+000	1.322324968660905E+002
-2.434247353978362E+002	-1.4455897E+000	-1.4457028E+000	5.9385486E+000	1.324328968610280E+002
-2.472748542420570E+002	-1.4476011E+000	-1.4477073E+000	5.8542185E+000	1.326332968559655E+002
-2.479836490090920E+002	-1.4496123E+000	-1.4497093E+000	5.8455963E+000	1.328334968509080E+002
-2.503343367571837E+002	-1.4516150E+000	-1.4517124E+000	5.7987051E+000	1.330337968458480E+002
-2.528518451790146E+002	-1.4536130E+000	-1.4537126E+000	5.7488728E+000	1.332337968407955E+002
-2.549001557775382E+002	-1.4556117E+000	-1.4557134E+000	5.7105169E+000	1.334338968357406E+002
-2.612396812767222E+002	-1.4576265E+000	-1.4577161E+000	5.5796518E+000	1.336341968306806E+002
-2.653113961527192E+002	-1.4596363E+000	-1.4597220E+000	5.5015969E+000	1.338347968256130E+002
-2.710470476188420E+002	-1.4616460E+000	-1.4617254E+000	5.3925915E+000	1.340350968205530E+002
-2.736686688706012E+002	-1.4636542E+000	-1.4637280E+000	5.3482709E+000	1.342353968154930E+002
-2.746560324087527E+002	-1.4656440E+000	-1.4657313E+000	5.3362889E+000	1.344356968104330E+002
-2.774951203108499E+002	-1.4676424E+000	-1.4677334E+000	5.2888947E+000	1.346358968053755E+002
-2.825438160538015E+002	-1.4696513E+000	-1.4697354E+000	5.2014990E+000	1.348360968003180E+002
-2.860631695044819E+002	-1.4716489E+000	-1.4717380E+000	5.1444893E+000	1.350363967952580E+002
-2.889864422146647E+002	-1.4736562E+000	-1.4737413E+000	5.0993958E+000	1.352366967901980E+002
-2.908014543588437E+002	-1.4756649E+000	-1.4757435E+000	5.0744753E+000	1.354368967851406E+002
-2.931262882711494E+002	-1.4776750E+000	-1.4777441E+000	5.0410867E+000	1.356369967800856E+002
-2.962067018140842E+002	-1.4796665E+000	-1.4797499E+000	4.9953847E+000	1.358375967750180E+002
-3.019694919735648E+002	-1.4816978E+000	-1.4817535E+000	4.9067798E+000	1.360378967699580E+002
-3.082287859129478E+002	-1.4836739E+000	-1.4837568E+000	4.8135476E+000	1.362382967648955E+002
-3.117142244073630E+002	-1.4856869E+000	-1.4857641E+000	4.7661824E+000	1.364389967598254E+002
-3.158415866437574E+002	-1.4876927E+000	-1.4877673E+000	4.7102494E+000	1.366392967547654E+002
-3.206627889914007E+002	-1.4896777E+000	-1.4897701E+000	4.6456208E+000	1.368395967497054E+002
-3.229261533183235E+002	-1.4916940E+000	-1.4917734E+000	4.6193037E+000	1.370398967446454E+002
-3.277162770316239E+002	-1.4936905E+000	-1.4937754E+000	4.5578771E+000	1.372400967395879E+002
-3.272626858327367E+002	-1.4957103E+000	-1.4957774E+000	4.5703659E+000	1.374402967345304E+002
-3.322059942793786E+002	-1.4977090E+000	-1.4977794E+000	4.5083747E+000	1.376404967294729E+002
-3.353377405685628E+002	-1.4997212E+000	-1.4997821E+000	4.4722710E+000	1.378407967244129E+002
-3.368675016341786E+002	-1.5017395E+000	-1.5017864E+000	4.4579530E+000	1.380411967193504E+002
-3.390793252552257E+002	-1.5037438E+000	-1.5037899E+000	4.4347844E+000	1.382415967142879E+002
-3.430258105768912E+002	-1.5057517E+000	-1.5057924E+000	4.3896165E+000	1.384417967092304E+002
-3.501850659028528E+002	-1.5077456E+000	-1.5077932E+000	4.3055682E+000	1.386418967041755E+002
-3.537799738283443E+002	-1.5097710E+000	-1.5097971E+000	4.2675424E+000	1.388422966991129E+002
-3.580566417308977E+002	-1.5117676E+000	-1.5118020E+000	4.2221465E+000	1.390427966940479E+002
-3.619023607761919E+002	-1.5137863E+000	-1.5138053E+000	4.1828585E+000	1.392430966889879E+002
-3.661683833150382E+002	-1.5157795E+000	-1.5158066E+000	4.1395698E+000	1.394431966839329E+002
-3.672971363781253E+002	-1.5178072E+000	-1.5178065E+000	4.1323690E+000	1.396431966788805E+002
-3.698927301507383E+002	-1.5197889E+000	-1.5198075E+000	4.1087289E+000	1.398432966738255E+002
-3.759813370626307E+002	-1.5217766E+000	-1.5218101E+000	4.0474792E+000	1.400435966687655E+002
-3.776441035045372E+002	-1.5237806E+000	-1.5238134E+000	4.0349646E+000	1.402438966637055E+002
-3.785982159066298E+002	-1.5257866E+000	-1.5258154E+000	4.0300946E+000	1.404440966586481E+002
-3.817339878330913E+002	-1.5277717E+000	-1.5278187E+000	4.0021892E+000	1.406444966535855E+002
-3.844877237635692E+002	-1.5297917E+000	-1.5298226E+000	3.9787791E+000	1.408447966485255E+002
-3.876420118068072E+002	-1.5318011E+000	-1.5318226E+000	3.9515870E+000	1.410447966434731E+002
-3.885454218187570E+002	-1.5337856E+000	-1.5338225E+000	3.9475064E+000	1.412447966384207E+002
-3.913869742914667E+002	-1.5357947E+000	-1.5358226E+000	3.9239802E+000	1.414447966333682E+002
-4.025682605367142E+002	-1.5377977E+000	-1.5378225E+000	3.8199675E+000	1.416447966283158E+002
-4.046164099714388E+002	-1.5398067E+000	-1.5398233E+000	3.8055964E+000	1.418448966232609E+002
-4.103469229056985E+002	-1.5418007E+000	-1.5418272E+000	3.7573104E+000	1.420452966181983E+002
-4.152882252518029E+002	-1.5438029E+000	-1.5438285E+000	3.7174251E+000	1.422453966131434E+002
-4.220513723723761E+002	-1.5458061E+000	-1.5458286E+000	3.6626017E+000	1.424453966080910E+002
-4.225552046112681E+002	-1.5478126E+000	-1.5478294E+000	3.6629832E+000	1.426454966030360E+002
-4.267930812201248E+002	-1.5498198E+000	-1.5498314E+000	3.6313143E+000	1.428456965979785E+002
-4.299797130506881E+002	-1.5518203E+000	-1.5518326E+000	3.6090546E+000	1.430457965929236E+002
-4.322454731048128E+002	-1.5538259E+000	-1.5538324E+000	3.5947764E+000	1.432457965878712E+002
-4.315814185421277E+002	-1.5558355E+000	-1.5558332E+000	3.6049640E+000	1.434458965828162E+002
-4.358230709932295E+002	-1.5578229E+000	-1.5578343E+000	3.5744388E+000	1.436459965777613E+002
-4.385158849097716E+002	-1.5598298E+000	-1.5598344E+000	3.5570657E+000	1.438459965727088E+002
-4.422629149992722E+002	-1.5618316E+000	-1.5618343E+000	3.5314550E+000	1.440459965676564E+002
-4.456981061602382E+002	-1.5638183E+000	-1.5638344E+000	3.5086942E+000	1.442459965626040E+002
-4.485137986596205E+002	-1.5658062E+000	-1.5658344E+000	3.4910991E+000	1.444459965575516E+002
-4.517299316215967E+002	-1.5678416E+000	-1.5678343E+000	3.4707501E+000	1.446459965524991E+002
-4.592556302379853E+002	-1.5698340E+000	-1.5698344E+000	3.4182138E+000	1.448459965474467E+002
-4.656562230505908E+002	-1.5718266E+000	-1.5718344E+000	3.3755085E+000	1.450459965423943E+002
-4.686350575661199E+002	-1.5738471E+000	-1.5738343E+000	3.3583639E+000	1.452459965373419E+002
-4.690905783171006E+002	-1.5758486E+000	-1.5758344E+000	3.3593695E+000	1.454459965322894E+002
-4.755709652587138E+002	-1.5778648E+000	-1.5778342E+000	3.3178325E+000	1.456459965272370E+002
-4.806587527874084E+002	-1.5798602E+000	-1.5798343E+000	3.2868645E+000	1.458459965221846E+002
-4.854940637558229E+002	-1.5818574E+000	-1.5818342E+000	3.2582426E+000	1.460459965171322E+002
-4.946330865007944E+002	-1.5838538E+000	-1.5838343E+000	3.2020783E+000	1.462459965120797E+002
-5.010267811729791E+002	-1.5858569E+000	-1.5858341E+000	3.1652138E+000	1.464459965070273E+002
-5.023251289099508E+002	-1.5878618E+000	-1.5878345E+000	3.1610241E+000	1.466459965019749E+002
-5.026854145197094E+002	-1.5898386E+000	-1.5898343E+000	3.1626909E+000	1.468459964969225E+002
-5.060172724994148E+002	-1.5918355E+000	-1.5918344E+000	3.1458125E+000	1.470459964918700E+002
-5.145983277707941E+002	-1.5938313E+000	-1.5938343E+000	3.0972338E+000	1.472459964868176E+002
-5.178408114158656E+002	-1.5958536E+000	-1.5958344E+000	3.0817454E+000	1.474459964817652E+002
-5.288913724860377E+002	-1.5978495E+000	-1.5978342E+000	3.0211298E+000	1.476459964767128E+002
-5.284775236523328E+002	-1.5998404E+000	-1.5998343E+000	3.0272629E+000	1.478459964716603E+002
-5.283527635025039E+002	-1.6018523E+000	-1.6018344E+000	3.0317855E+000	1.480459964666079E+002
-5.303225823357016E+002	-1.6038491E+000	-1.6038343E+000	3.0242896E+000	1.482459964615555E+002
-5.335826387037791E+002	-1.6058455E+000	-1.6058342E+000	3.0095534E+000	1.484459964565031E+002
-5.326379801259300E+002	-1.6078609E+000	-1.6078342E+000	3.0186749E+000	1.486459964514506E+002
-5.375859922595014E+002	-1.6098679E+000	-1.6098343E+000	2.9946241E+000	1.488459964463982E+002
-5.389223481176105E+002	-1.6118490E+000	-1.6118344E+000	2.9908743E+000	1.490459964413458E+002
-5.456451386561992E+002	-1.6138418E+000	-1.6138345E+000	2.9576764E+000	1.492459964362934E+002
-5.476356135431051E+002	-1.6158752E+000	-1.6158344E+000	2.9506395E+000	1.494459964312409E+002
-5.534178568608640E+002	-1.6178725E+000	-1.6178343E+000	2.9234195E+000	1.496459964261885E+002
-5.543350689816634E+002	-1.6198801E+000	-1.6198343E+000	2.9222038E+000	1.498459964211361E+002
-5.576888833078410E+002	-1.6218630E+000	-1.6218344E+000	2.9081860E+000	1.500459964160837E+002
-5.704778353416468E+002	-1.6244744E+000	-1.6238343E+000	2.8475680E+000	1.502459964110312E+002
-5.662100862608713E+002	-1.6262923E+000	-1.6256342E+000	2.8722420E+000	1.504259964064840E+002
-5.659763641357422E+002	-1.6272233E+000	-1.6265340E+000	2.8750727E+000	1.504967964046955E+002