EC-Lab ASCII FILE
Nb header lines : 63                          

Linear Sweep Voltammetry

Run on channel : 1 (SN 1340)
User : 
Electrode connection : standard
Potential control : Ewe
Ewe ctrl range : min = -10.00 V, max = 10.00 V
Ewe,I filtering : 50 kHz
Safety Limits :
	Do not start on E overload
Channel : Grounded
Acquisition started on : 02/04/2026 18:03:20.375
Technique started on : 02/04/2026 18:03:23.556
Loaded Setting File :  C:\Users\volt\Documents\Platalytix\PtPdNiCoCr_polished_IR_02_LSV_C01.mpr
Saved on :
	File : Ni_Magnet_System_02_LSV_C01.mpr
	Directory : C:\Users\volt\Documents\Platalytix\
	Host : 127.0.0.1
Device : SP-200 (SN 0262)
Address : USB
EC-LAB for windows v11.60 (software)
Internet server v11.60 (firmware)
Command interpretor v11.60 (firmware)
Electrode material : 
Initial state : 
Electrolyte : 1 M KOH
Comments : 
Cable : standard
Reference electrode : Hg/HgO (0.140 V)
Electrode surface area : 1.000 cm˛
Characteristic mass : 0.001 g
Equivalent Weight : 0.000 g/eq.
Density : 0.000 g/cm3
Volume (V) : 0.001 cmł
Cycle Definition : Charge/Discharge alternance
tR (h:m:s)          0:00:5.0000         
dER/dt (mV/h)       0.0                 
dER (mV)            0                   
dtR (s)             0.0000              
dE/dt               10.000              
dE/dt unit          mV/s                
Ei (V)              -0.200              
vs.                 Ref                 
EL (V)              -2.000              
vs.                 Ref                 
record              <I>                 
dI                  0.000               
unit dI             µA                  
tI (s)              0.0000              
step percent        50                  
N                   10                  
E range min (V)     -10.000             
E range max (V)     10.000              
I Range             Auto                
I Range min         Unset               
I Range max         Unset               
I Range init        Unset               
Bandwidth           8                   

Rwe/Ohm	time/s	Ewe/V	<I>/mA	Pwe/W	control/V	error	
0.0000000E+000	3.181400151079288E+000	-1.7024148E-001	0.000000000000000E+000	0.0000000E+000	0.0000000E+000	0
0.0000000E+000	8.181200024773716E+000	-2.2777428E-001	0.000000000000000E+000	0.0000000E+000	-1.9992317E-001	0
9.5254883E+004	8.248000023086206E+000	-2.1275246E-001	-2.233507096518017E-003	4.7518412E-007	-2.0042348E-001	0
5.1628891E+004	8.431700018445554E+000	-2.1088549E-001	-4.084641206709462E-003	8.6139158E-007	-2.0226051E-001	0
4.8767324E+004	8.765700010008004E+000	-2.1408845E-001	-4.389997933538572E-003	9.3984789E-007	-2.0560052E-001	0
4.8212844E+004	9.099700001570454E+000	-2.1733770E-001	-4.507879678188963E-003	9.7973214E-007	-2.0894054E-001	0
4.7930918E+004	9.433699993132905E+000	-2.2058374E-001	-4.602118106747488E-003	1.0151524E-006	-2.1228053E-001	0
4.7100793E+004	9.767699984695355E+000	-2.2397240E-001	-4.755172456251327E-003	1.0650274E-006	-2.1562053E-001	0
4.6565652E+004	1.010169997625781E+001	-2.2726935E-001	-4.880622216911476E-003	1.1092159E-006	-2.1896052E-001	0
4.6290609E+004	1.043569996782026E+001	-2.3055996E-001	-4.980707154583375E-003	1.1483517E-006	-2.2230051E-001	0
4.6843559E+004	1.076969995938271E+001	-2.3384443E-001	-4.992029659217981E-003	1.1673583E-006	-2.2564052E-001	0
4.7095555E+004	1.110369995094516E+001	-2.3711678E-001	-5.034801705265671E-003	1.1938359E-006	-2.2898051E-001	0
4.6947992E+004	1.143769994250761E+001	-2.4042757E-001	-5.121146844462559E-003	1.2312648E-006	-2.3232053E-001	0
4.6345418E+004	1.177169993407006E+001	-2.4374855E-001	-5.259388141332186E-003	1.2819683E-006	-2.3566054E-001	0
4.4879398E+004	1.210569992563251E+001	-2.4711554E-001	-5.506213106548696E-003	1.3606708E-006	-2.3900053E-001	0
4.3876039E+004	1.243969991719496E+001	-2.5046599E-001	-5.708491118963210E-003	1.4297829E-006	-2.4234052E-001	0
4.3288668E+004	1.277369990875741E+001	-2.5375426E-001	-5.861909557321156E-003	1.4874845E-006	-2.4568054E-001	0
4.3284816E+004	1.310769990031986E+001	-2.5696149E-001	-5.936527461684368E-003	1.5254590E-006	-2.4902052E-001	0
4.3471594E+004	1.344169989188231E+001	-2.6027206E-001	-5.987175621557789E-003	1.5582945E-006	-2.5236052E-001	0
4.3180434E+004	1.377569988344476E+001	-2.6362672E-001	-6.105235773388886E-003	1.6095033E-006	-2.5570053E-001	0
4.1796879E+004	1.410969987500721E+001	-2.6704782E-001	-6.389181196873490E-003	1.7062169E-006	-2.5904053E-001	0
4.0319434E+004	1.444369986656966E+001	-2.7034864E-001	-6.705169761141938E-003	1.8127336E-006	-2.6238054E-001	0
3.9576047E+004	1.477769985813211E+001	-2.7366832E-001	-6.914998545325207E-003	1.8924160E-006	-2.6572055E-001	0
3.9865797E+004	1.511169984969456E+001	-2.7699968E-001	-6.948304485267259E-003	1.9246781E-006	-2.6906052E-001	0
3.9838617E+004	1.544569984125701E+001	-2.8022048E-001	-7.033890812476296E-003	1.9710403E-006	-2.7240053E-001	0
3.8899633E+004	1.577969983281946E+001	-2.8355840E-001	-7.289488141911049E-003	2.0669956E-006	-2.7574053E-001	0
3.7545141E+004	1.611369982438191E+001	-2.8694621E-001	-7.642698778564300E-003	2.1930434E-006	-2.7908054E-001	0
3.6814375E+004	1.644769981594436E+001	-2.9029435E-001	-7.885353022026059E-003	2.2890733E-006	-2.8242052E-001	0
3.6784813E+004	1.678169980750681E+001	-2.9356584E-001	-7.980626093517070E-003	2.3428393E-006	-2.8576055E-001	0
3.6629188E+004	1.711569979906926E+001	-2.9688504E-001	-8.105149170107157E-003	2.4062977E-006	-2.8910053E-001	0
3.6108227E+004	1.744969979063171E+001	-3.0031875E-001	-8.317183948400808E-003	2.4978062E-006	-2.9244053E-001	0
3.5152035E+004	1.778369978219416E+001	-3.0357921E-001	-8.636176936664020E-003	2.6217638E-006	-2.9578054E-001	0
3.4211203E+004	1.811769977375661E+001	-3.0680954E-001	-8.968101484803287E-003	2.7514991E-006	-2.9912052E-001	0
3.3372629E+004	1.845169976531906E+001	-3.1023937E-001	-9.296222706241926E-003	2.8840543E-006	-3.0246055E-001	0
3.2498771E+004	1.878569975688151E+001	-3.1369340E-001	-9.652469349542912E-003	3.0279159E-006	-3.0580053E-001	0
3.2286521E+004	1.911969974844396E+001	-3.1698525E-001	-9.817881564651510E-003	3.1121237E-006	-3.0914053E-001	0
3.2124297E+004	1.945369974000641E+001	-3.2017359E-001	-9.966711136494166E-003	3.1910777E-006	-3.1248054E-001	0
3.1647785E+004	1.978769973156886E+001	-3.2354057E-001	-1.022316624489669E-002	3.3076089E-006	-3.1582054E-001	0
3.0928354E+004	2.012169972313131E+001	-3.2678983E-001	-1.056602702881411E-002	3.4528700E-006	-3.1916055E-001	0
2.9992715E+004	2.045569971469376E+001	-3.3021262E-001	-1.100976126875743E-002	3.6355621E-006	-3.2250056E-001	0
2.9375676E+004	2.078969970625622E+001	-3.3342642E-001	-1.135042571714884E-002	3.7845318E-006	-3.2584053E-001	0
2.8698070E+004	2.112369969781867E+001	-3.3693433E-001	-1.174066133570242E-002	3.9558317E-006	-3.2918051E-001	0
2.8457473E+004	2.145769968938112E+001	-3.4018293E-001	-1.195408063159986E-002	4.0665741E-006	-3.3252054E-001	0
2.8292648E+004	2.179169968094357E+001	-3.4348035E-001	-1.214026876401922E-002	4.1699436E-006	-3.3586055E-001	0
2.7789516E+004	2.212569967250602E+001	-3.4682274E-001	-1.248034446790600E-002	4.3284672E-006	-3.3920056E-001	0
2.6926469E+004	2.245969966406847E+001	-3.5024238E-001	-1.300736378445480E-002	4.5557299E-006	-3.4254053E-001	0
2.6178055E+004	2.279369965563092E+001	-3.5363567E-001	-1.350885945788347E-002	4.7772146E-006	-3.4588054E-001	0
2.6069057E+004	2.312769964719337E+001	-3.5685074E-001	-1.368867076144970E-002	4.8848124E-006	-3.4922054E-001	0
2.5868744E+004	2.346149963876087E+001	-3.6031747E-001	-1.392868037848716E-002	5.0187468E-006	-3.5255849E-001	0
2.5552332E+004	2.379529963032837E+001	-3.6345416E-001	-1.422391344746013E-002	5.1697407E-006	-3.5589641E-001	0
2.4986846E+004	2.412929962189082E+001	-3.6684528E-001	-1.468153653909221E-002	5.3858525E-006	-3.5923654E-001	0
2.4365725E+004	2.446329961345327E+001	-3.7028849E-001	-1.519710608619176E-002	5.6273134E-006	-3.6257651E-001	0
2.4193703E+004	2.479729960501572E+001	-3.7367311E-001	-1.544505614834335E-002	5.7714024E-006	-3.6591655E-001	0
2.4135256E+004	2.513129959657817E+001	-3.7695077E-001	-1.561826343321010E-002	5.8873165E-006	-3.6925653E-001	0
2.3886406E+004	2.546529958814062E+001	-3.8025242E-001	-1.591919753649700E-002	6.0533134E-006	-3.7259656E-001	0
2.3467123E+004	2.579929957970307E+001	-3.8354176E-001	-1.634379095649192E-002	6.2685262E-006	-3.7593657E-001	0
2.3026432E+004	2.613329957126552E+001	-3.8685402E-001	-1.680043338616676E-002	6.4993151E-006	-3.7927654E-001	0
2.2531133E+004	2.646729956282798E+001	-3.9028552E-001	-1.732205553939048E-002	6.7605474E-006	-3.8261655E-001	0
2.2249033E+004	2.680129955439043E+001	-3.9365676E-001	-1.769320720836792E-002	6.9650505E-006	-3.8595653E-001	0
2.2188873E+004	2.713529954595288E+001	-3.9703330E-001	-1.789335167726347E-002	7.1042564E-006	-3.8929653E-001	0
2.2113986E+004	2.746929953751533E+001	-4.0022123E-001	-1.809810436697018E-002	7.2432454E-006	-3.9263657E-001	0
2.1839664E+004	2.780329952907778E+001	-4.0347213E-001	-1.847428331382323E-002	7.4538584E-006	-3.9597654E-001	0
2.1462258E+004	2.813729952064023E+001	-4.0690064E-001	-1.895889293398392E-002	7.7143859E-006	-3.9931655E-001	0
2.1195783E+004	2.847129951220268E+001	-4.1025543E-001	-1.935552197053786E-002	7.9407082E-006	-4.0265653E-001	0
2.0929955E+004	2.880529950376513E+001	-4.1364768E-001	-1.976342922314617E-002	8.1750968E-006	-4.0599653E-001	0
2.0874467E+004	2.913929949532758E+001	-4.1697481E-001	-1.997535117628311E-002	8.3292180E-006	-4.0933657E-001	0
2.0856357E+004	2.947329948689003E+001	-4.2029613E-001	-2.015194329505288E-002	8.4697840E-006	-4.1267654E-001	0
2.0636844E+004	2.980729947845248E+001	-4.2362431E-001	-2.052757212048151E-002	8.6959781E-006	-4.1601658E-001	0
2.0219221E+004	3.014129947001493E+001	-4.2693380E-001	-2.111524502918466E-002	9.0148114E-006	-4.1935655E-001	0
2.0097666E+004	3.047529946157738E+001	-4.3026093E-001	-2.140850275122419E-002	9.2112423E-006	-4.2269653E-001	0
2.0052895E+004	3.080929945313983E+001	-4.3362513E-001	-2.162406643148568E-002	9.3767385E-006	-4.2603657E-001	0
2.0118729E+004	3.114329944470228E+001	-4.3704650E-001	-2.172336508902664E-002	9.4941206E-006	-4.2937657E-001	0
1.9859645E+004	3.147729943626473E+001	-4.4026068E-001	-2.216860852107612E-002	9.7599668E-006	-4.3271655E-001	0
1.9677846E+004	3.181129942782718E+001	-4.4371030E-001	-2.254872403183777E-002	1.0005101E-005	-4.3605655E-001	0
1.9679227E+004	3.214529941938963E+001	-4.4697055E-001	-2.271281146507689E-002	1.0151958E-005	-4.3939653E-001	0
1.9685402E+004	3.247929941095208E+001	-4.5022893E-001	-2.287120871508164E-002	1.0297280E-005	-4.4273657E-001	0
1.9641508E+004	3.281329940251453E+001	-4.5361030E-001	-2.309447335517738E-002	1.0475891E-005	-4.4607657E-001	0
1.9501408E+004	3.314729939407698E+001	-4.5698094E-001	-2.343322735308093E-002	1.0708538E-005	-4.4941655E-001	0
1.9316330E+004	3.348129938563943E+001	-4.6032143E-001	-2.383068738417055E-002	1.0969776E-005	-4.5275658E-001	0
1.9185803E+004	3.381529937720188E+001	-4.6373892E-001	-2.417094116393440E-002	1.1209007E-005	-4.5609656E-001	0
1.9197684E+004	3.414929936876433E+001	-4.6706009E-001	-2.432898066342559E-002	1.1363096E-005	-4.5943657E-001	0
1.9310025E+004	3.448329936032678E+001	-4.7026858E-001	-2.435359798764974E-002	1.1452732E-005	-4.6277654E-001	0
1.9310998E+004	3.481729935188923E+001	-4.7371644E-001	-2.453091422872944E-002	1.1620697E-005	-4.6611655E-001	0
1.9251369E+004	3.515129934345168E+001	-4.7702891E-001	-2.477896023741828E-002	1.1820281E-005	-4.6945658E-001	0
1.9130518E+004	3.548529933501413E+001	-4.8041910E-001	-2.511270772148716E-002	1.2064625E-005	-4.7279662E-001	0
1.9048711E+004	3.581929932657658E+001	-4.8370349E-001	-2.539297804780216E-002	1.2282672E-005	-4.7613654E-001	0
1.9107719E+004	3.615329931813903E+001	-4.8711699E-001	-2.549320462858652E-002	1.2418173E-005	-4.7947660E-001	0
1.9202715E+004	3.648729930970148E+001	-4.9032712E-001	-2.553425942749396E-002	1.2520140E-005	-4.8281658E-001	0
1.9249313E+004	3.682129930126393E+001	-4.9369055E-001	-2.564717901646962E-002	1.2661770E-005	-4.8615658E-001	0
1.9079723E+004	3.715529929282638E+001	-4.9697778E-001	-2.604743165039469E-002	1.2944995E-005	-4.8949662E-001	0
1.9030955E+004	3.748929928438884E+001	-5.0048995E-001	-2.629873125471116E-002	1.3162251E-005	-4.9283659E-001	0
1.9139223E+004	3.782329927595129E+001	-5.0383317E-001	-2.632464047051841E-002	1.3263228E-005	-4.9617660E-001	0
1.9306738E+004	3.815729926751374E+001	-5.0701725E-001	-2.626115494741421E-002	1.3314859E-005	-4.9951658E-001	0
2.1423258E+004	3.850789925865683E+001	-5.0914079E-001	-2.376579682081937E-002	1.2100137E-005	-5.0302255E-001	0
2.9964193E+004	3.885819924980751E+001	-5.0629634E-001	-1.689671154950163E-002	8.5547435E-006	-5.0652552E-001	0
2.8471682E+004	3.919149924138765E+001	-5.0962663E-001	-1.789942135662331E-002	9.1220218E-006	-5.0985843E-001	0
2.4268979E+004	3.954149923254590E+001	-5.1483029E-001	-2.121351335969451E-002	1.0921359E-005	-5.1335877E-001	0
2.2931549E+004	3.994179922243347E+001	-5.2066219E-001	-2.270505927607593E-002	1.1821666E-005	-5.1736152E-001	0
2.2467863E+004	4.035889921189664E+001	-5.2441865E-001	-2.334083342777515E-002	1.2240368E-005	-5.2153242E-001	0
2.4252260E+004	4.074249920220609E+001	-5.2684742E-001	-2.172364169493085E-002	1.1445045E-005	-5.2536851E-001	0
2.8666027E+004	4.112609919251554E+001	-5.3257436E-001	-1.857858933528497E-002	9.8944802E-006	-5.2920449E-001	0
2.5937961E+004	4.150969918282499E+001	-5.3365213E-001	-2.057417482867605E-002	1.0979452E-005	-5.3304046E-001	0
2.1713627E+004	4.191009917271003E+001	-5.4104263E-001	-2.491719322554303E-002	1.3481264E-005	-5.3704464E-001	0
2.7781760E+004	4.229409916300938E+001	-5.4064387E-001	-1.946038965700339E-002	1.0521140E-005	-5.4088461E-001	0
2.2307238E+004	4.266149915372807E+001	-5.4743159E-001	-2.454053520191918E-002	1.3434264E-005	-5.4455858E-001	0
2.2236404E+004	4.306229914360301E+001	-5.5148214E-001	-2.480086950423777E-002	1.3677237E-005	-5.4856658E-001	0
2.7712482E+004	4.342969913432171E+001	-5.5425251E-001	-2.000010260214519E-002	1.1085107E-005	-5.5224061E-001	0
2.3633957E+004	4.383049912419665E+001	-5.5916595E-001	-2.365942976484825E-002	1.3229547E-005	-5.5624866E-001	0
2.3687754E+004	4.421459911449347E+001	-5.6164747E-001	-2.371045704359726E-002	1.3316919E-005	-5.6008959E-001	0
2.6889914E+004	4.458199910521216E+001	-5.6441844E-001	-2.098996786345658E-002	1.1847124E-005	-5.6376362E-001	0
2.1885678E+004	4.496609909550898E+001	-5.7056862E-001	-2.607041198564894E-002	1.4874959E-005	-5.6760454E-001	0
2.3310658E+004	4.535019908580580E+001	-5.7424110E-001	-2.463427333260418E-002	1.4146012E-005	-5.7144564E-001	0
2.2721418E+004	4.573429907610262E+001	-5.7827204E-001	-2.545052718664648E-002	1.4717329E-005	-5.7528657E-001	0
2.5465008E+004	4.611839906639943E+001	-5.7980877E-001	-2.276884266843687E-002	1.3201575E-005	-5.7912755E-001	0
2.5639965E+004	4.648579905711813E+001	-5.8430010E-001	-2.278864705191341E-002	1.3315409E-005	-5.8280164E-001	0
2.2512859E+004	4.686989904741495E+001	-5.8961844E-001	-2.619029546934648E-002	1.5442281E-005	-5.8664262E-001	0
2.7599859E+004	4.723729903813364E+001	-5.9009439E-001	-2.138034069493950E-002	1.2616419E-005	-5.9031659E-001	0
2.2350203E+004	4.760469902885234E+001	-5.9695292E-001	-2.670906017166752E-002	1.5944051E-005	-5.9399062E-001	0
2.2934785E+004	4.798879901914916E+001	-6.0013855E-001	-2.616717478138623E-002	1.5703930E-005	-5.9783161E-001	0
2.3471336E+004	4.837289900944597E+001	-6.0458934E-001	-2.575862529117001E-002	1.5573391E-005	-6.0167259E-001	0
2.3807305E+004	4.877369899932091E+001	-6.0856992E-001	-2.556231871414733E-002	1.5556458E-005	-6.0568064E-001	0
2.3298148E+004	4.917449898919585E+001	-6.1265486E-001	-2.629628899598058E-002	1.6110549E-005	-6.0968858E-001	0
2.6192361E+004	4.955859897949267E+001	-6.1417347E-001	-2.344857210597373E-002	1.4401491E-005	-6.1352962E-001	0
2.6407244E+004	4.992599897021137E+001	-6.1871445E-001	-2.342972393623344E-002	1.4496309E-005	-6.1720359E-001	0
2.5301193E+004	5.029339896093006E+001	-6.2361139E-001	-2.464750892599621E-002	1.5370468E-005	-6.2087762E-001	0
2.6339584E+004	5.066079895164876E+001	-6.2515289E-001	-2.373434888740866E-002	1.4837597E-005	-6.2455165E-001	0
2.2852635E+004	5.106159894152370E+001	-6.3261789E-001	-2.768249257561124E-002	1.7512441E-005	-6.2855965E-001	0
2.3903365E+004	5.146239893139864E+001	-6.3492864E-001	-2.656231214478633E-002	1.6865173E-005	-6.3256758E-001	0
3.0013182E+004	5.184649892169546E+001	-6.3618004E-001	-2.119668828843418E-002	1.3484910E-005	-6.3640863E-001	0
2.4322906E+004	5.219719891283603E+001	-6.4266253E-001	-2.642211036528275E-002	1.6980501E-005	-6.3991565E-001	0
2.9111938E+004	5.254789890397660E+001	-6.4319837E-001	-2.209397281420383E-002	1.4210807E-005	-6.4342260E-001	0
2.1562865E+004	5.296539889342966E+001	-6.5246660E-001	-3.025880747897614E-002	1.9742862E-005	-6.4759761E-001	0
3.0406715E+004	5.334949888372648E+001	-6.5121108E-001	-2.141668677840469E-002	1.3946784E-005	-6.5143859E-001	0
2.4948734E+004	5.374999887360900E+001	-6.5781832E-001	-2.636680109444423E-002	1.7344564E-005	-6.5544367E-001	0
3.0652426E+004	5.416669886308227E+001	-6.5937889E-001	-2.151147430211475E-002	1.4184212E-005	-6.5961033E-001	0
2.5887740E+004	5.456669885297742E+001	-6.6480595E-001	-2.568033819314719E-002	1.7072442E-005	-6.6361052E-001	0
2.9953059E+004	5.496669884287257E+001	-6.6829699E-001	-2.231147750792373E-002	1.4910694E-005	-6.6761047E-001	0
2.9725137E+004	5.531659883403336E+001	-6.7088336E-001	-2.256956310668402E-002	1.5141544E-005	-6.7110968E-001	0
2.9509322E+004	5.564999882561096E+001	-6.7422134E-001	-2.284774010376761E-002	1.5404434E-005	-6.7444378E-001	0
2.9456063E+004	5.598319881719362E+001	-6.7756045E-001	-2.300240999364897E-002	1.5585523E-005	-6.7777568E-001	0
2.8414977E+004	5.640009880666184E+001	-6.8236840E-001	-2.401439303126349E-002	1.6386663E-005	-6.8194455E-001	0
2.3103711E+004	5.685019879529136E+001	-6.9056195E-001	-2.988965555331735E-002	2.0640658E-005	-6.8644542E-001	0
3.2008820E+004	5.725019878518651E+001	-6.9032633E-001	-2.156675354136373E-002	1.4888098E-005	-6.9044560E-001	0
3.0741863E+004	5.768379877423286E+001	-6.9462860E-001	-2.259552729496528E-002	1.5695499E-005	-6.9478154E-001	0
3.0092023E+004	5.801719876581046E+001	-6.9796252E-001	-2.319427037193159E-002	1.6188731E-005	-6.9811541E-001	0
2.9991121E+004	5.835039875739312E+001	-7.0128006E-001	-2.338292250577974E-002	1.6397977E-005	-7.0144790E-001	0
2.9920469E+004	5.868379874897073E+001	-7.0463645E-001	-2.355031436257904E-002	1.6594409E-005	-7.0478171E-001	0
3.0467045E+004	5.905039873970964E+001	-7.0830131E-001	-2.324811315374264E-002	1.6466669E-005	-7.0844758E-001	0
2.2960170E+004	5.943369873002666E+001	-7.1478397E-001	-3.113147461971325E-002	2.2252279E-005	-7.1228057E-001	0
2.3353938E+004	5.986699871908058E+001	-7.1939379E-001	-3.080396168625204E-002	2.2160179E-005	-7.1661335E-001	0
2.5418277E+004	6.031709870771010E+001	-7.2369540E-001	-2.847145618396058E-002	2.0604662E-005	-7.2111475E-001	0
2.4115156E+004	6.075039869676402E+001	-7.2843933E-001	-3.020670160290451E-002	2.2003749E-005	-7.2544765E-001	0
3.2216324E+004	6.113369868708105E+001	-7.2915673E-001	-2.263314436740801E-002	1.6503109E-005	-7.2928023E-001	0
3.0686926E+004	6.148359867824183E+001	-7.3265517E-001	-2.387515713362487E-002	1.7492257E-005	-7.3277980E-001	0
3.0404857E+004	6.181699866981944E+001	-7.3596436E-001	-2.420548572974010E-002	1.7814375E-005	-7.3611373E-001	0
3.0239848E+004	6.215039866139705E+001	-7.3928708E-001	-2.444744657777152E-002	1.8073681E-005	-7.3944747E-001	0
3.0476959E+004	6.250029865255783E+001	-7.4280244E-001	-2.437259127811731E-002	1.8104020E-005	-7.4294639E-001	0
3.1023742E+004	6.288379864286981E+001	-7.4664086E-001	-2.406675663573382E-002	1.7969223E-005	-7.4678159E-001	0
3.1424781E+004	6.331719863192120E+001	-7.5097090E-001	-2.389741051823757E-002	1.7946260E-005	-7.5111574E-001	0
2.2427037E+004	6.380089861970191E+001	-7.5881726E-001	-3.383493132727866E-002	2.5674530E-005	-7.5595266E-001	0
3.1074748E+004	6.418419861001894E+001	-7.5964946E-001	-2.444587601371870E-002	1.8570296E-005	-7.5978553E-001	0
2.9682422E+004	6.455079860075784E+001	-7.6330167E-001	-2.571561221041890E-002	1.9628769E-005	-7.6345152E-001	0
2.9122721E+004	6.488419859233545E+001	-7.6664090E-001	-2.632449423129302E-002	2.0181435E-005	-7.6678538E-001	0
2.9412383E+004	6.525089858307183E+001	-7.7030706E-001	-2.618989036223285E-002	2.0174257E-005	-7.7045280E-001	0
2.9967939E+004	6.568419857212575E+001	-7.7463335E-001	-2.584873642817209E-002	2.0023293E-005	-7.7478576E-001	0
2.8927729E+004	6.611779856117209E+001	-7.7896887E-001	-2.692810333565998E-002	2.0976155E-005	-7.7912164E-001	0
1.9847215E+004	6.650129855148407E+001	-7.8583771E-001	-3.959435625798968E-002	3.1114738E-005	-7.8295654E-001	0
2.9968916E+004	6.695149854011106E+001	-7.8728342E-001	-2.626999957443260E-002	2.0681935E-005	-7.8745866E-001	0
2.8270260E+004	6.748519852662866E+001	-7.9263598E-001	-2.803780289171801E-002	2.2223770E-005	-7.9279560E-001	0
2.6704873E+004	6.785199851736252E+001	-7.9628396E-001	-2.981792757650265E-002	2.3743538E-005	-7.9646349E-001	0
2.6630084E+004	6.821849850810395E+001	-7.9993653E-001	-3.003882862901525E-002	2.4029156E-005	-8.0012846E-001	0
2.6919127E+004	6.863529849757469E+001	-8.0410647E-001	-2.987119450639447E-002	2.4019620E-005	-8.0429667E-001	0
2.6385141E+004	6.908559848619916E+001	-8.0862945E-001	-3.064715382997008E-002	2.4782192E-005	-8.0879974E-001	0
2.5558352E+004	6.955239847440680E+001	-8.1329817E-001	-3.182122940193616E-002	2.5880148E-005	-8.1346768E-001	0
2.4049219E+004	6.995259846429690E+001	-8.1728989E-001	-3.398405151259931E-002	2.7774822E-005	-8.1746960E-001	0
2.3426881E+004	7.028599845587451E+001	-8.2062924E-001	-3.502938506595921E-002	2.8746137E-005	-8.2080328E-001	0
2.0480410E+004	7.061929844745464E+001	-8.2484758E-001	-4.027495463186453E-002	3.3220698E-005	-8.2413661E-001	0
2.3824863E+004	7.105279843650351E+001	-8.2828373E-001	-3.476551873777595E-002	2.8795714E-005	-8.2847178E-001	0
2.2122068E+004	7.155319842386234E+001	-8.3330584E-001	-3.766853222776323E-002	3.1389409E-005	-8.3347559E-001	0
2.1268105E+004	7.188659841543995E+001	-8.3661902E-001	-3.933678957751567E-002	3.2909906E-005	-8.3680946E-001	0
2.0725289E+004	7.221979840702261E+001	-8.3996445E-001	-4.052847749829658E-002	3.4042481E-005	-8.4014177E-001	0
2.0204143E+004	7.255319839860022E+001	-8.4328657E-001	-4.173829920111516E-002	3.5197347E-005	-8.4347582E-001	0
1.9691648E+004	7.288639839018288E+001	-8.4661889E-001	-4.299380686656595E-002	3.6399368E-005	-8.4680766E-001	0
1.9183539E+004	7.321979838176048E+001	-8.4993577E-001	-4.430547438530386E-002	3.7656806E-005	-8.5014153E-001	0
1.8678740E+004	7.355309837334062E+001	-8.5331738E-001	-4.568388043774163E-002	3.8982849E-005	-8.5347450E-001	0
1.8177279E+004	7.388639836492075E+001	-8.5665703E-001	-4.712789910470064E-002	4.0372444E-005	-8.5680789E-001	0
1.7690551E+004	7.421979835649836E+001	-8.5999537E-001	-4.861326223264140E-002	4.1807180E-005	-8.6014181E-001	0
1.7220598E+004	7.455329834807344E+001	-8.6331409E-001	-5.013264427765873E-002	4.3280219E-005	-8.6347663E-001	0
1.6759117E+004	7.488729833963589E+001	-8.6664003E-001	-5.171155456285259E-002	4.4815304E-005	-8.6681664E-001	0
1.6258704E+004	7.522129833119834E+001	-8.6999190E-001	-5.350930078456240E-002	4.6552657E-005	-8.7015665E-001	0
1.5764320E+004	7.555529832276079E+001	-8.7332416E-001	-5.539878348489280E-002	4.8381095E-005	-8.7349665E-001	0
1.5314225E+004	7.588929831432324E+001	-8.7668478E-001	-5.724643760880954E-002	5.0187082E-005	-8.7683672E-001	0
1.4862441E+004	7.622329830588569E+001	-8.8000786E-001	-5.921018216255092E-002	5.2105424E-005	-8.8017660E-001	0
1.4419007E+004	7.655729829744814E+001	-8.8335466E-001	-6.126321029885862E-002	5.4117143E-005	-8.8351661E-001	0
1.3975340E+004	7.689129828901059E+001	-8.8670558E-001	-6.344787234212235E-002	5.6259581E-005	-8.8685656E-001	0
1.3550683E+004	7.722529828057304E+001	-8.9002359E-001	-6.568109037896663E-002	5.8457721E-005	-8.9019668E-001	0
1.3127702E+004	7.755929827213549E+001	-8.9338720E-001	-6.805358541400408E-002	6.0798204E-005	-8.9353669E-001	0
1.2692134E+004	7.789329826369794E+001	-8.9670897E-001	-7.065076662588110E-002	6.3353174E-005	-8.9687663E-001	0
1.2270041E+004	7.822729825526039E+001	-9.0006775E-001	-7.335490856910476E-002	6.6024390E-005	-9.0021664E-001	0
1.1856590E+004	7.856129824682284E+001	-9.0338463E-001	-7.619261895184215E-002	6.8831243E-005	-9.0355659E-001	0
1.1464174E+004	7.889529823838529E+001	-9.0672916E-001	-7.909241487455176E-002	7.1715396E-005	-9.0689659E-001	0
1.1078700E+004	7.922929822994774E+001	-9.1008723E-001	-8.214747161908348E-002	7.4761367E-005	-9.1023672E-001	0
1.0681359E+004	7.956329822151019E+001	-9.1342008E-001	-8.551533961826574E-002	7.8111429E-005	-9.1357660E-001	0
1.0297128E+004	7.989729821307265E+001	-9.1675913E-001	-8.903056495157491E-002	8.1619582E-005	-9.1691667E-001	0
9.9157041E+003	8.023129820463510E+001	-9.2012036E-001	-9.279425574711953E-002	8.5381886E-005	-9.2025656E-001	0
9.5419727E+003	8.056529819619755E+001	-9.2342776E-001	-9.677534849074254E-002	8.9365043E-005	-9.2359662E-001	0
9.1708877E+003	8.089929818776000E+001	-9.2677820E-001	-1.010565380979317E-001	9.3657000E-005	-9.2693663E-001	0
8.8049482E+003	8.123329817932245E+001	-9.3011039E-001	-1.056349692229961E-001	9.8252181E-005	-9.3027663E-001	0
8.4562686E+003	8.156729817088490E+001	-9.3344831E-001	-1.103853735953806E-001	1.0303904E-004	-9.3361664E-001	0
8.1111846E+003	8.190129816244735E+001	-9.3681729E-001	-1.154969785548972E-001	1.0819957E-004	-9.3695670E-001	0
7.7769292E+003	8.223529815400980E+001	-9.4014651E-001	-1.208891696667367E-001	1.1365353E-004	-9.4029671E-001	0
7.4522852E+003	8.256929814557225E+001	-9.4345826E-001	-1.265998591565127E-001	1.1944168E-004	-9.4363672E-001	0
7.1284307E+003	8.290329813713470E+001	-9.4680136E-001	-1.328204478421506E-001	1.2575458E-004	-9.4697666E-001	0
6.7912891E+003	8.323729812869715E+001	-9.5014161E-001	-1.399059322360749E-001	1.3293045E-004	-9.5031679E-001	0
6.4799946E+003	8.357129812025960E+001	-9.5346981E-001	-1.471405300548554E-001	1.4029405E-004	-9.5365667E-001	0
6.1982954E+003	8.390529811182205E+001	-9.5680439E-001	-1.543657325810017E-001	1.4769781E-004	-9.5699674E-001	0
5.9235562E+003	8.423929810338450E+001	-9.6016890E-001	-1.620933275319566E-001	1.5563697E-004	-9.6033663E-001	0
5.6573101E+003	8.457329809494695E+001	-9.6351695E-001	-1.703136210253344E-001	1.6410006E-004	-9.6367663E-001	0
5.3974380E+003	8.490729808650940E+001	-9.6685141E-001	-1.791315436786540E-001	1.7319359E-004	-9.6701676E-001	0
5.1397598E+003	8.524129807807185E+001	-9.7019261E-001	-1.887622490023487E-001	1.8313574E-004	-9.7035670E-001	0
4.8841782E+003	8.557529806963430E+001	-9.7355407E-001	-1.993281278254349E-001	1.9405672E-004	-9.7369671E-001	0
4.6326909E+003	8.590929806119675E+001	-9.7687316E-001	-2.108651632331329E-001	2.0598852E-004	-9.7703665E-001	0
4.3822827E+003	8.624329805275920E+001	-9.8021895E-001	-2.236777174649900E-001	2.1925314E-004	-9.8037666E-001	0
4.1339829E+003	8.657729804432165E+001	-9.8355913E-001	-2.379204606510559E-001	2.3400884E-004	-9.8371679E-001	0
3.8888752E+003	8.691129803588410E+001	-9.8689729E-001	-2.537744721969206E-001	2.5044935E-004	-9.8705673E-001	0
3.6452214E+003	8.724529802744655E+001	-9.9023247E-001	-2.716522109607187E-001	2.6899885E-004	-9.9039674E-001	0
3.3868491E+003	8.757929801900900E+001	-9.9359000E-001	-2.933670605001222E-001	2.9148659E-004	-9.9373662E-001	0
3.1504436E+003	8.791329801057145E+001	-9.9693590E-001	-3.164430172754571E-001	3.1547341E-004	-9.9707669E-001	0
2.9305315E+003	8.824729800213390E+001	-1.0002490E+000	-3.413200038626223E-001	3.4140502E-004	-1.0004168E+000	0
2.7198174E+003	8.858129799369635E+001	-1.0036215E+000	-3.690032474858151E-001	3.7033958E-004	-1.0037568E+000	0
2.5224690E+003	8.891529798525880E+001	-1.0069619E+000	-3.991969497924972E-001	4.0197614E-004	-1.0070966E+000	0
2.3390464E+003	8.924929797682125E+001	-1.0103060E+000	-4.319307283153702E-001	4.3638219E-004	-1.0104367E+000	0
2.1591743E+003	8.958329796838370E+001	-1.0136598E+000	-4.694664020193668E-001	4.7587923E-004	-1.0137767E+000	0
1.9984797E+003	8.991729795994615E+001	-1.0169880E+000	-5.088808371221489E-001	5.1752571E-004	-1.0171167E+000	0
1.8559484E+003	9.025129795150860E+001	-1.0203223E+000	-5.497579374500621E-001	5.6093029E-004	-1.0204567E+000	0
1.7257465E+003	9.058529794307105E+001	-1.0236874E+000	-5.931852428873656E-001	6.0723623E-004	-1.0237967E+000	0
1.6018219E+003	9.091929793463351E+001	-1.0270332E+000	-6.411656784475954E-001	6.5849844E-004	-1.0271367E+000	0
1.4910859E+003	9.125329792619596E+001	-1.0303583E+000	-6.910120170558924E-001	7.1199000E-004	-1.0304767E+000	0
1.3954022E+003	9.158729791775841E+001	-1.0336984E+000	-7.407888945079577E-001	7.6575234E-004	-1.0338167E+000	0
1.3086874E+003	9.192129790932086E+001	-1.0370269E+000	-7.924176082962333E-001	8.2175835E-004	-1.0371567E+000	0
1.2229969E+003	9.225529790088331E+001	-1.0403713E+000	-8.506736936589974E-001	8.8501652E-004	-1.0404967E+000	0
1.1530291E+003	9.258929789244576E+001	-1.0436987E+000	-9.051798835756184E-001	9.4473502E-004	-1.0438367E+000	0
1.0899281E+003	9.292329788400821E+001	-1.0470651E+000	-9.606736251952430E-001	1.0058879E-003	-1.0471766E+000	0
1.0282422E+003	9.325729787557066E+001	-1.0503888E+000	-1.021538353368850E+000	1.0730125E-003	-1.0505166E+000	0
9.7383881E+002	9.359129786713311E+001	-1.0537018E+000	-1.082008390240970E+000	1.1401142E-003	-1.0538567E+000	0
9.2735736E+002	9.392529785869556E+001	-1.0570397E+000	-1.139840758212333E+000	1.2048570E-003	-1.0571967E+000	0
8.8210748E+002	9.425929785025801E+001	-1.0603892E+000	-1.202108762847439E+000	1.2747031E-003	-1.0605367E+000	0
8.4223505E+002	9.459329784182046E+001	-1.0637156E+000	-1.262967626731825E+000	1.3434383E-003	-1.0638766E+000	0
8.0741168E+002	9.492729783338291E+001	-1.0670719E+000	-1.321595828746648E+000	1.4102377E-003	-1.0672166E+000	0
7.7267102E+002	9.526129782494536E+001	-1.0704271E+000	-1.385359385802484E+000	1.4829262E-003	-1.0705568E+000	0
7.4181006E+002	9.559529781650781E+001	-1.0737469E+000	-1.447468753824265E+000	1.5542151E-003	-1.0738966E+000	0
7.1456494E+002	9.592929780807026E+001	-1.0770887E+000	-1.507334938395415E+000	1.6235334E-003	-1.0772368E+000	0
6.8694708E+002	9.626329779963271E+001	-1.0804325E+000	-1.572803172134606E+000	1.6993077E-003	-1.0805767E+000	0
6.6180786E+002	9.659729779119516E+001	-1.0837686E+000	-1.637587983446846E+000	1.7747665E-003	-1.0839167E+000	0
6.3938708E+002	9.693129778275761E+001	-1.0871162E+000	-1.700247341708980E+000	1.8483665E-003	-1.0872567E+000	0
6.1472968E+002	9.726529777432006E+001	-1.0904667E+000	-1.773896314264913E+000	1.9343749E-003	-1.0905967E+000	0
5.9419562E+002	9.759929776588251E+001	-1.0938098E+000	-1.840824557123760E+000	2.0135120E-003	-1.0939367E+000	0
5.7405054E+002	9.793329775744496E+001	-1.0971529E+000	-1.911247973695348E+000	2.0969315E-003	-1.0972767E+000	0
5.5237585E+002	9.826729774900741E+001	-1.1004827E+000	-1.992271507604677E+000	2.1924602E-003	-1.1006167E+000	0
5.3392566E+002	9.860129774056986E+001	-1.1038191E+000	-2.067364925721045E+000	2.2819969E-003	-1.1039567E+000	0
5.1319678E+002	9.893529773213231E+001	-1.1071844E+000	-2.157426638667904E+000	2.3886692E-003	-1.1072967E+000	0
4.9509811E+002	9.926929772369476E+001	-1.1105040E+000	-2.242997932970365E+000	2.4908583E-003	-1.1106367E+000	0
4.7515146E+002	9.960329771525721E+001	-1.1138171E+000	-2.344130661982149E+000	2.6109328E-003	-1.1139766E+000	0
4.5743677E+002	9.993729770681966E+001	-1.1171701E+000	-2.442239367356052E+000	2.7283968E-003	-1.1173167E+000	0
4.3763336E+002	1.002712976983821E+002	-1.1204987E+000	-2.560359288026607E+000	2.8688791E-003	-1.1206567E+000	0
4.1966647E+002	1.006052976899446E+002	-1.1238437E+000	-2.677944933392912E+000	3.0095915E-003	-1.1239967E+000	0
4.0136578E+002	1.009392976815070E+002	-1.1271837E+000	-2.808370136411838E+000	3.1655489E-003	-1.1273367E+000	0
3.8230957E+002	1.012732976730695E+002	-1.1305236E+000	-2.957089387661835E+000	3.3430592E-003	-1.1306766E+000	0
3.6427588E+002	1.016072976646319E+002	-1.1338687E+000	-3.112664721242094E+000	3.5293531E-003	-1.1340166E+000	0
3.4611017E+002	1.019412976561944E+002	-1.1372154E+000	-3.285703512171580E+000	3.7365525E-003	-1.1373568E+000	0
3.2846399E+002	1.022752976477568E+002	-1.1405311E+000	-3.472316861359673E+000	3.9602853E-003	-1.1406966E+000	0
3.1074887E+002	1.026092976393193E+002	-1.1438959E+000	-3.681094171363355E+000	4.2107883E-003	-1.1440368E+000	0
2.9353146E+002	1.029432976308817E+002	-1.1472397E+000	-3.908404356331296E+000	4.4838767E-003	-1.1473767E+000	0
2.7536786E+002	1.032772976224442E+002	-1.1505787E+000	-4.178333339902057E+000	4.8075016E-003	-1.1507167E+000	0
2.5893460E+002	1.036112976140066E+002	-1.1539149E+000	-4.456395053664288E+000	5.1423009E-003	-1.1540567E+000	0
2.4306247E+002	1.039452976055691E+002	-1.1572741E+000	-4.761220934544024E+000	5.5100378E-003	-1.1573968E+000	0
2.2800211E+002	1.042792975971315E+002	-1.1606134E+000	-5.090362673671365E+000	5.9079430E-003	-1.1607368E+000	0
2.1327705E+002	1.046132975886940E+002	-1.1639445E+000	-5.457429428240296E+000	6.3521448E-003	-1.1640767E+000	0
1.9902002E+002	1.049472975802564E+002	-1.1672829E+000	-5.865153187839908E+000	6.8462933E-003	-1.1674167E+000	0
1.8564874E+002	1.052812975718189E+002	-1.1706244E+000	-6.305587332347326E+000	7.3814741E-003	-1.1707567E+000	0
1.7270593E+002	1.056152975633813E+002	-1.1739954E+000	-6.797655226986052E+000	7.9804156E-003	-1.1740967E+000	0
1.6042455E+002	1.059492975549438E+002	-1.1773266E+000	-7.338818048736691E+000	8.6401850E-003	-1.1774367E+000	0
1.4876013E+002	1.062832975465062E+002	-1.1806564E+000	-7.936645611778665E+000	9.3704518E-003	-1.1807767E+000	0
1.3811221E+002	1.066172975380687E+002	-1.1840172E+000	-8.572863574971890E+000	1.0150418E-002	-1.1841166E+000	0
1.2746168E+002	1.069512975296311E+002	-1.1873229E+000	-9.315135819240126E+000	1.1060074E-002	-1.1874567E+000	0
1.1793371E+002	1.072852975211936E+002	-1.1906917E+000	-1.009627974780221E+001	1.2021556E-002	-1.1907966E+000	0
1.0893307E+002	1.076192975127560E+002	-1.1939918E+000	-1.096078368191388E+001	1.3087085E-002	-1.1941366E+000	0
1.0077612E+002	1.079532975043185E+002	-1.1973323E+000	-1.188111133324182E+001	1.4225638E-002	-1.1974767E+000	0
9.3443787E+001	1.082872974958809E+002	-1.2006662E+000	-1.284907443141145E+001	1.5427449E-002	-1.2008166E+000	0
8.6744255E+001	1.086212974874434E+002	-1.2040005E+000	-1.387988731430082E+001	1.6711392E-002	-1.2041568E+000	0
8.0507935E+001	1.089552974790058E+002	-1.2073563E+000	-1.499673672593924E+001	1.8106405E-002	-1.2074966E+000	0
7.4336876E+001	1.092892974705683E+002	-1.2107043E+000	-1.628672568078639E+001	1.9718409E-002	-1.2108368E+000	0
6.9074303E+001	1.096232974621307E+002	-1.2140371E+000	-1.757581310598259E+001	2.1337688E-002	-1.2141767E+000	0
6.4306793E+001	1.099572974536932E+002	-1.2173878E+000	-1.893093565955741E+001	2.3046291E-002	-1.2175167E+000	0
6.0059212E+001	1.102912974452556E+002	-1.2207417E+000	-2.032563730753003E+001	2.4812354E-002	-1.2208568E+000	0
5.6063179E+001	1.106252974368181E+002	-1.2240784E+000	-2.183391018635767E+001	2.6726419E-002	-1.2241967E+000	0
5.2475662E+001	1.109592974283805E+002	-1.2274214E+000	-2.339029771586667E+001	2.8709752E-002	-1.2275368E+000	0
4.9017307E+001	1.112932974199430E+002	-1.2307489E+000	-2.510845500171837E+001	3.0902203E-002	-1.2308767E+000	0
4.5905605E+001	1.116272974115054E+002	-1.2341143E+000	-2.688373832979528E+001	3.3177607E-002	-1.2342167E+000	0
4.3142529E+001	1.119612974030679E+002	-1.2374290E+000	-2.868234874339782E+001	3.5492372E-002	-1.2375567E+000	0
4.0651531E+001	1.122952973946303E+002	-1.2407836E+000	-3.052243121241236E+001	3.7871730E-002	-1.2408967E+000	0
3.8304756E+001	1.126292973861928E+002	-1.2441049E+000	-3.247912254912077E+001	4.0407434E-002	-1.2442367E+000	0
3.6112576E+001	1.129632973777552E+002	-1.2474667E+000	-3.454382944366102E+001	4.3092277E-002	-1.2475766E+000	0
3.3943745E+001	1.132972973693177E+002	-1.2507925E+000	-3.684898266110338E+001	4.6090432E-002	-1.2509166E+000	0
3.2056335E+001	1.136312973608801E+002	-1.2541360E+000	-3.912287447703602E+001	4.9065404E-002	-1.2542567E+000	0
3.0170815E+001	1.139652973524426E+002	-1.2575008E+000	-4.167937619128668E+001	5.2411847E-002	-1.2575967E+000	0
2.8546131E+001	1.142992973440050E+002	-1.2608243E+000	-4.416795839082238E+001	5.5688035E-002	-1.2609367E+000	0
2.6932642E+001	1.146332973355675E+002	-1.2641759E+000	-4.693842928734159E+001	5.9338432E-002	-1.2642766E+000	0
2.5550508E+001	1.149672973271299E+002	-1.2675122E+000	-4.960810069183418E+001	6.2878869E-002	-1.2676167E+000	0
2.4277653E+001	1.153012973186924E+002	-1.2708672E+000	-5.234720222949270E+001	6.6526346E-002	-1.2709566E+000	0
2.3006659E+001	1.156352973102548E+002	-1.2742249E+000	-5.538504955077985E+001	7.0573010E-002	-1.2742966E+000	0
2.1900951E+001	1.159692973018173E+002	-1.2775441E+000	-5.833281621426568E+001	7.4522749E-002	-1.2776368E+000	0
2.1051954E+001	1.163032972933797E+002	-1.2808943E+000	-6.084443842545170E+001	7.7935293E-002	-1.2809768E+000	0
2.0062050E+001	1.166372972849422E+002	-1.2842289E+000	-6.401284518295620E+001	8.2207151E-002	-1.2843168E+000	0
1.9149710E+001	1.169712972765046E+002	-1.2875805E+000	-6.723760168760532E+001	8.6573824E-002	-1.2876567E+000	0
1.8311949E+001	1.173052972680671E+002	-1.2909454E+000	-7.049743511547217E+001	9.1008343E-002	-1.2909967E+000	0
1.7486763E+001	1.176392972596295E+002	-1.2942748E+000	-7.401454308051927E+001	9.5795162E-002	-1.2943367E+000	0
1.6826128E+001	1.179732972511920E+002	-1.2976055E+000	-7.711848580055732E+001	1.0006937E-001	-1.2976768E+000	0
1.6183811E+001	1.183072972427544E+002	-1.3009408E+000	-8.038531237566940E+001	1.0457653E-001	-1.3010168E+000	0
1.5685045E+001	1.186412972343169E+002	-1.3042983E+000	-8.315553281029221E+001	1.0845962E-001	-1.3043568E+000	0
1.5121483E+001	1.189752972258793E+002	-1.3076140E+000	-8.647392489466256E+001	1.1307451E-001	-1.3076967E+000	0
1.4541258E+001	1.193092972174418E+002	-1.3109511E+000	-9.015389925685389E+001	1.1818735E-001	-1.3110367E+000	0
1.3874815E+001	1.196432972090042E+002	-1.3142812E+000	-9.472423538228676E+001	1.2449428E-001	-1.3143767E+000	0
1.3445129E+001	1.199772972005667E+002	-1.3176353E+000	-9.800093806286350E+001	1.2912950E-001	-1.3177167E+000	0
1.3005527E+001	1.203112971921291E+002	-1.3209672E+000	-1.015696799669071E+002	1.3417022E-001	-1.3210567E+000	0
1.2591990E+001	1.206452971836916E+002	-1.3243117E+000	-1.051709685053586E+002	1.3927914E-001	-1.3243967E+000	0
1.2316412E+001	1.209792971752540E+002	-1.3276443E+000	-1.077947313752225E+002	1.4311306E-001	-1.3277367E+000	0
1.1832954E+001	1.213132971668165E+002	-1.3309718E+000	-1.124800968745551E+002	1.4970784E-001	-1.3310767E+000	0
1.1580480E+001	1.216472971583789E+002	-1.3342924E+000	-1.152190968081177E+002	1.5373597E-001	-1.3344166E+000	0
1.1086370E+001	1.219812971499414E+002	-1.3376608E+000	-1.206581328894204E+002	1.6139965E-001	-1.3377568E+000	0
1.0820987E+001	1.223152971415038E+002	-1.3409944E+000	-1.239253345312200E+002	1.6618317E-001	-1.3410968E+000	0
1.0657883E+001	1.226492971330663E+002	-1.3443097E+000	-1.261329051286748E+002	1.6956168E-001	-1.3444368E+000	0
1.0343326E+001	1.229832971246287E+002	-1.3476694E+000	-1.302936263830243E+002	1.7559274E-001	-1.3477767E+000	0
1.0141829E+001	1.233172971161912E+002	-1.3510158E+000	-1.332122536696525E+002	1.7997186E-001	-1.3511167E+000	0
9.9947109E+000	1.236512971077536E+002	-1.3543571E+000	-1.355073857875399E+002	1.8352540E-001	-1.3544567E+000	0
9.5621748E+000	1.239852970993161E+002	-1.3576998E+000	-1.419864965372759E+002	1.9277503E-001	-1.3577968E+000	0
9.2004938E+000	1.243192970908785E+002	-1.3610619E+000	-1.479335726025320E+002	2.0134676E-001	-1.3611368E+000	0
8.9680967E+000	1.246532970824410E+002	-1.3643737E+000	-1.521363676235064E+002	2.0757085E-001	-1.3644767E+000	0
8.7385292E+000	1.249872970740034E+002	-1.3677069E+000	-1.565145440692875E+002	2.1406601E-001	-1.3678168E+000	0
8.5418301E+000	1.253212970655659E+002	-1.3710512E+000	-1.605102370212650E+002	2.2006775E-001	-1.3711567E+000	0
8.4142408E+000	1.256552970571283E+002	-1.3743842E+000	-1.633402431946251E+002	2.2449224E-001	-1.3744967E+000	0
8.3311176E+000	1.259891970486933E+002	-1.3777387E+000	-1.653726096860496E+002	2.2784024E-001	-1.3778358E+000	0
7.9910254E+000	1.263230970402583E+002	-1.3810909E+000	-1.728302415921121E+002	2.3869427E-001	-1.3811747E+000	0
7.5240097E+000	1.266570970318207E+002	-1.3844458E+000	-1.840037192613345E+002	2.5474319E-001	-1.3845147E+000	0
7.4108562E+000	1.269910970233832E+002	-1.3877885E+000	-1.872642680164087E+002	2.5988320E-001	-1.3878547E+000	0
7.2987680E+000	1.273249970149482E+002	-1.3911530E+000	-1.906010720512697E+002	2.6515526E-001	-1.3911937E+000	0
7.2132058E+000	1.276588970065131E+002	-1.3944702E+000	-1.933218350572895E+002	2.6958153E-001	-1.3945326E+000	0
7.0522375E+000	1.279928969980756E+002	-1.3978218E+000	-1.982096817533302E+002	2.7706182E-001	-1.3978727E+000	0
6.9892259E+000	1.283267969896406E+002	-1.4011675E+000	-2.004753569266219E+002	2.8089955E-001	-1.4012119E+000	0
6.8934617E+000	1.286606969812055E+002	-1.4045141E+000	-2.037458351570171E+002	2.8616390E-001	-1.4045507E+000	0
6.7602024E+000	1.289946969727680E+002	-1.4078772E+000	-2.082596263622900E+002	2.9320398E-001	-1.4078907E+000	0
6.5220909E+000	1.293286969643304E+002	-1.4112055E+000	-2.163731780531380E+002	3.0534703E-001	-1.4112307E+000	0
6.3105817E+000	1.296626969558929E+002	-1.4145554E+000	-2.241561029881614E+002	3.1708124E-001	-1.4145708E+000	0
6.2629442E+000	1.299966969474553E+002	-1.4178662E+000	-2.263897200936931E+002	3.2099035E-001	-1.4179107E+000	0
6.2556596E+000	1.303306969390178E+002	-1.4212106E+000	-2.271879795259633E+002	3.2288197E-001	-1.4212506E+000	0
6.1146617E+000	1.306646969305802E+002	-1.4245496E+000	-2.329727568360358E+002	3.3188125E-001	-1.4245907E+000	0
6.0398989E+000	1.309986969221427E+002	-1.4278767E+000	-2.364073836643920E+002	3.3756059E-001	-1.4279306E+000	0
5.9485025E+000	1.313326969137051E+002	-1.4312204E+000	-2.406017927911270E+002	3.4435418E-001	-1.4312706E+000	0
5.7817316E+000	1.316665969052701E+002	-1.4345710E+000	-2.481213539363229E+002	3.5594770E-001	-1.4346097E+000	0
5.7909765E+000	1.320001968968427E+002	-1.4379151E+000	-2.483026877474212E+002	3.5703817E-001	-1.4379457E+000	0
5.7867842E+000	1.323340968884077E+002	-1.4412456E+000	-2.490581235103073E+002	3.5895392E-001	-1.4412845E+000	0
5.8014808E+000	1.326680968799701E+002	-1.4446026E+000	-2.490058518281626E+002	3.5971451E-001	-1.4446245E+000	0
5.6619658E+000	1.330020968715326E+002	-1.4479344E+000	-2.557299819645287E+002	3.7028024E-001	-1.4479647E+000	0
5.5476799E+000	1.333360968630950E+002	-1.4512608E+000	-2.615977845775951E+002	3.7964660E-001	-1.4513048E+000	0
5.3884368E+000	1.336700968546575E+002	-1.4546037E+000	-2.699491025537523E+002	3.9266896E-001	-1.4546448E+000	0
5.3100777E+000	1.340040968462199E+002	-1.4579656E+000	-2.745657680956854E+002	4.0030745E-001	-1.4579846E+000	0
5.3076901E+000	1.343380968377824E+002	-1.4613004E+000	-2.753175751322824E+002	4.0232167E-001	-1.4613247E+000	0
5.3387108E+000	1.346720968293448E+002	-1.4646434E+000	-2.743440168412162E+002	4.0181613E-001	-1.4646647E+000	0
5.2950687E+000	1.350060968209073E+002	-1.4679961E+000	-2.772383403981263E+002	4.0698481E-001	-1.4680047E+000	0
5.2069721E+000	1.353400968124697E+002	-1.4713365E+000	-2.825704582663798E+002	4.1575623E-001	-1.4713447E+000	0
5.1588321E+000	1.356740968040322E+002	-1.4746683E+000	-2.858531287681817E+002	4.2153853E-001	-1.4746846E+000	0
4.8098292E+000	1.360080967955946E+002	-1.4779797E+000	-3.072831973760526E+002	4.5415831E-001	-1.4780245E+000	0
4.8104625E+000	1.363420967871571E+002	-1.4813241E+000	-3.079379627434482E+002	4.5615593E-001	-1.4813645E+000	0
4.7929559E+000	1.366760967787195E+002	-1.4846526E+000	-3.097572134174598E+002	4.5988187E-001	-1.4847045E+000	0
4.6194434E+000	1.370100967702820E+002	-1.4880172E+000	-3.221204577727794E+002	4.7932079E-001	-1.4880445E+000	0
4.5432696E+000	1.373440967618444E+002	-1.4914041E+000	-3.282666910605237E+002	4.8957828E-001	-1.4913844E+000	0
4.5724688E+000	1.376780967534069E+002	-1.4947250E+000	-3.268967048595546E+002	4.8862067E-001	-1.4947244E+000	0
4.4119906E+000	1.380120967449693E+002	-1.4981179E+000	-3.395559921810759E+002	5.0869495E-001	-1.4980644E+000	0
4.3055291E+000	1.383460967365318E+002	-1.5014646E+000	-3.487294005363112E+002	5.2360487E-001	-1.5014045E+000	0
4.3052187E+000	1.386800967280942E+002	-1.5047894E+000	-3.495268147866791E+002	5.2596420E-001	-1.5047444E+000	0
4.2750158E+000	1.390140967196567E+002	-1.5081271E+000	-3.527769705657693E+002	5.3203249E-001	-1.5080845E+000	0
4.2246289E+000	1.393480967112191E+002	-1.5114660E+000	-3.577748525270217E+002	5.4076451E-001	-1.5114244E+000	0
4.2605791E+000	1.396818967027866E+002	-1.5148090E+000	-3.555406378519119E+002	5.3857619E-001	-1.5147625E+000	0
4.3291388E+000	1.400158966943491E+002	-1.5181512E+000	-3.506820377580968E+002	5.3238833E-001	-1.5181024E+000	0
4.3047314E+000	1.403498966859115E+002	-1.5214858E+000	-3.534450002577692E+002	5.3776157E-001	-1.5214423E+000	0
4.3746843E+000	1.406838966774740E+002	-1.5247957E+000	-3.485498665930141E+002	5.3146732E-001	-1.5247824E+000	0
4.2721076E+000	1.410178966690364E+002	-1.5281451E+000	-3.577028624678442E+002	5.4662186E-001	-1.5281224E+000	0
4.2116108E+000	1.413516966606039E+002	-1.5314441E+000	-3.636243081215407E+002	5.5687028E-001	-1.5314606E+000	0
4.2598739E+000	1.416856966521664E+002	-1.5347966E+000	-3.602915704375514E+002	5.5297428E-001	-1.5348005E+000	0
4.3142548E+000	1.420196966437288E+002	-1.5381609E+000	-3.565299361658051E+002	5.4840040E-001	-1.5381404E+000	0
4.3222771E+000	1.423535966352938E+002	-1.5414983E+000	-3.566403115502526E+002	5.4976046E-001	-1.5414792E+000	0
4.2223668E+000	1.426874966268588E+002	-1.5448321E+000	-3.658687510747181E+002	5.6520581E-001	-1.5448185E+000	0
3.9993644E+000	1.430214966184212E+002	-1.5485463E+000	-3.871981169073570E+002	5.9959424E-001	-1.5481585E+000	0
3.8973579E+000	1.433554966099837E+002	-1.5521414E+000	-3.982547872354721E+002	6.1814773E-001	-1.5514985E+000	0
3.8129325E+000	1.436894966015461E+002	-1.5554762E+000	-4.079474877730117E+002	6.3455260E-001	-1.5548385E+000	0
3.8001254E+000	1.440234965931086E+002	-1.5588247E+000	-4.102034852064558E+002	6.3943529E-001	-1.5581784E+000	0
3.8227398E+000	1.443573965846736E+002	-1.5621490E+000	-4.086464543978798E+002	6.3836670E-001	-1.5615175E+000	0
3.6985946E+000	1.446912965762385E+002	-1.5655067E+000	-4.232706942023244E+002	6.6263312E-001	-1.5648564E+000	0
3.6681631E+000	1.450252965678010E+002	-1.5688564E+000	-4.276953837184483E+002	6.7099261E-001	-1.5681964E+000	0
3.6888256E+000	1.453592965593634E+002	-1.5721933E+000	-4.262042777133074E+002	6.7007548E-001	-1.5715365E+000	0
3.5594966E+000	1.456932965509259E+002	-1.5755197E+000	-4.426242858659016E+002	6.9736326E-001	-1.5748767E+000	0
3.5483832E+000	1.460272965424883E+002	-1.5788463E+000	-4.449480973740365E+002	7.0250469E-001	-1.5782164E+000	0
3.5626967E+000	1.463612965340508E+002	-1.5821872E+000	-4.440981988643780E+002	7.0264649E-001	-1.5815566E+000	0
3.5703228E+000	1.466950965256183E+002	-1.5855370E+000	-4.440878367939949E+002	7.0411766E-001	-1.5848945E+000	0
3.5832913E+000	1.470290965171807E+002	-1.5888722E+000	-4.434113976200370E+002	7.0452404E-001	-1.5882344E+000	0
3.5662303E+000	1.473630965087432E+002	-1.5922397E+000	-4.464769880799024E+002	7.1089840E-001	-1.5915745E+000	0
3.5499272E+000	1.476970965003056E+002	-1.5955524E+000	-4.494606036564072E+002	7.1713799E-001	-1.5949144E+000	0
3.5778949E+000	1.480310964918681E+002	-1.5988973E+000	-4.468821466282261E+002	7.1451867E-001	-1.5982544E+000	0
3.5645552E+000	1.483650964834305E+002	-1.6022366E+000	-4.494913394676387E+002	7.2019148E-001	-1.6015944E+000	0
3.4489133E+000	1.486990964749930E+002	-1.6056106E+000	-4.655410069480859E+002	7.4747759E-001	-1.6049345E+000	0
3.3172553E+000	1.490330964665554E+002	-1.6089667E+000	-4.850295028301089E+002	7.8039634E-001	-1.6082745E+000	0
3.3063118E+000	1.493670964581179E+002	-1.6123270E+000	-4.876512023378473E+002	7.8625321E-001	-1.6116145E+000	0
3.2381444E+000	1.497010964496803E+002	-1.6156286E+000	-4.989365371338490E+002	8.0609614E-001	-1.6149544E+000	0
3.2089367E+000	1.500350964412428E+002	-1.6189817E+000	-5.045228059890906E+002	8.1681317E-001	-1.6182945E+000	0
3.2646399E+000	1.503689964328078E+002	-1.6223127E+000	-4.969346674291610E+002	8.0618340E-001	-1.6216334E+000	0
3.3154738E+000	1.507028964243727E+002	-1.6256557E+000	-4.903237670735343E+002	7.9709762E-001	-1.6249723E+000	0
3.4061904E+000	1.510368964159352E+002	-1.6289873E+000	-4.782431843916547E+002	7.7905208E-001	-1.6283126E+000	0
3.3962185E+000	1.513708964074976E+002	-1.6323183E+000	-4.806281508190077E+002	7.8453809E-001	-1.6316524E+000	0
3.2496450E+000	1.517048963990601E+002	-1.6356432E+000	-5.033298371063504E+002	8.2326806E-001	-1.6349925E+000	0
3.1890810E+000	1.520388963906225E+002	-1.6389911E+000	-5.139383695139077E+002	8.4234041E-001	-1.6383325E+000	0
3.1930289E+000	1.523728963821850E+002	-1.6423466E+000	-5.143538253653769E+002	8.4474725E-001	-1.6416725E+000	0
3.2149704E+000	1.527068963737474E+002	-1.6456786E+000	-5.118798976453390E+002	8.4238982E-001	-1.6450126E+000	0
3.1173892E+000	1.530408963653099E+002	-1.6490308E+000	-5.289781597568344E+002	8.7230128E-001	-1.6483525E+000	0
3.1645806E+000	1.533748963568723E+002	-1.6523719E+000	-5.221456248791064E+002	8.6277872E-001	-1.6516925E+000	0
3.2494421E+000	1.537088963484348E+002	-1.6557088E+000	-5.095363176879131E+002	8.4364378E-001	-1.6550325E+000	0
3.1166196E+000	1.540428963399972E+002	-1.6590534E+000	-5.323246431641819E+002	8.8315505E-001	-1.6583724E+000	0
2.9665172E+000	1.543768963315597E+002	-1.6623939E+000	-5.603857420011898E+002	9.3158185E-001	-1.6617125E+000	0
2.9897878E+000	1.547108963231221E+002	-1.6657584E+000	-5.571493755920510E+002	9.2807621E-001	-1.6650524E+000	0
3.0170295E+000	1.549947963159502E+002	-1.6685851E+000	-5.530556145172059E+002	9.2282033E-001	-1.6678915E+000	0
3.0246880E+000	1.551269963126106E+002	-1.6699631E+000	-5.521108500162763E+002	9.2200476E-001	-1.6692271E+000	1