EC-Lab ASCII FILE
Nb header lines : 61                          

Linear Sweep Voltammetry

Run on channel : 1 (SN 1340)
User : 
Electrode connection : standard
Potential control : Ewe
Ewe ctrl range : min = -5.00 V, max = 5.00 V
Ewe,I filtering : 50 kHz
Channel : Grounded
Acquisition started on : 11/23/2025 15:58:14.789
Technique started on : 11/23/2025 15:58:18.154
Loaded Setting File :  NONE
Saved on :
	File : Ni_Magnet_South_Test1_IR_02_LSV_C01.mpr
	Directory : C:\Users\volt\Documents\Platalytix\
	Host : 127.0.0.1
Device : SP-200 (SN 0262)
Address : USB
EC-LAB for windows v11.60 (software)
Internet server v11.60 (firmware)
Command interpretor v11.60 (firmware)
Electrode material : Ni
Initial state : 
Electrolyte : KOH (1 M)
Comments : South side of permanent magnet
Cable : standard
Reference electrode : Hg/HgO (0.140 V)
Electrode surface area : 10.000 cm˛
Characteristic mass : 0.001 g
Equivalent Weight : 0.000 g/eq.
Density : 0.000 g/cm3
Volume (V) : 0.001 cmł
Cycle Definition : Charge/Discharge alternance
tR (h:m:s)          0:00:5.0000         
dER/dt (mV/h)       0.0                 
dER (mV)            0                   
dtR (s)             0.0000              
dE/dt               10.000              
dE/dt unit          mV/s                
Ei (V)              -0.200              
vs.                 Ref                 
EL (V)              -2.500              
vs.                 Ref                 
record              <I>                 
dI                  0.000               
unit dI             µA                  
tI (s)              0.0000              
step percent        50                  
N                   10                  
E range min (V)     -5.000              
E range max (V)     5.000               
I Range             Auto                
I Range min         Unset               
I Range max         Unset               
I Range init        Unset               
Bandwidth           8                   

<I>/mA	Ewe/V	control/V	Rwe/Ohm	time/s	
0.000000000000000E+000	-1.5631081E-001	0.0000000E+000	0.0000000E+000	3.365400159818819E+000
0.000000000000000E+000	-6.3770972E-002	-1.9987725E-001	0.0000000E+000	8.365200033513247E+000
1.129515302946438E-001	-2.0101720E-001	-2.0117703E-001	1.7796766E+003	8.505200029976550E+000
-5.347149781515423E-002	-2.0218518E-001	-2.0237708E-001	3.7811768E+003	8.625200026945095E+000
-7.107921106616255E-002	-2.0428678E-001	-2.0447709E-001	2.8740723E+003	8.835200021640048E+000
-6.898394317414741E-002	-2.0627092E-001	-2.0647706E-001	2.9901294E+003	9.035200016587623E+000
-6.623177730706398E-002	-2.0831320E-001	-2.0847708E-001	3.1452153E+003	9.235200011535198E+000
-6.374843236398942E-002	-2.1031432E-001	-2.1047708E-001	3.2991292E+003	9.435200006482773E+000
-6.174087156953456E-002	-2.1230908E-001	-2.1247709E-001	3.4387119E+003	9.635200001430348E+000
-5.993054057904393E-002	-2.1430340E-001	-2.1447706E-001	3.5758630E+003	9.835199996377924E+000
-5.848534999028798E-002	-2.1630895E-001	-2.1647710E-001	3.6985151E+003	1.003519999132550E+001
-5.722999485218000E-002	-2.1831222E-001	-2.1847707E-001	3.8146467E+003	1.023519998627307E+001
-5.606343053374263E-002	-2.2032203E-001	-2.2047706E-001	3.9298706E+003	1.043519998122065E+001
-5.509390436005179E-002	-2.2230871E-001	-2.2247709E-001	4.0350872E+003	1.063519997616822E+001
-5.419706794129198E-002	-2.2430071E-001	-2.2447707E-001	4.1386133E+003	1.083519997111580E+001
-5.336669195219546E-002	-2.2630605E-001	-2.2647707E-001	4.2405859E+003	1.103519996606337E+001
-5.267414216072530E-002	-2.2829893E-001	-2.2847708E-001	4.3341748E+003	1.123519996101095E+001
-5.203855194599072E-002	-2.3029175E-001	-2.3047708E-001	4.4254067E+003	1.143519995595852E+001
-5.143483842790675E-002	-2.3231006E-001	-2.3247707E-001	4.5165898E+003	1.163519995090610E+001
-5.090825094697826E-002	-2.3430119E-001	-2.3447707E-001	4.6024209E+003	1.183519994585367E+001
-5.038691080405533E-002	-2.3630489E-001	-2.3647708E-001	4.6898071E+003	1.203519994080125E+001
-4.992309164904180E-002	-2.3833081E-001	-2.3847707E-001	4.7739595E+003	1.223519993574882E+001
-4.949045589229609E-002	-2.4030901E-001	-2.4047709E-001	4.8556636E+003	1.243519993069640E+001
-4.908790979840605E-002	-2.4230970E-001	-2.4247707E-001	4.9362402E+003	1.263519992564397E+001
-4.870177668972331E-002	-2.4430746E-001	-2.4447706E-001	5.0163975E+003	1.283519992059155E+001
-4.833963044624467E-002	-2.4632108E-001	-2.4647708E-001	5.0956343E+003	1.303519991553912E+001
-4.803206184731112E-002	-2.4831071E-001	-2.4847709E-001	5.1696870E+003	1.323519991048670E+001
-4.767558007958267E-002	-2.5029525E-001	-2.5047708E-001	5.2499678E+003	1.343519990543427E+001
-4.737785430028488E-002	-2.5229111E-001	-2.5247708E-001	5.3250854E+003	1.363519990038185E+001
-4.707350837021385E-002	-2.5430477E-001	-2.5447708E-001	5.4022905E+003	1.383519989532942E+001
-4.684326906087699E-002	-2.5630736E-001	-2.5647709E-001	5.4715942E+003	1.403519989027700E+001
-4.661427641259974E-002	-2.5829256E-001	-2.5847706E-001	5.5410610E+003	1.423519988522457E+001
-4.633032116572247E-002	-2.6029110E-001	-2.6047710E-001	5.6181587E+003	1.443519988017215E+001
-4.612448175127304E-002	-2.6229817E-001	-2.6247707E-001	5.6867451E+003	1.463519987511972E+001
-4.590892424762608E-002	-2.6428297E-001	-2.6447710E-001	5.7566797E+003	1.483519987006730E+001
-4.568431227200803E-002	-2.6628432E-001	-2.6647708E-001	5.8287910E+003	1.503519986501487E+001
-4.549205286719767E-002	-2.6826185E-001	-2.6847708E-001	5.8968950E+003	1.523519985996245E+001
-4.526684496682681E-002	-2.7027866E-001	-2.7047709E-001	5.9707866E+003	1.543519985491002E+001
-4.512218139060420E-002	-2.7227491E-001	-2.7247706E-001	6.0341699E+003	1.563519984985760E+001
-4.496812638129777E-002	-2.7426755E-001	-2.7447706E-001	6.0991548E+003	1.583519984480517E+001
-4.482136057085762E-002	-2.7626398E-001	-2.7647707E-001	6.1636680E+003	1.603519983975275E+001
-4.463604767490059E-002	-2.7826318E-001	-2.7847710E-001	6.2340464E+003	1.623519983470032E+001
-4.451896451031367E-002	-2.8027895E-001	-2.8047708E-001	6.2957202E+003	1.643519982964790E+001
-4.423367560519789E-002	-2.8269431E-001	-2.8287709E-001	6.3909297E+003	1.667519982358499E+001
-4.409074231315901E-002	-2.8468716E-001	-2.8487706E-001	6.4568467E+003	1.687519981853256E+001
-4.399013067247198E-002	-2.8670096E-001	-2.8687707E-001	6.5173931E+003	1.707519981348014E+001
-4.382399381048624E-002	-2.8869638E-001	-2.8887707E-001	6.5876328E+003	1.727519980842771E+001
-4.371596697602809E-002	-2.9069707E-001	-2.9087710E-001	6.6496772E+003	1.747519980337529E+001
-4.364246725793197E-002	-2.9269353E-001	-2.9287708E-001	6.7066221E+003	1.767519979832286E+001
-4.355160394433266E-002	-2.9467404E-001	-2.9487711E-001	6.7660894E+003	1.787519979327044E+001
-4.345801103091428E-002	-2.9670104E-001	-2.9687706E-001	6.8273037E+003	1.807519978821801E+001
-4.331983638137507E-002	-2.9869455E-001	-2.9887706E-001	6.8950986E+003	1.827519978316559E+001
-4.328238490077740E-002	-3.0070436E-001	-3.0087706E-001	6.9475000E+003	1.847519977811316E+001
-4.316850850340659E-002	-3.0267537E-001	-3.0287707E-001	7.0114854E+003	1.867519977306074E+001
-4.311017713260296E-002	-3.0468643E-001	-3.0487707E-001	7.0676216E+003	1.887519976800832E+001
-4.300317167998186E-002	-3.0670026E-001	-3.0687708E-001	7.1320381E+003	1.907519976295589E+001
-4.297782122970573E-002	-3.0870545E-001	-3.0887708E-001	7.1829014E+003	1.927519975790347E+001
-4.289940416273325E-002	-3.1071204E-001	-3.1087708E-001	7.2428057E+003	1.947519975285104E+001
-4.284985009301023E-002	-3.1270108E-001	-3.1287709E-001	7.2976001E+003	1.967519974779862E+001
-4.277311308972559E-002	-3.1470072E-001	-3.1487709E-001	7.3574424E+003	1.987519974274619E+001
-4.272887419593513E-002	-3.1670290E-001	-3.1687710E-001	7.4119180E+003	2.007519973769377E+001
-4.268081447129654E-002	-3.1869870E-001	-3.1887710E-001	7.4670249E+003	2.027519973264134E+001
-4.263041218396407E-002	-3.2068199E-001	-3.2087708E-001	7.5223760E+003	2.047519972758892E+001
-4.255202743029429E-002	-3.2269859E-001	-3.2287708E-001	7.5836245E+003	2.067519972253649E+001
-4.253985275500666E-002	-3.2468402E-001	-3.2487708E-001	7.6324668E+003	2.087519971748407E+001
-4.245673796181010E-002	-3.2668662E-001	-3.2687709E-001	7.6945767E+003	2.107519971243164E+001
-4.242280747001248E-002	-3.2871893E-001	-3.2887709E-001	7.7486367E+003	2.127519970737922E+001
-4.238635386301254E-002	-3.3070415E-001	-3.3087707E-001	7.8021372E+003	2.147519970232679E+001
-4.238840198469531E-002	-3.3270144E-001	-3.3287710E-001	7.8488794E+003	2.167519969727437E+001
-4.235736631245564E-002	-3.3470762E-001	-3.3487707E-001	7.9019932E+003	2.187519969222194E+001
-4.229522742174752E-002	-3.3670747E-001	-3.3687711E-001	7.9608857E+003	2.207519968716952E+001
-4.230566304404064E-002	-3.3870816E-001	-3.3887705E-001	8.0062134E+003	2.227519968211709E+001
-4.225339265482175E-002	-3.4070995E-001	-3.4087706E-001	8.0634937E+003	2.247519967706467E+001
-4.222330792892573E-002	-3.4270683E-001	-3.4287706E-001	8.1165322E+003	2.267519967201224E+001
-4.221124191876170E-002	-3.4470710E-001	-3.4487709E-001	8.1662393E+003	2.287519966695982E+001
-4.215897701294191E-002	-3.4669057E-001	-3.4687710E-001	8.2234102E+003	2.307519966190739E+001
-4.217242191507653E-002	-3.4869444E-001	-3.4887710E-001	8.2683047E+003	2.327519965685497E+001
-4.213524337666819E-002	-3.5071492E-001	-3.5087711E-001	8.3235527E+003	2.347519965180254E+001
-4.212985928180928E-002	-3.5268840E-001	-3.5287708E-001	8.3714590E+003	2.367519964675012E+001
-4.209057252422214E-002	-3.5468850E-001	-3.5487711E-001	8.4267920E+003	2.387519964169769E+001
-4.210464633967453E-002	-3.5670233E-001	-3.5687709E-001	8.4718047E+003	2.407519963664527E+001
-4.208519203639038E-002	-3.5871068E-001	-3.5887706E-001	8.5234414E+003	2.427519963159284E+001
-4.207067270029358E-002	-3.6070925E-001	-3.6087710E-001	8.5738887E+003	2.447519962654042E+001
-4.205020212451138E-002	-3.6268297E-001	-3.6287707E-001	8.6249990E+003	2.467519962148799E+001
-4.204232671483943E-002	-3.6469850E-001	-3.6487710E-001	8.6745557E+003	2.487519961643557E+001
-4.205992349419252E-002	-3.6668628E-001	-3.6687708E-001	8.7181875E+003	2.507519961138314E+001
-4.204888008519059E-002	-3.6869967E-001	-3.6887708E-001	8.7683584E+003	2.527519960633072E+001
-4.203744318685743E-002	-3.7069470E-001	-3.7087712E-001	8.8182031E+003	2.547519960127829E+001
-4.205001076517628E-002	-3.7269682E-001	-3.7287709E-001	8.8631797E+003	2.567519959622587E+001
-4.205119516436528E-002	-3.7470093E-001	-3.7487707E-001	8.9105898E+003	2.587519959117344E+001
-4.206496369132717E-002	-3.7668422E-001	-3.7687710E-001	8.9548213E+003	2.607519958612102E+001
-4.204668027909503E-002	-3.7868533E-001	-3.7887707E-001	9.0063076E+003	2.627519958106859E+001
-4.205424736635102E-002	-3.8068733E-001	-3.8087708E-001	9.0522920E+003	2.647519957601617E+001
-4.205059225918081E-002	-3.8269779E-001	-3.8287708E-001	9.1008896E+003	2.667519957096374E+001
-4.209066557385379E-002	-3.8469124E-001	-3.8487712E-001	9.1395859E+003	2.687519956591132E+001
-4.209135143511833E-002	-3.8668898E-001	-3.8687709E-001	9.1868984E+003	2.707519956085889E+001
-4.209069231743640E-002	-3.8869157E-001	-3.8887709E-001	9.2346201E+003	2.727519955580647E+001
-4.208871077185483E-002	-3.9067611E-001	-3.9087707E-001	9.2822070E+003	2.747519955075404E+001
-4.209631370156675E-002	-3.9267448E-001	-3.9287710E-001	9.3280020E+003	2.767519954570162E+001
-4.210609206486311E-002	-3.9468241E-001	-3.9487714E-001	9.3735225E+003	2.787519954064919E+001
-4.213360580351710E-002	-3.9668098E-001	-3.9687714E-001	9.4148359E+003	2.807519953559677E+001
-4.212555753504299E-002	-3.9869016E-001	-3.9887708E-001	9.4643301E+003	2.827519953054434E+001
-4.218156728787936E-002	-4.0070760E-001	-4.0087712E-001	9.4995898E+003	2.847519952549192E+001
-4.216687130908592E-002	-4.0268114E-001	-4.0287715E-001	9.5497041E+003	2.867519952043949E+001
-4.219121451076757E-002	-4.0467510E-001	-4.0487710E-001	9.5914541E+003	2.887519951538707E+001
-4.219177734215543E-002	-4.0667912E-001	-4.0687710E-001	9.6388242E+003	2.907519951033464E+001
-4.222995072419489E-002	-4.0868264E-001	-4.0887713E-001	9.6775547E+003	2.927519950528222E+001
-4.226323559641607E-002	-4.1068900E-001	-4.1087708E-001	9.7174053E+003	2.947519950022979E+001
-4.228653427204976E-002	-4.1273171E-001	-4.1287711E-001	9.7603574E+003	2.967519949517737E+001
-4.229964030000577E-002	-4.1474667E-001	-4.1487712E-001	9.8049688E+003	2.987519949012494E+001
-4.230207169894126E-002	-4.1671783E-001	-4.1687715E-001	9.8510029E+003	3.007519948507252E+001
-4.235455872149940E-002	-4.1872975E-001	-4.1887709E-001	9.8862969E+003	3.027519948002009E+001
-4.238007486403994E-002	-4.2073262E-001	-4.2087707E-001	9.9276045E+003	3.047519947496767E+001
-4.242689242003633E-002	-4.2271778E-001	-4.2287710E-001	9.9634395E+003	3.067519946991524E+001
-4.243313403622728E-002	-4.2474839E-001	-4.2487711E-001	1.0009828E+004	3.087519946486282E+001
-4.246636022615086E-002	-4.2671895E-001	-4.2687711E-001	1.0048399E+004	3.107519945981039E+001
-4.249064243280345E-002	-4.2871374E-001	-4.2887712E-001	1.0089604E+004	3.127519945475797E+001
-4.250275024029171E-002	-4.3071714E-001	-4.3087712E-001	1.0133865E+004	3.147519944970554E+001
-4.253049588037867E-002	-4.3271133E-001	-4.3287706E-001	1.0174143E+004	3.167519944465312E+001
-4.257214565939849E-002	-4.3472108E-001	-4.3487713E-001	1.0211397E+004	3.187519943960069E+001
-4.258716967967346E-002	-4.3672433E-001	-4.3687713E-001	1.0254834E+004	3.207519943454827E+001
-4.264277322935850E-002	-4.3874770E-001	-4.3887711E-001	1.0288911E+004	3.227519942949584E+001
-4.266604751585024E-002	-4.4071871E-001	-4.4087708E-001	1.0329495E+004	3.247519942444342E+001
-4.269752601323140E-002	-4.4273344E-001	-4.4287711E-001	1.0369065E+004	3.267519941939099E+001
-4.271899523158602E-002	-4.4472098E-001	-4.4487709E-001	1.0410380E+004	3.287519941433857E+001
-4.272182237160499E-002	-4.4671550E-001	-4.4687709E-001	1.0456378E+004	3.307519940928614E+001
-4.282218542598315E-002	-4.4872642E-001	-4.4887710E-001	1.0478830E+004	3.327519940423372E+001
-4.283678989124634E-002	-4.5073068E-001	-4.5087713E-001	1.0522046E+004	3.347519939918129E+001
-4.286902796402106E-002	-4.5274368E-001	-4.5287707E-001	1.0561091E+004	3.367519939412887E+001
-4.288763222902325E-002	-4.5474419E-001	-4.5487711E-001	1.0603154E+004	3.387519938907644E+001
-4.291968170396121E-002	-4.5674318E-001	-4.5687714E-001	1.0641812E+004	3.407519938402402E+001
-4.296276737015078E-002	-4.5873219E-001	-4.5887709E-001	1.0677436E+004	3.427519937897159E+001
-4.301564005528734E-002	-4.6072951E-001	-4.6087709E-001	1.0710744E+004	3.447519937391917E+001
-4.306397844600141E-002	-4.6274504E-001	-4.6287712E-001	1.0745524E+004	3.467519936886674E+001
-4.309429862650527E-002	-4.6472430E-001	-4.6487716E-001	1.0783893E+004	3.487519936381432E+001
-4.310020842471174E-002	-4.6669930E-001	-4.6687710E-001	1.0828237E+004	3.507519935876189E+001
-4.315109300171616E-002	-4.6870464E-001	-4.6887711E-001	1.0861941E+004	3.527519935370947E+001
-4.320435866406258E-002	-4.7071981E-001	-4.7087711E-001	1.0895192E+004	3.547519934865704E+001
-4.323048196820650E-002	-4.7270840E-001	-4.7287709E-001	1.0934608E+004	3.567519934360462E+001
-4.328976993558847E-002	-4.7471219E-001	-4.7487712E-001	1.0965921E+004	3.587519933855219E+001
-4.331343907328589E-002	-4.7670785E-001	-4.7687715E-001	1.1006003E+004	3.607519933349977E+001
-4.338388934007115E-002	-4.7871241E-001	-4.7887713E-001	1.1034336E+004	3.627519932844734E+001
-4.340486340446459E-002	-4.8071289E-001	-4.8087710E-001	1.1075093E+004	3.647519932339492E+001
-4.346373357151190E-002	-4.8271015E-001	-4.8287711E-001	1.1106044E+004	3.667519931834249E+001
-4.350304719094433E-002	-4.8472714E-001	-4.8487711E-001	1.1142372E+004	3.687519931329007E+001
-4.351690074517614E-002	-4.8671579E-001	-4.8687711E-001	1.1184523E+004	3.707519930823764E+001
-4.361427534380063E-002	-4.8871201E-001	-4.8887709E-001	1.1205322E+004	3.727519930318522E+001
-4.363398262787428E-002	-4.9071613E-001	-4.9087712E-001	1.1246191E+004	3.747519929813279E+001
-4.366303438715657E-002	-4.9269703E-001	-4.9287713E-001	1.1284077E+004	3.767519929308037E+001
-4.372081208932938E-002	-4.9469715E-001	-4.9487707E-001	1.1314912E+004	3.787519928802794E+001
-4.376817747233597E-002	-4.9670821E-001	-4.9687710E-001	1.1348615E+004	3.807519928297552E+001
-4.381618114260144E-002	-4.9870086E-001	-4.9887714E-001	1.1381659E+004	3.827519927792309E+001
-4.386921110351794E-002	-5.0070405E-001	-5.0087708E-001	1.1413564E+004	3.847519927287067E+001
-4.390753651974411E-002	-5.0269252E-001	-5.0287706E-001	1.1448890E+004	3.867519926781824E+001
-4.396948132974410E-002	-5.0470448E-001	-5.0487715E-001	1.1478518E+004	3.887519926276582E+001
-4.401328059229062E-002	-5.0667781E-001	-5.0687706E-001	1.1511930E+004	3.907519925771339E+001
-4.407592232961022E-002	-5.0870180E-001	-5.0887710E-001	1.1541489E+004	3.927519925266097E+001
-4.414152388266654E-002	-5.1067829E-001	-5.1087713E-001	1.1569113E+004	3.947519924760854E+001
-4.418692869147955E-002	-5.1270634E-001	-5.1287711E-001	1.1603122E+004	3.967519924255612E+001
-4.425755989460112E-002	-5.1470977E-001	-5.1487708E-001	1.1629872E+004	3.987519923750369E+001
-4.429165285968682E-002	-5.1671493E-001	-5.1687711E-001	1.1666192E+004	4.007519923245127E+001
-4.432855942893707E-002	-5.1871055E-001	-5.1887715E-001	1.1701498E+004	4.027519922739884E+001
-4.442318573239301E-002	-5.2070123E-001	-5.2087706E-001	1.1721384E+004	4.047519922234642E+001
-4.447398459445906E-002	-5.2269071E-001	-5.2287710E-001	1.1752729E+004	4.067519921729399E+001
-4.450755103627468E-002	-5.2470124E-001	-5.2487713E-001	1.1789039E+004	4.087519921224157E+001
-4.455020251660663E-002	-5.2669358E-001	-5.2687711E-001	1.1822474E+004	4.107519920718914E+001
-4.465300513113607E-002	-5.2870148E-001	-5.2887714E-001	1.1840222E+004	4.127519920213672E+001
-4.468291894138876E-002	-5.3071600E-001	-5.3087711E-001	1.1877380E+004	4.147519919708429E+001
-4.474154624733173E-002	-5.3272051E-001	-5.3287715E-001	1.1906618E+004	4.167519919203187E+001
-4.477593155161730E-002	-5.3469616E-001	-5.3487712E-001	1.1941598E+004	4.187519918697944E+001
-4.486617256988623E-002	-5.3668606E-001	-5.3687710E-001	1.1961931E+004	4.207519918192702E+001
-4.492242369946531E-002	-5.3871053E-001	-5.3887713E-001	1.1992019E+004	4.227519917687459E+001
-4.496283535903656E-002	-5.4071653E-001	-5.4087710E-001	1.2025854E+004	4.247519917182217E+001
-4.502348510296106E-002	-5.4271889E-001	-5.4287708E-001	1.2054129E+004	4.267519916676974E+001
-4.506378860002713E-002	-5.4470026E-001	-5.4487711E-001	1.2087316E+004	4.287519916171732E+001
-4.512930513399738E-002	-5.4670793E-001	-5.4687715E-001	1.2114256E+004	4.307519915666489E+001
-4.519767196249214E-002	-5.4871887E-001	-5.4887718E-001	1.2140423E+004	4.327519915161247E+001
-4.526057679527162E-002	-5.5070722E-001	-5.5087709E-001	1.2167481E+004	4.347519914656004E+001
-4.529837659499980E-002	-5.5271614E-001	-5.5287713E-001	1.2201677E+004	4.367519914150762E+001
-4.537116934422869E-002	-5.5470687E-001	-5.5487710E-001	1.2225977E+004	4.387519913645519E+001
-4.542979774674571E-002	-5.5670488E-001	-5.5687708E-001	1.2254179E+004	4.407519913140277E+001
-4.548698105683568E-002	-5.5869830E-001	-5.5887711E-001	1.2282598E+004	4.427519912635034E+001
-4.555597301185021E-002	-5.6070668E-001	-5.6087714E-001	1.2308082E+004	4.447519912129792E+001
-4.559294828884247E-002	-5.6269670E-001	-5.6287712E-001	1.2341748E+004	4.467519911624549E+001
-4.564640066051096E-002	-5.6470954E-001	-5.6487715E-001	1.2371393E+004	4.487519911119307E+001
-4.567074671740357E-002	-5.6670010E-001	-5.6687713E-001	1.2408383E+004	4.507519910614064E+001
-4.577085706685155E-002	-5.6869668E-001	-5.6887716E-001	1.2424864E+004	4.527519910108822E+001
-4.579988099416080E-002	-5.7068145E-001	-5.7087708E-001	1.2460326E+004	4.547519909603579E+001
-4.588161430494815E-002	-5.7269472E-001	-5.7287711E-001	1.2482009E+004	4.567519909098337E+001
-4.592759703268023E-002	-5.7468945E-001	-5.7487714E-001	1.2512944E+004	4.587519908593094E+001
-4.598777759830770E-002	-5.7669079E-001	-5.7687706E-001	1.2540088E+004	4.607519908087852E+001
-4.602619299460253E-002	-5.7869470E-001	-5.7887715E-001	1.2573160E+004	4.627519907582609E+001
-4.609017075375235E-002	-5.8069754E-001	-5.8087718E-001	1.2599162E+004	4.647519907077367E+001
-4.611435277802511E-002	-5.8270025E-001	-5.8287710E-001	1.2635984E+004	4.667519906572124E+001
-4.618289386705737E-002	-5.8470243E-001	-5.8487707E-001	1.2660585E+004	4.687519906066882E+001
-4.623808129294593E-002	-5.8669704E-001	-5.8687711E-001	1.2688611E+004	4.707519905561639E+001
-4.629358357027641E-002	-5.8868474E-001	-5.8887720E-001	1.2716335E+004	4.727519905056397E+001
-4.633975957463310E-002	-5.9070855E-001	-5.9087712E-001	1.2747338E+004	4.747519904551154E+001
-4.639200134917708E-002	-5.9269375E-001	-5.9287709E-001	1.2775774E+004	4.767519904045912E+001
-4.644518369062270E-002	-5.9469682E-001	-5.9487718E-001	1.2804273E+004	4.787519903540669E+001
-4.649700398151413E-002	-5.9671575E-001	-5.9687710E-001	1.2833424E+004	4.807519903035427E+001
-4.651069427500398E-002	-5.9869248E-001	-5.9887713E-001	1.2872146E+004	4.827519902530184E+001
-4.658263000050389E-002	-6.0068315E-001	-6.0087711E-001	1.2895003E+004	4.847519902024942E+001
-4.663452952746477E-002	-6.0270530E-001	-6.0287714E-001	1.2924014E+004	4.867519901519699E+001
-4.667008088800284E-002	-6.0471535E-001	-6.0487711E-001	1.2957238E+004	4.887519901014457E+001
-4.673876495696083E-002	-6.0671455E-001	-6.0687709E-001	1.2980971E+004	4.907519900509214E+001
-4.677631291603071E-002	-6.0869950E-001	-6.0887718E-001	1.3012986E+004	4.927519900003972E+001
-4.685750619541069E-002	-6.1071569E-001	-6.1087704E-001	1.3033466E+004	4.947519899498730E+001
-4.688629166797509E-002	-6.1271727E-001	-6.1287713E-001	1.3068153E+004	4.967519898993487E+001
-4.695188411080675E-002	-6.1471623E-001	-6.1487716E-001	1.3092472E+004	4.987519898488245E+001
-4.699947842942676E-002	-6.1672205E-001	-6.1687714E-001	1.3121892E+004	5.007519897983002E+001
-4.706986596102486E-002	-6.1873221E-001	-6.1887711E-001	1.3144975E+004	5.027519897477760E+001
-4.711058595172402E-002	-6.2070960E-001	-6.2087709E-001	1.3175587E+004	5.047519896972517E+001
-4.715938243250517E-002	-6.2272263E-001	-6.2287718E-001	1.3204639E+004	5.067519896467275E+001
-4.719102618367965E-002	-6.2473619E-001	-6.2487710E-001	1.3238453E+004	5.087519895962032E+001
-4.726278916415261E-002	-6.2671131E-001	-6.2687707E-001	1.3260143E+004	5.107519895456790E+001
-4.732114355509587E-002	-6.2870455E-001	-6.2887716E-001	1.3285912E+004	5.127519894951547E+001
-4.741706971930182E-002	-6.3070905E-001	-6.3087708E-001	1.3301308E+004	5.147519894446305E+001
-4.747969785081174E-002	-6.3273180E-001	-6.3287711E-001	1.3326365E+004	5.167519893941062E+001
-4.752381550583171E-002	-6.3471848E-001	-6.3487709E-001	1.3355798E+004	5.187519893435820E+001
-4.760386692961915E-002	-6.3670665E-001	-6.3687718E-001	1.3375104E+004	5.207519892930577E+001
-4.766511690513542E-002	-6.3872051E-001	-6.3887709E-001	1.3400167E+004	5.227519892425335E+001
-4.776967587128977E-002	-6.4073187E-001	-6.4087713E-001	1.3412941E+004	5.247519891920092E+001
-4.785274563419550E-002	-6.4273989E-001	-6.4287716E-001	1.3431620E+004	5.267519891414850E+001
-4.792072820026305E-002	-6.4472973E-001	-6.4487714E-001	1.3454089E+004	5.287519890909607E+001
-4.798420599177106E-002	-6.4674151E-001	-6.4687705E-001	1.3478217E+004	5.307519890404365E+001
-4.806471044908334E-002	-6.4872158E-001	-6.4887714E-001	1.3496837E+004	5.327519889899122E+001
-4.817835605400247E-002	-6.5072531E-001	-6.5087718E-001	1.3506590E+004	5.347519889393880E+001
-4.828856352562561E-002	-6.5274000E-001	-6.5287709E-001	1.3517486E+004	5.367519888888637E+001
-4.836387432005096E-002	-6.5473664E-001	-6.5487713E-001	1.3537721E+004	5.387519888383395E+001
-4.847361547149112E-002	-6.5673441E-001	-6.5687716E-001	1.3548286E+004	5.407519887878152E+001
-4.856916959899055E-002	-6.5874034E-001	-6.5887713E-001	1.3562932E+004	5.427519887372910E+001
-4.863042013546499E-002	-6.6073853E-001	-6.6087705E-001	1.3586938E+004	5.447519886867667E+001
-4.877682565077901E-002	-6.6272908E-001	-6.6287714E-001	1.3586966E+004	5.467519886362425E+001
-4.887620851876884E-002	-6.6473526E-001	-6.6487712E-001	1.3600385E+004	5.487519885857182E+001
-4.905173588436423E-002	-6.6673905E-001	-6.6687709E-001	1.3592567E+004	5.507519885351940E+001
-4.914834418876812E-002	-6.6873151E-001	-6.6887712E-001	1.3606390E+004	5.527519884846697E+001
-4.929369233512720E-002	-6.7071652E-001	-6.7087716E-001	1.3606538E+004	5.547519884341455E+001
-4.944966580822241E-002	-6.7273754E-001	-6.7287713E-001	1.3604491E+004	5.567519883836212E+001
-4.954907814011222E-002	-6.7471892E-001	-6.7487711E-001	1.3617184E+004	5.587519883330970E+001
-4.972617714158965E-002	-6.7673707E-001	-6.7687714E-001	1.3609272E+004	5.607519882825727E+001
-4.986207705210721E-002	-6.7872351E-001	-6.7887712E-001	1.3612019E+004	5.627519882320485E+001
-5.003216463487495E-002	-6.8072128E-001	-6.8087715E-001	1.3605673E+004	5.647519881815242E+001
-5.020039710385171E-002	-6.8273216E-001	-6.8287712E-001	1.3600135E+004	5.667519881310000E+001
-5.037287505430155E-002	-6.8470377E-001	-6.8487716E-001	1.3592708E+004	5.687519880804757E+001
-5.054015359237302E-002	-6.8672162E-001	-6.8687707E-001	1.3587645E+004	5.707519880299515E+001
-5.066633079403737E-002	-6.8872613E-001	-6.8887711E-001	1.3593369E+004	5.727519879794272E+001
-5.089635508929025E-002	-6.9071180E-001	-6.9087714E-001	1.3570948E+004	5.747519879289030E+001
-5.108861093168615E-002	-6.9271880E-001	-6.9287717E-001	1.3559163E+004	5.767519878783787E+001
-5.127118461946956E-002	-6.9473672E-001	-6.9487715E-001	1.3550237E+004	5.787519878278545E+001
-5.140900597094548E-002	-6.9671386E-001	-6.9687712E-001	1.3552370E+004	5.807519877773302E+001
-5.166205604003127E-002	-6.9871229E-001	-6.9887722E-001	1.3524671E+004	5.827519877268060E+001
-5.191374033142515E-002	-7.0074689E-001	-7.0087707E-001	1.3498293E+004	5.847519876762817E+001
-5.207926403655079E-002	-7.0273143E-001	-7.0287716E-001	1.3493498E+004	5.867519876257575E+001
-5.244976408883106E-002	-7.0472455E-001	-7.0487720E-001	1.3436182E+004	5.887519875752332E+001
-5.258271220254196E-002	-7.0673239E-001	-7.0687711E-001	1.3440395E+004	5.907519875247090E+001
-5.275088669985650E-002	-7.0873779E-001	-7.0887709E-001	1.3435562E+004	5.927519874741847E+001
-5.296274104267529E-002	-7.1071994E-001	-7.1087718E-001	1.3419244E+004	5.947519874236605E+001
-5.320858768960379E-002	-7.1271813E-001	-7.1287715E-001	1.3394795E+004	5.967519873731362E+001
-5.345092236028459E-002	-7.1471804E-001	-7.1487707E-001	1.3371482E+004	5.987519873226120E+001
-5.368575854163593E-002	-7.1671462E-001	-7.1687710E-001	1.3350182E+004	6.007519872720877E+001
-5.396249049761315E-002	-7.1873343E-001	-7.1887720E-001	1.3319130E+004	6.027519872215635E+001
-5.423923306929501E-002	-7.2072732E-001	-7.2087711E-001	1.3287934E+004	6.047519871710392E+001
-5.438082036773473E-002	-7.2270679E-001	-7.2287714E-001	1.3289737E+004	6.067519871205150E+001
-5.469363599660843E-002	-7.2472101E-001	-7.2487718E-001	1.3250555E+004	6.087519870699907E+001
-5.502256509148895E-002	-7.2672200E-001	-7.2687715E-001	1.3207709E+004	6.107519870194665E+001
-5.520682664305143E-002	-7.2871751E-001	-7.2887713E-001	1.3199771E+004	6.127519869689422E+001
-5.551304053325112E-002	-7.3072165E-001	-7.3087710E-001	1.3163063E+004	6.147519869184180E+001
-5.573663500648704E-002	-7.3272145E-001	-7.3287725E-001	1.3146137E+004	6.167519868678937E+001
-5.603569088020099E-002	-7.3473710E-001	-7.3487705E-001	1.3111948E+004	6.187519868173695E+001
-5.638364569258703E-002	-7.3671860E-001	-7.3687714E-001	1.3066175E+004	6.207519867668452E+001
-5.663349049043354E-002	-7.3870641E-001	-7.3887718E-001	1.3043632E+004	6.227519867163210E+001
-5.695141276847271E-002	-7.4071640E-001	-7.4087709E-001	1.3006111E+004	6.247519866657967E+001
-5.719610986135093E-002	-7.4271625E-001	-7.4287719E-001	1.2985433E+004	6.267519866152725E+001
-5.751940577983611E-002	-7.4470490E-001	-7.4487716E-001	1.2947021E+004	6.287519865647482E+001
-5.786552499555286E-002	-7.4672037E-001	-7.4687725E-001	1.2904408E+004	6.307519865142240E+001
-5.821127736731879E-002	-7.4871701E-001	-7.4887711E-001	1.2862062E+004	6.327519864636997E+001
-5.851973830394952E-002	-7.5071031E-001	-7.5087708E-001	1.2828326E+004	6.347519864131755E+001
-5.883755995374601E-002	-7.5272220E-001	-7.5287718E-001	1.2793226E+004	6.367519863626512E+001
-5.915622261369713E-002	-7.5472468E-001	-7.5487715E-001	1.2758162E+004	6.387519863121270E+001
-5.951937604769469E-002	-7.5671852E-001	-7.5687712E-001	1.2713818E+004	6.407519862616027E+001
-5.985270568344925E-002	-7.5871843E-001	-7.5887716E-001	1.2676427E+004	6.427519862110785E+001
-6.011258780770429E-002	-7.6073480E-001	-7.6087719E-001	1.2655166E+004	6.447519861605542E+001
-6.049971526822340E-002	-7.6272321E-001	-7.6287711E-001	1.2607055E+004	6.467519861100300E+001
-6.088882218307190E-002	-7.6471174E-001	-7.6487708E-001	1.2559148E+004	6.487519860595057E+001
-6.124651370741141E-002	-7.6671761E-001	-7.6687723E-001	1.2518551E+004	6.507519860089815E+001
-6.162452873987156E-002	-7.6871389E-001	-7.6887715E-001	1.2474154E+004	6.527519859584572E+001
-6.189705820040366E-002	-7.7071893E-001	-7.7087712E-001	1.2451625E+004	6.547519859079330E+001
-6.237636877819375E-002	-7.7269375E-001	-7.7287722E-001	1.2387604E+004	6.567519858574087E+001
-6.284270967650407E-002	-7.7470613E-001	-7.7487719E-001	1.2327701E+004	6.587519858068845E+001
-6.317683344373226E-002	-7.7669239E-001	-7.7687705E-001	1.2293943E+004	6.607519857563602E+001
-6.351028263934211E-002	-7.7869391E-001	-7.7887714E-001	1.2260911E+004	6.627519857058360E+001
-6.400292949030850E-002	-7.8069806E-001	-7.8087711E-001	1.2197849E+004	6.647519856553117E+001
-6.452124641971690E-002	-7.8270805E-001	-7.8287727E-001	1.2131013E+004	6.667519856047875E+001
-6.490028160307437E-002	-7.8471285E-001	-7.8487712E-001	1.2091055E+004	6.687519855542632E+001
-6.528150132918431E-002	-7.8670371E-001	-7.8687721E-001	1.2050943E+004	6.707519855037390E+001
-6.581493494863247E-002	-7.8870577E-001	-7.8887725E-001	1.1983689E+004	6.727519854532147E+001
-6.626745342971771E-002	-7.9070991E-001	-7.9087710E-001	1.1932101E+004	6.747519854026905E+001
-6.668077982263088E-002	-7.9271662E-001	-7.9287720E-001	1.1888232E+004	6.767519853521662E+001
-6.720308269333963E-002	-7.9470211E-001	-7.9487729E-001	1.1825382E+004	6.787519853016420E+001
-6.773264835009973E-002	-7.9671425E-001	-7.9687715E-001	1.1762633E+004	6.807519852511177E+001
-6.817687118569571E-002	-7.9871362E-001	-7.9887712E-001	1.1715316E+004	6.827519852005935E+001
-6.864200358209327E-002	-8.0069840E-001	-8.0087721E-001	1.1664846E+004	6.847519851500692E+001
-6.926476030321171E-002	-8.0271298E-001	-8.0287719E-001	1.1589053E+004	6.867519850995450E+001
-6.971129175864788E-002	-8.0470663E-001	-8.0487716E-001	1.1543419E+004	6.887519850490207E+001
-7.032131976310729E-002	-8.0670023E-001	-8.0687720E-001	1.1471631E+004	6.907519849984965E+001
-7.092583127944929E-002	-8.0871689E-001	-8.0887723E-001	1.1402290E+004	6.927519849479722E+001
-7.144530223209478E-002	-8.1070966E-001	-8.1087714E-001	1.1347277E+004	6.947519848974480E+001
-7.212425030919944E-002	-8.1271785E-001	-8.1287712E-001	1.1268303E+004	6.967519848469237E+001
-7.261169880159746E-002	-8.1472462E-001	-8.1487721E-001	1.1220294E+004	6.987519847963995E+001
-7.321511351032484E-002	-8.1671119E-001	-8.1687719E-001	1.1154953E+004	7.007519847458752E+001
-7.396749322104079E-002	-8.1872261E-001	-8.1887716E-001	1.1068682E+004	7.027519846953510E+001
-7.454408678678126E-002	-8.2070982E-001	-8.2087719E-001	1.1009724E+004	7.047519846448267E+001
-7.533178511793681E-002	-8.2272661E-001	-8.2287723E-001	1.0921374E+004	7.067519845943025E+001
-7.593131844321793E-002	-8.2472605E-001	-8.2487708E-001	1.0861474E+004	7.087519845437782E+001
-7.662872885524907E-002	-8.2672036E-001	-8.2687718E-001	1.0788647E+004	7.107519844932540E+001
-7.739148447036637E-002	-8.2871896E-001	-8.2887727E-001	1.0708142E+004	7.127519844427297E+001
-7.805452271746871E-002	-8.3073747E-001	-8.3087713E-001	1.0643041E+004	7.147519843922055E+001
-7.881109594829916E-002	-8.3272499E-001	-8.3287722E-001	1.0566088E+004	7.167519843416812E+001
-7.955247924035908E-002	-8.3470738E-001	-8.3487719E-001	1.0492537E+004	7.187519842911570E+001
-8.048233495552160E-002	-8.3670896E-001	-8.3687717E-001	1.0396182E+004	7.207519842406327E+001
-8.126288518476443E-002	-8.3871281E-001	-8.3887714E-001	1.0320982E+004	7.227519841901085E+001
-8.213177826223883E-002	-8.4070361E-001	-8.4087718E-001	1.0236033E+004	7.247519841395842E+001
-8.326257301521345E-002	-8.4279287E-001	-8.4297729E-001	1.0122109E+004	7.268519840865338E+001
-8.578070269078175E-002	-8.4488189E-001	-8.4507710E-001	9.8493232E+003	7.289519840334833E+001
-8.693347591378808E-002	-8.4687543E-001	-8.4707719E-001	9.7416494E+003	7.309519839829591E+001
-8.795968734167214E-002	-8.4888816E-001	-8.4907728E-001	9.6508770E+003	7.329519839324348E+001
-8.912284996480957E-002	-8.5087824E-001	-8.5107714E-001	9.5472510E+003	7.349519838819106E+001
-9.029399885113909E-002	-8.5289699E-001	-8.5307717E-001	9.4457773E+003	7.369519838313863E+001
-9.146314222933705E-002	-8.5486859E-001	-8.5507721E-001	9.3465908E+003	7.389519837808621E+001
-9.270111026079775E-002	-8.5689729E-001	-8.5707718E-001	9.2436572E+003	7.409519837303378E+001
-9.396073345491962E-002	-8.5889465E-001	-8.5907716E-001	9.1409951E+003	7.429519836798136E+001
-9.530191619504569E-002	-8.6087871E-001	-8.6107719E-001	9.0331729E+003	7.449519836292893E+001
-9.686729790803361E-002	-8.6287779E-001	-8.6307722E-001	8.9078340E+003	7.469519835787651E+001
-9.840977143669460E-002	-8.6488551E-001	-8.6507714E-001	8.7886143E+003	7.489519835282408E+001
-1.000799629816155E-001	-8.6688125E-001	-8.6707711E-001	8.6618857E+003	7.509519834777166E+001
-1.015708370909283E-001	-8.6888266E-001	-8.6907721E-001	8.5544502E+003	7.529519834271923E+001
-1.034271303087031E-001	-8.7086374E-001	-8.7107718E-001	8.4200703E+003	7.549519833766681E+001
-1.053280258707514E-001	-8.7286723E-001	-8.7307715E-001	8.2871318E+003	7.569519833261438E+001
-1.071779093749465E-001	-8.7487662E-001	-8.7507725E-001	8.1628447E+003	7.589519832756196E+001
-1.094769137951619E-001	-8.7685424E-001	-8.7707722E-001	8.0094897E+003	7.609519832250953E+001
-1.118974214960351E-001	-8.7886161E-001	-8.7907708E-001	7.8541719E+003	7.629519831745711E+001
-1.144347381492967E-001	-8.8087618E-001	-8.8107717E-001	7.6976294E+003	7.649519831240468E+001
-1.170654202750172E-001	-8.8286048E-001	-8.8307726E-001	7.5415991E+003	7.669519830735226E+001
-1.203721733193617E-001	-8.8486058E-001	-8.8507712E-001	7.3510391E+003	7.689519830229983E+001
-1.234894387345850E-001	-8.8688231E-001	-8.8707721E-001	7.1818472E+003	7.709519829724741E+001
-1.272487049909669E-001	-8.8887960E-001	-8.8907719E-001	6.9853726E+003	7.729519829219498E+001
-1.311254636310628E-001	-8.9087027E-001	-8.9107716E-001	6.7940293E+003	7.749519828714256E+001
-1.355580489622117E-001	-8.9286333E-001	-8.9307714E-001	6.5865757E+003	7.769519828209013E+001
-1.403890257107854E-001	-8.9487529E-001	-8.9507717E-001	6.3742539E+003	7.789519827703771E+001
-1.456767745704610E-001	-8.9688301E-001	-8.9707732E-001	6.1566646E+003	7.809519827198528E+001
-1.516052084318167E-001	-8.9887488E-001	-8.9907718E-001	5.9290503E+003	7.829519826693286E+001
-1.582416709303391E-001	-9.0089482E-001	-9.0107715E-001	5.6931577E+003	7.849519826188043E+001
-1.655068258045334E-001	-9.0288419E-001	-9.0307724E-001	5.4552686E+003	7.869519825682801E+001
-1.735016276094796E-001	-9.0487814E-001	-9.0507716E-001	5.2153872E+003	7.889519825177558E+001
-1.841576564793062E-001	-9.0688539E-001	-9.0707719E-001	4.9245054E+003	7.909519824672316E+001
-1.953660181011863E-001	-9.0887034E-001	-9.0907723E-001	4.6521416E+003	7.929519824167073E+001
-2.066088784971780E-001	-9.1087419E-001	-9.1107726E-001	4.4086885E+003	7.949519823661831E+001
-2.192580664737354E-001	-9.1288960E-001	-9.1307718E-001	4.1635396E+003	7.969519823156588E+001
-2.335841605807234E-001	-9.1489357E-001	-9.1507715E-001	3.9167620E+003	7.989519822651346E+001
-2.498510700868035E-001	-9.1688830E-001	-9.1707724E-001	3.6697393E+003	8.009519822146103E+001
-2.679386225987290E-001	-9.1888165E-001	-9.1907722E-001	3.4294482E+003	8.029519821640861E+001
-2.883602641417302E-001	-9.2088121E-001	-9.2107713E-001	3.1935093E+003	8.049519821135618E+001
-3.115094500169358E-001	-9.2289531E-001	-9.2307729E-001	2.9626560E+003	8.069519820630376E+001
-3.368571699003515E-001	-9.2490023E-001	-9.2507714E-001	2.7456748E+003	8.089519820125133E+001
-3.652679477343170E-001	-9.2691010E-001	-9.2707723E-001	2.5376169E+003	8.109519819619891E+001
-4.009854630408736E-001	-9.2888480E-001	-9.2907721E-001	2.3165049E+003	8.129519819114648E+001
-4.383162689984452E-001	-9.3088436E-001	-9.3107718E-001	2.1237732E+003	8.149519818609406E+001
-4.772854405381355E-001	-9.3289703E-001	-9.3307716E-001	1.9545894E+003	8.169519818104163E+001
-5.203930648284487E-001	-9.3489170E-001	-9.3507719E-001	1.7965107E+003	8.189519817598921E+001
-5.684482619639439E-001	-9.3691409E-001	-9.3707722E-001	1.6481959E+003	8.209519817093678E+001
-6.301001936889974E-001	-9.3890196E-001	-9.3907720E-001	1.4900836E+003	8.229519816588436E+001
-6.881512381947390E-001	-9.4089872E-001	-9.4107717E-001	1.3672848E+003	8.249519816083193E+001
-7.515250157750692E-001	-9.4289553E-001	-9.4307721E-001	1.2546429E+003	8.269519815577951E+001
-8.284018116067609E-001	-9.4489306E-001	-9.4507724E-001	1.1406217E+003	8.289519815072708E+001
-9.091346048055087E-001	-9.4687712E-001	-9.4707716E-001	1.0415148E+003	8.309519814567466E+001
-9.979567213203175E-001	-9.4898063E-001	-9.4917715E-001	9.5092365E+002	8.330519814036961E+001
-1.104858860542447E+000	-9.5106465E-001	-9.5127720E-001	8.6080194E+002	8.351519813506457E+001
-1.204234258252747E+000	-9.5305997E-001	-9.5327717E-001	7.9142407E+002	8.371519813001214E+001
-1.321716404657245E+000	-9.5506102E-001	-9.5527720E-001	7.2259149E+002	8.391519812495972E+001
-1.441409462762999E+000	-9.5705706E-001	-9.5727724E-001	6.6397308E+002	8.411519811990729E+001
-1.571207816858276E+000	-9.5905733E-001	-9.5927715E-001	6.1039496E+002	8.431519811485487E+001
-1.716603721722180E+000	-9.6107358E-001	-9.6127719E-001	5.5986920E+002	8.451519810980244E+001
-1.866578417773155E+000	-9.6306658E-001	-9.6327722E-001	5.1595294E+002	8.471519810475002E+001
-2.024865680034196E+000	-9.6507072E-001	-9.6527725E-001	4.7660974E+002	8.491519809969759E+001
-2.196804756632338E+000	-9.6706349E-001	-9.6727717E-001	4.4021368E+002	8.511519809464517E+001
-2.382037470586035E+000	-9.6908468E-001	-9.6927714E-001	4.0683017E+002	8.531519808959274E+001
-2.576627207569391E+000	-9.7108001E-001	-9.7127724E-001	3.7688028E+002	8.551519808454032E+001
-2.777899290040098E+000	-9.7306120E-001	-9.7327721E-001	3.5028671E+002	8.571519807948789E+001
-2.991272835825441E+000	-9.7507286E-001	-9.7527713E-001	3.2597256E+002	8.591519807443547E+001
-3.216186608992459E+000	-9.7706509E-001	-9.7727728E-001	3.0379614E+002	8.611519806938304E+001
-3.451529540712848E+000	-9.7904402E-001	-9.7927713E-001	2.8365512E+002	8.631519806433062E+001
-3.698008436092984E+000	-9.8106867E-001	-9.8127723E-001	2.6529648E+002	8.651519805927819E+001
-3.950113900461972E+000	-9.8303628E-001	-9.8327720E-001	2.4886276E+002	8.671519805422577E+001
-4.214301933878659E+000	-9.8504674E-001	-9.8527718E-001	2.3373900E+002	8.691519804917334E+001
-4.490483442604415E+000	-9.8703712E-001	-9.8727727E-001	2.1980643E+002	8.711519804412092E+001
-4.776076684632010E+000	-9.8906380E-001	-9.8927718E-001	2.0708708E+002	8.731519803906849E+001
-5.067391881833260E+000	-9.9106193E-001	-9.9127722E-001	1.9557634E+002	8.751519803401607E+001
-5.372182871783130E+000	-9.9306262E-001	-9.9327719E-001	1.8485272E+002	8.771519802896364E+001
-5.678726065929254E+000	-9.9508470E-001	-9.9527711E-001	1.7523027E+002	8.791519802391122E+001
-5.999506801975031E+000	-9.9708956E-001	-9.9727720E-001	1.6619525E+002	8.811519801885879E+001
-6.324352966177997E+000	-9.9907541E-001	-9.9927723E-001	1.5797275E+002	8.831519801380637E+001
-6.658243847339321E+000	-1.0010935E+000	-1.0012772E+000	1.5035399E+002	8.851519800875394E+001
-6.996907844632659E+000	-1.0030847E+000	-1.0032772E+000	1.4336113E+002	8.871519800370152E+001
-7.341926855497604E+000	-1.0050933E+000	-1.0052773E+000	1.3689777E+002	8.891519799864909E+001
-7.699501836516134E+000	-1.0070933E+000	-1.0072771E+000	1.3079980E+002	8.911519799359667E+001
-8.061579698337681E+000	-1.0090990E+000	-1.0092771E+000	1.2517385E+002	8.931519798854424E+001
-8.426891529235746E+000	-1.0110922E+000	-1.0112772E+000	1.1998400E+002	8.951519798349182E+001
-8.804100132380434E+000	-1.0131147E+000	-1.0132772E+000	1.1507305E+002	8.971519797843939E+001
-9.188119926758112E+000	-1.0151165E+000	-1.0152771E+000	1.1048141E+002	8.991519797338697E+001
-9.578799954617637E+000	-1.0171275E+000	-1.0172771E+000	1.0618527E+002	9.011519796833454E+001
-9.976634934916238E+000	-1.0191288E+000	-1.0192772E+000	1.0215156E+002	9.031519796328212E+001
-1.037500759526715E+001	-1.0211222E+000	-1.0212772E+000	9.8421349E+001	9.051519795822969E+001
-1.077802825230860E+001	-1.0231007E+000	-1.0232772E+000	9.4924667E+001	9.071519795317727E+001
-1.126376976596529E+001	-1.0252609E+000	-1.0254773E+000	9.1022896E+001	9.093519794761960E+001
-1.168143076691226E+001	-1.0272495E+000	-1.0274771E+000	8.7938667E+001	9.113519794256717E+001
-1.210423173588145E+001	-1.0292670E+000	-1.0294771E+000	8.5033646E+001	9.133519793751475E+001
-1.253107388949448E+001	-1.0312760E+000	-1.0314772E+000	8.2297493E+001	9.153519793246232E+001
-1.296369366324137E+001	-1.0332911E+000	-1.0334772E+000	7.9706535E+001	9.173519792740990E+001
-1.340348782128490E+001	-1.0352755E+000	-1.0354772E+000	7.7239258E+001	9.193519792235747E+001
-1.385280180788359E+001	-1.0372750E+000	-1.0374771E+000	7.4878349E+001	9.213519791730505E+001
-1.430758847319889E+001	-1.0392845E+000	-1.0394771E+000	7.2638687E+001	9.233519791225262E+001
-1.476040608407141E+001	-1.0412910E+000	-1.0414772E+000	7.0546227E+001	9.253519790720020E+001
-1.522163437864407E+001	-1.0432854E+000	-1.0434772E+000	6.8539642E+001	9.273519790214777E+001
-1.568402526194819E+001	-1.0452771E+000	-1.0454772E+000	6.6645973E+001	9.293519789709535E+001
-1.615037291687906E+001	-1.0472806E+000	-1.0474771E+000	6.4845596E+001	9.313519789204292E+001
-1.662345561662232E+001	-1.0492831E+000	-1.0494771E+000	6.3120640E+001	9.333519788699050E+001
-1.710039526724215E+001	-1.0512868E+000	-1.0514772E+000	6.1477341E+001	9.353519788193807E+001
-1.758176386288775E+001	-1.0533050E+000	-1.0534773E+000	5.9908951E+001	9.373519787688565E+001
-1.806023803062720E+001	-1.0553050E+000	-1.0554771E+000	5.8432507E+001	9.393519787183322E+001
-1.855322822813544E+001	-1.0573056E+000	-1.0574771E+000	5.6987686E+001	9.413519786678080E+001
-1.904273635892366E+001	-1.0592996E+000	-1.0594772E+000	5.5627487E+001	9.433519786172837E+001
-1.953607997291488E+001	-1.0612900E+000	-1.0614773E+000	5.4324615E+001	9.453519785667595E+001
-2.003691428359139E+001	-1.0632987E+000	-1.0634773E+000	5.3066990E+001	9.473519785162352E+001
-2.055039180460432E+001	-1.0652860E+000	-1.0654771E+000	5.1837749E+001	9.493519784657110E+001
-2.106713258071272E+001	-1.0672753E+000	-1.0674771E+000	5.0660683E+001	9.513519784151868E+001
-2.158797280872223E+001	-1.0692807E+000	-1.0694772E+000	4.9531319E+001	9.533519783646625E+001
-2.210263296955026E+001	-1.0712972E+000	-1.0714772E+000	4.8469212E+001	9.553519783141383E+001
-2.263579071852087E+001	-1.0732867E+000	-1.0734771E+000	4.7415470E+001	9.573519782636140E+001
-2.318426659061251E+001	-1.0752935E+000	-1.0754771E+000	4.6380314E+001	9.593519782130898E+001
-2.373071949511700E+001	-1.0772854E+000	-1.0774772E+000	4.5396240E+001	9.613519781625655E+001
-2.428427635190707E+001	-1.0792869E+000	-1.0794772E+000	4.4443859E+001	9.633519781120413E+001
-2.484137114335067E+001	-1.0812870E+000	-1.0814773E+000	4.3527672E+001	9.653519780615170E+001
-2.543541373498323E+001	-1.0832938E+000	-1.0834773E+000	4.2589981E+001	9.673519780109928E+001
-2.603405102526523E+001	-1.0852715E+000	-1.0854772E+000	4.1686615E+001	9.693519779604685E+001
-2.660630459066411E+001	-1.0872889E+000	-1.0874772E+000	4.0865833E+001	9.713519779099443E+001
-2.717733514606272E+001	-1.0892597E+000	-1.0894772E+000	4.0079712E+001	9.733519778594200E+001
-2.776741519077012E+001	-1.0912724E+000	-1.0914773E+000	3.9300465E+001	9.753519778088958E+001
-2.833964673056352E+001	-1.0932823E+000	-1.0934772E+000	3.8577839E+001	9.773519777583715E+001
-2.892639237277353E+001	-1.0952857E+000	-1.0954772E+000	3.7864578E+001	9.793519777078473E+001
-2.948821795473290E+001	-1.0972906E+000	-1.0974772E+000	3.7211155E+001	9.813519776573230E+001
-3.011174874592268E+001	-1.0992827E+000	-1.0994772E+000	3.6506771E+001	9.833519776067988E+001
-3.076661994911387E+001	-1.1013068E+000	-1.1014773E+000	3.5795509E+001	9.853519775562745E+001
-3.142374720865371E+001	-1.1032995E+000	-1.1034772E+000	3.5110374E+001	9.873519775057503E+001
-3.216112901996874E+001	-1.1052868E+000	-1.1054772E+000	3.4367165E+001	9.893519774552260E+001
-3.284839913985638E+001	-1.1072965E+000	-1.1074772E+000	3.3709297E+001	9.913519774047018E+001
-3.358939437368844E+001	-1.1092916E+000	-1.1094773E+000	3.3025055E+001	9.933519773541775E+001
-3.426862237837315E+001	-1.1112901E+000	-1.1114773E+000	3.2428795E+001	9.953519773036533E+001
-3.489999696862407E+001	-1.1132882E+000	-1.1134772E+000	3.1899378E+001	9.973519772531290E+001
-3.556310153845482E+001	-1.1153085E+000	-1.1154772E+000	3.1361397E+001	9.993519772026048E+001
-3.624573538281753E+001	-1.1172780E+000	-1.1174771E+000	3.0825089E+001	1.001351977152081E+002
-3.688340763791616E+001	-1.1192950E+000	-1.1194773E+000	3.0346844E+001	1.003351977101556E+002
-3.761541384066575E+001	-1.1213096E+000	-1.1214772E+000	2.9809845E+001	1.005351977051032E+002
-3.844028923679105E+001	-1.1232947E+000	-1.1234772E+000	2.9221807E+001	1.007351977000508E+002
-3.916446270829161E+001	-1.1253194E+000	-1.1254772E+000	2.8733175E+001	1.009351976949984E+002
-3.981880654904830E+001	-1.1273127E+000	-1.1274772E+000	2.8311062E+001	1.011351976899459E+002
-4.049876048343242E+001	-1.1293107E+000	-1.1294773E+000	2.7885069E+001	1.013351976848935E+002
-4.117465127974128E+001	-1.1313349E+000	-1.1314772E+000	2.7476490E+001	1.015351976798411E+002
-4.198330670446471E+001	-1.1333032E+000	-1.1334771E+000	2.6994139E+001	1.017351976747887E+002
-4.288330573208498E+001	-1.1353116E+000	-1.1354772E+000	2.6474442E+001	1.019351976697362E+002
-4.367521036130779E+001	-1.1373012E+000	-1.1374772E+000	2.6039970E+001	1.021351976646838E+002
-4.447227601264331E+001	-1.1392915E+000	-1.1394771E+000	2.5618017E+001	1.023351976596314E+002
-4.514557812949147E+001	-1.1413041E+000	-1.1414772E+000	2.5280529E+001	1.025351976545790E+002
-4.604086862859276E+001	-1.1433001E+000	-1.1434772E+000	2.4832287E+001	1.027351976495265E+002
-4.698798586262592E+001	-1.1452910E+000	-1.1454772E+000	2.4374123E+001	1.029351976444741E+002
-4.802815990058748E+001	-1.1472819E+000	-1.1474771E+000	2.3887691E+001	1.031351976394217E+002
-4.891253144616735E+001	-1.1492891E+000	-1.1494772E+000	2.3496824E+001	1.033351976343693E+002
-4.970840866711663E+001	-1.1513014E+000	-1.1514772E+000	2.3161098E+001	1.035351976293168E+002
-5.062257653731615E+001	-1.1532958E+000	-1.1534772E+000	2.2782242E+001	1.037351976242644E+002
-5.166101677293432E+001	-1.1552976E+000	-1.1554772E+000	2.2363045E+001	1.039351976192120E+002
-5.247411971189581E+001	-1.1573141E+000	-1.1574771E+000	2.2054949E+001	1.041351976141596E+002
-5.333648930223069E+001	-1.1592988E+000	-1.1594772E+000	2.1735565E+001	1.043351976091071E+002
-5.423418413051942E+001	-1.1612984E+000	-1.1614772E+000	2.1412664E+001	1.045351976040547E+002
-5.526116427272348E+001	-1.1632886E+000	-1.1634772E+000	2.1050743E+001	1.047351975990023E+002
-5.621878560167852E+001	-1.1653061E+000	-1.1654773E+000	2.0728056E+001	1.049351975939499E+002
-5.707058462101872E+001	-1.1672887E+000	-1.1674771E+000	2.0453421E+001	1.051351975888974E+002
-5.782891525649160E+001	-1.1693082E+000	-1.1694772E+000	2.0220131E+001	1.053351975838450E+002
-5.861181330140209E+001	-1.1713299E+000	-1.1714772E+000	1.9984535E+001	1.055351975787926E+002
-5.961543496395757E+001	-1.1733252E+000	-1.1734773E+000	1.9681566E+001	1.057351975737402E+002
-6.050555320391595E+001	-1.1753541E+000	-1.1754771E+000	1.9425558E+001	1.059351975686877E+002
-6.125349194500723E+001	-1.1773505E+000	-1.1774772E+000	1.9220953E+001	1.061351975636353E+002
-6.203354945312543E+001	-1.1793485E+000	-1.1794772E+000	1.9011461E+001	1.063351975585829E+002
-6.282397505972128E+001	-1.1813779E+000	-1.1814773E+000	1.8804571E+001	1.065351975535305E+002
-6.395627979788917E+001	-1.1833551E+000	-1.1834773E+000	1.8502563E+001	1.067351975484780E+002
-6.487054271870988E+001	-1.1853575E+000	-1.1854771E+000	1.8272661E+001	1.069351975434256E+002
-6.560755228401587E+001	-1.1873671E+000	-1.1874771E+000	1.8098024E+001	1.071351975383732E+002
-6.640936182794121E+001	-1.1893719E+000	-1.1894772E+000	1.7909702E+001	1.073351975333208E+002
-6.742396707761861E+001	-1.1913735E+000	-1.1914773E+000	1.7669882E+001	1.075351975282683E+002
-6.857657556198603E+001	-1.1933829E+000	-1.1934773E+000	1.7402193E+001	1.077351975232159E+002
-6.977584303263370E+001	-1.1953709E+000	-1.1954771E+000	1.7131586E+001	1.079351975181635E+002
-7.077837371447737E+001	-1.1973748E+000	-1.1974772E+000	1.6917242E+001	1.081351975131111E+002
-7.170393961789614E+001	-1.1993587E+000	-1.1994772E+000	1.6726538E+001	1.083351975080586E+002
-7.260186208510891E+001	-1.2013716E+000	-1.2014772E+000	1.6547394E+001	1.085351975030062E+002
-7.380105784690863E+001	-1.2033799E+000	-1.2034773E+000	1.6305727E+001	1.087351974979538E+002
-7.515755348735365E+001	-1.2053859E+000	-1.2054772E+000	1.6038120E+001	1.089351974929014E+002
-7.645962415692998E+001	-1.2073799E+000	-1.2074771E+000	1.5791079E+001	1.091351974878489E+002
-7.738277475093233E+001	-1.2093782E+000	-1.2094772E+000	1.5628520E+001	1.093351974827965E+002
-7.861014681932886E+001	-1.2113572E+000	-1.2114773E+000	1.5409680E+001	1.095351974777441E+002
-7.958363087377302E+001	-1.2133645E+000	-1.2134771E+000	1.5246408E+001	1.097351974726917E+002
-8.057543713273390E+001	-1.2153587E+000	-1.2154772E+000	1.5083489E+001	1.099351974676392E+002
-8.150412640279637E+001	-1.2173547E+000	-1.2174772E+000	1.4936110E+001	1.101351974625868E+002
-8.268752932872928E+001	-1.2193470E+000	-1.2194773E+000	1.4746444E+001	1.103351974575344E+002
-8.369498232324622E+001	-1.2213529E+000	-1.2214773E+000	1.4592905E+001	1.105351974524820E+002
-8.460251717881033E+001	-1.2233566E+000	-1.2234771E+000	1.4460050E+001	1.107351974474295E+002
-8.563293461356308E+001	-1.2253594E+000	-1.2254772E+000	1.4309442E+001	1.109351974423771E+002
-8.669102296266942E+001	-1.2273614E+000	-1.2274772E+000	1.4157884E+001	1.111351974373247E+002
-8.764836623068572E+001	-1.2293652E+000	-1.2294772E+000	1.4026106E+001	1.113351974322723E+002
-8.866823689953810E+001	-1.2313554E+000	-1.2314773E+000	1.3887221E+001	1.115351974272198E+002
-8.981240484828095E+001	-1.2333516E+000	-1.2334772E+000	1.3732531E+001	1.117351974221674E+002
-9.085248072347417E+001	-1.2353653E+000	-1.2354772E+000	1.3597486E+001	1.119351974171150E+002
-9.194831722609820E+001	-1.2373488E+000	-1.2374772E+000	1.3457004E+001	1.121351974120626E+002
-9.318577975372637E+001	-1.2393507E+000	-1.2394773E+000	1.3299784E+001	1.123351974070101E+002
-9.446191631369061E+001	-1.2413574E+000	-1.2414773E+000	1.3141354E+001	1.125351974019577E+002
-9.589511317947290E+001	-1.2433488E+000	-1.2434772E+000	1.2965716E+001	1.127351973969053E+002
-9.686514165341987E+001	-1.2453631E+000	-1.2454772E+000	1.2856669E+001	1.129351973918529E+002
-9.799864592627841E+001	-1.2473592E+000	-1.2474772E+000	1.2728331E+001	1.131351973868004E+002
-9.898486222864005E+001	-1.2493640E+000	-1.2494773E+000	1.2621769E+001	1.133351973817480E+002
-1.000115869904862E+002	-1.2513647E+000	-1.2514772E+000	1.2512197E+001	1.135351973766956E+002
-1.010374613132606E+002	-1.2533559E+000	-1.2534772E+000	1.2404863E+001	1.137351973716432E+002
-1.021233487842851E+002	-1.2553709E+000	-1.2554772E+000	1.2292692E+001	1.139351973665907E+002
-1.036717584127746E+002	-1.2573669E+000	-1.2574773E+000	1.2128345E+001	1.141351973615383E+002
-1.046697957510314E+002	-1.2593665E+000	-1.2594773E+000	1.2031804E+001	1.143351973564859E+002
-1.060057196822565E+002	-1.2613779E+000	-1.2614774E+000	1.1899150E+001	1.145351973514335E+002
-1.075307025530982E+002	-1.2633718E+000	-1.2634772E+000	1.1748940E+001	1.147351973463810E+002
-1.087970922885302E+002	-1.2653779E+000	-1.2654772E+000	1.1630622E+001	1.149351973413286E+002
-1.100745084655529E+002	-1.2674465E+000	-1.2675773E+000	1.1514441E+001	1.151451973360236E+002
-1.114414238572931E+002	-1.2695323E+000	-1.2696773E+000	1.1391925E+001	1.153551973307185E+002
-1.125348861222906E+002	-1.2715439E+000	-1.2716773E+000	1.1299109E+001	1.155551973256661E+002
-1.137459463564992E+002	-1.2735521E+000	-1.2736771E+000	1.1196461E+001	1.157551973206137E+002
-1.148914372483077E+002	-1.2755345E+000	-1.2756772E+000	1.1102085E+001	1.159551973155612E+002
-1.159308313036722E+002	-1.2775317E+000	-1.2776773E+000	1.1019775E+001	1.161551973105088E+002
-1.170276360327962E+002	-1.2795293E+000	-1.2796773E+000	1.0933565E+001	1.163551973054564E+002
-1.182512544417873E+002	-1.2815458E+000	-1.2816772E+000	1.0837481E+001	1.165551973004040E+002
-1.193760307046023E+002	-1.2835362E+000	-1.2836772E+000	1.0752043E+001	1.167551972953515E+002
-1.206355702287756E+002	-1.2855287E+000	-1.2856772E+000	1.0656299E+001	1.169551972902991E+002
-1.220220587096790E+002	-1.2875346E+000	-1.2876773E+000	1.0551655E+001	1.171551972852467E+002
-1.231476914736687E+002	-1.2895519E+000	-1.2896773E+000	1.0471588E+001	1.173551972801943E+002
-1.244428893649397E+002	-1.2915497E+000	-1.2916772E+000	1.0378654E+001	1.175551972751418E+002
-1.257047436177870E+002	-1.2935394E+000	-1.2936772E+000	1.0290299E+001	1.177551972700894E+002
-1.269006919406716E+002	-1.2955540E+000	-1.2956772E+000	1.0209196E+001	1.179551972650370E+002
-1.280810080774780E+002	-1.2975612E+000	-1.2976772E+000	1.0130785E+001	1.181551972599846E+002
-1.292647215709121E+002	-1.2995450E+000	-1.2996773E+000	1.0053362E+001	1.183551972549321E+002
-1.310970416847545E+002	-1.3015648E+000	-1.3016771E+000	9.9282551E+000	1.185551972498797E+002
-1.327663986785610E+002	-1.3035393E+000	-1.3036772E+000	9.8182917E+000	1.187551972448273E+002
-1.339734065873283E+002	-1.3055360E+000	-1.3056772E+000	9.7447405E+000	1.189551972397749E+002
-1.349964651628952E+002	-1.3075519E+000	-1.3076773E+000	9.6858225E+000	1.191551972347224E+002
-1.363559229552334E+002	-1.3095583E+000	-1.3096772E+000	9.6039705E+000	1.193551972296700E+002
-1.379411895896844E+002	-1.3115674E+000	-1.3116772E+000	9.5081635E+000	1.195551972246176E+002
-1.393364714981476E+002	-1.3135446E+000	-1.3136772E+000	9.4271412E+000	1.197551972195652E+002
-1.407864529010657E+002	-1.3155632E+000	-1.3156772E+000	9.3443880E+000	1.199551972145127E+002
-1.418827168773896E+002	-1.3175485E+000	-1.3176771E+000	9.2861805E+000	1.201551972094603E+002
-1.431401960487536E+002	-1.3195547E+000	-1.3196772E+000	9.2186174E+000	1.203551972044079E+002
-1.443198065454994E+002	-1.3215477E+000	-1.3216772E+000	9.1570778E+000	1.205551971993555E+002
-1.458708694375832E+002	-1.3235706E+000	-1.3236772E+000	9.0735769E+000	1.207551971943030E+002
-1.473751374426345E+002	-1.3255724E+000	-1.3256772E+000	8.9945450E+000	1.209551971892506E+002
-1.486740248381686E+002	-1.3275805E+000	-1.3276772E+000	8.9294710E+000	1.211551971841982E+002
-1.502666211139049E+002	-1.3295811E+000	-1.3296772E+000	8.8481474E+000	1.213551971791458E+002
-1.517144462527062E+002	-1.3315755E+000	-1.3316772E+000	8.7768536E+000	1.215551971740933E+002
-1.532173001555356E+002	-1.3335675E+000	-1.3336772E+000	8.7037659E+000	1.217551971690409E+002
-1.546198694981681E+002	-1.3355652E+000	-1.3356771E+000	8.6377335E+000	1.219551971639885E+002
-1.562725802797850E+002	-1.3375680E+000	-1.3376772E+000	8.5591984E+000	1.221551971589361E+002
-1.579012859510990E+002	-1.3395720E+000	-1.3396772E+000	8.4836035E+000	1.223551971538836E+002
-1.595866072334666E+002	-1.3415509E+000	-1.3416773E+000	8.4064131E+000	1.225551971488312E+002
-1.613092817297866E+002	-1.3435388E+000	-1.3436772E+000	8.3289614E+000	1.227551971437788E+002
-1.634132958215378E+002	-1.3455418E+000	-1.3456773E+000	8.2339802E+000	1.229551971387264E+002
-1.650917411380346E+002	-1.3475468E+000	-1.3476772E+000	8.1624117E+000	1.231551971336739E+002
-1.670260606006699E+002	-1.3495547E+000	-1.3496773E+000	8.0799046E+000	1.233551971286215E+002
-1.688561534113894E+002	-1.3515562E+000	-1.3516772E+000	8.0041866E+000	1.235551971235691E+002
-1.706544317723394E+002	-1.3535550E+000	-1.3536772E+000	7.9315548E+000	1.237551971185167E+002
-1.723138717318338E+002	-1.3555410E+000	-1.3556771E+000	7.8666968E+000	1.239551971134642E+002
-1.742002851179124E+002	-1.3575342E+000	-1.3576772E+000	7.7929502E+000	1.241551971084118E+002
-1.765774577772268E+002	-1.3595455E+000	-1.3596772E+000	7.6994281E+000	1.243551971033594E+002
-1.785295180322901E+002	-1.3615507E+000	-1.3616773E+000	7.6264739E+000	1.245551970983070E+002
-1.803170853190945E+002	-1.3635532E+000	-1.3636771E+000	7.5619745E+000	1.247551970932545E+002
-1.819339205651058E+002	-1.3655654E+000	-1.3656771E+000	7.5058317E+000	1.249551970882021E+002
-1.837454154367074E+002	-1.3675696E+000	-1.3676772E+000	7.4427414E+000	1.251551970831497E+002
-1.856273653372072E+002	-1.3695579E+000	-1.3696773E+000	7.3779955E+000	1.253551970780973E+002
-1.880605238549028E+002	-1.3715588E+000	-1.3716772E+000	7.2931776E+000	1.255551970730448E+002
-1.911001736463606E+002	-1.3735545E+000	-1.3736773E+000	7.1876149E+000	1.257551970679924E+002
-1.940623079708639E+002	-1.3755667E+000	-1.3756771E+000	7.0882735E+000	1.259551970629400E+002
-1.962686859226005E+002	-1.3775787E+000	-1.3776772E+000	7.0188413E+000	1.261551970578876E+002
-1.981875340684478E+002	-1.3795713E+000	-1.3796772E+000	6.9609389E+000	1.263551970528351E+002
-2.003318450456302E+002	-1.3815647E+000	-1.3816772E+000	6.8963809E+000	1.265551970477827E+002
-2.022756942437624E+002	-1.3835590E+000	-1.3836772E+000	6.8399668E+000	1.267551970427303E+002
-2.041094322766842E+002	-1.3855855E+000	-1.3856771E+000	6.7884445E+000	1.269551970376779E+002
-2.059057674472829E+002	-1.3875992E+000	-1.3876772E+000	6.7390013E+000	1.271551970326254E+002
-2.079390189999085E+002	-1.3895997E+000	-1.3896773E+000	6.6827269E+000	1.273551970275730E+002
-2.102014876168873E+002	-1.3915718E+000	-1.3916771E+000	6.6201801E+000	1.275551970225206E+002
-2.124832079578155E+002	-1.3935843E+000	-1.3936772E+000	6.5585618E+000	1.277551970174682E+002
-2.143842826462651E+002	-1.3955750E+000	-1.3956772E+000	6.5096893E+000	1.279551970124157E+002
-2.159472705123108E+002	-1.3976026E+000	-1.3976772E+000	6.4719620E+000	1.281551970073633E+002
-2.184630376314090E+002	-1.3995857E+000	-1.3996773E+000	6.4065104E+000	1.283551970023109E+002
-2.206611781887997E+002	-1.4015853E+000	-1.4016774E+000	6.3517532E+000	1.285551969972585E+002
-2.224264369800245E+002	-1.4036111E+000	-1.4036772E+000	6.3104506E+000	1.287551969922060E+002
-2.247826311409885E+002	-1.4055982E+000	-1.4056772E+000	6.2531438E+000	1.289551969871536E+002
-2.268525771294603E+002	-1.4075956E+000	-1.4076772E+000	6.2048917E+000	1.291551969821012E+002
-2.288526392891308E+002	-1.4096146E+000	-1.4096773E+000	6.1594858E+000	1.293551969770488E+002
-2.321839654667315E+002	-1.4116057E+000	-1.4116774E+000	6.0796866E+000	1.295551969719963E+002
-2.342312894851445E+002	-1.4136266E+000	-1.4136772E+000	6.0351739E+000	1.297551969669439E+002
-2.377148884958805E+002	-1.4156295E+000	-1.4156790E+000	5.9551573E+000	1.299553969618864E+002
-2.409227541398723E+002	-1.4176242E+000	-1.4176835E+000	5.8841443E+000	1.301558969568214E+002
-2.441212226346938E+002	-1.4196242E+000	-1.4196891E+000	5.8152428E+000	1.303563969517563E+002
-2.461042385382452E+002	-1.4216212E+000	-1.4216893E+000	5.7765002E+000	1.305563969467039E+002
-2.486705124205323E+002	-1.4236225E+000	-1.4236907E+000	5.7249351E+000	1.307565969416464E+002
-2.507070725879762E+002	-1.4256413E+000	-1.4256955E+000	5.6864820E+000	1.309570969365814E+002
-2.534098995477643E+002	-1.4276377E+000	-1.4277016E+000	5.6337094E+000	1.311576969315138E+002
-2.556667568568910E+002	-1.4296516E+000	-1.4297060E+000	5.5918555E+000	1.313580969264513E+002
-2.574547992606822E+002	-1.4316649E+000	-1.4317071E+000	5.5608401E+000	1.315581969213963E+002
-2.600714339496471E+002	-1.4336604E+000	-1.4337095E+000	5.5125637E+000	1.317584969163363E+002
-2.624597821943239E+002	-1.4356751E+000	-1.4357157E+000	5.4700766E+000	1.319590969112687E+002
-2.652526931561474E+002	-1.4376687E+000	-1.4377201E+000	5.4199967E+000	1.321594969062062E+002
-2.674850448607742E+002	-1.4396756E+000	-1.4397228E+000	5.3822656E+000	1.323597969011462E+002
-2.702591764175695E+002	-1.4416728E+000	-1.4417267E+000	5.3344083E+000	1.325601968960837E+002
-2.731200476950780E+002	-1.4436570E+000	-1.4437319E+000	5.2857966E+000	1.327606968910186E+002
-2.763645057853037E+002	-1.4456719E+000	-1.4457355E+000	5.2310333E+000	1.329610968859561E+002
-2.778763033369514E+002	-1.4476945E+000	-1.4477401E+000	5.2098522E+000	1.331614968808935E+002
-2.807831482127954E+002	-1.4496834E+000	-1.4497428E+000	5.1630001E+000	1.333617968758335E+002
-2.832211581036117E+002	-1.4516879E+000	-1.4517480E+000	5.1256337E+000	1.335622968707685E+002
-2.868999851029794E+002	-1.4536966E+000	-1.4537500E+000	5.0669107E+000	1.337624968657110E+002
-2.917017449642080E+002	-1.4557028E+000	-1.4557520E+000	4.9903808E+000	1.339626968606535E+002
-2.940840849682727E+002	-1.4577001E+000	-1.4577541E+000	4.9567461E+000	1.341628968555960E+002
-2.956636703817417E+002	-1.4597166E+000	-1.4597576E+000	4.9370847E+000	1.343632968505335E+002
-2.982053274243317E+002	-1.4617221E+000	-1.4617621E+000	4.9017305E+000	1.345636968454710E+002
-3.005708218029877E+002	-1.4637076E+000	-1.4637645E+000	4.8697596E+000	1.347639968404110E+002
-3.024323530280599E+002	-1.4657166E+000	-1.4657706E+000	4.8464279E+000	1.349645968353434E+002
-3.052241231471260E+002	-1.4677365E+000	-1.4677755E+000	4.8087173E+000	1.351650968302783E+002
-3.072125328546372E+002	-1.4697298E+000	-1.4697807E+000	4.7840815E+000	1.353655968252133E+002
-3.099964048671777E+002	-1.4717557E+000	-1.4717867E+000	4.7476544E+000	1.355661968201457E+002
-3.145709159933904E+002	-1.4737450E+000	-1.4737915E+000	4.6849370E+000	1.357666968150807E+002
-3.182879600015367E+002	-1.4757330E+000	-1.4757988E+000	4.6364713E+000	1.359673968100105E+002
-3.220483303894525E+002	-1.4777817E+000	-1.4778035E+000	4.5886950E+000	1.361678968049455E+002
-3.249300230073628E+002	-1.4797738E+000	-1.4798080E+000	4.5541306E+000	1.363682967998830E+002
-3.275258122389582E+002	-1.4817873E+000	-1.4818118E+000	4.5241847E+000	1.365686967948204E+002
-3.306524741919420E+002	-1.4837860E+000	-1.4838167E+000	4.4874487E+000	1.367691967897554E+002
-3.345544690437064E+002	-1.4857846E+000	-1.4858192E+000	4.4410844E+000	1.369693967846979E+002
-3.373110703269954E+002	-1.4877934E+000	-1.4878216E+000	4.4107461E+000	1.371696967796379E+002
-3.393516006734772E+002	-1.4897937E+000	-1.4898269E+000	4.3901181E+000	1.373701967745728E+002
-3.427261137675778E+002	-1.4918058E+000	-1.4918326E+000	4.3527637E+000	1.375707967695053E+002
-3.453302572794128E+002	-1.4938135E+000	-1.4938375E+000	4.3257532E+000	1.377712967644402E+002
-3.465010061652420E+002	-1.4958037E+000	-1.4958439E+000	4.3168812E+000	1.379718967593726E+002
-3.486353840569845E+002	-1.4978162E+000	-1.4978460E+000	4.2962255E+000	1.381720967543151E+002
-3.506917323317948E+002	-1.4998235E+000	-1.4998488E+000	4.2767572E+000	1.383723967492551E+002
-3.541451924443563E+002	-1.5018314E+000	-1.5018529E+000	4.2407222E+000	1.385727967441926E+002
-3.565229345143016E+002	-1.5038491E+000	-1.5038574E+000	4.2180991E+000	1.387732967391275E+002
-3.583793836040022E+002	-1.5058603E+000	-1.5058613E+000	4.2018609E+000	1.389735967340675E+002
-3.610883643457437E+002	-1.5078547E+000	-1.5078620E+000	4.1758609E+000	1.391736967290126E+002
-3.631845763485221E+002	-1.5098540E+000	-1.5098640E+000	4.1572633E+000	1.393738967239551E+002
-3.664539759250622E+002	-1.5118737E+000	-1.5118660E+000	4.1256852E+000	1.395740967188976E+002
-3.687471932561372E+002	-1.5138586E+000	-1.5138687E+000	4.1054106E+000	1.397743967138376E+002
-3.722539211318590E+002	-1.5158795E+000	-1.5158700E+000	4.0721655E+000	1.399744967087827E+002
-3.742485562884613E+002	-1.5178819E+000	-1.5178713E+000	4.0558124E+000	1.401745967037277E+002
-3.776171674168472E+002	-1.5198872E+000	-1.5198728E+000	4.0249419E+000	1.403747966986703E+002
-3.802191561073923E+002	-1.5218632E+000	-1.5218753E+000	4.0025949E+000	1.405749966936128E+002
-3.912534065760265E+002	-1.5238694E+000	-1.5238761E+000	3.8948400E+000	1.407750966885578E+002
-3.952429423090771E+002	-1.5258743E+000	-1.5258781E+000	3.8605983E+000	1.409752966835003E+002
-3.967972469668684E+002	-1.5278784E+000	-1.5278805E+000	3.8505268E+000	1.411755966784403E+002
-4.041073451795237E+002	-1.5298783E+000	-1.5298867E+000	3.7858214E+000	1.413761966733728E+002
-4.052060845457928E+002	-1.5318849E+000	-1.5318907E+000	3.7805080E+000	1.415765966683102E+002
-4.060915085564129E+002	-1.5339023E+000	-1.5338947E+000	3.7772331E+000	1.417769966632477E+002
-4.096425636402964E+002	-1.5359049E+000	-1.5358986E+000	3.7493782E+000	1.419773966581852E+002
-4.129849058489453E+002	-1.5378860E+000	-1.5379031E+000	3.7238312E+000	1.421777966531226E+002
-4.200360244641151E+002	-1.5399020E+000	-1.5399040E+000	3.6661189E+000	1.423778966480677E+002
-4.235497366948557E+002	-1.5419053E+000	-1.5419086E+000	3.6404350E+000	1.425783966430026E+002
-4.286138378813971E+002	-1.5439136E+000	-1.5439121E+000	3.6021087E+000	1.427786966379426E+002
-4.322754411114020E+002	-1.5459282E+000	-1.5459148E+000	3.5762575E+000	1.429789966328826E+002
-4.387504166552417E+002	-1.5479234E+000	-1.5479188E+000	3.5280273E+000	1.431793966278201E+002
-4.420893378914088E+002	-1.5499454E+000	-1.5499240E+000	3.5059550E+000	1.433798966227550E+002
-4.433899788044246E+002	-1.5519366E+000	-1.5519270E+000	3.5001616E+000	1.435801966176950E+002
-4.477184031090783E+002	-1.5539182E+000	-1.5539292E+000	3.4707491E+000	1.437803966126376E+002
-4.513338193644604E+002	-1.5559415E+000	-1.5559314E+000	3.4474294E+000	1.439806966075776E+002
-4.537184511506734E+002	-1.5579443E+000	-1.5579361E+000	3.4337249E+000	1.441810966025150E+002
-4.596128121979364E+002	-1.5599575E+000	-1.5599371E+000	3.3940687E+000	1.443811965974601E+002
-4.665880623036783E+002	-1.5619475E+000	-1.5619371E+000	3.3475943E+000	1.445811965924077E+002
-4.733553349717658E+002	-1.5639603E+000	-1.5639371E+000	3.3039880E+000	1.447811965873552E+002
-4.850145867103346E+002	-1.5659572E+000	-1.5659372E+000	3.2286806E+000	1.449811965823028E+002
-4.916910582605124E+002	-1.5679712E+000	-1.5679373E+000	3.1889358E+000	1.451811965772504E+002
-4.945170928583134E+002	-1.5699636E+000	-1.5699370E+000	3.1747408E+000	1.453811965721980E+002
-4.974589507390576E+002	-1.5719767E+000	-1.5719371E+000	3.1600127E+000	1.455811965671455E+002
-4.996711785279695E+002	-1.5740038E+000	-1.5739371E+000	3.1500793E+000	1.457811965620931E+002
-5.001764498686848E+002	-1.5759938E+000	-1.5759370E+000	3.1508756E+000	1.459811965570407E+002
-5.019621698115679E+002	-1.5780036E+000	-1.5779371E+000	3.1436706E+000	1.461811965519883E+002
-5.035973001467128E+002	-1.5799921E+000	-1.5799370E+000	3.1374116E+000	1.463811965469358E+002
-5.075533228980175E+002	-1.5819894E+000	-1.5819371E+000	3.1168931E+000	1.465811965418834E+002
-5.075686823873039E+002	-1.5840050E+000	-1.5839372E+000	3.1207697E+000	1.467811965368310E+002
-5.115799432698295E+002	-1.5860095E+000	-1.5859370E+000	3.1002183E+000	1.469811965317786E+002
-5.171069412534216E+002	-1.5880172E+000	-1.5879371E+000	3.0709648E+000	1.471811965267261E+002
-5.185846038697282E+002	-1.5899997E+000	-1.5899370E+000	3.0660372E+000	1.473811965216737E+002
-5.207642616176799E+002	-1.5920038E+000	-1.5919371E+000	3.0570529E+000	1.475811965166213E+002
-5.222890598617164E+002	-1.5940193E+000	-1.5939372E+000	3.0519867E+000	1.477811965115689E+002
-5.233620148526861E+002	-1.5960157E+000	-1.5959370E+000	3.0495443E+000	1.479811965065164E+002
-5.255670177477022E+002	-1.5979801E+000	-1.5979369E+000	3.0404878E+000	1.481811965014640E+002
-5.285625173780663E+002	-1.5999954E+000	-1.5999370E+000	3.0270693E+000	1.483811964964116E+002
-5.299148129313999E+002	-1.6019932E+000	-1.6019371E+000	3.0231147E+000	1.485811964913592E+002
-5.298842191934064E+002	-1.6039807E+000	-1.6039371E+000	3.0270398E+000	1.487811964863067E+002
-5.328424609567019E+002	-1.6059978E+000	-1.6059370E+000	3.0140200E+000	1.489811964812543E+002
-5.346150302540973E+002	-1.6079977E+000	-1.6079371E+000	3.0077674E+000	1.491811964762019E+002
-5.395854339772577E+002	-1.6099926E+000	-1.6099370E+000	2.9837584E+000	1.493811964711495E+002
-5.417853440005770E+002	-1.6119996E+000	-1.6119370E+000	2.9753475E+000	1.495811964660970E+002
-5.455307030364206E+002	-1.6140107E+000	-1.6139371E+000	2.9586065E+000	1.497811964610446E+002
-5.475805259021217E+002	-1.6160008E+000	-1.6159370E+000	2.9511654E+000	1.499811964559922E+002
-5.571945031570467E+002	-1.6180102E+000	-1.6179370E+000	2.9038515E+000	1.501811964509398E+002
-5.666881296759038E+002	-1.6200076E+000	-1.6199369E+000	2.8587286E+000	1.503811964458873E+002
-5.716699679151943E+002	-1.6220191E+000	-1.6219370E+000	2.8373346E+000	1.505811964408349E+002
-5.757862337203242E+002	-1.6240096E+000	-1.6239371E+000	2.8205078E+000	1.507811964357825E+002
-5.803825595010485E+002	-1.6258433E+000	-1.6257368E+000	2.8013303E+000	1.509611964312353E+002
-5.827236480712891E+002	-1.6267250E+000	-1.6266367E+000	2.7915890E+000	1.510319964294467E+002