EC-Lab ASCII FILE
Nb header lines : 63                          

Linear Sweep Voltammetry

Run on channel : 1 (SN 1340)
User : 
Electrode connection : standard
Potential control : Ewe
Ewe ctrl range : min = -5.00 V, max = 5.00 V
Ewe,I filtering : <None>
Safety Limits :
	Do not start on E overload
Channel : Floating
Acquisition started on : 02/10/2026 15:52:08.751
Technique started on : 02/10/2026 15:52:11.433
Loaded Setting File :  NONE
Saved on :
	File : Pt_2-10_02_LSV_C01.mpr
	Directory : C:\Users\volt\Documents\Platalytix\
	Host : 127.0.0.1
Device : SP-200 (SN 0262)
Address : USB
EC-LAB for windows v11.60 (software)
Internet server v11.60 (firmware)
Command interpretor v11.60 (firmware)
Electrode material : Pt18.75Pd18.75Ni18.75o18.75Cr25
Initial state : 
Electrolyte : KOH (1 M)
Comments : After polishing
Cable : standard
Reference electrode : Hg/HgO (0.140 V)
Electrode surface area : 1.000 cm˛
Characteristic mass : 0.001 g
Equivalent Weight : 0.000 g/eq.
Density : 0.000 g/cm3
Volume (V) : 0.001 cmł
Cycle Definition : Charge/Discharge alternance
tR (h:m:s)          0:00:5.0000         
dER/dt (mV/h)       0.0                 
dER (mV)            0                   
dtR (s)             0.0000              
dE/dt               10.000              
dE/dt unit          mV/s                
Ei (V)              -0.200              
vs.                 Ref                 
EL (V)              -2.500              
vs.                 Ref                 
record              <I>                 
dI                  0.000               
unit dI             µA                  
tI (s)              0.0000              
step percent        50                  
N                   10                  
E range min (V)     -5.000              
E range max (V)     5.000               
I Range             Auto                
I Range min         Unset               
I Range max         Unset               
I Range init        Unset               
Bandwidth           8                   

Rwe/Ohm	time/s	Ewe/V	<I>/mA	Pwe/W	control/V	error	
0.0000000E+000	2.682400127378060E+000	-1.6856240E-001	0.000000000000000E+000	0.0000000E+000	0.0000000E+000	0
0.0000000E+000	7.682200001072488E+000	-1.6723257E-002	0.000000000000000E+000	0.0000000E+000	-1.9990322E-001	0
6.5630029E+003	7.882199996020063E+000	-2.0170259E-001	-3.073327734018683E-002	6.1989817E-006	-2.0180300E-001	0
1.4370569E+003	8.002199992988608E+000	-2.0288131E-001	-1.411783377487894E-001	2.8642446E-005	-2.0300305E-001	0
1.5070415E+003	8.212199987683562E+000	-2.0495947E-001	-1.360012106924768E-001	2.7874736E-005	-2.0510301E-001	0
1.6468104E+003	8.412199982631137E+000	-2.0699789E-001	-1.256962414343090E-001	2.6018857E-005	-2.0710289E-001	0
1.7739692E+003	8.612199977578712E+000	-2.0899934E-001	-1.178145228511320E-001	2.4623158E-005	-2.0910279E-001	0
1.8856627E+003	8.812199972526287E+000	-2.1099317E-001	-1.118933796352557E-001	2.3608738E-005	-2.1110269E-001	0
1.9868716E+003	9.012199967473862E+000	-2.1301949E-001	-1.072135146341946E-001	2.2838569E-005	-2.1310259E-001	0
2.0813203E+003	9.212199962421437E+000	-2.1499486E-001	-1.032973396562274E-001	2.2208398E-005	-2.1510246E-001	0
2.1687815E+003	9.412199957369012E+000	-2.1701053E-001	-1.000610329242435E-001	2.1714297E-005	-2.1710236E-001	0
2.2513638E+003	9.612199952316587E+000	-2.1899907E-001	-9.727396389845389E-002	2.1302907E-005	-2.1910225E-001	0
2.3300916E+003	9.812199947264162E+000	-2.2103788E-001	-9.486231583069227E-002	2.0968166E-005	-2.2110216E-001	0
2.4072891E+003	1.001219994221174E+001	-2.2298867E-001	-9.263061762464303E-002	2.0655578E-005	-2.2310205E-001	0
2.4787378E+003	1.021219993715931E+001	-2.2499417E-001	-9.076965257236180E-002	2.0422642E-005	-2.2510195E-001	0
2.5522546E+003	1.041219993210689E+001	-2.2700498E-001	-8.894291754691652E-002	2.0190484E-005	-2.2710185E-001	0
2.6204673E+003	1.061219992705446E+001	-2.2900242E-001	-8.738991422810960E-002	2.0012501E-005	-2.2910173E-001	0
2.6897207E+003	1.081219992200204E+001	-2.3101620E-001	-8.588855025620362E-002	1.9841647E-005	-2.3110163E-001	0
2.7550476E+003	1.101219991694961E+001	-2.3301405E-001	-8.457714255873849E-002	1.9707662E-005	-2.3310152E-001	0
2.8186311E+003	1.121219991189719E+001	-2.3502573E-001	-8.338293321578483E-002	1.9597135E-005	-2.3510142E-001	0
2.8851470E+003	1.141209990684729E+001	-2.3700726E-001	-8.214738152012591E-002	1.9469526E-005	-2.3710041E-001	0
2.9472700E+003	1.161199990179739E+001	-2.3900871E-001	-8.109495104206033E-002	1.9382400E-005	-2.3910120E-001	0
3.0118174E+003	1.181199989674496E+001	-2.4099851E-001	-8.001763374458053E-002	1.9284131E-005	-2.4110107E-001	0
3.0758098E+003	1.201199989169254E+001	-2.4304199E-001	-7.901723907316471E-002	1.9204506E-005	-2.4310097E-001	0
3.1334495E+003	1.221199988664011E+001	-2.4504432E-001	-7.820273870274896E-002	1.9163137E-005	-2.4510084E-001	0
3.1956946E+003	1.241199988158769E+001	-2.4703816E-001	-7.730343295028941E-002	1.9096897E-005	-2.4710076E-001	0
3.2588770E+003	1.261199987653526E+001	-2.4903899E-001	-7.641865377358703E-002	1.9031224E-005	-2.4910064E-001	0
3.3159646E+003	1.281199987148284E+001	-2.5102881E-001	-7.570310195225827E-002	1.9003659E-005	-2.5110054E-001	0
3.3772834E+003	1.301199986643041E+001	-2.5306678E-001	-7.493205144927506E-002	1.8962814E-005	-2.5310040E-001	0
3.4345554E+003	1.321199986137799E+001	-2.5498101E-001	-7.423988943539395E-002	1.8929763E-005	-2.5510034E-001	0
3.4929023E+003	1.341199985632556E+001	-2.5702876E-001	-7.358601131442666E-002	1.8913721E-005	-2.5710019E-001	0
3.5549526E+003	1.361199985127314E+001	-2.5906718E-001	-7.287500076082487E-002	1.8879520E-005	-2.5910008E-001	0
3.6042290E+003	1.381199984622072E+001	-2.6099756E-001	-7.241425448088856E-002	1.8899944E-005	-2.6109999E-001	0
3.6674951E+003	1.401199984116829E+001	-2.6301387E-001	-7.171484963258812E-002	1.8862000E-005	-2.6309991E-001	0
3.7246179E+003	1.421199983611587E+001	-2.6500836E-001	-7.115048228007004E-002	1.8855473E-005	-2.6509976E-001	0
3.7809409E+003	1.441199983106344E+001	-2.6698884E-001	-7.061439028639077E-002	1.8853254E-005	-2.6709968E-001	0
3.8388247E+003	1.461199982601102E+001	-2.6904884E-001	-7.008625426627435E-002	1.8856625E-005	-2.6909956E-001	0
3.8938733E+003	1.481199982095859E+001	-2.7099472E-001	-6.959515613453049E-002	1.8859921E-005	-2.7109945E-001	0
3.9535129E+003	1.501199981590617E+001	-2.7298602E-001	-6.904897791156112E-002	1.8849407E-005	-2.7309936E-001	0
4.0084412E+003	1.521189981085627E+001	-2.7498606E-001	-6.860174312367706E-002	1.8864523E-005	-2.7509972E-001	0
4.0658110E+003	1.541179980580637E+001	-2.7699190E-001	-6.812709550766020E-002	1.8870654E-005	-2.7709913E-001	0
4.1258081E+003	1.561179980075394E+001	-2.7899295E-001	-6.762140908103248E-002	1.8865896E-005	-2.7909902E-001	0
4.1788491E+003	1.581179979570152E+001	-2.8098637E-001	-6.724013292701592E-002	1.8893561E-005	-2.8109893E-001	0
4.2309980E+003	1.601179979064909E+001	-2.8300738E-001	-6.688903946621627E-002	1.8930092E-005	-2.8309882E-001	0
4.2850854E+003	1.621179978559667E+001	-2.8498909E-001	-6.650721415710503E-002	1.8953830E-005	-2.8509870E-001	0
4.3419063E+003	1.641179978054424E+001	-2.8701818E-001	-6.610418842522564E-002	1.8973104E-005	-2.8709859E-001	0
4.3966372E+003	1.661179977549182E+001	-2.8899887E-001	-6.573179925426587E-002	1.8996416E-005	-2.8909850E-001	0
4.4502944E+003	1.681179977043939E+001	-2.9103917E-001	-6.539773201947921E-002	1.9033301E-005	-2.9109839E-001	0
4.5049028E+003	1.701179976538697E+001	-2.9298735E-001	-6.503743649240756E-002	1.9055145E-005	-2.9309827E-001	0
4.5593931E+003	1.721179976033454E+001	-2.9498482E-001	-6.469826313219301E-002	1.9085006E-005	-2.9509819E-001	0
4.6115439E+003	1.741179975528212E+001	-2.9701298E-001	-6.440640951753882E-002	1.9129540E-005	-2.9709807E-001	0
4.6619033E+003	1.761179975022969E+001	-2.9902300E-001	-6.414182497243349E-002	1.9179881E-005	-2.9909796E-001	0
4.7135596E+003	1.781179974517727E+001	-3.0098605E-001	-6.385536278363624E-002	1.9219573E-005	-3.0109784E-001	0
4.7679575E+003	1.801179974012484E+001	-3.0299559E-001	-6.354830172620329E-002	1.9254856E-005	-3.0309775E-001	0
4.8179688E+003	1.821179973507242E+001	-3.0503440E-001	-6.331182780090616E-002	1.9312285E-005	-3.0509761E-001	0
4.8684058E+003	1.841179973001999E+001	-3.0700257E-001	-6.306018765705329E-002	1.9359641E-005	-3.0709752E-001	0
4.9204233E+003	1.861179972496757E+001	-3.0901742E-001	-6.280301665504973E-002	1.9407225E-005	-3.0909741E-001	0
4.9699053E+003	1.881179971991514E+001	-3.1102842E-001	-6.258236432594910E-002	1.9464895E-005	-3.1109753E-001	0
5.0215747E+003	1.901159971486777E+001	-3.1298366E-001	-6.232779088798975E-002	1.9507581E-005	-3.1309721E-001	0
5.0698184E+003	1.921159970981535E+001	-3.1501082E-001	-6.213453532114221E-002	1.9573050E-005	-3.1509709E-001	0
5.1191353E+003	1.941159970476292E+001	-3.1698379E-001	-6.192135384207020E-002	1.9628065E-005	-3.1709698E-001	0
5.1641313E+003	1.961159969971050E+001	-3.1900036E-001	-6.177231534056871E-002	1.9705391E-005	-3.1909686E-001	0
5.2118267E+003	1.981159969465807E+001	-3.2098699E-001	-6.158819245047820E-002	1.9769008E-005	-3.2109678E-001	0
5.2606167E+003	2.001159968960565E+001	-3.2295048E-001	-6.139023049286840E-002	1.9826004E-005	-3.2309666E-001	0
5.3096689E+003	2.021159968455322E+001	-3.2502216E-001	-6.121326541547106E-002	1.9895668E-005	-3.2509655E-001	0
5.3570762E+003	2.041159967950080E+001	-3.2699651E-001	-6.104010815442873E-002	1.9959902E-005	-3.2709643E-001	0
5.4058975E+003	2.061159967444837E+001	-3.2902148E-001	-6.086343539986423E-002	2.0025378E-005	-3.2909632E-001	0
5.4502090E+003	2.081159966939595E+001	-3.3100706E-001	-6.073291330807373E-002	2.0103023E-005	-3.3109620E-001	0
5.4898999E+003	2.101159966434352E+001	-3.3296463E-001	-6.065040063577580E-002	2.0194439E-005	-3.3309612E-001	0
5.5406709E+003	2.121159965929110E+001	-3.3500916E-001	-6.046364243647040E-002	2.0255873E-005	-3.3509600E-001	0
5.5910337E+003	2.141159965423867E+001	-3.3699027E-001	-6.027333656127443E-002	2.0311527E-005	-3.3709589E-001	0
5.6327065E+003	2.161159964918625E+001	-3.3901167E-001	-6.018628412065685E-002	2.0403853E-005	-3.3909577E-001	0
5.6757310E+003	2.181159964413382E+001	-3.4100339E-001	-6.008096159881382E-002	2.0487811E-005	-3.4109569E-001	0
5.7192280E+003	2.201159963908140E+001	-3.4301126E-001	-5.997509712695481E-002	2.0572134E-005	-3.4309557E-001	0
5.7633193E+003	2.221159963402897E+001	-3.4499675E-001	-5.986077297487344E-002	2.0651773E-005	-3.4509546E-001	0
5.8050972E+003	2.241159962897655E+001	-3.4705427E-001	-5.978440462881929E-002	2.0748434E-005	-3.4709537E-001	0
5.8479321E+003	2.261149962392665E+001	-3.4906489E-001	-5.969030984006496E-002	2.0835791E-005	-3.4909526E-001	0
5.8871328E+003	2.281139961887675E+001	-3.5102776E-001	-5.962626792885406E-002	2.0930474E-005	-3.5109514E-001	0
5.9286182E+003	2.301139961382432E+001	-3.5301119E-001	-5.954358670036897E-002	2.1019552E-005	-3.5309505E-001	0
5.9696294E+003	2.321139960877190E+001	-3.5498548E-001	-5.946524657230934E-002	2.1109299E-005	-3.5509494E-001	0
6.0122417E+003	2.341139960371947E+001	-3.5700521E-001	-5.937971904516952E-002	2.1198868E-005	-3.5709485E-001	0
6.0470195E+003	2.361139959866705E+001	-3.5902092E-001	-5.937154871008249E-002	2.1315627E-005	-3.5909471E-001	0
6.0857847E+003	2.381139959361462E+001	-3.6097828E-001	-5.931499175877308E-002	2.1411424E-005	-3.6109462E-001	0
6.1268652E+003	2.401139958856220E+001	-3.6297968E-001	-5.924394637105501E-002	2.1504349E-005	-3.6309448E-001	0
6.1622671E+003	2.421139958350977E+001	-3.6498713E-001	-5.922936060299044E-002	2.1617954E-005	-3.6509442E-001	0
6.2050044E+003	2.441139957845735E+001	-3.6701339E-001	-5.914796779751574E-002	2.1708096E-005	-3.6709428E-001	0
6.2375474E+003	2.461139957340492E+001	-3.6901385E-001	-5.916008740967645E-002	2.1830891E-005	-3.6909419E-001	0
6.2704448E+003	2.481139956835250E+001	-3.7101486E-001	-5.916882847232996E-002	2.1952515E-005	-3.7109408E-001	0
6.3082192E+003	2.501139956330007E+001	-3.7300044E-001	-5.912927541535458E-002	2.2055247E-005	-3.7309399E-001	0
6.3442500E+003	2.521139955824765E+001	-3.7497815E-001	-5.910519687638371E-002	2.2163158E-005	-3.7509385E-001	0
6.3804839E+003	2.541139955319522E+001	-3.7696350E-001	-5.908070706874269E-002	2.2271270E-005	-3.7709373E-001	0
6.4107134E+003	2.561139954814280E+001	-3.7901232E-001	-5.912170502042524E-002	2.2407854E-005	-3.7909362E-001	0
6.4523921E+003	2.581139954309037E+001	-3.8098252E-001	-5.904516061005516E-002	2.2495175E-005	-3.8109353E-001	0
6.4845210E+003	2.601139953803795E+001	-3.8298061E-001	-5.906074263351879E-002	2.2619119E-005	-3.8309342E-001	0
6.5174512E+003	2.621139953298552E+001	-3.8498166E-001	-5.906936005834906E-002	2.2740620E-005	-3.8509330E-001	0
6.5486367E+003	2.641119952793815E+001	-3.8700756E-001	-5.909742639607374E-002	2.2871151E-005	-3.8709322E-001	0
6.5843203E+003	2.661119952288573E+001	-3.8899013E-001	-5.907825096732067E-002	2.2980857E-005	-3.8909310E-001	0
6.6145879E+003	2.681119951783330E+001	-3.9099205E-001	-5.911056865735276E-002	2.3111763E-005	-3.9109302E-001	0
6.6470156E+003	2.701119951278088E+001	-3.9298418E-001	-5.912189766217668E-002	2.3233970E-005	-3.9309287E-001	0
6.6827446E+003	2.721119950772845E+001	-3.9499012E-001	-5.910597394047348E-002	2.3346276E-005	-3.9509282E-001	0
6.7167612E+003	2.741119950267603E+001	-3.9701685E-001	-5.910837844852579E-002	2.3467022E-005	-3.9709267E-001	0
6.7429556E+003	2.761119949762360E+001	-3.9899689E-001	-5.917240396752299E-002	2.3609606E-005	-3.9909253E-001	0
6.7784526E+003	2.781119949257118E+001	-4.0102702E-001	-5.916202981172825E-002	2.3725574E-005	-4.0109247E-001	0
6.8095464E+003	2.801119948751875E+001	-4.0299243E-001	-5.918051069866359E-002	2.3849298E-005	-4.0309232E-001	0
6.8377783E+003	2.821119948246633E+001	-4.0500361E-001	-5.923029087756310E-002	2.3988481E-005	-4.0509224E-001	0
6.8676670E+003	2.841119947741390E+001	-4.0699661E-001	-5.926271925454374E-002	2.4119725E-005	-4.0709215E-001	0
6.8990107E+003	2.861119947236148E+001	-4.0902549E-001	-5.928755459025092E-002	2.4250121E-005	-4.0909204E-001	0
6.9273853E+003	2.881119946730905E+001	-4.1099909E-001	-5.932961168325179E-002	2.4384417E-005	-4.1109195E-001	0
6.9523960E+003	2.901119946225663E+001	-4.1301507E-001	-5.940614974806246E-002	2.4535635E-005	-4.1309181E-001	0
6.9850903E+003	2.921119945720420E+001	-4.1501841E-001	-5.941489551484591E-002	2.4658275E-005	-4.1509169E-001	0
7.0099219E+003	2.941119945215178E+001	-4.1701719E-001	-5.948956322205793E-002	2.4808171E-005	-4.1709158E-001	0
7.0378672E+003	2.961119944709935E+001	-4.1896451E-001	-5.953003655244771E-002	2.4940973E-005	-4.1909152E-001	0
7.0720742E+003	2.981119944204693E+001	-4.2105958E-001	-5.953834442286654E-002	2.5069190E-005	-4.2109138E-001	0
7.0982456E+003	3.001109943699703E+001	-4.2303360E-001	-5.959692376185932E-002	2.5211501E-005	-4.2309108E-001	0
7.1289775E+003	3.021099943194713E+001	-4.2509708E-001	-5.962946104379974E-002	2.5348310E-005	-4.2509118E-001	0
7.1610244E+003	3.041099942689470E+001	-4.2708185E-001	-5.963977158192091E-002	2.5471065E-005	-4.2709103E-001	0
7.1856563E+003	3.061099942184228E+001	-4.2905951E-001	-5.971055241911971E-002	2.5619380E-005	-4.2909098E-001	0
7.2088184E+003	3.081099941678985E+001	-4.3094194E-001	-5.977983213274762E-002	2.5761638E-005	-4.3109083E-001	0
7.2361470E+003	3.101099941173743E+001	-4.3304864E-001	-5.984519669773447E-002	2.5915881E-005	-4.3309075E-001	0
7.2689512E+003	3.121099940668500E+001	-4.3506292E-001	-5.985222779300990E-002	2.6039485E-005	-4.3509063E-001	0
7.2907671E+003	3.141099940163258E+001	-4.3703040E-001	-5.994299547577853E-002	2.6196911E-005	-4.3709049E-001	0
7.3271860E+003	3.161099939658016E+001	-4.3905035E-001	-5.992073036176970E-002	2.6308217E-005	-4.3909043E-001	0
7.3502134E+003	3.181099939152773E+001	-4.4104180E-001	-6.000394642230555E-002	2.6464248E-005	-4.4109026E-001	0
7.3809595E+003	3.201099938647531E+001	-4.4305688E-001	-6.002700350737250E-002	2.6595377E-005	-4.4309020E-001	0
7.4113188E+003	3.221099938142288E+001	-4.4504750E-001	-6.004970297407441E-002	2.6724971E-005	-4.4509006E-001	0
7.4382104E+003	3.241099937637046E+001	-4.4701421E-001	-6.009700918483574E-002	2.6864218E-005	-4.4709006E-001	0
7.4727656E+003	3.261099937131803E+001	-4.4904664E-001	-6.009108993930140E-002	2.6983702E-005	-4.4908985E-001	0
7.4919814E+003	3.281099936626561E+001	-4.5104745E-001	-6.020402699041583E-002	2.7154872E-005	-4.5108980E-001	0
7.5197578E+003	3.301099936121318E+001	-4.5307273E-001	-6.025097271334590E-002	2.7298072E-005	-4.5308968E-001	0
7.5495269E+003	3.321099935616076E+001	-4.5506251E-001	-6.027695860992494E-002	2.7429784E-005	-4.5508954E-001	0
7.5802783E+003	3.341099935110833E+001	-4.5704576E-001	-6.029406207658003E-002	2.7557146E-005	-4.5708948E-001	0
7.6113340E+003	3.361099934605591E+001	-4.5900929E-001	-6.030602475719082E-002	2.7681026E-005	-4.5908934E-001	0
7.6409434E+003	3.381089934100601E+001	-4.6101710E-001	-6.033510455431879E-002	2.7815515E-005	-4.6109012E-001	0
7.6713521E+003	3.401079933595611E+001	-4.6305040E-001	-6.036098767758313E-002	2.7950180E-005	-4.6308914E-001	0
7.6999053E+003	3.421079933090368E+001	-4.6503535E-001	-6.039494455658956E-002	2.8085784E-005	-4.6508899E-001	0
7.7281802E+003	3.441079932585126E+001	-4.6703678E-001	-6.043295725829501E-002	2.8224415E-005	-4.6708894E-001	0
7.7520996E+003	3.461079932079883E+001	-4.6899816E-001	-6.049950050808856E-002	2.8374154E-005	-4.6908879E-001	0
7.7795845E+003	3.481079931574641E+001	-4.7100535E-001	-6.054376531709116E-002	2.8516437E-005	-4.7108874E-001	0
7.8142700E+003	3.501079931069398E+001	-4.7303191E-001	-6.053436986833821E-002	2.8634688E-005	-4.7308856E-001	0
7.8380991E+003	3.521079930564156E+001	-4.7502419E-001	-6.060451499499031E-002	2.8788611E-005	-4.7508845E-001	0
7.8802983E+003	3.541079930058913E+001	-4.7702000E-001	-6.053324096177248E-002	2.8875565E-005	-4.7708836E-001	0
7.9089702E+003	3.561079929553671E+001	-4.7901931E-001	-6.056658297781414E-002	2.9012563E-005	-4.7908822E-001	0
7.9380439E+003	3.581079929048428E+001	-4.8102650E-001	-6.059761205740921E-002	2.9149058E-005	-4.8108816E-001	0
7.9661304E+003	3.601079928543186E+001	-4.8302415E-001	-6.063472662203440E-002	2.9288038E-005	-4.8308802E-001	0
7.9987935E+003	3.621079928037943E+001	-4.8501098E-001	-6.063551693265645E-002	2.9408891E-005	-4.8508793E-001	0
8.0354712E+003	3.641079927532701E+001	-4.8701292E-001	-6.060788636159198E-002	2.9516825E-005	-4.8708782E-001	0
8.0659946E+003	3.661079927027458E+001	-4.8903558E-001	-6.062929500200598E-002	2.9649882E-005	-4.8908770E-001	0
8.0988462E+003	3.681079926522216E+001	-4.9103406E-001	-6.063012672638912E-002	2.9771458E-005	-4.9108765E-001	0
8.1300620E+003	3.701079926016973E+001	-4.9299610E-001	-6.063866308286292E-002	2.9894623E-005	-4.9308750E-001	0
8.1674106E+003	3.721079925511731E+001	-4.9502027E-001	-6.060920413551840E-002	3.0002784E-005	-4.9508744E-001	0
8.2014219E+003	3.741069925006741E+001	-4.9700585E-001	-6.059996180956606E-002	3.0118536E-005	-4.9708682E-001	0
8.2366094E+003	3.761059924501751E+001	-4.9902362E-001	-6.058604696864822E-002	3.0233869E-005	-4.9908718E-001	0
8.2685537E+003	3.781059923996509E+001	-5.0100309E-001	-6.059138347498239E-002	3.0356470E-005	-5.0108713E-001	0
8.3046699E+003	3.801059923491266E+001	-5.0301600E-001	-6.057025577984931E-002	3.0467807E-005	-5.0308698E-001	0
8.3407344E+003	3.821059922986024E+001	-5.0504720E-001	-6.055188526625410E-002	3.0581559E-005	-5.0508690E-001	0
8.3779336E+003	3.841059922480781E+001	-5.0701386E-001	-6.051776979314993E-002	3.0683346E-005	-5.0708675E-001	0
8.4113916E+003	3.861059921975539E+001	-5.0903350E-001	-6.051715920085843E-002	3.0805262E-005	-5.0908667E-001	0
8.4497188E+003	3.881059921470296E+001	-5.1102936E-001	-6.047886389396373E-002	3.0906474E-005	-5.1108652E-001	0
8.4831436E+003	3.901059920965054E+001	-5.1300174E-001	-6.047307223434273E-002	3.1022792E-005	-5.1308644E-001	0
8.5172148E+003	3.921059920459811E+001	-5.1502782E-001	-6.046904392156105E-002	3.1143241E-005	-5.1508635E-001	0
8.5594561E+003	3.941059919954569E+001	-5.1699871E-001	-6.040088381605574E-002	3.1227180E-005	-5.1708621E-001	0
8.5959063E+003	3.961059919449326E+001	-5.1903290E-001	-6.038140425196686E-002	3.1339936E-005	-5.1908612E-001	0
8.6390635E+003	3.981059918944084E+001	-5.2100039E-001	-6.030750627335921E-002	3.1420233E-005	-5.2108598E-001	0
8.6722656E+003	4.001059918438841E+001	-5.2296573E-001	-6.030324028695050E-002	3.1536529E-005	-5.2308589E-001	0
8.7128350E+003	4.021059917933599E+001	-5.2503496E-001	-6.025994327204443E-002	3.1638578E-005	-5.2508575E-001	0
8.7489307E+003	4.041059917428356E+001	-5.2703285E-001	-6.023968605307695E-002	3.1748292E-005	-5.2708566E-001	0
8.7866357E+003	4.061059916923114E+001	-5.2904874E-001	-6.021061705376818E-002	3.1854350E-005	-5.2908558E-001	0
8.8282041E+003	4.081059916417871E+001	-5.3104293E-001	-6.015299682140096E-002	3.1943822E-005	-5.3108543E-001	0
8.8701201E+003	4.101049915912881E+001	-5.3302467E-001	-6.009215865901459E-002	3.2030603E-005	-5.3308451E-001	0
8.9060098E+003	4.121049915407639E+001	-5.3504175E-001	-6.007648492136808E-002	3.2143427E-005	-5.3508592E-001	0
8.9434805E+003	4.141039914902649E+001	-5.3699249E-001	-6.004289769020577E-002	3.2242584E-005	-5.3708512E-001	0
8.9911377E+003	4.161039914397406E+001	-5.3905416E-001	-5.995394571952506E-002	3.2318425E-005	-5.3908509E-001	0
9.0203047E+003	4.181039913892164E+001	-5.4105735E-001	-5.998215639896176E-002	3.2453787E-005	-5.4108489E-001	0
9.0621348E+003	4.201039913386921E+001	-5.4304928E-001	-5.992509072061532E-002	3.2542277E-005	-5.4308486E-001	0
9.1091748E+003	4.221039912881679E+001	-5.4506373E-001	-5.983678412110527E-002	3.2614862E-005	-5.4508471E-001	0
9.1362109E+003	4.241039912376436E+001	-5.4700428E-001	-5.987211295652722E-002	3.2750304E-005	-5.4708457E-001	0
9.1977061E+003	4.261039911871194E+001	-5.4903567E-001	-5.969267111544041E-002	3.2773405E-005	-5.4908448E-001	0
9.2333770E+003	4.281039911365951E+001	-5.5100250E-001	-5.967508128774524E-002	3.2881118E-005	-5.5108434E-001	0
9.2760498E+003	4.301039910860709E+001	-5.5302995E-001	-5.961912338381192E-002	3.2971162E-005	-5.5308431E-001	0
9.3082256E+003	4.321039910355466E+001	-5.5504054E-001	-5.962903884792808E-002	3.3096534E-005	-5.5508411E-001	0
9.3579648E+003	4.341039909850224E+001	-5.5700415E-001	-5.952193363001590E-002	3.3153963E-005	-5.5708408E-001	0
9.4004414E+003	4.361039909344981E+001	-5.5902249E-001	-5.946768438887026E-002	3.3243774E-005	-5.5908394E-001	0
9.4245547E+003	4.381039908839739E+001	-5.6100351E-001	-5.952573272446066E-002	3.3394146E-005	-5.6108385E-001	0
9.4793916E+003	4.401039908334496E+001	-5.6303126E-001	-5.939529639037311E-002	3.3441407E-005	-5.6308371E-001	0
9.5105967E+003	4.421039907829254E+001	-5.6501895E-001	-5.940941215414686E-002	3.3567445E-005	-5.6508362E-001	0
9.5487959E+003	4.441039907324011E+001	-5.6701410E-001	-5.938068807786090E-002	3.3669687E-005	-5.6708354E-001	0
9.5956924E+003	4.461039906818769E+001	-5.6897795E-001	-5.929514019836656E-002	3.3737626E-005	-5.6908339E-001	0
9.6446123E+003	4.481029906313779E+001	-5.7099342E-001	-5.920335475099769E-002	3.3804725E-005	-5.7108289E-001	0
9.6829668E+003	4.501019905808789E+001	-5.7300746E-001	-5.917685155021851E-002	3.3908778E-005	-5.7308322E-001	0
9.7129854E+003	4.521019905303547E+001	-5.7499027E-001	-5.919809784379071E-002	3.4038330E-005	-5.7508308E-001	0
9.7582744E+003	4.541019904798304E+001	-5.7702637E-001	-5.913201067860641E-002	3.4120731E-005	-5.7708299E-001	0
9.8011094E+003	4.561019904293062E+001	-5.7904863E-001	-5.907990622794557E-002	3.4210138E-005	-5.7908285E-001	0
9.8419268E+003	4.581019903787819E+001	-5.8101273E-001	-5.903444999074992E-002	3.4299766E-005	-5.8108282E-001	0
9.8858936E+003	4.601019903282577E+001	-5.8301550E-001	-5.897448836380215E-002	3.4383040E-005	-5.8308262E-001	0
9.9192344E+003	4.621019902777334E+001	-5.8500320E-001	-5.897664904484623E-002	3.4501529E-005	-5.8508259E-001	0
9.9669482E+003	4.641019902272092E+001	-5.8702862E-001	-5.889752799435999E-002	3.4574536E-005	-5.8708245E-001	0
1.0008411E+004	4.661019901766849E+001	-5.8899254E-001	-5.884975660486735E-002	3.4662069E-005	-5.8908230E-001	0
1.0062848E+004	4.681019901261607E+001	-5.9102583E-001	-5.873345726226642E-002	3.4712990E-005	-5.9108227E-001	0
1.0087407E+004	4.701019900756364E+001	-5.9305364E-001	-5.879148492503014E-002	3.4866505E-005	-5.9308207E-001	0
1.0139368E+004	4.721019900251122E+001	-5.9503216E-001	-5.868532998189580E-002	3.4919660E-005	-5.9508204E-001	0
1.0179354E+004	4.741019899745879E+001	-5.9705228E-001	-5.865325927238074E-002	3.5019060E-005	-5.9708190E-001	0
1.0213395E+004	4.761019899240637E+001	-5.9899545E-001	-5.864803059620033E-002	3.5129902E-005	-5.9908181E-001	0
1.0256001E+004	4.781019898735394E+001	-6.0101789E-001	-5.860158288164996E-002	3.5220601E-005	-6.0108167E-001	0
1.0301438E+004	4.801019898230152E+001	-6.0300517E-001	-5.853601925649474E-002	3.5297522E-005	-6.0308152E-001	0
1.0346199E+004	4.821019897724909E+001	-6.0503781E-001	-5.847923467389800E-002	3.5382149E-005	-6.0508150E-001	0
1.0387359E+004	4.841019897219667E+001	-6.0704225E-001	-5.844048123918671E-002	3.5475841E-005	-6.0708135E-001	0
1.0424012E+004	4.861009896714677E+001	-6.0901052E-001	-5.842381512789241E-002	3.5580717E-005	-6.0908192E-001	0
1.0463131E+004	4.880999896209687E+001	-6.1103737E-001	-5.839909428715839E-002	3.5684028E-005	-6.1108118E-001	0
1.0490492E+004	4.900999895704445E+001	-6.1298579E-001	-5.843251056350396E-002	3.5818299E-005	-6.1308104E-001	0
1.0549255E+004	4.920999895199202E+001	-6.1502862E-001	-5.830067154357943E-002	3.5856581E-005	-6.1508095E-001	0
1.0574519E+004	4.940999894693960E+001	-6.1704266E-001	-5.835184604964316E-002	3.6005578E-005	-6.1708081E-001	0
1.0619165E+004	4.960999894188717E+001	-6.1902392E-001	-5.829308909742069E-002	3.6084817E-005	-6.1908078E-001	0
1.0654874E+004	4.980999893683475E+001	-6.2096918E-001	-5.828029116564948E-002	3.6190264E-005	-6.2108058E-001	0
1.0694550E+004	5.000999893178232E+001	-6.2304723E-001	-5.825838583728493E-002	3.6297726E-005	-6.2308055E-001	0
1.0727186E+004	5.020999892672990E+001	-6.2501198E-001	-5.826430317529741E-002	3.6415888E-005	-6.2508041E-001	0
1.0772663E+004	5.040999892167747E+001	-6.2702602E-001	-5.820529652514472E-002	3.6496236E-005	-6.2708026E-001	0
1.0793018E+004	5.060999891662505E+001	-6.2903041E-001	-5.828123449193728E-002	3.6660669E-005	-6.2908018E-001	0
1.0826993E+004	5.080999891157262E+001	-6.3104022E-001	-5.828397892797765E-002	3.6779533E-005	-6.3108009E-001	0
1.0858989E+004	5.100999890652020E+001	-6.3299584E-001	-5.829233507934084E-002	3.6898808E-005	-6.3308001E-001	0
1.0891936E+004	5.120999890146777E+001	-6.3503146E-001	-5.830290461541937E-002	3.7024180E-005	-6.3507986E-001	0
1.0923969E+004	5.140999889641535E+001	-6.3699591E-001	-5.831176655677439E-002	3.7144357E-005	-6.3707978E-001	0
1.0959347E+004	5.160999889136292E+001	-6.3906479E-001	-5.831230507451873E-002	3.7265341E-005	-6.3907963E-001	0
1.0975266E+004	5.180999888631050E+001	-6.4102471E-001	-5.840630627125354E-002	3.7439884E-005	-6.4107949E-001	0
1.1011249E+004	5.200999888125807E+001	-6.4304012E-001	-5.839847161143141E-002	3.7552560E-005	-6.4307946E-001	0
1.1032313E+004	5.220989887620817E+001	-6.4506829E-001	-5.847081531119916E-002	3.7717669E-005	-6.4507890E-001	0
1.1049634E+004	5.240979887115827E+001	-6.4705050E-001	-5.855854811588235E-002	3.7890339E-005	-6.4707929E-001	0
1.1070176E+004	5.260979886610585E+001	-6.4902180E-001	-5.862795736993343E-002	3.8050821E-005	-6.4907914E-001	0
1.1092521E+004	5.280979886105342E+001	-6.5103728E-001	-5.869155042211327E-002	3.8210386E-005	-6.5107900E-001	0
1.1084770E+004	5.300979885600100E+001	-6.5307438E-001	-5.891637186954851E-002	3.8476774E-005	-6.5307891E-001	0
1.1112760E+004	5.320979885094857E+001	-6.5503383E-001	-5.894429829919823E-002	3.8610509E-005	-6.5507877E-001	0
1.1126303E+004	5.340979884589615E+001	-6.5704894E-001	-5.905366340037566E-002	3.8801147E-005	-6.5707868E-001	0
1.1130272E+004	5.360979884084372E+001	-6.5903151E-001	-5.921072681126116E-002	3.9021736E-005	-6.5907854E-001	0
1.1149104E+004	5.380979883579130E+001	-6.6101539E-001	-5.928865925022442E-002	3.9190716E-005	-6.6107845E-001	0
1.1151160E+004	5.400979883073887E+001	-6.6300344E-001	-5.945600713381438E-002	3.9419538E-005	-6.6307837E-001	0
1.1151284E+004	5.420979882568645E+001	-6.6500092E-001	-5.963446826530472E-002	3.9656978E-005	-6.6507822E-001	0
1.1149492E+004	5.440979882063402E+001	-6.6702336E-001	-5.982544707385690E-002	3.9904971E-005	-6.6707814E-001	0
1.1136466E+004	5.460979881558160E+001	-6.6901028E-001	-6.007384341062283E-002	4.0190018E-005	-6.6907799E-001	0
1.1138851E+004	5.480979881052917E+001	-6.7099899E-001	-6.023951811460404E-002	4.0420655E-005	-6.7107797E-001	0
1.1120119E+004	5.500979880547675E+001	-6.7301655E-001	-6.052242213957296E-002	4.0732593E-005	-6.7307776E-001	0
1.1097769E+004	5.520979880042432E+001	-6.7501658E-001	-6.082453377927122E-002	4.1057570E-005	-6.7507774E-001	0
1.1098707E+004	5.540979879537190E+001	-6.7702967E-001	-6.100076990510417E-002	4.1299332E-005	-6.7707759E-001	0
1.1074112E+004	5.560979879031947E+001	-6.7900485E-001	-6.131460731257754E-002	4.1632917E-005	-6.7907751E-001	0
1.1076548E+004	5.580979878526705E+001	-6.8103033E-001	-6.148398831136115E-002	4.1872459E-005	-6.8107736E-001	0
1.1020811E+004	5.600959878021968E+001	-6.8303078E-001	-6.197645686463715E-002	4.2331827E-005	-6.8307704E-001	0
1.0998926E+004	5.620959877516725E+001	-6.8503833E-001	-6.228229227104154E-002	4.2665757E-005	-6.8507719E-001	0
1.0963803E+004	5.640959877011483E+001	-6.8707436E-001	-6.266752597580239E-002	4.3057251E-005	-6.8707705E-001	0
1.0941930E+004	5.660959876506240E+001	-6.8901199E-001	-6.296987837083369E-002	4.3387001E-005	-6.8907696E-001	0
1.0930993E+004	5.680959876000998E+001	-6.9101369E-001	-6.321600297161845E-002	4.3683125E-005	-6.9107682E-001	0
1.0886207E+004	5.700959875495755E+001	-6.9298548E-001	-6.365719985622342E-002	4.4113516E-005	-6.9307667E-001	0
1.0833562E+004	5.720959874990513E+001	-6.9501007E-001	-6.415342672278157E-002	4.4587276E-005	-6.9507664E-001	0
1.0779927E+004	5.740959874485270E+001	-6.9701117E-001	-6.465824743016918E-002	4.5067522E-005	-6.9707656E-001	0
1.0734506E+004	5.760959873980028E+001	-6.9902670E-001	-6.511959608996931E-002	4.5520337E-005	-6.9907647E-001	0
1.0687987E+004	5.780959873474785E+001	-7.0105672E-001	-6.559296107857282E-002	4.5984387E-005	-7.0107633E-001	0
1.0644883E+004	5.800959872969543E+001	-7.0302171E-001	-6.604315972276642E-002	4.6429774E-005	-7.0307618E-001	0
1.0591958E+004	5.820959872464300E+001	-7.0504165E-001	-6.656386186748908E-002	4.6930294E-005	-7.0507616E-001	0
1.0541644E+004	5.840959871959058E+001	-7.0704734E-001	-6.707183217477686E-002	4.7422960E-005	-7.0707595E-001	0
1.0477832E+004	5.860959871453815E+001	-7.0905715E-001	-6.767212668414774E-002	4.7983405E-005	-7.0907587E-001	0
1.0443409E+004	5.880959870948573E+001	-7.1103436E-001	-6.808450829043428E-002	4.8410424E-005	-7.1107578E-001	0
1.0387169E+004	5.900959870443330E+001	-7.1304345E-001	-6.864656323235485E-002	4.8947983E-005	-7.1307570E-001	0
1.0327020E+004	5.920959869938088E+001	-7.1504182E-001	-6.923990072038377E-002	4.9509425E-005	-7.1507555E-001	0
1.0264548E+004	5.940959869432845E+001	-7.1699971E-001	-6.985205270734340E-002	5.0083901E-005	-7.1707541E-001	0
1.0211695E+004	5.960949868927855E+001	-7.1901333E-001	-7.041077302602616E-002	5.0626284E-005	-7.1907514E-001	0
1.0144118E+004	5.980939868422865E+001	-7.2100657E-001	-7.107631847327799E-002	5.1246494E-005	-7.2107518E-001	0
1.0101451E+004	6.000939867917623E+001	-7.2303849E-001	-7.157768429649769E-002	5.1753421E-005	-7.2307509E-001	0
1.0044306E+004	6.020939867412380E+001	-7.2502029E-001	-7.218221760969479E-002	5.2333573E-005	-7.2507501E-001	0
9.9870869E+003	6.040939866907138E+001	-7.2701520E-001	-7.279551921722738E-002	5.2923449E-005	-7.2707492E-001	0
9.9368096E+003	6.060939866401895E+001	-7.2903448E-001	-7.336705829209023E-002	5.3487114E-005	-7.2907484E-001	0
9.8925508E+003	6.080939865896653E+001	-7.3104358E-001	-7.389838941175647E-002	5.4022941E-005	-7.3107463E-001	0
9.8093203E+003	6.100939865391410E+001	-7.3302603E-001	-7.472750719989374E-002	5.4777207E-005	-7.3307461E-001	0
9.7468867E+003	6.120939864886168E+001	-7.3504096E-001	-7.541289677961727E-002	5.5431567E-005	-7.3507440E-001	0
9.7100195E+003	6.140939864380925E+001	-7.3704529E-001	-7.590564411310924E-002	5.5945897E-005	-7.3707432E-001	0
9.6401465E+003	6.160939863875683E+001	-7.3906100E-001	-7.666491505810291E-002	5.6660050E-005	-7.3907423E-001	0
9.5704160E+003	6.180939863370440E+001	-7.4102634E-001	-7.742885458219750E-002	5.7376819E-005	-7.4107414E-001	0
9.5143447E+003	6.200939862865198E+001	-7.4302268E-001	-7.809498869811868E-002	5.8026348E-005	-7.4307412E-001	0
9.4687295E+003	6.220939862359955E+001	-7.4504912E-001	-7.868522209909368E-002	5.8624355E-005	-7.4507391E-001	0
9.4175771E+003	6.240939861854713E+001	-7.4704438E-001	-7.932447573189066E-002	5.9258906E-005	-7.4707383E-001	0
9.3424346E+003	6.260939861349470E+001	-7.4901378E-001	-8.017329942981982E-002	6.0050905E-005	-7.4907374E-001	0
9.2980303E+003	6.280939860844228E+001	-7.5099301E-001	-8.076903998140106E-002	6.0656985E-005	-7.5107366E-001	0
9.2281455E+003	6.300939860338985E+001	-7.5297129E-001	-8.159508416059524E-002	6.1438754E-005	-7.5307351E-001	0
9.1680957E+003	6.320939859833743E+001	-7.5502396E-001	-8.235341390487139E-002	6.2178799E-005	-7.5507337E-001	0
9.0939697E+003	6.340919859329006E+001	-7.5704169E-001	-8.324656068658542E-002	6.3021114E-005	-7.5707310E-001	0
9.0411826E+003	6.360919858823763E+001	-7.5905824E-001	-8.395563194511335E-002	6.3727217E-005	-7.5907314E-001	0
8.9737432E+003	6.380919858318521E+001	-7.6103151E-001	-8.480647709188949E-002	6.4540400E-005	-7.6107305E-001	0
8.9087471E+003	6.400919857813278E+001	-7.6301330E-001	-8.564765814717085E-002	6.5350301E-005	-7.6307297E-001	0
8.8448584E+003	6.420919857308036E+001	-7.6500475E-001	-8.649146414727216E-002	6.6166380E-005	-7.6507288E-001	0
8.7795352E+003	6.440919856802793E+001	-7.6702601E-001	-8.736522069312791E-002	6.7011395E-005	-7.6707280E-001	0
8.7150156E+003	6.460919856297551E+001	-7.6901537E-001	-8.824027774701371E-002	6.7858127E-005	-7.6907259E-001	0
8.6584395E+003	6.480919855792308E+001	-7.7102405E-001	-8.904884485717979E-002	6.8658803E-005	-7.7107257E-001	0
8.5895762E+003	6.500919855287066E+001	-7.7302718E-001	-8.999596252591835E-002	6.9569323E-005	-7.7307242E-001	0
8.5179697E+003	6.520919854781823E+001	-7.7500367E-001	-9.098454929313826E-002	7.0513357E-005	-7.7507228E-001	0
8.4507295E+003	6.540919854276581E+001	-7.7701789E-001	-9.194683884069854E-002	7.1444338E-005	-7.7707219E-001	0
8.3748350E+003	6.560919853771338E+001	-7.7902317E-001	-9.301952330095709E-002	7.2464361E-005	-7.7907211E-001	0
8.3189854E+003	6.580919853266096E+001	-7.8100336E-001	-9.388204087617280E-002	7.3322190E-005	-7.8107202E-001	0
8.2611973E+003	6.600919852760853E+001	-7.8301281E-001	-9.478199922441677E-002	7.4215517E-005	-7.8307188E-001	0
8.1768140E+003	6.620919852255611E+001	-7.8500384E-001	-9.600363388581545E-002	7.5363219E-005	-7.8507179E-001	0
8.1272090E+003	6.640919851750368E+001	-7.8699511E-001	-9.683460838535196E-002	7.6208365E-005	-7.8707170E-001	0
8.0526055E+003	6.660919851245126E+001	-7.8905392E-001	-9.798740776933645E-002	7.7317345E-005	-7.8907162E-001	0
7.9905854E+003	6.680919850739883E+001	-7.9103160E-001	-9.899545061695614E-002	7.8308527E-005	-7.9107153E-001	0
7.9246133E+003	6.700909850234893E+001	-7.9299951E-001	-1.000679097365866E-001	7.9353806E-005	-7.9307097E-001	0
7.8599614E+003	6.720899849729904E+001	-7.9498422E-001	-1.011435275109664E-001	8.0407510E-005	-7.9507124E-001	0
7.7806719E+003	6.740899849224661E+001	-7.9700267E-001	-1.024336544934097E-001	8.1639897E-005	-7.9707122E-001	0
7.7163833E+003	6.760899848719419E+001	-7.9901797E-001	-1.035482495032721E-001	8.2736915E-005	-7.9907101E-001	0
7.6455010E+003	6.780899848214176E+001	-8.0099475E-001	-1.047668114448146E-001	8.3917665E-005	-8.0107093E-001	0
7.5773052E+003	6.800899847708934E+001	-8.0297720E-001	-1.059713395008328E-001	8.5092572E-005	-8.0307084E-001	0
7.5169199E+003	6.820899847203691E+001	-8.0495030E-001	-1.070851258312662E-001	8.6198204E-005	-8.0507076E-001	0
7.4482559E+003	6.840899846698449E+001	-8.0698246E-001	-1.083451590232569E-001	8.7432643E-005	-8.0707061E-001	0
7.3948623E+003	6.860899846193206E+001	-8.0901831E-001	-1.094027580197090E-001	8.8508838E-005	-8.0907053E-001	0
7.3270957E+003	6.880899845687964E+001	-8.1102192E-001	-1.106880506006429E-001	8.9770438E-005	-8.1107038E-001	0
7.2675815E+003	6.900899845182721E+001	-8.1302702E-001	-1.118703680556448E-001	9.0953632E-005	-8.1307024E-001	0
7.2013896E+003	6.920899844677479E+001	-8.1500655E-001	-1.131735142825124E-001	9.2237155E-005	-8.1507021E-001	0
7.1373843E+003	6.940899844172236E+001	-8.1702852E-001	-1.144717042503318E-001	9.3526651E-005	-8.1707007E-001	0
7.0751807E+003	6.960899843666994E+001	-8.1898916E-001	-1.157552324997817E-001	9.4802279E-005	-8.1907004E-001	0
7.0228501E+003	6.980899843161751E+001	-8.2102054E-001	-1.169070305298514E-001	9.5983072E-005	-8.2106984E-001	0
6.9411348E+003	7.000899842656509E+001	-8.2298398E-001	-1.185661984033157E-001	9.7578079E-005	-8.2306975E-001	0
6.8806650E+003	7.020899842151266E+001	-8.2499361E-001	-1.199002752097456E-001	9.8916964E-005	-8.2506967E-001	0
6.8266216E+003	7.040899841646024E+001	-8.2702690E-001	-1.211473206892324E-001	1.0019209E-004	-8.2706958E-001	0
6.7780205E+003	7.060899841140781E+001	-8.2900673E-001	-1.223080921295160E-001	1.0139423E-004	-8.2906950E-001	0
6.7235493E+003	7.080889840635791E+001	-8.3102590E-001	-1.235992895559191E-001	1.0271421E-004	-8.3106893E-001	0
6.6652095E+003	7.100879840130801E+001	-8.3301264E-001	-1.249792178419091E-001	1.0410927E-004	-8.3306921E-001	0
6.6211372E+003	7.120879839625559E+001	-8.3502340E-001	-1.261148035479820E-001	1.0530881E-004	-8.3506918E-001	0
6.5756782E+003	7.140879839120316E+001	-8.3698660E-001	-1.272852147038173E-001	1.0653602E-004	-8.3706897E-001	0
6.5261851E+003	7.160879838615074E+001	-8.3901709E-001	-1.285616502444560E-001	1.0786542E-004	-8.3906889E-001	0
6.4731948E+003	7.180879838109831E+001	-8.4099543E-001	-1.299196887907068E-001	1.0926186E-004	-8.4106869E-001	0
6.4262974E+003	7.200879837604589E+001	-8.4302020E-001	-1.311828759108205E-001	1.1058981E-004	-8.4306872E-001	0
6.3788838E+003	7.220879837099346E+001	-8.4502214E-001	-1.324717887865208E-001	1.1194160E-004	-8.4506857E-001	0
6.3387705E+003	7.240879836594104E+001	-8.4705460E-001	-1.336307388470591E-001	1.1319253E-004	-8.4706849E-001	0
6.2889321E+003	7.260879836088861E+001	-8.4903610E-001	-1.350048082825772E-001	1.1462395E-004	-8.4906834E-001	0
6.2483569E+003	7.280879835583619E+001	-8.5101938E-001	-1.361989092901181E-001	1.1590791E-004	-8.5106820E-001	0
6.1973271E+003	7.300879835078376E+001	-8.5303313E-001	-1.376453309452956E-001	1.1741603E-004	-8.5306823E-001	0
6.1476885E+003	7.320879834573134E+001	-8.5504073E-001	-1.390832938378475E-001	1.1892188E-004	-8.5506874E-001	0
6.0986904E+003	7.340879834067891E+001	-8.5700077E-001	-1.405220944899006E-001	1.2042754E-004	-8.5706919E-001	0
6.0532388E+003	7.360879833562649E+001	-8.5904348E-001	-1.419146812590611E-001	1.2191088E-004	-8.5906917E-001	0
6.0067681E+003	7.380879833057406E+001	-8.6105746E-001	-1.433478732532110E-001	1.2343076E-004	-8.6106914E-001	0
5.9446543E+003	7.400879832552164E+001	-8.6304629E-001	-1.451802303340890E-001	1.2529726E-004	-8.6306912E-001	0
5.8959751E+003	7.420879832046921E+001	-8.6503792E-001	-1.467166805603961E-001	1.2691549E-004	-8.6506921E-001	0
5.8431284E+003	7.440879831541679E+001	-8.6701447E-001	-1.483819001552784E-001	1.2864925E-004	-8.6706918E-001	0
5.7789980E+003	7.460879831036436E+001	-8.6900449E-001	-1.503728665179163E-001	1.3067470E-004	-8.6906916E-001	0
5.7215967E+003	7.480879830531194E+001	-8.7104130E-001	-1.522374494548240E-001	1.3260510E-004	-8.7106913E-001	0
5.6566426E+003	7.500879830025951E+001	-8.7302858E-001	-1.543368871879183E-001	1.3474052E-004	-8.7306911E-001	0
5.5547495E+003	7.520879829520709E+001	-8.7497747E-001	-1.575187991865303E-001	1.3782539E-004	-8.7506920E-001	0
5.4782622E+003	7.540879829015466E+001	-8.7700707E-001	-1.600885554871473E-001	1.4039880E-004	-8.7706912E-001	0
5.4044536E+003	7.560879828510224E+001	-8.7902492E-001	-1.626482452603812E-001	1.4297185E-004	-8.7906927E-001	0
5.3304712E+003	7.580879828004981E+001	-8.8101870E-001	-1.652797043277054E-001	1.4561451E-004	-8.8106924E-001	0
5.2567993E+003	7.600879827499739E+001	-8.8299578E-001	-1.679721314823275E-001	1.4831868E-004	-8.8306904E-001	0
5.1616509E+003	7.620879826994496E+001	-8.8497812E-001	-1.714525383975261E-001	1.5173174E-004	-8.8506919E-001	0
5.0683511E+003	7.640879826489254E+001	-8.8702339E-001	-1.750122187279017E-001	1.5523993E-004	-8.8706917E-001	0
4.9639712E+003	7.660879825984011E+001	-8.8898057E-001	-1.790865636979750E-001	1.5920447E-004	-8.8906914E-001	0
4.8575298E+003	7.680879825478769E+001	-8.9102012E-001	-1.834307086174629E-001	1.6344045E-004	-8.9106917E-001	0
4.7397500E+003	7.700879824973526E+001	-8.9299619E-001	-1.884057578068985E-001	1.6824562E-004	-8.9306921E-001	0
4.6146821E+003	7.720879824468284E+001	-8.9500755E-001	-1.939478231057555E-001	1.7358476E-004	-8.9506918E-001	0
4.4778262E+003	7.740879823963041E+001	-8.9699763E-001	-2.003198934596484E-001	1.7968647E-004	-8.9706910E-001	0
4.3414966E+003	7.760879823457799E+001	-8.9898223E-001	-2.070673474991294E-001	1.8614986E-004	-8.9906919E-001	0
4.1883916E+003	7.780879822952556E+001	-9.0103537E-001	-2.151268147050380E-001	1.9383687E-004	-9.0106916E-001	0
4.0309937E+003	7.800879822447314E+001	-9.0297627E-001	-2.240083629831393E-001	2.0227424E-004	-9.0306914E-001	0
3.8602048E+003	7.820879821942071E+001	-9.0501922E-001	-2.344485006090293E-001	2.1218040E-004	-9.0506923E-001	0
3.6788914E+003	7.840879821436829E+001	-9.0701538E-001	-2.465458401307772E-001	2.2362087E-004	-9.0706909E-001	0
3.4982563E+003	7.860879820931586E+001	-9.0902406E-001	-2.598506129534739E-001	2.3621046E-004	-9.0906918E-001	0
3.2947913E+003	7.880879820426344E+001	-9.1102064E-001	-2.765032975150956E-001	2.5190020E-004	-9.1106915E-001	0
3.0646650E+003	7.900879819921101E+001	-9.1302353E-001	-2.979195062303379E-001	2.7200751E-004	-9.1306925E-001	0
2.8867686E+003	7.920879819415859E+001	-9.1501653E-001	-3.169691479636052E-001	2.9003201E-004	-9.1506922E-001	0
2.7015510E+003	7.940879818910616E+001	-9.1701400E-001	-3.394398373676268E-001	3.1127108E-004	-9.1706914E-001	0
2.5189800E+003	7.960879818405374E+001	-9.1901153E-001	-3.648348060012072E-001	3.3528739E-004	-9.1906917E-001	0
2.3364800E+003	7.980879817900131E+001	-9.2103201E-001	-3.941964247641985E-001	3.6306752E-004	-9.2106926E-001	0
2.1317754E+003	8.000879817394889E+001	-9.2304754E-001	-4.329947647585843E-001	3.9967475E-004	-9.2306912E-001	0
1.9651185E+003	8.020879816889646E+001	-9.2504281E-001	-4.707313023946860E-001	4.3544659E-004	-9.2506915E-001	0
1.8146907E+003	8.040879816384404E+001	-9.2704451E-001	-5.108553732696752E-001	4.7358568E-004	-9.2706919E-001	0
1.6565684E+003	8.060879815879161E+001	-9.2902011E-001	-5.608100230106547E-001	5.2100379E-004	-9.2906916E-001	0
1.5070333E+003	8.080879815373919E+001	-9.3106413E-001	-6.178125792189308E-001	5.7522312E-004	-9.3106914E-001	0
1.3838768E+003	8.100879814868676E+001	-9.3305063E-001	-6.742295541350751E-001	6.2909030E-004	-9.3306917E-001	0
1.2461984E+003	8.120879814363434E+001	-9.3507367E-001	-7.503409855270453E-001	7.0162409E-004	-9.3506914E-001	0
1.1426389E+003	8.140879813858191E+001	-9.3705016E-001	-8.200754542875188E-001	7.6845184E-004	-9.3706912E-001	0
1.0315198E+003	8.160879813352949E+001	-9.3905765E-001	-9.103631609353897E-001	8.5488352E-004	-9.3906921E-001	0
9.3289465E+002	8.181879812822444E+001	-9.4113415E-001	-1.008832214610279E+000	9.4944646E-004	-9.4116914E-001	0
8.4159808E+002	8.202879812291940E+001	-9.4324338E-001	-1.120776511838582E+000	1.0571650E-003	-9.4326913E-001	0
7.6579565E+002	8.222879811786697E+001	-9.4523865E-001	-1.234322296577989E+000	1.1667291E-003	-9.4526917E-001	0
6.9180695E+002	8.242879811281455E+001	-9.4722134E-001	-1.369198927068723E+000	1.2969344E-003	-9.4726920E-001	0
6.2778278E+002	8.262879810776212E+001	-9.4923216E-001	-1.512039241269065E+000	1.4352762E-003	-9.4926918E-001	0
5.7037714E+002	8.282879810270970E+001	-9.5120877E-001	-1.667683895533724E+000	1.5863156E-003	-9.5126909E-001	0
5.1816791E+002	8.302879809765727E+001	-9.5321989E-001	-1.839596569757738E+000	1.7535400E-003	-9.5326918E-001	0
4.7201874E+002	8.322879809260485E+001	-9.5522827E-001	-2.023708336190440E+000	1.9331034E-003	-9.5526916E-001	0
4.2917062E+002	8.342879808755242E+001	-9.5721787E-001	-2.230390061715155E+000	2.1349692E-003	-9.5726913E-001	0
3.9159634E+002	8.362879808250000E+001	-9.5923495E-001	-2.449550391054482E+000	2.3496943E-003	-9.5926923E-001	0
3.5743655E+002	8.382879807744757E+001	-9.6120161E-001	-2.689153017674720E+000	2.5848183E-003	-9.6126920E-001	0
3.2680157E+002	8.402879807239515E+001	-9.6325326E-001	-2.947517261652450E+000	2.8392056E-003	-9.6326917E-001	0
2.9925858E+002	8.422879806734272E+001	-9.6525985E-001	-3.225504500694285E+000	3.1134500E-003	-9.6526915E-001	0
2.7467920E+002	8.442879806229030E+001	-9.6723050E-001	-3.521309729437441E+000	3.4059181E-003	-9.6726924E-001	0
2.5257704E+002	8.462879805723787E+001	-9.6922606E-001	-3.837348267909082E+000	3.7192579E-003	-9.6926922E-001	0
2.3294510E+002	8.482879805218545E+001	-9.7123045E-001	-4.169353532750588E+000	4.0494031E-003	-9.7126919E-001	0
2.1484781E+002	8.502879804713302E+001	-9.7321820E-001	-4.529802802232112E+000	4.4084867E-003	-9.7326916E-001	0
1.9872682E+002	8.522879804208060E+001	-9.7520792E-001	-4.907278935891696E+000	4.7856173E-003	-9.7526926E-001	0
1.8420547E+002	8.542879803702817E+001	-9.7719175E-001	-5.304900622354310E+000	5.1839049E-003	-9.7726911E-001	0
1.7096533E+002	8.562879803197575E+001	-9.7928363E-001	-5.727965981308841E+000	5.6093032E-003	-9.7926915E-001	0
1.5924782E+002	8.582879802692332E+001	-9.8120660E-001	-6.161507455771442E+000	6.0457117E-003	-9.8126918E-001	0
1.4845023E+002	8.602879802187090E+001	-9.8324233E-001	-6.623380821848656E+000	6.5123886E-003	-9.8326916E-001	0
1.3870921E+002	8.622879801681847E+001	-9.8520195E-001	-7.102642380393803E+000	6.9975373E-003	-9.8526919E-001	0
1.2986008E+002	8.642879801176605E+001	-9.8722678E-001	-7.602234897091815E+000	7.5051300E-003	-9.8726916E-001	0
1.2174917E+002	8.662879800671362E+001	-9.8921573E-001	-8.125030562450554E+000	8.0374079E-003	-9.8926914E-001	0
1.1451350E+002	8.682879800166120E+001	-9.9124914E-001	-8.656176826716006E+000	8.5804276E-003	-9.9126905E-001	0
1.0784465E+002	8.702879799660877E+001	-9.9323845E-001	-9.209900173876036E+000	9.1476273E-003	-9.9326909E-001	0
1.0174603E+002	8.722879799155635E+001	-9.9524283E-001	-9.781637902027370E+000	9.7351046E-003	-9.9526906E-001	0
9.6249123E+001	8.742879798650392E+001	-9.9725431E-001	-1.036117820431581E+001	1.0332730E-002	-9.9726915E-001	0
9.0767738E+001	8.763879798119888E+001	-9.9935508E-001	-1.101002547047580E+001	1.1002925E-002	-9.9936920E-001	0
8.5830467E+001	8.784879797589383E+001	-1.0014108E+000	-1.166731238175950E+001	1.1683773E-002	-1.0014693E+000	0
8.1627640E+001	8.804879797084141E+001	-1.0034138E+000	-1.229257356140619E+001	1.2334538E-002	-1.0034691E+000	0
7.7784119E+001	8.824879796578898E+001	-1.0054439E+000	-1.292608222912770E+001	1.2996451E-002	-1.0054691E+000	0
7.4200951E+001	8.844879796073656E+001	-1.0074631E+000	-1.357749607084554E+001	1.3678826E-002	-1.0074692E+000	0
7.0847595E+001	8.864879795568413E+001	-1.0094607E+000	-1.424834098107689E+001	1.4383140E-002	-1.0094692E+000	0
6.7776711E+001	8.884879795063171E+001	-1.0114136E+000	-1.492273064075955E+001	1.5093053E-002	-1.0114691E+000	0
6.5013664E+001	8.904879794557928E+001	-1.0134406E+000	-1.558811658850606E+001	1.5797630E-002	-1.0134691E+000	0
6.2370277E+001	8.924879794052686E+001	-1.0154260E+000	-1.628060781563755E+001	1.6531752E-002	-1.0154691E+000	0
5.9935223E+001	8.944879793547443E+001	-1.0174235E+000	-1.697538566346054E+001	1.7271157E-002	-1.0174692E+000	0
5.7678284E+001	8.964879793042201E+001	-1.0194374E+000	-1.767454508913349E+001	1.8018093E-002	-1.0194691E+000	0
5.5579132E+001	8.984879792536958E+001	-1.0214462E+000	-1.837823309649684E+001	1.8772377E-002	-1.0214692E+000	0
5.3574944E+001	9.004879792031716E+001	-1.0234367E+000	-1.910289732588114E+001	1.9550605E-002	-1.0234691E+000	0
5.1712734E+001	9.024879791526473E+001	-1.0254301E+000	-1.982935372947833E+001	2.0333616E-002	-1.0254692E+000	0
5.0017548E+001	9.044879791021231E+001	-1.0274389E+000	-2.054156899857685E+001	2.1105208E-002	-1.0274692E+000	0
4.8366241E+001	9.064879790515988E+001	-1.0293834E+000	-2.128309779210420E+001	2.1908468E-002	-1.0294693E+000	0
4.6866783E+001	9.084879790010746E+001	-1.0314652E+000	-2.200844767520759E+001	2.2700947E-002	-1.0314691E+000	0
4.5438850E+001	9.104879789505503E+001	-1.0334288E+000	-2.274328709554237E+001	2.3503568E-002	-1.0334692E+000	0
4.4084648E+001	9.124879789000261E+001	-1.0354398E+000	-2.348753707019645E+001	2.4319932E-002	-1.0354692E+000	0
4.2798855E+001	9.144879788495018E+001	-1.0374975E+000	-2.424124456330492E+001	2.5150232E-002	-1.0374691E+000	0
4.1590515E+001	9.164879787989776E+001	-1.0394310E+000	-2.499202080581210E+001	2.5977481E-002	-1.0394692E+000	0
4.0437969E+001	9.184879787484533E+001	-1.0414439E+000	-2.575411144297675E+001	2.6821464E-002	-1.0414692E+000	0
3.9387863E+001	9.204879786979291E+001	-1.0434247E+000	-2.649102129606433E+001	2.7641386E-002	-1.0434692E+000	0
3.8321186E+001	9.224879786474048E+001	-1.0454578E+000	-2.728145775584120E+001	2.8521614E-002	-1.0454692E+000	0
3.7345356E+001	9.244879785968806E+001	-1.0474015E+000	-2.804636547165393E+001	2.9375806E-002	-1.0474691E+000	0
3.6355236E+001	9.264879785463563E+001	-1.0494484E+000	-2.886649965753361E+001	3.0293901E-002	-1.0494692E+000	0
3.5416016E+001	9.284879784958321E+001	-1.0514861E+000	-2.968956505252123E+001	3.1218166E-002	-1.0514692E+000	0
3.4556793E+001	9.304879784453078E+001	-1.0534278E+000	-3.048395745310926E+001	3.2112647E-002	-1.0534692E+000	0
3.3738380E+001	9.324879783947836E+001	-1.0554110E+000	-3.128220626340163E+001	3.3015583E-002	-1.0554692E+000	0
3.2918465E+001	9.344879783442593E+001	-1.0574641E+000	-3.212373829158264E+001	3.3969700E-002	-1.0574692E+000	0
3.2154289E+001	9.364879782937351E+001	-1.0594572E+000	-3.294917187398789E+001	3.4908235E-002	-1.0594692E+000	0
3.1406548E+001	9.384879782432108E+001	-1.0614657E+000	-3.379759320839730E+001	3.5874989E-002	-1.0614692E+000	0
3.0737591E+001	9.404879781926866E+001	-1.0634596E+000	-3.459801459988219E+001	3.6793593E-002	-1.0634692E+000	0
3.0077805E+001	9.424879781421623E+001	-1.0654664E+000	-3.542367584229595E+001	3.7742738E-002	-1.0654690E+000	0
2.9434267E+001	9.444879780916381E+001	-1.0674760E+000	-3.626643876423930E+001	3.8713556E-002	-1.0674692E+000	0
2.8824743E+001	9.464879780411138E+001	-1.0694538E+000	-3.710193708478192E+001	3.9678808E-002	-1.0694692E+000	0
2.8201099E+001	9.484879779905896E+001	-1.0714663E+000	-3.799377917216202E+001	4.0709056E-002	-1.0714692E+000	0
2.7650677E+001	9.504879779400653E+001	-1.0734859E+000	-3.882313191404154E+001	4.1676082E-002	-1.0734692E+000	0
2.7038853E+001	9.524879778895411E+001	-1.0753822E+000	-3.977173914552520E+001	4.2769823E-002	-1.0754691E+000	0
2.6433422E+001	9.544879778390168E+001	-1.0774628E+000	-4.076138196375359E+001	4.3918874E-002	-1.0774692E+000	0
2.5917440E+001	9.564879777884926E+001	-1.0794390E+000	-4.164913683197142E+001	4.4957705E-002	-1.0794692E+000	0
2.5423103E+001	9.584879777379683E+001	-1.0814435E+000	-4.253782604259709E+001	4.6002258E-002	-1.0814691E+000	0
2.4943878E+001	9.604879776874441E+001	-1.0834739E+000	-4.343646516118736E+001	4.7062278E-002	-1.0834692E+000	0
2.4508038E+001	9.624879776369198E+001	-1.0854660E+000	-4.429020432577113E+001	4.8075512E-002	-1.0854691E+000	0
2.4047010E+001	9.644879775863956E+001	-1.0874631E+000	-4.522238465393485E+001	4.9177676E-002	-1.0874691E+000	0
2.3608084E+001	9.664879775358713E+001	-1.0894781E+000	-4.614852032612782E+001	5.0277803E-002	-1.0894692E+000	0
2.3183926E+001	9.684879774853471E+001	-1.0914320E+000	-4.707709892861140E+001	5.1381450E-002	-1.0914692E+000	0
2.2789955E+001	9.704879774348228E+001	-1.0934429E+000	-4.797915903700209E+001	5.2462470E-002	-1.0934691E+000	0
2.2415102E+001	9.724879773842986E+001	-1.0954434E+000	-4.887077350573199E+001	5.3535163E-002	-1.0954691E+000	0
2.2013958E+001	9.744879773337743E+001	-1.0974846E+000	-4.985403370776140E+001	5.4714035E-002	-1.0974692E+000	0
2.1596277E+001	9.764879772832501E+001	-1.0994686E+000	-5.091009574736603E+001	5.5974051E-002	-1.0994692E+000	0
2.1233683E+001	9.784879772327258E+001	-1.1014932E+000	-5.187480724263366E+001	5.7139751E-002	-1.1014692E+000	0
2.0888483E+001	9.804879771822016E+001	-1.1034545E+000	-5.282597209536857E+001	5.8291055E-002	-1.1034691E+000	0
2.0531574E+001	9.824879771316773E+001	-1.1054718E+000	-5.384252879408751E+001	5.9521399E-002	-1.1054691E+000	0
2.0181822E+001	9.844879770811531E+001	-1.1074659E+000	-5.487442277726666E+001	6.0771551E-002	-1.1074692E+000	0
1.9824516E+001	9.864879770306288E+001	-1.1094116E+000	-5.596159636082280E+001	6.2084444E-002	-1.1094692E+000	0
1.9516212E+001	9.884879769801046E+001	-1.1114870E+000	-5.695198664481404E+001	6.3301392E-002	-1.1114691E+000	0
1.9247410E+001	9.904879769295803E+001	-1.1134226E+000	-5.784792125198055E+001	6.4409181E-002	-1.1134692E+000	0
1.8948801E+001	9.924879768790561E+001	-1.1154460E+000	-5.886631149283312E+001	6.5662190E-002	-1.1154691E+000	0
1.8687603E+001	9.944879768285318E+001	-1.1174570E+000	-5.979670275420017E+001	6.6820249E-002	-1.1174692E+000	0
1.8367329E+001	9.964879767780076E+001	-1.1194690E+000	-6.094892978127581E+001	6.8230443E-002	-1.1194692E+000	0
1.8069103E+001	9.984879767274833E+001	-1.1214757E+000	-6.206592801909324E+001	6.9605432E-002	-1.1214691E+000	0
1.7779800E+001	1.000487976676959E+002	-1.1234866E+000	-6.318893187656954E+001	7.0991918E-002	-1.1234692E+000	0
1.7565296E+001	1.002487976626435E+002	-1.1254455E+000	-6.407210395774064E+001	7.2109662E-002	-1.1254692E+000	0
1.7264179E+001	1.004487976575911E+002	-1.1274892E+000	-6.530801373328187E+001	7.3634081E-002	-1.1274692E+000	0
1.6972359E+001	1.006487976525386E+002	-1.1294703E+000	-6.654763595263125E+001	7.5163580E-002	-1.1294693E+000	0
1.6747557E+001	1.008487976474862E+002	-1.1314561E+000	-6.755947827427832E+001	7.6440588E-002	-1.1314692E+000	0
1.6468731E+001	1.010487976424338E+002	-1.1334620E+000	-6.882509581139868E+001	7.8010626E-002	-1.1334691E+000	0
1.6243921E+001	1.012487976373814E+002	-1.1355004E+000	-6.990310150155165E+001	7.9374999E-002	-1.1354692E+000	0
1.6018837E+001	1.014487976323289E+002	-1.1375111E+000	-7.101084078520586E+001	8.0775619E-002	-1.1374692E+000	0
1.5806026E+001	1.016487976272765E+002	-1.1394820E+000	-7.209161949482075E+001	8.2147107E-002	-1.1394693E+000	0
1.5506266E+001	1.018487976222241E+002	-1.1415520E+000	-7.361875665917682E+001	8.4039636E-002	-1.1414692E+000	0
1.5281019E+001	1.020487976171717E+002	-1.1435014E+000	-7.483148752426632E+001	8.5569911E-002	-1.1434691E+000	0
1.5114799E+001	1.022487976121192E+002	-1.1455115E+000	-7.578740843623677E+001	8.6815350E-002	-1.1454692E+000	0
1.4927641E+001	1.024487976070668E+002	-1.1475297E+000	-7.687280948902747E+001	8.8213831E-002	-1.1474692E+000	0
1.4765489E+001	1.026487976020144E+002	-1.1495284E+000	-7.785237770718527E+001	8.9493521E-002	-1.1494691E+000	0
1.4588860E+001	1.028487975969620E+002	-1.1515076E+000	-7.893061230999012E+001	9.0889201E-002	-1.1514692E+000	0
1.4386618E+001	1.030487975919095E+002	-1.1535302E+000	-8.018077921867365E+001	9.2490956E-002	-1.1534692E+000	0
1.4180261E+001	1.032487975868571E+002	-1.1555308E+000	-8.148868768123293E+001	9.4162688E-002	-1.1554691E+000	0
1.3923947E+001	1.034487975818047E+002	-1.1575322E+000	-8.313247504580295E+001	9.6228518E-002	-1.1574692E+000	0
1.3784135E+001	1.036487975767523E+002	-1.1595321E+000	-8.412077323271296E+001	9.7540736E-002	-1.1594692E+000	0
1.3509556E+001	1.038487975716998E+002	-1.1615208E+000	-8.597772062230240E+001	9.9864915E-002	-1.1614691E+000	0
1.3362473E+001	1.040487975666474E+002	-1.1635423E+000	-8.707536468754608E+001	1.0131587E-001	-1.1634692E+000	0
1.3235555E+001	1.042487975615950E+002	-1.1655173E+000	-8.805957621457617E+001	1.0263496E-001	-1.1654692E+000	0
1.3081614E+001	1.044487975565426E+002	-1.1675252E+000	-8.924931978909069E+001	1.0420083E-001	-1.1674693E+000	0
1.2894884E+001	1.046487975514901E+002	-1.1695739E+000	-9.070061139671157E+001	1.0608107E-001	-1.1694692E+000	0
1.2799408E+001	1.048487975464377E+002	-1.1714958E+000	-9.152734083815767E+001	1.0722390E-001	-1.1714691E+000	0
1.2618887E+001	1.050487975413853E+002	-1.1735699E+000	-9.300106558345601E+001	1.0914325E-001	-1.1734691E+000	0
1.2487097E+001	1.052487975363329E+002	-1.1755503E+000	-9.414120229517857E+001	1.1066772E-001	-1.1754692E+000	0
1.2346466E+001	1.054487975312804E+002	-1.1775416E+000	-9.537478873194527E+001	1.1230778E-001	-1.1774691E+000	0
1.2174609E+001	1.056487975262280E+002	-1.1795655E+000	-9.688734429006934E+001	1.1428497E-001	-1.1794692E+000	0
1.1924006E+001	1.058487975211756E+002	-1.1815449E+000	-9.908959315747620E+001	1.1707880E-001	-1.1814692E+000	0
1.1849542E+001	1.060487975161232E+002	-1.1835740E+000	-9.988352225859438E+001	1.1821954E-001	-1.1834692E+000	0
1.1788790E+001	1.062487975110707E+002	-1.1855280E+000	-1.005640147754129E+002	1.1922146E-001	-1.1854692E+000	0
1.1659112E+001	1.064487975060183E+002	-1.1875321E+000	-1.018544210717255E+002	1.2095539E-001	-1.1874692E+000	0
1.1575176E+001	1.066487975009659E+002	-1.1895531E+000	-1.027676059123883E+002	1.2224753E-001	-1.1894692E+000	0
1.1454868E+001	1.068487974959135E+002	-1.1915540E+000	-1.040216195664432E+002	1.2394737E-001	-1.1914692E+000	0
1.1298043E+001	1.070487974908610E+002	-1.1935380E+000	-1.056411223822440E+002	1.2608668E-001	-1.1934692E+000	0
1.1109396E+001	1.072487974858086E+002	-1.1955333E+000	-1.076146102708485E+002	1.2865685E-001	-1.1954691E+000	0
1.1028600E+001	1.074487974807562E+002	-1.1975445E+000	-1.085853605594766E+002	1.3003580E-001	-1.1974692E+000	0
1.0710424E+001	1.076687974751985E+002	-1.1997069E+000	-1.120130097536277E+002	1.3438278E-001	-1.1996691E+000	0
1.0643966E+001	1.078687974701461E+002	-1.2017136E+000	-1.129009210722782E+002	1.3567457E-001	-1.2016692E+000	0
1.0507641E+001	1.080687974650937E+002	-1.2036848E+000	-1.145532886781934E+002	1.3788605E-001	-1.2036692E+000	0
1.0366138E+001	1.082687974600412E+002	-1.2056842E+000	-1.163098635987085E+002	1.4023297E-001	-1.2056692E+000	0
1.0310478E+001	1.084687974549888E+002	-1.2076889E+000	-1.171321975400929E+002	1.4145926E-001	-1.2076693E+000	0
1.0235577E+001	1.086687974499364E+002	-1.2096822E+000	-1.181840788426043E+002	1.4296518E-001	-1.2096692E+000	0
1.0172563E+001	1.088687974448840E+002	-1.2116568E+000	-1.191102780063134E+002	1.4432079E-001	-1.2116692E+000	0
1.0085380E+001	1.090687974398315E+002	-1.2137462E+000	-1.203471039882329E+002	1.4607084E-001	-1.2136692E+000	0
9.8993835E+000	1.092687974347791E+002	-1.2156906E+000	-1.228046768322552E+002	1.4929250E-001	-1.2156692E+000	0
9.7482691E+000	1.094687974297267E+002	-1.2176954E+000	-1.249140013783429E+002	1.5210719E-001	-1.2176692E+000	0
9.6771364E+000	1.096687974246743E+002	-1.2197286E+000	-1.260423053559801E+002	1.5373740E-001	-1.2196692E+000	0
9.6166334E+000	1.098687974196218E+002	-1.2217089E+000	-1.270412268043915E+002	1.5520740E-001	-1.2216692E+000	0
9.4602976E+000	1.100687974145694E+002	-1.2236857E+000	-1.293495982185245E+002	1.5828326E-001	-1.2236692E+000	0
9.4085140E+000	1.102687974095170E+002	-1.2256702E+000	-1.302724585381761E+002	1.5967107E-001	-1.2256691E+000	0
9.2792845E+000	1.104687974044646E+002	-1.2276877E+000	-1.323041344499904E+002	1.6242816E-001	-1.2276692E+000	0
9.1907511E+000	1.106687973994121E+002	-1.2296633E+000	-1.337935478476435E+002	1.6452101E-001	-1.2296692E+000	0
9.1503782E+000	1.108687973943597E+002	-1.2316955E+000	-1.346059737010884E+002	1.6579358E-001	-1.2316692E+000	0
9.0237179E+000	1.110687973893073E+002	-1.2336893E+000	-1.367162917260413E+002	1.6866542E-001	-1.2336692E+000	0
9.0036707E+000	1.112687973842549E+002	-1.2356806E+000	-1.372418669270280E+002	1.6958711E-001	-1.2356693E+000	0
8.9666929E+000	1.114687973792024E+002	-1.2377206E+000	-1.380353569962815E+002	1.7084920E-001	-1.2376692E+000	0
8.9111204E+000	1.116687973741500E+002	-1.2397168E+000	-1.391201968322812E+002	1.7246965E-001	-1.2396692E+000	0
8.7643185E+000	1.118687973690976E+002	-1.2416782E+000	-1.416742546520535E+002	1.7591384E-001	-1.2416692E+000	0
8.6646500E+000	1.120687973640452E+002	-1.2436804E+000	-1.435349835030343E+002	1.7851163E-001	-1.2436690E+000	0
8.6291552E+000	1.122687973589927E+002	-1.2456875E+000	-1.443579872038362E+002	1.7982493E-001	-1.2456691E+000	0
8.5228615E+000	1.124687973539403E+002	-1.2476745E+000	-1.463914916001750E+002	1.8264893E-001	-1.2476692E+000	0
8.4420919E+000	1.126687973488879E+002	-1.2497240E+000	-1.480348769510142E+002	1.8500274E-001	-1.2496692E+000	0
8.3646736E+000	1.128687973438355E+002	-1.2517269E+000	-1.496444388668554E+002	1.8731396E-001	-1.2516692E+000	0
8.3094378E+000	1.130687973387830E+002	-1.2537301E+000	-1.508802500538818E+002	1.8916310E-001	-1.2536693E+000	0
8.2470846E+000	1.132687973337306E+002	-1.2557151E+000	-1.522616990407305E+002	1.9119732E-001	-1.2556692E+000	0
8.1965485E+000	1.134687973286782E+002	-1.2577021E+000	-1.534428966169721E+002	1.9298546E-001	-1.2576693E+000	0
8.1033564E+000	1.136687973236258E+002	-1.2597322E+000	-1.554580796829964E+002	1.9583556E-001	-1.2596692E+000	0
8.0424509E+000	1.138687973185733E+002	-1.2616897E+000	-1.568787487542545E+002	1.9793230E-001	-1.2616692E+000	0
7.9326725E+000	1.140687973135209E+002	-1.2637252E+000	-1.593063533495338E+002	2.0131944E-001	-1.2636691E+000	0
7.8895807E+000	1.142687973084685E+002	-1.2657170E+000	-1.604289348768807E+002	2.0305763E-001	-1.2656691E+000	0
7.8680544E+000	1.144687973034161E+002	-1.2677097E+000	-1.611211207188719E+002	2.0425481E-001	-1.2676692E+000	0
7.7963285E+000	1.146687972983636E+002	-1.2696972E+000	-1.628583525919317E+002	2.0678079E-001	-1.2696692E+000	0
7.6786418E+000	1.148687972933112E+002	-1.2716821E+000	-1.656129032965430E+002	2.1060698E-001	-1.2716691E+000	0
7.5697780E+000	1.150687972882588E+002	-1.2737052E+000	-1.682619043888687E+002	2.1431607E-001	-1.2736691E+000	0
7.5479722E+000	1.152687972832064E+002	-1.2756597E+000	-1.690069423608492E+002	2.1559533E-001	-1.2756692E+000	0
7.4883223E+000	1.154687972781539E+002	-1.2777038E+000	-1.706261758090682E+002	2.1800971E-001	-1.2776692E+000	0
7.4792690E+000	1.156687972731015E+002	-1.2797053E+000	-1.711003110716943E+002	2.1895798E-001	-1.2796692E+000	0
7.4405255E+000	1.158687972680491E+002	-1.2817332E+000	-1.722637897889349E+002	2.2079621E-001	-1.2816693E+000	0
7.3627067E+000	1.160687972629967E+002	-1.2837192E+000	-1.743542466952954E+002	2.2382189E-001	-1.2836692E+000	0
7.2986221E+000	1.162687972579442E+002	-1.2857193E+000	-1.761591828653334E+002	2.2649126E-001	-1.2856692E+000	0
7.1929946E+000	1.164687972528918E+002	-1.2876902E+000	-1.790200413068137E+002	2.3052235E-001	-1.2876692E+000	0
7.1783409E+000	1.166687972478394E+002	-1.2897525E+000	-1.796727871938087E+002	2.3173343E-001	-1.2896692E+000	0
7.1619611E+000	1.168687972427870E+002	-1.2916996E+000	-1.803555837239819E+002	2.3296525E-001	-1.2916692E+000	0
7.0875731E+000	1.170687972377345E+002	-1.2937022E+000	-1.825310621953613E+002	2.3614085E-001	-1.2936692E+000	0
7.0014625E+000	1.172687972326821E+002	-1.2956972E+000	-1.850609386783608E+002	2.3978294E-001	-1.2956692E+000	0
6.9588675E+000	1.174687972276297E+002	-1.2977118E+000	-1.864831925617063E+002	2.4200144E-001	-1.2976693E+000	0
6.9584947E+000	1.176687972225773E+002	-1.2997235E+000	-1.867822831915073E+002	2.4276532E-001	-1.2996693E+000	0
6.9690075E+000	1.178687972175248E+002	-1.3017188E+000	-1.867868279134873E+002	2.4314393E-001	-1.3016691E+000	0
6.8962536E+000	1.180687972124724E+002	-1.3037226E+000	-1.890479504689065E+002	2.4646609E-001	-1.3036692E+000	0
6.8129907E+000	1.182687972074200E+002	-1.3057702E+000	-1.916588833629403E+002	2.5026244E-001	-1.3056692E+000	0
6.7512946E+000	1.184687972023676E+002	-1.3076768E+000	-1.936927492040085E+002	2.5328752E-001	-1.3076692E+000	0
6.6310530E+000	1.186687971973151E+002	-1.3096927E+000	-1.975090095602200E+002	2.5867611E-001	-1.3096693E+000	0
6.5916848E+000	1.188687971922627E+002	-1.3116821E+000	-1.989904191758892E+002	2.6101217E-001	-1.3116691E+000	0
6.5533571E+000	1.190687971872103E+002	-1.3137531E+000	-2.004702536870564E+002	2.6336843E-001	-1.3136691E+000	0
6.4904852E+000	1.192687971821579E+002	-1.3157103E+000	-2.027137096128217E+002	2.6671252E-001	-1.3156692E+000	0
6.4673247E+000	1.194687971771054E+002	-1.3177031E+000	-2.037477937771891E+002	2.6847911E-001	-1.3176693E+000	0
6.4504890E+000	1.196687971720530E+002	-1.3197281E+000	-2.045934965107708E+002	2.7000779E-001	-1.3196692E+000	0
6.4389334E+000	1.198687971670006E+002	-1.3217311E+000	-2.052717505344726E+002	2.7131405E-001	-1.3216692E+000	0
6.3945680E+000	1.200687971619482E+002	-1.3237201E+000	-2.070069648349099E+002	2.7401927E-001	-1.3236691E+000	0
6.3614721E+000	1.202687971568957E+002	-1.3257176E+000	-2.083979281730399E+002	2.7627680E-001	-1.3256692E+000	0
6.3372469E+000	1.204687971518433E+002	-1.3277124E+000	-2.095093447886356E+002	2.7816817E-001	-1.3276693E+000	0
6.2980285E+000	1.206687971467909E+002	-1.3297758E+000	-2.111416077451645E+002	2.8077102E-001	-1.3296691E+000	0
6.2255778E+000	1.208687971417385E+002	-1.3317382E+000	-2.139139980026373E+002	2.8487745E-001	-1.3316692E+000	0
6.1795187E+000	1.210688971366835E+002	-1.3337674E+000	-2.158367836950065E+002	2.8787607E-001	-1.3336700E+000	0
6.1685042E+000	1.212689971316286E+002	-1.3357325E+000	-2.165407463017505E+002	2.8924051E-001	-1.3356712E+000	0
6.1618958E+000	1.214692971265686E+002	-1.3377677E+000	-2.171032784250187E+002	2.9043376E-001	-1.3376734E+000	0
6.1217299E+000	1.216697971215035E+002	-1.3397179E+000	-2.188462883925513E+002	2.9319227E-001	-1.3396783E+000	0
5.9431648E+000	1.218702971164385E+002	-1.3418016E+000	-2.257722447330257E+002	3.0294156E-001	-1.3416836E+000	0
5.8567486E+000	1.220707971113734E+002	-1.3437368E+000	-2.294339256233320E+002	3.0829880E-001	-1.3436887E+000	0
5.8474846E+000	1.222710971063134E+002	-1.3458213E+000	-2.301538732185838E+002	3.0974597E-001	-1.3456920E+000	0
5.8376346E+000	1.224714971012509E+002	-1.3477846E+000	-2.308785642250423E+002	3.1117457E-001	-1.3476954E+000	0
5.8249617E+000	1.226719970961858E+002	-1.3497800E+000	-2.317234139438551E+002	3.1277561E-001	-1.3497010E+000	0
5.7720094E+000	1.228723970911233E+002	-1.3517734E+000	-2.341945940288595E+002	3.1657803E-001	-1.3517045E+000	0
5.7271514E+000	1.230727970860607E+002	-1.3538073E+000	-2.363840657920359E+002	3.2001847E-001	-1.3537086E+000	0
5.7224488E+000	1.232731970809982E+002	-1.3558021E+000	-2.369268961900905E+002	3.2122597E-001	-1.3557125E+000	0
5.6858935E+000	1.234736970759332E+002	-1.3577776E+000	-2.387975702695076E+002	3.2423398E-001	-1.3577180E+000	0
5.6444907E+000	1.236638970711283E+002	-1.3596771E+000	-2.408856897031592E+002	3.2752675E-001	-1.3596194E+000	0
5.6349921E+000	1.238442970665710E+002	-1.3614970E+000	-2.416147169443334E+002	3.2895774E-001	-1.3614234E+000	0
5.5809555E+000	1.240344970617662E+002	-1.3634046E+000	-2.442959234599994E+002	3.3307418E-001	-1.3633260E+000	0
5.5326791E+000	1.242348970567036E+002	-1.3654386E+000	-2.467951824210021E+002	3.3698365E-001	-1.3653297E+000	0
5.5173259E+000	1.244251970518962E+002	-1.3673154E+000	-2.478221226950118E+002	3.3885100E-001	-1.3672324E+000	0
5.4697804E+000	1.246156970470838E+002	-1.3691771E+000	-2.503166437678269E+002	3.4272781E-001	-1.3691375E+000	0
5.3816805E+000	1.248162970420162E+002	-1.3712691E+000	-2.548031415001701E+002	3.4940368E-001	-1.3711435E+000	0
5.3904524E+000	1.250069970371987E+002	-1.3731219E+000	-2.547322158236248E+002	3.4977838E-001	-1.3730507E+000	0
5.3573308E+000	1.251971970323939E+002	-1.3750451E+000	-2.566660788745842E+002	3.5292742E-001	-1.3749532E+000	0
5.3152132E+000	1.253975970273314E+002	-1.3770328E+000	-2.590738536956443E+002	3.5675317E-001	-1.3769567E+000	0
5.2906737E+000	1.255980970222663E+002	-1.3790108E+000	-2.606493634254139E+002	3.5943830E-001	-1.3789613E+000	0
5.2504621E+000	1.257986970171987E+002	-1.3810549E+000	-2.630349194517521E+002	3.6326566E-001	-1.3809675E+000	0
5.2416735E+000	1.259988970121412E+002	-1.3830642E+000	-2.638592827307842E+002	3.6493433E-001	-1.3829697E+000	0
5.1897664E+000	1.261988970070888E+002	-1.3850367E+000	-2.668784387202932E+002	3.6963645E-001	-1.3849699E+000	0
5.1269522E+000	1.263991970020288E+002	-1.3870740E+000	-2.705455253186724E+002	3.7526667E-001	-1.3869730E+000	0
5.1090326E+000	1.265994969969688E+002	-1.3890475E+000	-2.718807302830969E+002	3.7765524E-001	-1.3889756E+000	0
5.1233644E+000	1.267900969921538E+002	-1.3909928E+000	-2.714998533234657E+002	3.7765434E-001	-1.3908817E+000	0
5.0997958E+000	1.269805969873414E+002	-1.3928651E+000	-2.731217427204538E+002	3.8042173E-001	-1.3927866E+000	0
4.9890575E+000	1.271808969822814E+002	-1.3949162E+000	-2.795951273476953E+002	3.9001176E-001	-1.3947901E+000	0
4.9601760E+000	1.273811969772214E+002	-1.3968804E+000	-2.816191089839823E+002	3.9338821E-001	-1.3967927E+000	0
4.8917904E+000	1.275816969721564E+002	-1.3988951E+000	-2.859679249259685E+002	4.0003914E-001	-1.3987974E+000	0
4.8797865E+000	1.277821969670913E+002	-1.4008943E+000	-2.870810534726113E+002	4.0217021E-001	-1.4008027E+000	0
4.8374333E+000	1.279826969620262E+002	-1.4028580E+000	-2.900004808616691E+002	4.0682951E-001	-1.4028076E+000	0
4.8086042E+000	1.281831969569612E+002	-1.4048959E+000	-2.921629343249593E+002	4.1045851E-001	-1.4048129E+000	0
4.8129935E+000	1.283635969524039E+002	-1.4066670E+000	-2.922644747178874E+002	4.1111878E-001	-1.4066164E+000	0
4.8054147E+000	1.285338969481018E+002	-1.4084049E+000	-2.930870654932170E+002	4.1278526E-001	-1.4083196E+000	0
4.8103299E+000	1.287240969432969E+002	-1.4103285E+000	-2.931874697775440E+002	4.1349065E-001	-1.4102221E+000	0
4.6881528E+000	1.289245969382318E+002	-1.4123341E+000	-3.012559789182390E+002	4.2547408E-001	-1.4122264E+000	0
4.6342192E+000	1.291251969331643E+002	-1.4143449E+000	-3.051959496532083E+002	4.3165234E-001	-1.4142326E+000	0
4.6314263E+000	1.293255969281017E+002	-1.4163291E+000	-3.058084175987119E+002	4.3312538E-001	-1.4162366E+000	0
4.6263814E+000	1.295262969230316E+002	-1.4183465E+000	-3.065779634973214E+002	4.3483379E-001	-1.4182432E+000	0
4.5832486E+000	1.297266969179691E+002	-1.4203827E+000	-3.099074165322190E+002	4.4018716E-001	-1.4202480E+000	0
4.5581737E+000	1.299269969129091E+002	-1.4223651E+000	-3.120471422017208E+002	4.4384494E-001	-1.4222507E+000	0
4.5466671E+000	1.301273969078466E+002	-1.4243600E+000	-3.132756430511290E+002	4.4621730E-001	-1.4242547E+000	0
4.4952497E+000	1.303276969027866E+002	-1.4264013E+000	-3.173130277205100E+002	4.5261571E-001	-1.4262580E+000	0
4.5168247E+000	1.305281968977215E+002	-1.4283613E+000	-3.162313010345206E+002	4.5169255E-001	-1.4282628E+000	0
4.4604163E+000	1.307284968926615E+002	-1.4304458E+000	-3.206978064615632E+002	4.5874083E-001	-1.4302660E+000	0
4.3707790E+000	1.309187968878541E+002	-1.4322923E+000	-3.276972558734597E+002	4.6935827E-001	-1.4321685E+000	0
4.3068938E+000	1.311089968830493E+002	-1.4341806E+000	-3.329964996368162E+002	4.7757712E-001	-1.4340712E+000	0
4.3080339E+000	1.313090968779943E+002	-1.4362189E+000	-3.333814992820402E+002	4.7880879E-001	-1.4360720E+000	0
4.2636518E+000	1.314992968731895E+002	-1.4381068E+000	-3.372946062834199E+002	4.8506567E-001	-1.4379737E+000	0
4.1820292E+000	1.316896968683795E+002	-1.4399894E+000	-3.443279392183304E+002	4.9582860E-001	-1.4398779E+000	0
4.1684537E+000	1.318898968633221E+002	-1.4420034E+000	-3.459324358657362E+002	4.9883574E-001	-1.4418800E+000	0
4.1575923E+000	1.320901968582621E+002	-1.4440157E+000	-3.473201949720865E+002	5.0153583E-001	-1.4438827E+000	0
4.1532240E+000	1.322904968532021E+002	-1.4460164E+000	-3.481672050203656E+002	5.0345552E-001	-1.4458859E+000	0
4.1580992E+000	1.324807968483947E+002	-1.4479622E+000	-3.482269301392081E+002	5.0421941E-001	-1.4477885E+000	0
4.1675096E+000	1.326711968435848E+002	-1.4498280E+000	-3.478883325876375E+002	5.0437826E-001	-1.4496926E+000	0
4.1599612E+000	1.328716968385197E+002	-1.4518099E+000	-3.489960329732918E+002	5.0667590E-001	-1.4516973E+000	0
4.0709796E+000	1.330723968334496E+002	-1.4538364E+000	-3.571220247859474E+002	5.1919699E-001	-1.4537048E+000	0
4.0199180E+000	1.332726968283896E+002	-1.4558085E+000	-3.621488179535072E+002	5.2721936E-001	-1.4557078E+000	0
4.0269575E+000	1.334428968240900E+002	-1.4575529E+000	-3.619489102432397E+002	5.2755970E-001	-1.4574100E+000	0
3.9675803E+000	1.336230968195378E+002	-1.4593457E+000	-3.678175542321069E+002	5.3677297E-001	-1.4592113E+000	0
3.9547002E+000	1.337936968152280E+002	-1.4610375E+000	-3.694433006885895E+002	5.3977054E-001	-1.4609176E+000	0
3.9743340E+000	1.339938968101706E+002	-1.4630449E+000	-3.681232803149669E+002	5.3858089E-001	-1.4629200E+000	0
3.9435263E+000	1.341939968051156E+002	-1.4650611E+000	-3.715104127999052E+002	5.4428542E-001	-1.4649206E+000	0
3.9579809E+000	1.343844968003032E+002	-1.4669472E+000	-3.706301927789123E+002	5.4369491E-001	-1.4668256E+000	0
3.9705367E+000	1.345748967954933E+002	-1.4688606E+000	-3.699400729156132E+002	5.4339039E-001	-1.4687299E+000	0
3.9324610E+000	1.347749967904383E+002	-1.4708649E+000	-3.740316605968001E+002	5.5015004E-001	-1.4707310E+000	0
3.8881838E+000	1.349749967853859E+002	-1.4728794E+000	-3.788090988794975E+002	5.5794013E-001	-1.4727311E+000	0
3.8474343E+000	1.351649967805861E+002	-1.4747654E+000	-3.833113958889062E+002	5.6529438E-001	-1.4746308E+000	0
3.8361876E+000	1.353350967762890E+002	-1.4764932E+000	-3.848855578427865E+002	5.6828094E-001	-1.4763319E+000	0
3.7971847E+000	1.355349967712391E+002	-1.4784626E+000	-3.893575559192232E+002	5.7565057E-001	-1.4783310E+000	0
3.7246037E+000	1.357349967661867E+002	-1.4804593E+000	-3.974810334614358E+002	5.8845448E-001	-1.4803309E+000	0
3.7478251E+000	1.359349967611342E+002	-1.4824464E+000	-3.955484468196255E+002	5.8637941E-001	-1.4823310E+000	0
3.7409918E+000	1.361349967560818E+002	-1.4845247E+000	-3.968265048003243E+002	5.8909875E-001	-1.4843310E+000	0
3.7270319E+000	1.363349967510294E+002	-1.4865166E+000	-3.988472995217417E+002	5.9289312E-001	-1.4863309E+000	0
3.6826673E+000	1.365349967459770E+002	-1.4884924E+000	-4.041886681039878E+002	6.0163176E-001	-1.4883310E+000	0
3.5701873E+000	1.367250967411746E+002	-1.4903985E+000	-4.174566768387358E+002	6.2217683E-001	-1.4902318E+000	0
3.6133983E+000	1.369151967363723E+002	-1.4923180E+000	-4.129957269854556E+002	6.1632097E-001	-1.4921330E+000	0
3.6144814E+000	1.371151967313199E+002	-1.4943131E+000	-4.134239343699428E+002	6.1778480E-001	-1.4941330E+000	0
3.5720394E+000	1.373151967262675E+002	-1.4963129E+000	-4.188959456982248E+002	6.2679940E-001	-1.4961329E+000	0
3.5386386E+000	1.375051967214677E+002	-1.4981976E+000	-4.233824781283103E+002	6.3431060E-001	-1.4980327E+000	0
3.4402354E+000	1.376951967166679E+002	-1.5000718E+000	-4.360375334335295E+002	6.5408760E-001	-1.4999330E+000	0
3.4479513E+000	1.378951967116154E+002	-1.5021142E+000	-4.356541140463341E+002	6.5440220E-001	-1.5019330E+000	0
3.4352164E+000	1.380851967068156E+002	-1.5040058E+000	-4.378198075017408E+002	6.5848351E-001	-1.5038327E+000	0
3.4412425E+000	1.382751967020158E+002	-1.5059443E+000	-4.376164347763252E+002	6.5902597E-001	-1.5057330E+000	0
3.4468069E+000	1.384751966969634E+002	-1.5079238E+000	-4.374842899910723E+002	6.5969300E-001	-1.5077329E+000	0
3.3640552E+000	1.386751966919110E+002	-1.5099182E+000	-4.488387275877485E+002	6.7770976E-001	-1.5097330E+000	0
3.3469491E+000	1.388751966868585E+002	-1.5119197E+000	-4.517307134788326E+002	6.8298060E-001	-1.5117331E+000	0
3.3567829E+000	1.390651966820587E+002	-1.5138171E+000	-4.509725771492049E+002	6.8268996E-001	-1.5136327E+000	0
3.3077021E+000	1.392551966772589E+002	-1.5157299E+000	-4.582425817026858E+002	6.9457197E-001	-1.5155330E+000	0
3.3066118E+000	1.394551966722065E+002	-1.5177081E+000	-4.589918975959845E+002	6.9661570E-001	-1.5175329E+000	0
3.3085220E+000	1.396551966671541E+002	-1.5197302E+000	-4.593380975312366E+002	6.9806999E-001	-1.5195329E+000	0
3.3106394E+000	1.398551966621017E+002	-1.5217177E+000	-4.596446504441517E+002	6.9944936E-001	-1.5215330E+000	0
3.2791669E+000	1.400551966570492E+002	-1.5237123E+000	-4.646644444454823E+002	7.0801491E-001	-1.5235331E+000	0
3.2997241E+000	1.402551966519968E+002	-1.5257279E+000	-4.623804228473400E+002	7.0546669E-001	-1.5255328E+000	0
3.2786450E+000	1.404551966469444E+002	-1.5277034E+000	-4.659557018453024E+002	7.1184212E-001	-1.5275329E+000	0
3.2190816E+000	1.406452966421421E+002	-1.5301720E+000	-4.753442619265024E+002	7.2735846E-001	-1.5294338E+000	0
3.2711504E+000	1.408351966373448E+002	-1.5320594E+000	-4.683549394996808E+002	7.1754760E-001	-1.5313331E+000	0
3.3116970E+000	1.410151966327976E+002	-1.5338529E+000	-4.631622118098039E+002	7.1042269E-001	-1.5331327E+000	0
3.3012431E+000	1.411951966282504E+002	-1.5356308E+000	-4.651674662739224E+002	7.1432549E-001	-1.5349330E+000	0
3.2165973E+000	1.413951966231980E+002	-1.5376384E+000	-4.780325969298146E+002	7.3504126E-001	-1.5369329E+000	0
3.1842868E+000	1.415752966186483E+002	-1.5394894E+000	-4.834644322961285E+002	7.4428838E-001	-1.5387338E+000	0
3.1959436E+000	1.417751966135984E+002	-1.5414627E+000	-4.823184854286874E+002	7.4347591E-001	-1.5407330E+000	0
3.0917649E+000	1.419751966085460E+002	-1.5435058E+000	-4.992312969847872E+002	7.7056640E-001	-1.5427331E+000	0
3.0630045E+000	1.421751966034935E+002	-1.5454671E+000	-5.045592222192108E+002	7.7977967E-001	-1.5447329E+000	0
3.0411646E+000	1.423651965986937E+002	-1.5473982E+000	-5.088176325181421E+002	7.8734350E-001	-1.5466328E+000	0
3.0406840E+000	1.425551965938939E+002	-1.5492637E+000	-5.095115859795042E+002	7.8936779E-001	-1.5485330E+000	0
3.0703492E+000	1.427551965888415E+002	-1.5512799E+000	-5.052454324060564E+002	7.8377706E-001	-1.5505328E+000	0
3.0520296E+000	1.429551965837891E+002	-1.5532768E+000	-5.089324036985291E+002	7.9051286E-001	-1.5525330E+000	0
3.0388510E+000	1.431551965787367E+002	-1.5553063E+000	-5.118073456087338E+002	7.9601717E-001	-1.5545330E+000	0
2.9898906E+000	1.433451965739368E+002	-1.5571922E+000	-5.208191348930741E+002	8.1101549E-001	-1.5564327E+000	0
3.0056989E+000	1.435351965691370E+002	-1.5590911E+000	-5.187116708906879E+002	8.0871874E-001	-1.5583329E+000	0
2.9993258E+000	1.437351965640846E+002	-1.5610948E+000	-5.204818908059970E+002	8.1252158E-001	-1.5603330E+000	0
2.9754934E+000	1.439351965590322E+002	-1.5630630E+000	-5.253122126261405E+002	8.2109612E-001	-1.5623331E+000	0
2.9702952E+000	1.441251965542324E+002	-1.5650100E+000	-5.268870246464719E+002	8.2458341E-001	-1.5642328E+000	0
2.9814401E+000	1.443151965494326E+002	-1.5668379E+000	-5.255305931238372E+002	8.2342124E-001	-1.5661330E+000	0
2.9223623E+000	1.445051965446328E+002	-1.5687952E+000	-5.368243468293726E+002	8.4216744E-001	-1.5680329E+000	0
2.8993814E+000	1.446951965398330E+002	-1.5707042E+000	-5.417377248967300E+002	8.5090971E-001	-1.5699331E+000	0
2.8808279E+000	1.448951965347806E+002	-1.5726695E+000	-5.459088779025590E+002	8.5853422E-001	-1.5719330E+000	0
2.8309352E+000	1.450951965297281E+002	-1.5746752E+000	-5.562385218613806E+002	8.7589502E-001	-1.5739331E+000	0
2.8523936E+000	1.452951965246757E+002	-1.5767426E+000	-5.527787525410536E+002	8.7158984E-001	-1.5759330E+000	0
2.8574102E+000	1.454951965196233E+002	-1.5786785E+000	-5.524857685884908E+002	8.7219739E-001	-1.5779330E+000	0
2.7778096E+000	1.456951965145709E+002	-1.5806940E+000	-5.690432788779676E+002	8.9948326E-001	-1.5799330E+000	0
2.7998524E+000	1.458851965097710E+002	-1.5825821E+000	-5.652376818126631E+002	8.9453506E-001	-1.5818328E+000	0
2.8108492E+000	1.459811965073459E+002	-1.5837191E+000	-5.634308619005933E+002	8.9231622E-001	-1.5828327E+000	1