EC-Lab ASCII FILE
Nb header lines : 61                          

Linear Sweep Voltammetry

Run on channel : 1 (SN 1340)
User : 
Electrode connection : standard
Potential control : Ewe
Ewe ctrl range : min = -5.00 V, max = 5.00 V
Ewe,I filtering : <None>
Channel : Grounded
Acquisition started on : 02/16/2026 17:40:12.148
Technique started on : 02/16/2026 17:40:14.831
Loaded Setting File :  C:\Users\volt\Documents\Platalytix\PtPd_40_CoNi_2_12.mps
Saved on :
	File : Pt40PdNiCo_polished_2_16_02_02_LSV_C01.mpr
	Directory : C:\Users\volt\Documents\Platalytix\
	Host : 127.0.0.1
Device : SP-200 (SN 0262)
Address : USB
EC-LAB for windows v11.60 (software)
Internet server v11.60 (firmware)
Command interpretor v11.60 (firmware)
Electrode material : Pt_40
Initial state : 
Electrolyte : KOH (1M)
Comments : 
Cable : standard
Reference electrode : Hg/HgO (0.140 V)
Electrode surface area : 1.000 cm˛
Characteristic mass : 0.001 g
Equivalent Weight : 0.000 g/eq.
Density : 0.000 g/cm3
Volume (V) : 0.001 cmł
Cycle Definition : Charge/Discharge alternance
tR (h:m:s)          0:00:5.0000         
dER/dt (mV/h)       0.0                 
dER (mV)            0                   
dtR (s)             0.0000              
dE/dt               10.000              
dE/dt unit          mV/s                
Ei (V)              -0.200              
vs.                 Ref                 
EL (V)              -2.500              
vs.                 Ref                 
record              <I>                 
dI                  0.000               
unit dI             µA                  
tI (s)              0.0000              
step percent        50                  
N                   10                  
E range min (V)     -5.000              
E range max (V)     5.000               
I Range             Auto                
I Range min         Unset               
I Range max         Unset               
I Range init        Unset               
Bandwidth           8                   

Rwe/Ohm	time/s	Ewe/V	<I>/mA	Pwe/W	control/V	error	
0.0000000E+000	2.683400127425557E+000	-1.6920446E-001	0.000000000000000E+000	0.0000000E+000	0.0000000E+000	0
0.0000000E+000	7.683200001119985E+000	-2.7649684E-002	0.000000000000000E+000	0.0000000E+000	-1.9988027E-001	0
3.5842094E+004	7.883199996067560E+000	-2.0152925E-001	5.622697315411637E-003	-1.1331380E-006	-2.0178005E-001	0
1.8087257E+003	8.003199993036105E+000	-2.0274648E-001	-1.120935494469817E-001	2.2726572E-005	-2.0298010E-001	0
1.8478817E+003	8.213199987731059E+000	-2.0484504E-001	-1.108539767654150E-001	2.2707887E-005	-2.0508012E-001	0
2.0278517E+003	8.413199982678634E+000	-2.0683049E-001	-1.019948767276389E-001	2.1095650E-005	-2.0708011E-001	0
2.1927407E+003	8.613199977626209E+000	-2.0886347E-001	-9.525224350470940E-002	1.9894715E-005	-2.0908010E-001	0
2.3408899E+003	8.813199972573784E+000	-2.1087335E-001	-9.008255987977210E-002	1.8996012E-005	-2.1108012E-001	0
2.4754031E+003	9.013199967521359E+000	-2.1290907E-001	-8.600986240138164E-002	1.8312279E-005	-2.1308011E-001	0
2.5989753E+003	9.213199962468934E+000	-2.1486123E-001	-8.267151508976561E-002	1.7762903E-005	-2.1508011E-001	0
2.7138672E+003	9.413199957416509E+000	-2.1687107E-001	-7.991218657492583E-002	1.7330642E-005	-2.1708012E-001	0
2.8214382E+003	9.613199952364084E+000	-2.1886586E-001	-7.757244123485951E-002	1.6977960E-005	-2.1908008E-001	0
2.9226919E+003	9.813199947311659E+000	-2.2087041E-001	-7.557088038208315E-002	1.6691371E-005	-2.2108011E-001	0
3.0227637E+003	1.001319994225923E+001	-2.2288199E-001	-7.373450779622137E-002	1.6434095E-005	-2.2308011E-001	0
3.1156387E+003	1.021319993720681E+001	-2.2481163E-001	-7.215587094863293E-002	1.6221478E-005	-2.2508012E-001	0
3.2067009E+003	1.041319993215438E+001	-2.2691952E-001	-7.076416378460659E-002	1.6057769E-005	-2.2708009E-001	0
3.2944919E+003	1.061319992710196E+001	-2.2890286E-001	-6.948047183779266E-002	1.5904279E-005	-2.2908013E-001	0
3.3812092E+003	1.081319992204953E+001	-2.3089743E-001	-6.828841806575214E-002	1.5767620E-005	-2.3108010E-001	0
3.4636177E+003	1.101319991699711E+001	-2.3290472E-001	-6.724319530042744E-002	1.5661257E-005	-2.3308009E-001	0
3.5434858E+003	1.121319991194468E+001	-2.3488508E-001	-6.628644353205404E-002	1.5569696E-005	-2.3508012E-001	0
3.6249521E+003	1.141319990689226E+001	-2.3690131E-001	-6.535294745486986E-002	1.5482199E-005	-2.3708008E-001	0
3.7045845E+003	1.161319990183983E+001	-2.3886807E-001	-6.447904721396613E-002	1.5401985E-005	-2.3908010E-001	0
3.7823950E+003	1.181319989678741E+001	-2.4093246E-001	-6.369838707598829E-002	1.5347010E-005	-2.4108011E-001	0
3.8563391E+003	1.201319989173498E+001	-2.4287146E-001	-6.297980043604201E-002	1.5295996E-005	-2.4308009E-001	0
3.9314065E+003	1.221319988668256E+001	-2.4481662E-001	-6.227201688876322E-002	1.5245225E-005	-2.4508010E-001	0
4.0070613E+003	1.241319988163013E+001	-2.4689032E-001	-6.161381279766701E-002	1.5211854E-005	-2.4708010E-001	0
4.0778828E+003	1.261319987657771E+001	-2.4890995E-001	-6.103901379971921E-002	1.5193218E-005	-2.4908011E-001	0
4.1501089E+003	1.281319987152528E+001	-2.5087097E-001	-6.044925269385693E-002	1.5164963E-005	-2.5108010E-001	0
4.2224058E+003	1.301319986647286E+001	-2.5288254E-001	-5.989062971363679E-002	1.5145294E-005	-2.5308010E-001	0
4.2912871E+003	1.321319986142043E+001	-2.5490299E-001	-5.940012506139614E-002	1.5141270E-005	-2.5508010E-001	0
4.3638638E+003	1.341319985636801E+001	-2.5690311E-001	-5.887056044049443E-002	1.5124030E-005	-2.5708011E-001	0
4.4262427E+003	1.361319985131559E+001	-2.5890365E-001	-5.849287187936103E-002	1.5144018E-005	-2.5908011E-001	0
4.4975195E+003	1.381319984626316E+001	-2.6086682E-001	-5.800237338419778E-002	1.5130895E-005	-2.6108009E-001	0
4.5647847E+003	1.401319984121074E+001	-2.6284057E-001	-5.758005957321921E-002	1.5134376E-005	-2.6308012E-001	0
4.6353687E+003	1.421319983615831E+001	-2.6482093E-001	-5.713050227344052E-002	1.5129353E-005	-2.6508009E-001	0
4.7006709E+003	1.441319983110589E+001	-2.6687220E-001	-5.677321321561157E-002	1.5151192E-005	-2.6708013E-001	0
4.7660269E+003	1.461319982605346E+001	-2.6885170E-001	-5.641002334493805E-002	1.5165931E-005	-2.6908010E-001	0
4.8328433E+003	1.481319982100104E+001	-2.7087134E-001	-5.604802978978995E-002	1.5181805E-005	-2.7108011E-001	0
4.9042285E+003	1.501319981594861E+001	-2.7286926E-001	-5.563958939861768E-002	1.5182333E-005	-2.7308008E-001	0
4.9643159E+003	1.521319981089619E+001	-2.7487487E-001	-5.537013846498107E-002	1.5219859E-005	-2.7508008E-001	0
5.0287412E+003	1.541319980584376E+001	-2.7686244E-001	-5.505601501793456E-002	1.5242943E-005	-2.7708012E-001	0
5.0890737E+003	1.561319980079134E+001	-2.7885407E-001	-5.479465906567416E-002	1.5279715E-005	-2.7908012E-001	0
5.1534419E+003	1.581319979573891E+001	-2.8086013E-001	-5.449952073120734E-002	1.5306743E-005	-2.8108013E-001	0
5.2177305E+003	1.601319979068649E+001	-2.8285044E-001	-5.420947862607425E-002	1.5333175E-005	-2.8308010E-001	0
5.2779756E+003	1.621319978563406E+001	-2.8485242E-001	-5.397001454710149E-002	1.5373489E-005	-2.8508011E-001	0
5.3451963E+003	1.641319978058164E+001	-2.8688353E-001	-5.367127995010945E-002	1.5397407E-005	-2.8708011E-001	0
5.4032515E+003	1.661319977552921E+001	-2.8889486E-001	-5.346685680117294E-002	1.5446300E-005	-2.8908011E-001	0
5.4622261E+003	1.681319977047679E+001	-2.9089093E-001	-5.325501666313492E-002	1.5491401E-005	-2.9108009E-001	0
5.5181719E+003	1.701319976542436E+001	-2.9287681E-001	-5.307496856325744E-002	1.5544427E-005	-2.9308009E-001	0
5.5793521E+003	1.721319976037194E+001	-2.9488686E-001	-5.285324637890043E-002	1.5585727E-005	-2.9508010E-001	0
5.6376851E+003	1.741319975531951E+001	-2.9688761E-001	-5.266126100704605E-002	1.5634476E-005	-2.9708010E-001	0
5.6936816E+003	1.761319975026709E+001	-2.9888663E-001	-5.249443989407576E-002	1.5689886E-005	-2.9908010E-001	0
5.7563433E+003	1.781319974521466E+001	-3.0088204E-001	-5.226965106985682E-002	1.5726999E-005	-3.0108014E-001	0
5.8119927E+003	1.801319974016224E+001	-3.0288532E-001	-5.211385114481693E-002	1.5784521E-005	-3.0308008E-001	0
5.8643643E+003	1.821319973510981E+001	-3.0483386E-001	-5.198071788850744E-002	1.5845482E-005	-3.0508012E-001	0
5.9248516E+003	1.841319973005739E+001	-3.0686241E-001	-5.179242172348131E-002	1.5893147E-005	-3.0708009E-001	0
5.9800107E+003	1.861319972500496E+001	-3.0888623E-001	-5.165312307582659E-002	1.5954938E-005	-3.0908009E-001	0
6.0329717E+003	1.881319971995254E+001	-3.1089252E-001	-5.153223574467747E-002	1.6020987E-005	-3.1108010E-001	0
6.0916704E+003	1.901319971490011E+001	-3.1291300E-001	-5.136735482318766E-002	1.6073513E-005	-3.1308010E-001	0
6.1464771E+003	1.921319970984769E+001	-3.1486788E-001	-5.122737468023897E-002	1.6129856E-005	-3.1508011E-001	0
6.1946899E+003	1.941319970479526E+001	-3.1686077E-001	-5.115038172559418E-002	1.6207548E-005	-3.1708011E-001	0
6.2507490E+003	1.961319969974284E+001	-3.1887314E-001	-5.101358681197066E-002	1.6266862E-005	-3.1908011E-001	0
6.2989326E+003	1.981319969469041E+001	-3.2092205E-001	-5.094863776256930E-002	1.6350541E-005	-3.2108012E-001	0
6.3570293E+003	2.001319968963799E+001	-3.2289669E-001	-5.079364535966857E-002	1.6401100E-005	-3.2308012E-001	0
6.4011816E+003	2.021319968458556E+001	-3.2487661E-001	-5.075259931605164E-002	1.6488333E-005	-3.2508010E-001	0
6.4516792E+003	2.041319967953314E+001	-3.2690600E-001	-5.066990871837705E-002	1.6564298E-005	-3.2708010E-001	0
6.5018687E+003	2.061319967448071E+001	-3.2891244E-001	-5.058736933918995E-002	1.6638814E-005	-3.2908010E-001	0
6.5558330E+003	2.081319966942829E+001	-3.3084211E-001	-5.046530253868442E-002	1.6696047E-005	-3.3108011E-001	0
6.6038760E+003	2.101319966437586E+001	-3.3287150E-001	-5.040547198060558E-002	1.6778546E-005	-3.3308011E-001	0
6.6469077E+003	2.121319965932344E+001	-3.3485606E-001	-5.037772097696669E-002	1.6869286E-005	-3.3508012E-001	0
6.6883340E+003	2.141319965427101E+001	-3.3688843E-001	-5.036955863309189E-002	1.6968921E-005	-3.3708012E-001	0
6.7421758E+003	2.161319964921859E+001	-3.3894560E-001	-5.027243535165307E-002	1.7039622E-005	-3.3908013E-001	0
6.7918882E+003	2.181319964416616E+001	-3.4082496E-001	-5.018118103752822E-002	1.7102999E-005	-3.4108013E-001	0
6.8323271E+003	2.201319963911374E+001	-3.4286237E-001	-5.018237140188053E-002	1.7205646E-005	-3.4308010E-001	0
6.8780088E+003	2.221319963406131E+001	-3.4482154E-001	-5.013391875414785E-002	1.7287255E-005	-3.4508008E-001	0
6.9235098E+003	2.241319962900889E+001	-3.4691054E-001	-5.010616624951725E-002	1.7382357E-005	-3.4708011E-001	0
6.9658706E+003	2.261319962395646E+001	-3.4889665E-001	-5.008658412009773E-002	1.7475042E-005	-3.4908009E-001	0
7.0106313E+003	2.281319961890404E+001	-3.5090801E-001	-5.005369609002175E-002	1.7564244E-005	-3.5108012E-001	0
7.0472935E+003	2.301319961385161E+001	-3.5289046E-001	-5.007460877001546E-002	1.7670853E-005	-3.5308009E-001	0
7.0856235E+003	2.321319960879919E+001	-3.5488376E-001	-5.008504324003438E-002	1.7774368E-005	-3.5508010E-001	0
7.1236885E+003	2.341319960374676E+001	-3.5691676E-001	-5.010280262176237E-002	1.7882530E-005	-3.5708013E-001	0
7.1774810E+003	2.361319959869434E+001	-3.5889989E-001	-5.000360064839970E-002	1.7946288E-005	-3.5908011E-001	0
7.2100229E+003	2.381319959364191E+001	-3.6087599E-001	-5.005198875769490E-002	1.8062561E-005	-3.6108014E-001	0
7.2446348E+003	2.401319958858949E+001	-3.6290726E-001	-5.009324531083559E-002	1.8179202E-005	-3.6308011E-001	0
7.2845571E+003	2.421319958353706E+001	-3.6482677E-001	-5.008221754715561E-002	1.8271334E-005	-3.6508015E-001	0
7.3164927E+003	2.441319957848464E+001	-3.6687925E-001	-5.014414179229643E-002	1.8396846E-005	-3.6708012E-001	0
7.3571836E+003	2.461319957343221E+001	-3.6888930E-001	-5.014001643612509E-002	1.8496115E-005	-3.6908010E-001	0
7.3974507E+003	2.481319956837979E+001	-3.7087432E-001	-5.013542149644634E-002	1.8593941E-005	-3.7108013E-001	0
7.4228213E+003	2.501319956332736E+001	-3.7286404E-001	-5.023211755846813E-002	1.8729750E-005	-3.7308010E-001	0
7.4524092E+003	2.521319955827494E+001	-3.7485439E-001	-5.029975961631941E-002	1.8855086E-005	-3.7508011E-001	0
7.4896685E+003	2.541319955322251E+001	-3.7689394E-001	-5.032184660854949E-002	1.8965999E-005	-3.7708011E-001	0
7.5297622E+003	2.561319954817009E+001	-3.7886685E-001	-5.031591280450082E-002	1.9063031E-005	-3.7908012E-001	0
7.5535894E+003	2.581319954311766E+001	-3.8088119E-001	-5.042386824178541E-002	1.9205503E-005	-3.8108009E-001	0
7.5862124E+003	2.601319953806524E+001	-3.8283056E-001	-5.046399261606016E-002	1.9319159E-005	-3.8308012E-001	0
7.6161294E+003	2.621319953301281E+001	-3.8486946E-001	-5.053347114488360E-002	1.9448789E-005	-3.8508010E-001	0
7.6476914E+003	2.641319952796039E+001	-3.8687995E-001	-5.058780737071306E-002	1.9571409E-005	-3.8708010E-001	0
7.6827007E+003	2.661319952290796E+001	-3.8887861E-001	-5.061743786461367E-002	1.9684039E-005	-3.8908011E-001	0
7.6982026E+003	2.681319951785554E+001	-3.9086109E-001	-5.077303313785342E-002	1.9845203E-005	-3.9108014E-001	0
7.7337607E+003	2.701319951280311E+001	-3.9287648E-001	-5.080018528735017E-002	1.9958197E-005	-3.9308012E-001	0
7.7660298E+003	2.721319950775069E+001	-3.9486805E-001	-5.084554887431653E-002	2.0077283E-005	-3.9508015E-001	0
7.7854624E+003	2.741319950269826E+001	-3.9685690E-001	-5.097409549946441E-002	2.0229421E-005	-3.9708009E-001	0
7.8154253E+003	2.761319949764584E+001	-3.9887992E-001	-5.103751830439884E-002	2.0357840E-005	-3.9908013E-001	0
7.8443193E+003	2.781319949259341E+001	-4.0087938E-001	-5.110442061230658E-002	2.0486708E-005	-4.0108013E-001	0
7.8567466E+003	2.801319948754099E+001	-4.0287310E-001	-5.127734364888925E-002	2.0658263E-005	-4.0308017E-001	0
7.8941343E+003	2.821319948248856E+001	-4.0490147E-001	-5.129143457369856E-002	2.0767977E-005	-4.0508011E-001	0
7.9068970E+003	2.841319947743614E+001	-4.0686014E-001	-5.145635979319774E-002	2.0935542E-005	-4.0708014E-001	0
7.9320376E+003	2.861319947238371E+001	-4.0885305E-001	-5.154451822160910E-002	2.1074135E-005	-4.0908012E-001	0
7.9458491E+003	2.881319946733129E+001	-4.1089085E-001	-5.171138227995353E-002	2.1247733E-005	-4.1108015E-001	0
7.9678525E+003	2.901319946227886E+001	-4.1292366E-001	-5.182370794630775E-002	2.1399235E-005	-4.1308013E-001	0
7.9975669E+003	2.921319945722644E+001	-4.1489381E-001	-5.187750214451066E-002	2.1523654E-005	-4.1508016E-001	0
8.0154160E+003	2.941319945217401E+001	-4.1686678E-001	-5.200812745735894E-002	2.1680460E-005	-4.1708013E-001	0
8.0349771E+003	2.961319944712159E+001	-4.1891250E-001	-5.213611625407366E-002	2.1840471E-005	-4.1908014E-001	0
8.0562021E+003	2.981319944206916E+001	-4.2092514E-001	-5.224858207022019E-002	2.1992742E-005	-4.2108014E-001	0
8.0787544E+003	3.001319943701674E+001	-4.2287830E-001	-5.234449208015035E-002	2.2135349E-005	-4.2308015E-001	0
8.0984312E+003	3.021319943196431E+001	-4.2492357E-001	-5.246986126128073E-002	2.2295681E-005	-4.2508012E-001	0
8.1104023E+003	3.041319942691189E+001	-4.2691711E-001	-5.263821642883837E-002	2.2472155E-005	-4.2708009E-001	0
8.1378638E+003	3.061319942185946E+001	-4.2895460E-001	-5.271096010333420E-002	2.2610609E-005	-4.2908013E-001	0
8.1516265E+003	3.081319941680704E+001	-4.3093747E-001	-5.286521166922070E-002	2.2781600E-005	-4.3108016E-001	0
8.1751553E+003	3.101319941175461E+001	-4.3290025E-001	-5.295315226212649E-002	2.2923432E-005	-4.3308014E-001	0
8.1968232E+003	3.121319940670219E+001	-4.3490541E-001	-5.305779720614322E-002	2.3075123E-005	-4.3508011E-001	0
8.2181689E+003	3.141319940164976E+001	-4.3699378E-001	-5.317410604728390E-002	2.3236753E-005	-4.3708014E-001	0
8.2255791E+003	3.161319939659734E+001	-4.3890688E-001	-5.335878085264767E-002	2.3419536E-005	-4.3908009E-001	0
8.2479463E+003	3.181319939154491E+001	-4.4090784E-001	-5.345667933711529E-002	2.3569470E-005	-4.4108012E-001	0
8.2588984E+003	3.201319938649249E+001	-4.4289073E-001	-5.362588339728069E-002	2.3750406E-005	-4.4308016E-001	0
8.2921924E+003	3.221319938144006E+001	-4.4490927E-001	-5.365399721547404E-002	2.3871162E-005	-4.4508016E-001	0
8.3058652E+003	3.241319937638764E+001	-4.4691190E-001	-5.380678356914481E-002	2.4046893E-005	-4.4708011E-001	0
8.3232686E+003	3.261319937133521E+001	-4.4892198E-001	-5.393577861502474E-002	2.4212957E-005	-4.4908014E-001	0
8.3411328E+003	3.281319936628279E+001	-4.5092225E-001	-5.406007044177841E-002	2.4376888E-005	-4.5108017E-001	0
8.3572715E+003	3.301319936123036E+001	-4.5287549E-001	-5.418939476192858E-002	2.4541048E-005	-4.5308012E-001	0
8.3736445E+003	3.321319935617794E+001	-4.5492205E-001	-5.432784222457079E-002	2.4714933E-005	-4.5508012E-001	0
8.4008613E+003	3.341319935112551E+001	-4.5686638E-001	-5.438327934231857E-002	2.4845893E-005	-4.5708016E-001	0
8.4174219E+003	3.361319934607309E+001	-4.5893374E-001	-5.452189011374686E-002	2.5021935E-005	-4.5908013E-001	0
8.4401289E+003	3.381319934102066E+001	-4.6086571E-001	-5.460410740262422E-002	2.5165160E-005	-4.6108013E-001	0
8.4558857E+003	3.401319933596824E+001	-4.6290162E-001	-5.474312956098584E-002	2.5340683E-005	-4.6308017E-001	0
8.4766494E+003	3.421319933091581E+001	-4.6490175E-001	-5.484498701905174E-002	2.5497529E-005	-4.6508014E-001	0
8.5041270E+003	3.441319932586339E+001	-4.6690544E-001	-5.490339333096483E-002	2.5634694E-005	-4.6708012E-001	0
8.5245469E+003	3.461319932081096E+001	-4.6891019E-001	-5.500704932603084E-002	2.5793366E-005	-4.6908015E-001	0
8.5562979E+003	3.481319931575854E+001	-4.7092026E-001	-5.503785351339896E-002	2.5918440E-005	-4.7108018E-001	0
8.5773818E+003	3.501319931070611E+001	-4.7290552E-001	-5.513401873633583E-002	2.6073181E-005	-4.7308013E-001	0
8.5970420E+003	3.521319930565369E+001	-4.7494087E-001	-5.524468640458946E-002	2.6237960E-005	-4.7508013E-001	0
8.6320527E+003	3.541319930060126E+001	-4.7686493E-001	-5.524351675741257E-002	2.6343696E-005	-4.7708014E-001	0
8.6551650E+003	3.561319929554884E+001	-4.7891578E-001	-5.533294914165710E-002	2.6499823E-005	-4.7908014E-001	0
8.6843867E+003	3.581319929049641E+001	-4.8090741E-001	-5.537609243501496E-002	2.6630772E-005	-4.8108014E-001	0
8.7171670E+003	3.601319928544399E+001	-4.8291826E-001	-5.539853337153300E-002	2.6752963E-005	-4.8308015E-001	0
8.7467559E+003	3.621319928039156E+001	-4.8491222E-001	-5.543909270935127E-002	2.6883094E-005	-4.8508015E-001	0
8.7799121E+003	3.641319927533914E+001	-4.8688558E-001	-5.545449476792574E-002	2.6999995E-005	-4.8708013E-001	0
8.8106670E+003	3.661319927028671E+001	-4.8894066E-001	-5.549417181223482E-002	2.7133357E-005	-4.8908010E-001	0
8.8438145E+003	3.681319926523429E+001	-4.9092972E-001	-5.551108654087955E-002	2.7252043E-005	-4.9108014E-001	0
8.8811533E+003	3.701319926018186E+001	-4.9290666E-001	-5.550029689008973E-002	2.7356466E-005	-4.9308014E-001	0
8.9185342E+003	3.721319925512944E+001	-4.9492523E-001	-5.549401288341049E-002	2.7465387E-005	-4.9508011E-001	0
8.9515273E+003	3.741319925007701E+001	-4.9690601E-001	-5.551075337553946E-002	2.7583626E-005	-4.9708015E-001	0
8.9957510E+003	3.761319924502459E+001	-4.9890420E-001	-5.545998160419019E-002	2.7669217E-005	-4.9908015E-001	0
9.0432305E+003	3.781319923997216E+001	-5.0092083E-001	-5.539180466571558E-002	2.7746908E-005	-5.0108010E-001	0
9.0930527E+003	3.801319923491974E+001	-5.0295174E-001	-5.531165157624285E-002	2.7819091E-005	-5.0308013E-001	0
9.1355723E+003	3.821319922986731E+001	-5.0491911E-001	-5.526956455420923E-002	2.7906659E-005	-5.0508016E-001	0
9.1733623E+003	3.841319922481489E+001	-5.0692266E-001	-5.526028722028342E-002	2.8012691E-005	-5.0708014E-001	0
9.2272646E+003	3.861319921976246E+001	-5.0892311E-001	-5.515427886172624E-002	2.8069288E-005	-5.0908011E-001	0
9.2782178E+003	3.881319921471004E+001	-5.1094848E-001	-5.506967967946308E-002	2.8137769E-005	-5.1108015E-001	0
9.3252734E+003	3.901319920965761E+001	-5.1291126E-001	-5.500227786165568E-002	2.8211287E-005	-5.1308012E-001	0
9.3758018E+003	3.921319920460519E+001	-5.1494926E-001	-5.492322600146765E-002	2.8282675E-005	-5.1508015E-001	0
9.4321504E+003	3.941319919955276E+001	-5.1692271E-001	-5.480433311186672E-002	2.8329605E-005	-5.1708013E-001	0
9.4750215E+003	3.961319919450034E+001	-5.1881498E-001	-5.475607264867222E-002	2.8408271E-005	-5.1908016E-001	0
9.5422725E+003	3.981319918944791E+001	-5.2093965E-001	-5.459282688940137E-002	2.8439568E-005	-5.2108014E-001	0
9.5973096E+003	4.001319918439549E+001	-5.2293551E-001	-5.448772134090385E-002	2.8493565E-005	-5.2308011E-001	0
9.6515410E+003	4.021319917934306E+001	-5.2487189E-001	-5.438218415079121E-002	2.8543680E-005	-5.2508014E-001	0
9.7092988E+003	4.041319917429064E+001	-5.2691406E-001	-5.426901466447587E-002	2.8595106E-005	-5.2708018E-001	0
9.7814199E+003	4.061319916923821E+001	-5.2894169E-001	-5.407616878329618E-002	2.8603141E-005	-5.2908009E-001	0
9.8310381E+003	4.081319916418579E+001	-5.3095895E-001	-5.400842972059672E-002	2.8676259E-005	-5.3108013E-001	0
9.8870303E+003	4.101319915913336E+001	-5.3292453E-001	-5.390137484320362E-002	2.8725364E-005	-5.3308016E-001	0
9.9584229E+003	4.121319915408094E+001	-5.3491402E-001	-5.371473411197381E-002	2.8732764E-005	-5.3508019E-001	0
1.0019461E+004	4.141319914902851E+001	-5.3688139E-001	-5.358385832192547E-002	2.8768176E-005	-5.3708011E-001	0
1.0099188E+004	4.161319914397609E+001	-5.3892606E-001	-5.336330472037638E-002	2.8758875E-005	-5.3908014E-001	0
1.0160543E+004	4.181319913892366E+001	-5.4092336E-001	-5.323764223493438E-002	2.8797484E-005	-5.4108018E-001	0
1.0230289E+004	4.201319913387124E+001	-5.4290015E-001	-5.306791766998586E-002	2.8810580E-005	-5.4308009E-001	0
1.0308681E+004	4.221319912881881E+001	-5.4490727E-001	-5.285906870669932E-002	2.8803292E-005	-5.4508013E-001	0
1.0367893E+004	4.241319912376639E+001	-5.4688680E-001	-5.274811696605375E-002	2.8847249E-005	-5.4708016E-001	0
1.0440394E+004	4.261319911871396E+001	-5.4894203E-001	-5.257867438171737E-002	2.8862643E-005	-5.4908013E-001	0
1.0517250E+004	4.281319911366154E+001	-5.5092287E-001	-5.238278885899939E-002	2.8858876E-005	-5.5108017E-001	0
1.0591731E+004	4.301319910860911E+001	-5.5295753E-001	-5.220652850716456E-002	2.8867993E-005	-5.5308014E-001	0
1.0677890E+004	4.321319910355669E+001	-5.5492449E-001	-5.196948933928280E-002	2.8839142E-005	-5.5508018E-001	0
1.0739286E+004	4.341319909850426E+001	-5.5692780E-001	-5.185892030833245E-002	2.8881674E-005	-5.5708015E-001	0
1.0831169E+004	4.361319909345184E+001	-5.5893958E-001	-5.160473064675786E-002	2.8843926E-005	-5.5908012E-001	0
1.0909806E+004	4.381319908839941E+001	-5.6088769E-001	-5.141133631425432E-002	2.8835986E-005	-5.6108016E-001	0
1.0983680E+004	4.401319908334699E+001	-5.6297624E-001	-5.125570246504196E-002	2.8855742E-005	-5.6308007E-001	0
1.1069887E+004	4.421319907829457E+001	-5.6490076E-001	-5.103039892037697E-002	2.8827111E-005	-5.6508017E-001	0
1.1145669E+004	4.441319907324214E+001	-5.6694543E-001	-5.086688265202316E-002	2.8838747E-005	-5.6708020E-001	0
1.1223191E+004	4.461319906818972E+001	-5.6892514E-001	-5.069191983527166E-002	2.8839908E-005	-5.6908017E-001	0
1.1315130E+004	4.481319906313729E+001	-5.7090718E-001	-5.045520427189087E-002	2.8805238E-005	-5.7108015E-001	0
1.1397866E+004	4.501319905808487E+001	-5.7294106E-001	-5.026739604386787E-002	2.8800256E-005	-5.7308012E-001	0
1.1486591E+004	4.521319905303244E+001	-5.7491928E-001	-5.005134355388757E-002	2.8775483E-005	-5.7508022E-001	0
1.1573214E+004	4.541319904798002E+001	-5.7690883E-001	-4.984862634398957E-002	2.8758113E-005	-5.7708007E-001	0
1.1651972E+004	4.561319904292759E+001	-5.7888818E-001	-4.968156223713316E-002	2.8760069E-005	-5.7908010E-001	0
1.1746885E+004	4.581319903787517E+001	-5.8091384E-001	-4.945258629643423E-002	2.8727693E-005	-5.8108020E-001	0
1.1823452E+004	4.601319903282274E+001	-5.8289248E-001	-4.929968581456801E-002	2.8736416E-005	-5.8308011E-001	0
1.1915978E+004	4.621319902777032E+001	-5.8491170E-001	-4.908633822904673E-002	2.8711174E-005	-5.8508015E-001	0
1.1996968E+004	4.641319902271789E+001	-5.8687782E-001	-4.891884655299938E-002	2.8709386E-005	-5.8708012E-001	0
1.2079116E+004	4.661319901766547E+001	-5.8890915E-001	-4.875432240038607E-002	2.8711867E-005	-5.8908015E-001	0
1.2160347E+004	4.681319901261304E+001	-5.9092444E-001	-4.859437407026077E-002	2.8715604E-005	-5.9108013E-001	0
1.2257817E+004	4.701319900756062E+001	-5.9289509E-001	-4.836873092520722E-002	2.8677583E-005	-5.9308016E-001	0
1.2335453E+004	4.721319900250819E+001	-5.9489119E-001	-4.822613143355770E-002	2.8689301E-005	-5.9508020E-001	0
1.2421458E+004	4.741319899745577E+001	-5.9691501E-001	-4.805514752514262E-002	2.8684839E-005	-5.9708011E-001	0
1.2508216E+004	4.761319899240334E+001	-5.9892678E-001	-4.788267176942534E-002	2.8678214E-005	-5.9908015E-001	0
1.2617554E+004	4.781319898735092E+001	-6.0092705E-001	-4.762627244367351E-002	2.8619916E-005	-6.0108018E-001	0
1.2697714E+004	4.801319898229849E+001	-6.0295177E-001	-4.748506634654537E-002	2.8631204E-005	-6.0308015E-001	0
1.2761512E+004	4.821319897724607E+001	-6.0496098E-001	-4.740511735504205E-002	2.8678247E-005	-6.0508013E-001	0
1.2865819E+004	4.841319897219364E+001	-6.0690022E-001	-4.717151645059947E-002	2.8628403E-005	-6.0708010E-001	0
1.2941343E+004	4.861319896714122E+001	-6.0891473E-001	-4.705189792793063E-002	2.8650595E-005	-6.0908020E-001	0
1.3006496E+004	4.881319896208879E+001	-6.1089993E-001	-4.696883142412633E-002	2.8693255E-005	-6.1108011E-001	0
1.3089587E+004	4.901319895703637E+001	-6.1293447E-001	-4.682611084470301E-002	2.8701337E-005	-6.1308008E-001	0
1.3183046E+004	4.921319895198394E+001	-6.1492223E-001	-4.664492751672344E-002	2.8683002E-005	-6.1508018E-001	0
1.3265187E+004	4.941319894693152E+001	-6.1692494E-001	-4.650706808582219E-002	2.8691371E-005	-6.1708009E-001	0
1.3353006E+004	4.961319894187909E+001	-6.1895889E-001	-4.635352435386642E-002	2.8690925E-005	-6.1908013E-001	0
1.3397141E+004	4.981319893682667E+001	-6.2087369E-001	-4.634374502941752E-002	2.8773611E-005	-6.2108010E-001	0
1.3488036E+004	5.001319893177424E+001	-6.2293899E-001	-4.618455683775535E-002	2.8770160E-005	-6.2308019E-001	0
1.3581742E+004	5.021319892672182E+001	-6.2493056E-001	-4.601254846632497E-002	2.8754648E-005	-6.2508011E-001	0
1.3647366E+004	5.041319892166939E+001	-6.2690711E-001	-4.593612486126997E-002	2.8797684E-005	-6.2708014E-001	0
1.3732089E+004	5.061319891661697E+001	-6.2893540E-001	-4.580041541149871E-002	2.8805502E-005	-6.2908018E-001	0
1.3788468E+004	5.081319891156454E+001	-6.3097113E-001	-4.576078643853387E-002	2.8873736E-005	-6.3108015E-001	0
1.3882161E+004	5.101319890651212E+001	-6.3293666E-001	-4.559352460249744E-002	2.8857812E-005	-6.3308012E-001	0
1.3964297E+004	5.121319890145969E+001	-6.3491303E-001	-4.546688263179943E-002	2.8867516E-005	-6.3508016E-001	0
1.4026198E+004	5.141319889640727E+001	-6.3692009E-001	-4.540931734719983E-002	2.8922106E-005	-6.3708019E-001	0
1.4105687E+004	5.161319889135484E+001	-6.3894463E-001	-4.529695323184824E-002	2.8942244E-005	-6.3908017E-001	0
1.4169933E+004	5.181319888630242E+001	-6.4094895E-001	-4.523302703861420E-002	2.8992061E-005	-6.4108014E-001	0
1.4222721E+004	5.201319888124999E+001	-6.4289236E-001	-4.520178369859928E-002	2.9059882E-005	-6.4308017E-001	0
1.4318362E+004	5.221319887619757E+001	-6.4495355E-001	-4.504380687884363E-002	2.9051163E-005	-6.4508015E-001	0
1.4373937E+004	5.241319887114514E+001	-6.4697659E-001	-4.501039770092885E-002	2.9120674E-005	-6.4708012E-001	0
1.4437563E+004	5.263319886558747E+001	-6.4914674E-001	-4.496235055133463E-002	2.9187164E-005	-6.4928013E-001	0
1.4592127E+004	5.285319886002981E+001	-6.5142643E-001	-4.464232173770487E-002	2.9081188E-005	-6.5148014E-001	0
1.4669901E+004	5.305319885497738E+001	-6.5334141E-001	-4.453618196710341E-002	2.9097331E-005	-6.5348011E-001	0
1.4726575E+004	5.325319884992496E+001	-6.5533894E-001	-4.450043213692045E-002	2.9162866E-005	-6.5548021E-001	0
1.4795633E+004	5.345319884487253E+001	-6.5737325E-001	-4.443022334983027E-002	2.9207240E-005	-6.5748012E-001	0
1.4852856E+004	5.365319883982011E+001	-6.5936697E-001	-4.439327703728690E-002	2.9271461E-005	-6.5948015E-001	0
1.4896511E+004	5.385319883476768E+001	-6.6131830E-001	-4.439417528471112E-002	2.9358680E-005	-6.6148013E-001	0
1.4972058E+004	5.405319882971526E+001	-6.6337234E-001	-4.430735878310593E-002	2.9392277E-005	-6.6348016E-001	0
1.5029951E+004	5.425319882466283E+001	-6.6531128E-001	-4.426569737100106E-002	2.9450468E-005	-6.6548014E-001	0
1.5075043E+004	5.445319881961041E+001	-6.6735828E-001	-4.426907874747299E-002	2.9543336E-005	-6.6748011E-001	0
1.5144624E+004	5.465319881455798E+001	-6.6935462E-001	-4.419750566731584E-002	2.9583805E-005	-6.6948020E-001	0
1.5186024E+004	5.485319880950556E+001	-6.7135060E-001	-4.420844971359639E-002	2.9679370E-005	-6.7148012E-001	0
1.5237263E+004	5.505319880445313E+001	-6.7333478E-001	-4.419000986002608E-002	2.9754670E-005	-6.7348009E-001	0
1.5301631E+004	5.525319879940071E+001	-6.7524254E-001	-4.412879678763892E-002	2.9797640E-005	-6.7548019E-001	0
1.5331927E+004	5.545319879434828E+001	-6.7729270E-001	-4.417531705348465E-002	2.9919620E-005	-6.7748010E-001	0
1.5400629E+004	5.565319878929586E+001	-6.7931551E-001	-4.410959488597149E-002	2.9964332E-005	-6.7948014E-001	0
1.5448076E+004	5.585319878424343E+001	-6.8133026E-001	-4.410453710431561E-002	3.0049756E-005	-6.8148011E-001	0
1.5478672E+004	5.605319877919101E+001	-6.8330657E-001	-4.414504011031740E-002	3.0164596E-005	-6.8348020E-001	0
1.5536768E+004	5.625319877413858E+001	-6.8535590E-001	-4.411187169090325E-002	3.0232331E-005	-6.8548018E-001	0
1.5593917E+004	5.645319876908616E+001	-6.8733072E-001	-4.407684888311637E-002	3.0295372E-005	-6.8748009E-001	0
1.5630868E+004	5.665319876403373E+001	-6.8929791E-001	-4.409850357694842E-002	3.0397006E-005	-6.8948019E-001	0
1.5688632E+004	5.685319875898131E+001	-6.9131291E-001	-4.406457462837998E-002	3.0462410E-005	-6.9148010E-001	0
1.5712974E+004	5.705319875392888E+001	-6.9334376E-001	-4.412555951828900E-002	3.0594183E-005	-6.9348013E-001	0
1.5764392E+004	5.725319874887646E+001	-6.9534940E-001	-4.410886365625702E-002	3.0671072E-005	-6.9548017E-001	0
1.5830265E+004	5.745319874382403E+001	-6.9733524E-001	-4.405076476183556E-002	3.0718151E-005	-6.9748020E-001	0
1.5860113E+004	5.765319873877161E+001	-6.9933838E-001	-4.409416010809197E-002	3.0836738E-005	-6.9948018E-001	0
1.5899345E+004	5.785319873371918E+001	-7.0135027E-001	-4.411189751451405E-002	3.0937892E-005	-7.0148015E-001	0
1.5943320E+004	5.805319872866676E+001	-7.0338237E-001	-4.411768376597069E-002	3.1031603E-005	-7.0348024E-001	0
1.5979085E+004	5.825319872361433E+001	-7.0526135E-001	-4.413652791728242E-002	3.1127787E-005	-7.0548016E-001	0
1.6017130E+004	5.845319871856191E+001	-7.0732832E-001	-4.416074067414399E-002	3.1236141E-005	-7.0748013E-001	0
1.6053857E+004	5.865319871350948E+001	-7.0935732E-001	-4.418609843271537E-002	3.1343734E-005	-7.0948017E-001	0
1.6123664E+004	5.885319870845706E+001	-7.1134531E-001	-4.411809406530476E-002	3.1383199E-005	-7.1148020E-001	0
1.6159093E+004	5.905319870340463E+001	-7.1333754E-001	-4.414465207798729E-002	3.1490039E-005	-7.1348017E-001	0
1.6196534E+004	5.925319869835221E+001	-7.1535778E-001	-4.416733778973048E-002	3.1595449E-005	-7.1548015E-001	0
1.6210513E+004	5.945319869329978E+001	-7.1735829E-001	-4.425265777818099E-002	3.1745010E-005	-7.1748024E-001	0
1.6230429E+004	5.965319868824736E+001	-7.1925741E-001	-4.431536754375712E-002	3.1874155E-005	-7.1948022E-001	0
1.6302410E+004	5.985319868319493E+001	-7.2128230E-001	-4.424390670143341E-002	3.1912346E-005	-7.2148019E-001	0
1.6347134E+004	6.005319867814251E+001	-7.2336388E-001	-4.425019519657014E-002	3.2008993E-005	-7.2348017E-001	0
1.6356535E+004	6.025319867309008E+001	-7.2533727E-001	-4.434541035828965E-002	3.2165379E-005	-7.2548014E-001	0
1.6401564E+004	6.045319866803766E+001	-7.2732759E-001	-4.434501141802849E-002	3.2253349E-005	-7.2748011E-001	0
1.6454439E+004	6.065319866298523E+001	-7.2935605E-001	-4.432579251682045E-002	3.2329284E-005	-7.2948021E-001	0
1.6455953E+004	6.085319865793281E+001	-7.3136175E-001	-4.444359637223512E-002	3.2504347E-005	-7.3148018E-001	0
1.6500609E+004	6.105319865288038E+001	-7.3335922E-001	-4.444437242343247E-002	3.2593689E-005	-7.3348016E-001	0
1.6569779E+004	6.125319864782796E+001	-7.3534214E-001	-4.437851033552609E-002	3.2633390E-005	-7.3548013E-001	0
1.6547311E+004	6.145319864277553E+001	-7.3731083E-001	-4.455774419153280E-002	3.2852906E-005	-7.3748022E-001	0
1.6582727E+004	6.165319863772311E+001	-7.3929590E-001	-4.458228631189010E-002	3.2959502E-005	-7.3948020E-001	0
1.6611469E+004	6.185319863267068E+001	-7.4133307E-001	-4.462778433321102E-002	3.3084052E-005	-7.4148011E-001	0
1.6632234E+004	6.205319862761826E+001	-7.4332041E-001	-4.469155343993880E-002	3.3220145E-005	-7.4348015E-001	0
1.6631988E+004	6.225319862256583E+001	-7.4535000E-001	-4.481424516977106E-002	3.3402299E-005	-7.4548018E-001	0
1.6669285E+004	6.245319861751341E+001	-7.4733567E-001	-4.483309788750842E-002	3.3505374E-005	-7.4748015E-001	0
1.6716529E+004	6.265319861246098E+001	-7.4937618E-001	-4.482845708547278E-002	3.3593376E-005	-7.4948013E-001	0
1.6735156E+004	6.285319860740856E+001	-7.5135082E-001	-4.489655496448042E-002	3.3733064E-005	-7.5148022E-001	0
1.6761035E+004	6.305319860235613E+001	-7.5334126E-001	-4.494598681316253E-002	3.3859666E-005	-7.5348020E-001	0
1.6754100E+004	6.325319859730371E+001	-7.5528282E-001	-4.508047693360462E-002	3.4048509E-005	-7.5548017E-001	0
1.6762887E+004	6.345319859225128E+001	-7.5735343E-001	-4.518036769841349E-002	3.4217504E-005	-7.5748014E-001	0
1.6803545E+004	6.365319858719886E+001	-7.5936621E-001	-4.519083596504148E-002	3.4316396E-005	-7.5948024E-001	0
1.6802297E+004	6.385319858214643E+001	-7.6132661E-001	-4.531086697940068E-002	3.4496370E-005	-7.6148009E-001	0
1.6805318E+004	6.405319857709401E+001	-7.6337701E-001	-4.542472777104689E-002	3.4676192E-005	-7.6348019E-001	0
1.6811291E+004	6.425319857204158E+001	-7.6538199E-001	-4.552785307776106E-002	3.4846198E-005	-7.6548028E-001	0
1.6826408E+004	6.445319856698916E+001	-7.6731229E-001	-4.560167043440283E-002	3.4990720E-005	-7.6748013E-001	0
1.6812914E+004	6.465319856193673E+001	-7.6934761E-001	-4.575932481328299E-002	3.5204826E-005	-7.6948011E-001	0
1.6828199E+004	6.485319855688431E+001	-7.7132905E-001	-4.583550865530672E-002	3.5354260E-005	-7.7148020E-001	0
1.6812258E+004	6.505319855183188E+001	-7.7332163E-001	-4.599749031101830E-002	3.5570854E-005	-7.7348018E-001	0
1.6788014E+004	6.525319854677946E+001	-7.7533764E-001	-4.618400023234370E-002	3.5808192E-005	-7.7548015E-001	0
1.6809143E+004	6.545319854172703E+001	-7.7734196E-001	-4.624518602658789E-002	3.5948324E-005	-7.7748019E-001	0
1.6800520E+004	6.565319853667461E+001	-7.7934134E-001	-4.638792856495039E-002	3.6152029E-005	-7.7948022E-001	0
1.6809590E+004	6.585319853162218E+001	-7.8134626E-001	-4.648217417921696E-002	3.6318674E-005	-7.8148019E-001	0
1.6775375E+004	6.605319852656976E+001	-7.8332663E-001	-4.669502904889944E-002	3.6577461E-005	-7.8348011E-001	0
1.6733119E+004	6.625319852151733E+001	-7.8532821E-001	-4.693256478382890E-002	3.6857466E-005	-7.8548026E-001	0
1.6716412E+004	6.645319851646491E+001	-7.8732687E-001	-4.709903562606188E-002	3.7082336E-005	-7.8748024E-001	0
1.6690262E+004	6.665319851141248E+001	-7.8933775E-001	-4.729331411524784E-002	3.7330399E-005	-7.8948021E-001	0
1.6681311E+004	6.685319850636006E+001	-7.9129666E-001	-4.743611996665054E-002	3.7536043E-005	-7.9148018E-001	0
1.6646514E+004	6.705319850130763E+001	-7.9333609E-001	-4.765778985413038E-002	3.7808644E-005	-7.9348022E-001	0
1.6623967E+004	6.725319849625521E+001	-7.9536521E-001	-4.784448935133945E-002	3.8053844E-005	-7.9548019E-001	0
1.6567041E+004	6.745319849120278E+001	-7.9732090E-001	-4.812693424325420E-002	3.8372611E-005	-7.9748017E-001	0
1.6549582E+004	6.765319848615036E+001	-7.9933161E-001	-4.829920275435673E-002	3.8607079E-005	-7.9948026E-001	0
1.6462432E+004	6.785319848109793E+001	-8.0135447E-001	-4.867776821007386E-002	3.9008148E-005	-8.0148023E-001	0
1.6438102E+004	6.805319847604551E+001	-8.0336457E-001	-4.887210232228925E-002	3.9262115E-005	-8.0348021E-001	0
1.6365449E+004	6.825319847099308E+001	-8.0540293E-001	-4.921361654278877E-002	3.9636790E-005	-8.0548018E-001	0
1.6290857E+004	6.845319846594066E+001	-8.0735344E-001	-4.955868355775689E-002	4.0011375E-005	-8.0748016E-001	0
1.6243821E+004	6.865319846088823E+001	-8.0935037E-001	-4.982512245163750E-002	4.0325980E-005	-8.0948025E-001	0
1.6176182E+004	6.885319845583581E+001	-8.1128049E-001	-5.015277926379269E-002	4.0687970E-005	-8.1148016E-001	0
1.6106375E+004	6.905319845078338E+001	-8.1332970E-001	-5.049737821578093E-002	4.1071016E-005	-8.1348026E-001	0
1.6049086E+004	6.925319844573096E+001	-8.1537992E-001	-5.080538144115510E-002	4.1425687E-005	-8.1548029E-001	0
1.5965518E+004	6.945319844067853E+001	-8.1734896E-001	-5.119464198040802E-002	4.1843887E-005	-8.1748009E-001	0
1.5909121E+004	6.965319843562611E+001	-8.1936103E-001	-5.150259652358749E-002	4.2199219E-005	-8.1948024E-001	0
1.5785941E+004	6.985319843057368E+001	-8.2127219E-001	-5.202554530398653E-002	4.2727133E-005	-8.2148021E-001	0
1.5703257E+004	7.005319842552126E+001	-8.2331562E-001	-5.242960890828992E-002	4.3166117E-005	-8.2348019E-001	0
1.5614141E+004	7.025319842046883E+001	-8.2538044E-001	-5.286108599310479E-002	4.3630505E-005	-8.2548016E-001	0
1.5546699E+004	7.045319841541641E+001	-8.2729775E-001	-5.321372396369695E-002	4.4023593E-005	-8.2748026E-001	0
1.5439398E+004	7.065319841036398E+001	-8.2936466E-001	-5.371741900672450E-002	4.4551329E-005	-8.2948023E-001	0
1.5304988E+004	7.085319840531156E+001	-8.3140749E-001	-5.432264862451151E-002	4.5164255E-005	-8.3148015E-001	0
1.5228168E+004	7.105319840025913E+001	-8.3333856E-001	-5.472349550030164E-002	4.5603199E-005	-8.3348024E-001	0
1.5085339E+004	7.125319839520671E+001	-8.3534551E-001	-5.537465894320254E-002	4.6256973E-005	-8.3548021E-001	0
1.4978098E+004	7.145319839015428E+001	-8.3735526E-001	-5.590531508260910E-002	4.6812609E-005	-8.3748019E-001	0
1.4849276E+004	7.165319838510186E+001	-8.3936393E-001	-5.652557933637614E-002	4.7445534E-005	-8.3948016E-001	0
1.4656854E+004	7.185319838004943E+001	-8.4136987E-001	-5.740453170870086E-002	4.8298443E-005	-8.4148026E-001	0
1.4518593E+004	7.205319837499701E+001	-8.4336013E-001	-5.808828199068983E-002	4.8989339E-005	-8.4348023E-001	0
1.4336701E+004	7.225319836994458E+001	-8.4533191E-001	-5.896279174790126E-002	4.9843129E-005	-8.4548014E-001	0
1.4138729E+004	7.245319836489216E+001	-8.4735727E-001	-5.993164483882252E-002	5.0783514E-005	-8.4748030E-001	0
1.3933106E+004	7.265319835983973E+001	-8.4935820E-001	-6.095971317714710E-002	5.1776631E-005	-8.4948027E-001	0
1.3718822E+004	7.285319835478731E+001	-8.5131824E-001	-6.205476323235570E-002	5.2828353E-005	-8.5148013E-001	0
1.3451373E+004	7.305319834973488E+001	-8.5337436E-001	-6.344143073011188E-002	5.4139291E-005	-8.5348022E-001	0
1.3242606E+004	7.325319834468246E+001	-8.5532010E-001	-6.458850029978458E-002	5.5243843E-005	-8.5548031E-001	0
1.2961306E+004	7.345319833963003E+001	-8.5733849E-001	-6.614599902607288E-002	5.6709512E-005	-8.5748017E-001	0
1.2710595E+004	7.365319833457761E+001	-8.5936773E-001	-6.761034680773304E-002	5.8102149E-005	-8.5948020E-001	0
1.2465015E+004	7.385319832952518E+001	-8.6129975E-001	-6.909736957139151E-002	5.9513546E-005	-8.6148024E-001	0
1.2243951E+004	7.405319832447276E+001	-8.6329800E-001	-7.050812179370508E-002	6.0869519E-005	-8.6348021E-001	0
1.2043180E+004	7.425319831942033E+001	-8.6533809E-001	-7.185295935722305E-002	6.2177103E-005	-8.6548018E-001	0
1.1889326E+004	7.445319831436791E+001	-8.6728650E-001	-7.294665049189231E-002	6.3265645E-005	-8.6748022E-001	0
1.1774438E+004	7.465319830931549E+001	-8.6937141E-001	-7.383549451097315E-002	6.4190470E-005	-8.6948025E-001	0
1.1678132E+004	7.485319830426306E+001	-8.7127185E-001	-7.460712681919343E-002	6.5003092E-005	-8.7148017E-001	0
1.1605164E+004	7.505319829921064E+001	-8.7328798E-001	-7.524994559123499E-002	6.5714870E-005	-8.7348014E-001	0
1.1482849E+004	7.525319829415821E+001	-8.7537199E-001	-7.623299994070928E-002	6.6732231E-005	-8.7548023E-001	0
1.1352698E+004	7.545319828910579E+001	-8.7731820E-001	-7.727838400645798E-002	6.7797730E-005	-8.7748021E-001	0
1.1165931E+004	7.565319828405336E+001	-8.7932080E-001	-7.875033960172928E-002	6.9246809E-005	-8.7948018E-001	0
1.0796204E+004	7.586319827874831E+001	-8.8144046E-001	-8.164355513349175E-002	7.1963936E-005	-8.8158029E-001	0
1.0476220E+004	7.607319827344327E+001	-8.8352048E-001	-8.433581137704474E-002	7.4512420E-005	-8.8368022E-001	0
1.0183361E+004	7.627319826839084E+001	-8.8551331E-001	-8.695687599851842E-002	7.7001474E-005	-8.8568014E-001	0
9.8900205E+003	7.647319826333842E+001	-8.8755000E-001	-8.974197519100480E-002	7.9650490E-005	-8.8768023E-001	0
9.5593896E+003	7.667319825828599E+001	-8.8949907E-001	-9.304977706190010E-002	8.2767692E-005	-8.8968021E-001	0
9.2023223E+003	7.687319825323357E+001	-8.9154351E-001	-9.688244326897588E-002	8.6374916E-005	-8.9168018E-001	0
8.8277793E+003	7.707319824818114E+001	-8.9350736E-001	-1.012154180702258E-001	9.0436719E-005	-8.9368021E-001	0
8.4095498E+003	7.727319824312872E+001	-8.9549702E-001	-1.064857278080433E-001	9.5357653E-005	-8.9568025E-001	0
7.9772310E+003	7.747319823807629E+001	-8.9750844E-001	-1.125087712673873E-001	1.0097757E-004	-8.9768022E-001	0
7.4213071E+003	7.767319823302387E+001	-8.9953411E-001	-1.212096573455496E-001	1.0903222E-004	-8.9968020E-001	0
6.9927544E+003	7.787319822797144E+001	-9.0150428E-001	-1.289197690753257E-001	1.1622172E-004	-9.0168029E-001	0
6.5647246E+003	7.807319822291902E+001	-9.0354890E-001	-1.376369871302607E-001	1.2436174E-004	-9.0368026E-001	0
6.1159004E+003	7.827319821786659E+001	-9.0548766E-001	-1.480546742075807E-001	1.3406167E-004	-9.0568024E-001	0
5.6619497E+003	7.847319821281417E+001	-9.0749353E-001	-1.602793324574010E-001	1.4545246E-004	-9.0768021E-001	0
5.2202153E+003	7.867319820776174E+001	-9.0949428E-001	-1.742254403924530E-001	1.5845704E-004	-9.0968031E-001	0
4.7847915E+003	7.887319820270932E+001	-9.1151512E-001	-1.905025735269401E-001	1.7364598E-004	-9.1168016E-001	0
4.3740630E+003	7.907319819765689E+001	-9.1355592E-001	-2.088575145343738E-001	1.9080302E-004	-9.1368020E-001	0
3.9848125E+003	7.927319819260447E+001	-9.1554648E-001	-2.297589783482852E-001	2.1035502E-004	-9.1568023E-001	0
3.6170557E+003	7.947319818755204E+001	-9.1754109E-001	-2.536707140965691E-001	2.3275330E-004	-9.1768020E-001	0
3.1881255E+003	7.967319818249962E+001	-9.1958457E-001	-2.884405204781304E-001	2.6524544E-004	-9.1968018E-001	0
2.9135820E+003	7.987319817744719E+001	-9.2156810E-001	-3.163007245717946E-001	2.9149264E-004	-9.2168021E-001	0
2.6338491E+003	8.007319817239477E+001	-9.2355740E-001	-3.506493293754174E-001	3.2384478E-004	-9.2368019E-001	0
2.3804302E+003	8.027319816734234E+001	-9.2555094E-001	-3.888166856333235E-001	3.5986965E-004	-9.2568016E-001	0
2.0932207E+003	8.047319816228992E+001	-9.2748535E-001	-4.430900667023234E-001	4.1095953E-004	-9.2768025E-001	0
1.9048718E+003	8.067319815723749E+001	-9.2950767E-001	-4.879633564028962E-001	4.5356568E-004	-9.2968029E-001	0
1.7068617E+003	8.087319815218507E+001	-9.3156415E-001	-5.457759966647187E-001	5.0842535E-004	-9.3168020E-001	0
1.5264469E+003	8.107319814713264E+001	-9.3355453E-001	-6.115866495241473E-001	5.7094952E-004	-9.3368024E-001	0
1.3789055E+003	8.127319814208022E+001	-9.3554682E-001	-6.784705976425514E-001	6.3474098E-004	-9.3568027E-001	0
1.2340880E+003	8.147319813702779E+001	-9.3754506E-001	-7.597068019819497E-001	7.1225938E-004	-9.3768030E-001	0
1.1151610E+003	8.167319813197537E+001	-9.3948096E-001	-8.424622016766676E-001	7.9147721E-004	-9.3968022E-001	0
1.0087458E+003	8.187319812692294E+001	-9.4159454E-001	-9.334309620786936E-001	8.7891350E-004	-9.4168019E-001	0
9.0303625E+002	8.208319812161790E+001	-9.4367534E-001	-1.045002696275076E+000	9.8614325E-004	-9.4378024E-001	0
8.2010327E+002	8.229319811631285E+001	-9.4574696E-001	-1.153204676169320E+000	1.0906399E-003	-9.4588017E-001	0
7.4380536E+002	8.249319811126043E+001	-9.4772768E-001	-1.274160820830296E+000	1.2075575E-003	-9.4788027E-001	0
6.7809833E+002	8.269319810620800E+001	-9.4975853E-001	-1.400620697036624E+000	1.3302515E-003	-9.4988024E-001	0
6.1941400E+002	8.289319810115558E+001	-9.5173925E-001	-1.536515521911941E+000	1.4623621E-003	-9.5188022E-001	0
5.6903412E+002	8.309319809610315E+001	-9.5372522E-001	-1.676042304152535E+000	1.5984838E-003	-9.5388019E-001	0
5.2260883E+002	8.329319809105073E+001	-9.5567942E-001	-1.828670610511114E+000	1.7476229E-003	-9.5588028E-001	0
4.8200507E+002	8.349319808599830E+001	-9.5778728E-001	-1.987089593444964E+000	1.9032091E-003	-9.5788032E-001	0
4.4522598E+002	8.369319808094588E+001	-9.5972270E-001	-2.155585606960493E+000	2.0687645E-003	-9.5988023E-001	0
4.1341296E+002	8.389319807589345E+001	-9.6172333E-001	-2.326301878879946E+000	2.2372587E-003	-9.6188021E-001	0
3.8458795E+002	8.409319807084103E+001	-9.6373576E-001	-2.505891768299804E+000	2.4150175E-003	-9.6388030E-001	0
3.5819244E+002	8.429319806578860E+001	-9.6571463E-001	-2.696077560587806E+000	2.6036415E-003	-9.6588016E-001	0
3.3536194E+002	8.449319806073618E+001	-9.6771187E-001	-2.885574550703678E+000	2.7924047E-003	-9.6788019E-001	0
3.1402478E+002	8.469319805568375E+001	-9.6978253E-001	-3.088235797643527E+000	2.9949171E-003	-9.6988022E-001	0
2.9525037E+002	8.489319805063133E+001	-9.7176415E-001	-3.291322370404018E+000	3.1983890E-003	-9.7188020E-001	0
2.7829175E+002	8.509319804557890E+001	-9.7374487E-001	-3.499007351713381E+000	3.4071405E-003	-9.7388023E-001	0
2.6239163E+002	8.529319804052648E+001	-9.7570437E-001	-3.718503953377948E+000	3.6281606E-003	-9.7588021E-001	0
2.4828259E+002	8.549319803547405E+001	-9.7772717E-001	-3.937960983539099E+000	3.8502514E-003	-9.7788018E-001	0
2.3526656E+002	8.569319803042163E+001	-9.7971129E-001	-4.164260872603807E+000	4.0797736E-003	-9.7988015E-001	0
2.2330666E+002	8.589319802536920E+001	-9.8172408E-001	-4.396304745387610E+000	4.3159584E-003	-9.8188025E-001	0
2.1262048E+002	8.609319802031678E+001	-9.8376155E-001	-4.626842900941710E+000	4.5517101E-003	-9.8388028E-001	0
2.0252962E+002	8.629319801526435E+001	-9.8573357E-001	-4.867108383957216E+000	4.7976719E-003	-9.8588020E-001	0
1.9322055E+002	8.649319801021193E+001	-9.8774117E-001	-5.111988107701297E+000	5.0493213E-003	-9.8788017E-001	0
1.8461807E+002	8.669319800515950E+001	-9.8971444E-001	-5.360874982816810E+000	5.3057354E-003	-9.8988026E-001	0
1.7681349E+002	8.689319800010708E+001	-9.9175680E-001	-5.609056244834505E+000	5.5628195E-003	-9.9188024E-001	0
1.6936598E+002	8.709319799505465E+001	-9.9372524E-001	-5.867324995514778E+000	5.8305091E-003	-9.9388015E-001	0
1.6246902E+002	8.729319799000223E+001	-9.9574357E-001	-6.128820817385403E+000	6.1027338E-003	-9.9588019E-001	0
1.5609897E+002	8.749319798494980E+001	-9.9774712E-001	-6.391759602255846E+000	6.3773599E-003	-9.9788016E-001	0
1.5015509E+002	8.769319797989738E+001	-9.9972939E-001	-6.657978811839797E+000	6.6561773E-003	-9.9988014E-001	0
1.4467230E+002	8.789319797484495E+001	-1.0017245E+000	-6.924092781449096E+000	6.9360333E-003	-1.0018802E+000	0
1.3937376E+002	8.809319796979253E+001	-1.0037514E+000	-7.201867383488676E+000	7.2288844E-003	-1.0038803E+000	0
1.3451070E+002	8.829319796474010E+001	-1.0057629E+000	-7.477196735116642E+000	7.5202873E-003	-1.0058802E+000	0
1.2994162E+002	8.849319795968768E+001	-1.0077597E+000	-7.755480624515712E+000	7.8156609E-003	-1.0078801E+000	0
1.2555736E+002	8.869319795463525E+001	-1.0097458E+000	-8.042107903430264E+000	8.1204847E-003	-1.0098802E+000	0
1.2139034E+002	8.889319794958283E+001	-1.0117322E+000	-8.334536368344089E+000	8.4323194E-003	-1.0118803E+000	0
1.1744778E+002	8.909319794453040E+001	-1.0137748E+000	-8.631706130139683E+000	8.7506054E-003	-1.0138803E+000	0
1.1369739E+002	8.929319793947798E+001	-1.0157433E+000	-8.933743422196322E+000	9.0743899E-003	-1.0158802E+000	0
1.1023917E+002	8.949319793442555E+001	-1.0177450E+000	-9.232154712587814E+000	9.3959793E-003	-1.0178801E+000	0
1.0687044E+002	8.969319792937313E+001	-1.0197680E+000	-9.542096139554790E+000	9.7307246E-003	-1.0198802E+000	0
1.0366369E+002	8.989319792432070E+001	-1.0217737E+000	-9.856620738971269E+000	1.0071236E-002	-1.0218801E+000	0
1.0067908E+002	9.009319791926828E+001	-1.0237813E+000	-1.016875816128142E+001	1.0410585E-002	-1.0238802E+000	0
9.7705963E+001	9.029319791421585E+001	-1.0257530E+000	-1.049836657120258E+001	1.0768731E-002	-1.0258802E+000	0
9.4774269E+001	9.050319790891081E+001	-1.0278723E+000	-1.084547850684251E+001	1.1147767E-002	-1.0279802E+000	0
9.1776154E+001	9.071319790360576E+001	-1.0299758E+000	-1.122269488286537E+001	1.1559104E-002	-1.0300802E+000	0
8.9204857E+001	9.091319789855334E+001	-1.0319549E+000	-1.156837092674511E+001	1.1938036E-002	-1.0320802E+000	0
8.6712250E+001	9.111319789350091E+001	-1.0339484E+000	-1.192390313737786E+001	1.2328701E-002	-1.0340803E+000	0
8.4296326E+001	9.131319788844849E+001	-1.0359501E+000	-1.228938538491585E+001	1.2731190E-002	-1.0360801E+000	0
8.1971153E+001	9.151319788339606E+001	-1.0379517E+000	-1.266240185512714E+001	1.3142962E-002	-1.0380801E+000	0
7.9697426E+001	9.171319787834364E+001	-1.0399549E+000	-1.304878859252344E+001	1.3570151E-002	-1.0400802E+000	0
7.7536285E+001	9.191319787329121E+001	-1.0419710E+000	-1.343849437063781E+001	1.4002521E-002	-1.0420802E+000	0
7.5389297E+001	9.211319786823879E+001	-1.0439243E+000	-1.384711602201810E+001	1.4455342E-002	-1.0440803E+000	0
7.3312630E+001	9.231319786318636E+001	-1.0459677E+000	-1.426722324664894E+001	1.4923055E-002	-1.0460802E+000	0
7.1330536E+001	9.251319785813394E+001	-1.0479547E+000	-1.469152914639768E+001	1.5396057E-002	-1.0480802E+000	0
6.9397690E+001	9.271319785308151E+001	-1.0499431E+000	-1.512936655829014E+001	1.5884973E-002	-1.0500802E+000	0
6.7489304E+001	9.291319784802909E+001	-1.0519482E+000	-1.558688682831331E+001	1.6396597E-002	-1.0520803E+000	0
6.5643791E+001	9.311319784297666E+001	-1.0539807E+000	-1.605606105497907E+001	1.6922779E-002	-1.0540802E+000	0
6.3876030E+001	9.331319783792424E+001	-1.0559217E+000	-1.653079729826277E+001	1.7455228E-002	-1.0560802E+000	0
6.2173550E+001	9.351319783287181E+001	-1.0579596E+000	-1.701623176082191E+001	1.8002486E-002	-1.0580802E+000	0
6.0473316E+001	9.371319782781939E+001	-1.0599254E+000	-1.752715867352322E+001	1.8577481E-002	-1.0600802E+000	0
5.8879108E+001	9.391319782276696E+001	-1.0619618E+000	-1.803630863822778E+001	1.9153871E-002	-1.0620803E+000	0
5.7310879E+001	9.411319781771454E+001	-1.0639830E+000	-1.856511358163260E+001	1.9752964E-002	-1.0640802E+000	0
5.5789780E+001	9.431319781266211E+001	-1.0659697E+000	-1.910689968803305E+001	2.0367377E-002	-1.0660802E+000	0
5.4367332E+001	9.451319780760969E+001	-1.0679390E+000	-1.964302799734131E+001	2.0977557E-002	-1.0680802E+000	0
5.2933033E+001	9.471319780255726E+001	-1.0699797E+000	-2.021383620105888E+001	2.1628393E-002	-1.0700802E+000	0
5.1546303E+001	9.491319779750484E+001	-1.0719372E+000	-2.079561767732207E+001	2.2291597E-002	-1.0720803E+000	0
5.0200165E+001	9.511319779245241E+001	-1.0739605E+000	-2.139356670209338E+001	2.2975847E-002	-1.0740802E+000	0
4.8916115E+001	9.531319778739999E+001	-1.0759207E+000	-2.199522029056033E+001	2.3665113E-002	-1.0760802E+000	0
4.7623726E+001	9.551319778234756E+001	-1.0779597E+000	-2.263492875345162E+001	2.4399539E-002	-1.0780802E+000	0
4.6371063E+001	9.571319777729514E+001	-1.0799114E+000	-2.328847571795222E+001	2.5149489E-002	-1.0800803E+000	0
4.5182491E+001	9.591319777224271E+001	-1.0819345E+000	-2.394587929975964E+001	2.5907872E-002	-1.0820802E+000	0
4.4054497E+001	9.611319776719029E+001	-1.0839695E+000	-2.460519481124248E+001	2.6671279E-002	-1.0840802E+000	0
4.2948528E+001	9.631319776213786E+001	-1.0859987E+000	-2.528604951953673E+001	2.7460616E-002	-1.0860803E+000	0
4.1893059E+001	9.651319775708544E+001	-1.0879687E+000	-2.597014216987446E+001	2.8254703E-002	-1.0880802E+000	0
4.0854588E+001	9.671319775203301E+001	-1.0899857E+000	-2.667964040557274E+001	2.9080428E-002	-1.0900803E+000	0
3.9843658E+001	9.691319774698059E+001	-1.0919794E+000	-2.740660533396829E+001	2.9927447E-002	-1.0920802E+000	0
3.8857258E+001	9.711319774192816E+001	-1.0939714E+000	-2.815359238972746E+001	3.0799225E-002	-1.0940803E+000	0
3.7893757E+001	9.731319773687574E+001	-1.0959728E+000	-2.892225318944384E+001	3.1698003E-002	-1.0960802E+000	0
3.6959671E+001	9.751319773182331E+001	-1.0979565E+000	-2.970688190968400E+001	3.2616865E-002	-1.0980802E+000	0
3.6064941E+001	9.771319772677089E+001	-1.0999414E+000	-3.049890847514286E+001	3.3547010E-002	-1.1000803E+000	0
3.5162060E+001	9.791319772171846E+001	-1.1019112E+000	-3.133807119058110E+001	3.4531772E-002	-1.1020802E+000	0
3.4306801E+001	9.811319771666604E+001	-1.1039430E+000	-3.217854800056728E+001	3.5523284E-002	-1.1040802E+000	0
3.3478470E+001	9.831319771161361E+001	-1.1059986E+000	-3.303611659922569E+001	3.6537901E-002	-1.1060802E+000	0
3.2699459E+001	9.851319770656119E+001	-1.1079648E+000	-3.388327310901627E+001	3.7541471E-002	-1.1080803E+000	0
3.1962589E+001	9.871319770150876E+001	-1.1099675E+000	-3.472708133721260E+001	3.8545929E-002	-1.1100801E+000	0
3.1240242E+001	9.891319769645634E+001	-1.1119924E+000	-3.559487054731846E+001	3.9581224E-002	-1.1120802E+000	0
3.0514565E+001	9.911319769140391E+001	-1.1139910E+000	-3.650686353566698E+001	4.0668320E-002	-1.1140803E+000	0
2.9672478E+001	9.931319768635149E+001	-1.1159341E+000	-3.760839110220917E+001	4.1968487E-002	-1.1160802E+000	0
2.9005678E+001	9.951319768129906E+001	-1.1179652E+000	-3.854297902524604E+001	4.3089710E-002	-1.1180801E+000	0
2.8362267E+001	9.971319767624664E+001	-1.1199869E+000	-3.948862435406831E+001	4.4226743E-002	-1.1200802E+000	0
2.7791788E+001	9.991319767119421E+001	-1.1220101E+000	-4.037200249620025E+001	4.5297794E-002	-1.1220803E+000	0
2.7160902E+001	1.001131976661418E+002	-1.1239626E+000	-4.138163776165240E+001	4.6511415E-002	-1.1240803E+000	0
2.6593622E+001	1.003131976610894E+002	-1.1259859E+000	-4.234044677978753E+001	4.7674745E-002	-1.1260802E+000	0
2.6032064E+001	1.005131976560369E+002	-1.1279813E+000	-4.333045973934539E+001	4.8875950E-002	-1.1280801E+000	0
2.5433708E+001	1.007131976509845E+002	-1.1299533E+000	-4.442738836071123E+001	5.0200872E-002	-1.1300802E+000	0
2.4864693E+001	1.009131976459321E+002	-1.1319485E+000	-4.552432976423185E+001	5.1531196E-002	-1.1320802E+000	0
2.4326431E+001	1.011131976408797E+002	-1.1339626E+000	-4.661442745867225E+001	5.2859019E-002	-1.1340802E+000	0
2.3814436E+001	1.013131976358272E+002	-1.1359764E+000	-4.770116825493011E+001	5.4187402E-002	-1.1360803E+000	0
2.3340347E+001	1.015131976307748E+002	-1.1379756E+000	-4.875572651421930E+001	5.5482827E-002	-1.1380802E+000	0
2.2844374E+001	1.017131976257224E+002	-1.1399459E+000	-4.990050722682292E+001	5.6883875E-002	-1.1400802E+000	0
2.2376244E+001	1.019131976206700E+002	-1.1419584E+000	-5.103441020204355E+001	5.8279172E-002	-1.1420803E+000	0
2.1980852E+001	1.021131976156175E+002	-1.1439621E+000	-5.204357680333737E+001	5.9535883E-002	-1.1440803E+000	0
2.1554100E+001	1.023131976105651E+002	-1.1459955E+000	-5.316833117651575E+001	6.0930669E-002	-1.1460803E+000	0
2.1109259E+001	1.025131976055127E+002	-1.1479427E+000	-5.438100187524378E+001	6.2426273E-002	-1.1480802E+000	0
2.0684927E+001	1.027131976004603E+002	-1.1500076E+000	-5.559640689880143E+001	6.3936293E-002	-1.1500802E+000	0
2.0291155E+001	1.029131975954078E+002	-1.1519408E+000	-5.677058692097398E+001	6.5396354E-002	-1.1520803E+000	0
1.9919895E+001	1.031131975903554E+002	-1.1540451E+000	-5.793429682800820E+001	6.6858791E-002	-1.1540803E+000	0
1.9471176E+001	1.033131975853030E+002	-1.1560204E+000	-5.937085784914268E+001	6.8633921E-002	-1.1560802E+000	0
1.9086899E+001	1.035131975802506E+002	-1.1580199E+000	-6.067093092568041E+001	7.0258148E-002	-1.1580802E+000	0
1.8693617E+001	1.037131975751981E+002	-1.1599996E+000	-6.205324851898899E+001	7.1981743E-002	-1.1600802E+000	0
1.8326736E+001	1.039131975701457E+002	-1.1620338E+000	-6.340647716803335E+001	7.3680468E-002	-1.1620803E+000	0
1.7924864E+001	1.041131975650933E+002	-1.1640011E+000	-6.493779697926385E+001	7.5587668E-002	-1.1640803E+000	0
1.7577015E+001	1.043131975600409E+002	-1.1660137E+000	-6.633741626447545E+001	7.7350341E-002	-1.1660802E+000	0
1.7260422E+001	1.045131975549884E+002	-1.1680288E+000	-6.767092905509509E+001	7.9041593E-002	-1.1680802E+000	0
1.6945112E+001	1.047131975499360E+002	-1.1700889E+000	-6.905170489114403E+001	8.0796629E-002	-1.1700803E+000	0
1.6595310E+001	1.049131975448836E+002	-1.1720490E+000	-7.062531937925712E+001	8.2776338E-002	-1.1720803E+000	0
1.6285696E+001	1.051131975398312E+002	-1.1740206E+000	-7.208907063099241E+001	8.4634058E-002	-1.1740803E+000	0
1.6004002E+001	1.053131975347787E+002	-1.1760801E+000	-7.348663176484683E+001	8.6426169E-002	-1.1760802E+000	0
1.5721163E+001	1.055131975297263E+002	-1.1780339E+000	-7.493300535997832E+001	8.8273622E-002	-1.1780801E+000	0
1.5421232E+001	1.057131975246739E+002	-1.1799951E+000	-7.651756117727734E+001	9.0290345E-002	-1.1800802E+000	0
1.5101671E+001	1.059131975196215E+002	-1.1820297E+000	-7.827145188033205E+001	9.2519179E-002	-1.1820803E+000	0
1.4827162E+001	1.061131975145690E+002	-1.1840206E+000	-7.985484283202899E+001	9.4549783E-002	-1.1840802E+000	0
1.4549017E+001	1.063131975095166E+002	-1.1859995E+000	-8.151750337563976E+001	9.6679717E-002	-1.1860802E+000	0
1.4235971E+001	1.065131975044642E+002	-1.1880335E+000	-8.345292512467643E+001	9.9144869E-002	-1.1880802E+000	0
1.3976116E+001	1.067131974994118E+002	-1.1900579E+000	-8.514939842689037E+001	1.0133271E-001	-1.1900803E+000	0
1.3673936E+001	1.069131974943593E+002	-1.1920238E+000	-8.717488233572760E+001	1.0391453E-001	-1.1920803E+000	0
1.3428155E+001	1.071131974893069E+002	-1.1940145E+000	-8.891873736770799E+001	1.0617027E-001	-1.1940801E+000	0
1.3226787E+001	1.073131974842545E+002	-1.1960143E+000	-9.042364465136083E+001	1.0814797E-001	-1.1960802E+000	0
1.2931594E+001	1.075131974792021E+002	-1.1980475E+000	-9.264499990631953E+001	1.1099311E-001	-1.1980802E+000	0
1.2683842E+001	1.077131974741496E+002	-1.2000433E+000	-9.461197243634342E+001	1.1353847E-001	-1.2000802E+000	0
1.2489234E+001	1.079131974690972E+002	-1.2020843E+000	-9.624964483741178E+001	1.1570019E-001	-1.2020802E+000	0
1.2222318E+001	1.081131974640448E+002	-1.2040422E+000	-9.851177654785374E+001	1.1861233E-001	-1.2040802E+000	0
1.1985998E+001	1.083131974589924E+002	-1.2060645E+000	-1.006227836295318E+002	1.2135756E-001	-1.2060802E+000	0
1.1821258E+001	1.085131974539399E+002	-1.2080625E+000	-1.021940761044992E+002	1.2345684E-001	-1.2080802E+000	0
1.1627042E+001	1.087131974488875E+002	-1.2100420E+000	-1.040713537631391E+002	1.2593071E-001	-1.2100803E+000	0
1.1473049E+001	1.089131974438351E+002	-1.2120941E+000	-1.056470730504755E+002	1.2805419E-001	-1.2120802E+000	0
1.1275606E+001	1.091131974387827E+002	-1.2140536E+000	-1.076708098290455E+002	1.3071814E-001	-1.2140802E+000	0
1.0991060E+001	1.093231974334776E+002	-1.2161443E+000	-1.106485035312417E+002	1.3456455E-001	-1.2161803E+000	0
1.0724247E+001	1.095331974281726E+002	-1.2181666E+000	-1.135899385486871E+002	1.3837147E-001	-1.2182802E+000	0
1.0391072E+001	1.097331974231201E+002	-1.2202171E+000	-1.174293789452713E+002	1.4328934E-001	-1.2202802E+000	0
1.0208288E+001	1.099331974180677E+002	-1.2222097E+000	-1.197271922937593E+002	1.4633173E-001	-1.2222803E+000	0
1.0085009E+001	1.101331974130153E+002	-1.2242430E+000	-1.213923678257574E+002	1.4861377E-001	-1.2242802E+000	0
9.9669361E+000	1.103331974079629E+002	-1.2262570E+000	-1.230324885515397E+002	1.5086944E-001	-1.2262802E+000	0
9.8082209E+000	1.105331974029104E+002	-1.2282152E+000	-1.252230435747680E+002	1.5380085E-001	-1.2282802E+000	0
9.6253872E+000	1.107331973978580E+002	-1.2302359E+000	-1.278115768605619E+002	1.5723839E-001	-1.2302803E+000	0
9.4912987E+000	1.109331973928056E+002	-1.2322260E+000	-1.298269095182964E+002	1.5997609E-001	-1.2322803E+000	0
9.3232145E+000	1.111331973877532E+002	-1.2342215E+000	-1.323815357485064E+002	1.6338813E-001	-1.2342802E+000	0
9.1854801E+000	1.113331973827007E+002	-1.2362745E+000	-1.345900777743254E+002	1.6639028E-001	-1.2362802E+000	0
9.0644741E+000	1.115331973776483E+002	-1.2382025E+000	-1.365994855746656E+002	1.6913782E-001	-1.2382802E+000	0
8.9327135E+000	1.117331973725959E+002	-1.2402070E+000	-1.388387725607342E+002	1.7218882E-001	-1.2402803E+000	0
8.8079662E+000	1.119331973675435E+002	-1.2422028E+000	-1.410317424722271E+002	1.7519002E-001	-1.2422802E+000	0
8.7136488E+000	1.121331973624910E+002	-1.2442688E+000	-1.427953821839662E+002	1.7767583E-001	-1.2442802E+000	0
8.5047674E+000	1.123331973574386E+002	-1.2461903E+000	-1.465284429958891E+002	1.8260233E-001	-1.2462802E+000	0
8.3450232E+000	1.125331973523862E+002	-1.2482122E+000	-1.495756431080049E+002	1.8670215E-001	-1.2482802E+000	0
8.1732769E+000	1.127331973473338E+002	-1.2502352E+000	-1.529662130576403E+002	1.9124374E-001	-1.2502803E+000	0
8.0937147E+000	1.129331973422813E+002	-1.2522131E+000	-1.547142684778660E+002	1.9373524E-001	-1.2522804E+000	0
7.9718728E+000	1.131331973372289E+002	-1.2542015E+000	-1.573283426312905E+002	1.9732144E-001	-1.2542803E+000	0
7.8795819E+000	1.133331973321765E+002	-1.2562170E+000	-1.594268608158136E+002	2.0027474E-001	-1.2562802E+000	0
7.8088784E+000	1.135331973271241E+002	-1.2581623E+000	-1.611194571183646E+002	2.0271441E-001	-1.2582803E+000	0
7.7148581E+000	1.137331973220716E+002	-1.2602148E+000	-1.633490550988386E+002	2.0585489E-001	-1.2602803E+000	0
7.6242871E+000	1.139331973170192E+002	-1.2622167E+000	-1.655520883212016E+002	2.0896260E-001	-1.2622802E+000	0
7.5163713E+000	1.141331973119668E+002	-1.2641717E+000	-1.681891050046806E+002	2.1261992E-001	-1.2642803E+000	0
7.3369565E+000	1.143331973069144E+002	-1.2662294E+000	-1.725823804332011E+002	2.1852888E-001	-1.2662802E+000	0
7.2249351E+000	1.145331973018619E+002	-1.2682500E+000	-1.755379067516110E+002	2.2262594E-001	-1.2682801E+000	0
7.1368251E+000	1.147331972968095E+002	-1.2702118E+000	-1.779799581676934E+002	2.2607225E-001	-1.2702804E+000	0
7.0545011E+000	1.149331972917571E+002	-1.2722497E+000	-1.803458090369132E+002	2.2944491E-001	-1.2722803E+000	0
6.9812460E+000	1.151331972867047E+002	-1.2742119E+000	-1.825192648580560E+002	2.3256822E-001	-1.2742802E+000	0
6.9096231E+000	1.153331972816522E+002	-1.2762147E+000	-1.847010588116113E+002	2.3571821E-001	-1.2762803E+000	0
6.7596221E+000	1.155331972765998E+002	-1.2782577E+000	-1.891019502702484E+002	2.4172103E-001	-1.2782803E+000	0
6.6863852E+000	1.157331972715474E+002	-1.2802387E+000	-1.914694829235812E+002	2.4512665E-001	-1.2802804E+000	0
6.5969930E+000	1.159331972664950E+002	-1.2822756E+000	-1.943727378834406E+002	2.4923941E-001	-1.2822802E+000	0
6.5205464E+000	1.161331972614425E+002	-1.2841891E+000	-1.969450148087226E+002	2.5291464E-001	-1.2842802E+000	0
6.2899241E+000	1.163331972563901E+002	-1.2862755E+000	-2.044977703116110E+002	2.6304048E-001	-1.2862802E+000	0
6.1401339E+000	1.165331972513377E+002	-1.2882313E+000	-2.098050803857054E+002	2.7027747E-001	-1.2882801E+000	0
6.0732145E+000	1.167331972462853E+002	-1.2902266E+000	-2.124454164375256E+002	2.7410272E-001	-1.2902802E+000	0
6.0280428E+000	1.169331972412328E+002	-1.2922496E+000	-2.143729950003080E+002	2.7702340E-001	-1.2922803E+000	0
5.9934206E+000	1.171331972361804E+002	-1.2942438E+000	-2.159440941497046E+002	2.7948430E-001	-1.2942802E+000	0
5.8797383E+000	1.173331972311280E+002	-1.2962216E+000	-2.204556675562776E+002	2.8575939E-001	-1.2962801E+000	0
5.8308549E+000	1.175331972260756E+002	-1.2982506E+000	-2.226518322972761E+002	2.8905785E-001	-1.2982802E+000	0
5.7971687E+000	1.177331972210231E+002	-1.3002113E+000	-2.242838424198216E+002	2.9161638E-001	-1.3002802E+000	0
5.7588859E+000	1.179331972159707E+002	-1.3022803E+000	-2.261340760362916E+002	2.9448995E-001	-1.3022802E+000	0
5.6930714E+000	1.181331972109183E+002	-1.3042231E+000	-2.290895342448403E+002	2.9878384E-001	-1.3042803E+000	0
5.6232376E+000	1.183331972058659E+002	-1.3062956E+000	-2.323031247262252E+002	3.0345654E-001	-1.3062803E+000	0
5.5938754E+000	1.185331972008134E+002	-1.3082685E+000	-2.338751612444867E+002	3.0597150E-001	-1.3082802E+000	0
5.5222955E+000	1.187332971957585E+002	-1.3102809E+000	-2.372710655441751E+002	3.1089175E-001	-1.3102809E+000	0
5.4201198E+000	1.189336971906960E+002	-1.3122356E+000	-2.421045448237983E+002	3.1769821E-001	-1.3122845E+000	0
5.4022603E+000	1.191340971856334E+002	-1.3142538E+000	-2.432785114037288E+002	3.1972972E-001	-1.3142891E+000	0
5.3424191E+000	1.193343971805734E+002	-1.3162781E+000	-2.463824004955515E+002	3.2430777E-001	-1.3162918E+000	0
5.3045096E+000	1.195348971755084E+002	-1.3183190E+000	-2.485279612754853E+002	3.2763913E-001	-1.3182970E+000	0
5.2984991E+000	1.197349971704534E+002	-1.3202809E+000	-2.491801673798341E+002	3.2898781E-001	-1.3202983E+000	0
5.2470365E+000	1.199351971653959E+002	-1.3223455E+000	-2.520175968875733E+002	3.3325434E-001	-1.3222997E+000	0
5.2099299E+000	1.201357971603284E+002	-1.3242846E+000	-2.541847196368408E+002	3.3661291E-001	-1.3243055E+000	0
5.1757836E+000	1.203360971552684E+002	-1.3263319E+000	-2.562571971714119E+002	3.3988208E-001	-1.3263092E+000	0
5.1377759E+000	1.205363971502084E+002	-1.3283310E+000	-2.585420173105344E+002	3.4342939E-001	-1.3283118E+000	0
5.0607338E+000	1.207367971451458E+002	-1.3303257E+000	-2.628720913595507E+002	3.4970552E-001	-1.3303157E+000	0
4.9913659E+000	1.209370971400858E+002	-1.3323289E+000	-2.669267290711369E+002	3.5563421E-001	-1.3323191E+000	0
4.9724846E+000	1.211372971350283E+002	-1.3343053E+000	-2.683377325032920E+002	3.5804445E-001	-1.3343211E+000	0
4.9744477E+000	1.213373971299734E+002	-1.3363464E+000	-2.686421514130494E+002	3.5899895E-001	-1.3363223E+000	0
4.9555826E+000	1.215375971249159E+002	-1.3383296E+000	-2.700650292432658E+002	3.6143601E-001	-1.3383237E+000	0
4.9370217E+000	1.217377971198584E+002	-1.3403182E+000	-2.714831453689631E+002	3.6387381E-001	-1.3403261E+000	0
4.9010172E+000	1.219380971147984E+002	-1.3423038E+000	-2.738826799595299E+002	3.6763376E-001	-1.3423289E+000	0
4.8354378E+000	1.221383971097384E+002	-1.3443408E+000	-2.780184320640825E+002	3.7375152E-001	-1.3443317E+000	0
4.7147236E+000	1.223385971046810E+002	-1.3463544E+000	-2.855637899818357E+002	3.8447005E-001	-1.3463342E+000	0
4.6672812E+000	1.225385970996285E+002	-1.3483652E+000	-2.888973709417846E+002	3.8953915E-001	-1.3483342E+000	0
4.6545897E+000	1.227387970945711E+002	-1.3503388E+000	-2.901091033798011E+002	3.9174560E-001	-1.3503362E+000	0
4.6308336E+000	1.229390970895111E+002	-1.3523475E+000	-2.920311202068715E+002	3.9492756E-001	-1.3523389E+000	0
4.5864930E+000	1.231393970844510E+002	-1.3543311E+000	-2.952868649071413E+002	3.9991620E-001	-1.3543421E+000	0
4.5402436E+000	1.233395970793936E+002	-1.3564078E+000	-2.987521949009445E+002	4.0522981E-001	-1.3563441E+000	0
4.5136914E+000	1.235397970743361E+002	-1.3583392E+000	-3.009375353654873E+002	4.0877524E-001	-1.3583457E+000	0
4.4113059E+000	1.237401970692736E+002	-1.3603837E+000	-3.083857203616672E+002	4.1952291E-001	-1.3603498E+000	0
4.3867154E+000	1.239404970642136E+002	-1.3623737E+000	-3.105680647141144E+002	4.2310977E-001	-1.3623531E+000	0
4.2694116E+000	1.241406970591561E+002	-1.3644131E+000	-3.195787433682217E+002	4.3603745E-001	-1.3643550E+000	0
4.2029896E+000	1.243409970540961E+002	-1.3664136E+000	-3.251051701232282E+002	4.4422811E-001	-1.3663577E+000	0
4.1658454E+000	1.245411970490386E+002	-1.3683586E+000	-3.284707969418982E+002	4.4946584E-001	-1.3683603E+000	0
4.1109619E+000	1.247412970439837E+002	-1.3704208E+000	-3.333576868436421E+002	4.5684031E-001	-1.3703610E+000	0
4.0723319E+000	1.249414970389262E+002	-1.3724171E+000	-3.370101262120456E+002	4.6251845E-001	-1.3723631E+000	0
4.0293059E+000	1.251417970338662E+002	-1.3744199E+000	-3.411058599024805E+002	4.6882269E-001	-1.3743657E+000	0
4.0250726E+000	1.253422970288011E+002	-1.3764495E+000	-3.419688421580657E+002	4.7070283E-001	-1.3763705E+000	0
3.9949450E+000	1.255423970237462E+002	-1.3784266E+000	-3.450426884670633E+002	4.7561601E-001	-1.3783723E+000	0
3.9964204E+000	1.257423970186937E+002	-1.3804514E+000	-3.454219729430019E+002	4.7683826E-001	-1.3803723E+000	0
3.9908934E+000	1.259424970136388E+002	-1.3824267E+000	-3.463953028661472E+002	4.7886613E-001	-1.3823730E+000	0
3.9625781E+000	1.261425970085838E+002	-1.3844714E+000	-3.493865287006565E+002	4.8371565E-001	-1.3843743E+000	0
3.9262996E+000	1.263427970035264E+002	-1.3864710E+000	-3.531241079172137E+002	4.8959634E-001	-1.3863758E+000	0
3.9412045E+000	1.265429969984689E+002	-1.3884193E+000	-3.522829836998935E+002	4.8911649E-001	-1.3883783E+000	0
3.9333513E+000	1.267429969934165E+002	-1.3904759E+000	-3.535092107638725E+002	4.9154603E-001	-1.3903784E+000	0
3.8707163E+000	1.269429969883640E+002	-1.3924779E+000	-3.597468213386264E+002	5.0093949E-001	-1.3923782E+000	0
3.8324161E+000	1.271430969833091E+002	-1.3944346E+000	-3.638526149920290E+002	5.0736868E-001	-1.3943790E+000	0
3.8527956E+000	1.273431969782541E+002	-1.3964739E+000	-3.624572956770244E+002	5.0616217E-001	-1.3963799E+000	0
3.7943094E+000	1.275433969731967E+002	-1.3984469E+000	-3.685642805635343E+002	5.1541758E-001	-1.3983817E+000	0
3.6932194E+000	1.277436969681366E+002	-1.4004525E+000	-3.791955819890677E+002	5.3104538E-001	-1.4003851E+000	0
3.6726131E+000	1.279438969630792E+002	-1.4024436E+000	-3.818653240480301E+002	5.3554457E-001	-1.4023871E+000	0
3.6478844E+000	1.281440969580217E+002	-1.4044564E+000	-3.850057182296241E+002	5.4072374E-001	-1.4043891E+000	0
3.6393156E+000	1.283445969529566E+002	-1.4064908E+000	-3.864712350088666E+002	5.4356825E-001	-1.4063938E+000	0
3.6363039E+000	1.285447969478992E+002	-1.4084952E+000	-3.873425379404962E+002	5.4557008E-001	-1.4083962E+000	0
3.6298239E+000	1.287449969428417E+002	-1.4104632E+000	-3.885762018706283E+002	5.4807246E-001	-1.4103979E+000	0
3.5718858E+000	1.289449969377893E+002	-1.4124892E+000	-3.954463517109010E+002	5.5856371E-001	-1.4123982E+000	0
3.4359996E+000	1.291452969327293E+002	-1.4144909E+000	-4.116679654894388E+002	5.8230060E-001	-1.4144009E+000	0
3.3936887E+000	1.293454969276718E+002	-1.4164687E+000	-4.173832418360882E+002	5.9121031E-001	-1.4164029E+000	0
3.4039216E+000	1.295456969226143E+002	-1.4185179E+000	-4.167305120213550E+002	5.9113973E-001	-1.4184049E+000	0
3.3722298E+000	1.297457969175593E+002	-1.4204946E+000	-4.212330183734157E+002	5.9835923E-001	-1.4204061E+000	0
3.3729267E+000	1.299457969125069E+002	-1.4224854E+000	-4.217362302706629E+002	5.9991360E-001	-1.4224061E+000	0
3.4122779E+000	1.301457969074545E+002	-1.4244720E+000	-4.174548479845726E+002	5.9465271E-001	-1.4244061E+000	0
3.3914037E+000	1.303457969024021E+002	-1.4264892E+000	-4.206191297864152E+002	6.0000867E-001	-1.4264060E+000	0
3.3859241E+000	1.305457968973496E+002	-1.4284825E+000	-4.218885390223295E+002	6.0266042E-001	-1.4284061E+000	0
3.3590498E+000	1.307457968922972E+002	-1.4304775E+000	-4.258577697217597E+002	6.0917997E-001	-1.4304060E+000	0
3.2692776E+000	1.309457968872448E+002	-1.4325272E+000	-4.381784983827393E+002	6.2770259E-001	-1.4324061E+000	0
3.2498920E+000	1.311457968821924E+002	-1.4345611E+000	-4.414181081032257E+002	6.3324124E-001	-1.4344059E+000	0
3.2585516E+000	1.313457968771399E+002	-1.4365413E+000	-4.408527013212115E+002	6.3330311E-001	-1.4364060E+000	0
3.2729139E+000	1.315457968720875E+002	-1.4385523E+000	-4.395325803432315E+002	6.3229060E-001	-1.4384061E+000	0
3.3009000E+000	1.317457968670351E+002	-1.4405740E+000	-4.364185727610329E+002	6.2869328E-001	-1.4404060E+000	0
3.3187087E+000	1.319457968619827E+002	-1.4425585E+000	-4.346746402532863E+002	6.2704360E-001	-1.4424061E+000	0
3.1982925E+000	1.321457968569302E+002	-1.4444995E+000	-4.516470762629087E+002	6.5240395E-001	-1.4444059E+000	0
3.1503763E+000	1.323457968518778E+002	-1.4465759E+000	-4.591755827257184E+002	6.6423231E-001	-1.4464060E+000	0
3.1188376E+000	1.325457968468254E+002	-1.4485286E+000	-4.644450270767393E+002	6.7276192E-001	-1.4484061E+000	0
3.1115677E+000	1.327457968417730E+002	-1.4505538E+000	-4.661810026968949E+002	6.7622060E-001	-1.4504060E+000	0
3.0724978E+000	1.329457968367205E+002	-1.4525193E+000	-4.727486965758999E+002	6.8667662E-001	-1.4524060E+000	0
3.0773931E+000	1.331457968316681E+002	-1.4545612E+000	-4.726601904006232E+002	6.8751317E-001	-1.4544059E+000	0
3.0624866E+000	1.333457968266157E+002	-1.4565140E+000	-4.755984696239029E+002	6.9271582E-001	-1.4564062E+000	0
3.0250282E+000	1.335457968215633E+002	-1.4585508E+000	-4.821610457924212E+002	7.0325637E-001	-1.4584061E+000	0
2.9904060E+000	1.337457968165108E+002	-1.4605416E+000	-4.884091192362230E+002	7.1334183E-001	-1.4604059E+000	0
2.9975369E+000	1.339457968114584E+002	-1.4625506E+000	-4.879174687651548E+002	7.1360403E-001	-1.4624059E+000	0
3.0088813E+000	1.341457968064060E+002	-1.4645212E+000	-4.867327959791610E+002	7.1283048E-001	-1.4644059E+000	0
2.9558735E+000	1.343457968013536E+002	-1.4665463E+000	-4.961464839208697E+002	7.2762179E-001	-1.4664060E+000	0
2.9371204E+000	1.345457967963011E+002	-1.4685018E+000	-4.999801224645844E+002	7.3422170E-001	-1.4684061E+000	0
2.9590952E+000	1.347457967912487E+002	-1.4705147E+000	-4.969473820554399E+002	7.3076838E-001	-1.4704059E+000	0
2.9809539E+000	1.349457967861963E+002	-1.4725281E+000	-4.939788066275814E+002	7.2739768E-001	-1.4724060E+000	0
3.0031207E+000	1.351457967811439E+002	-1.4745173E+000	-4.909950330825063E+002	7.2398067E-001	-1.4744060E+000	0
3.0074294E+000	1.353457967760914E+002	-1.4765041E+000	-4.909521895514599E+002	7.2489291E-001	-1.4764060E+000	0
2.9975972E+000	1.355457967710390E+002	-1.4784849E+000	-4.932233398722947E+002	7.2922325E-001	-1.4784061E+000	0
2.9504619E+000	1.357457967659866E+002	-1.4805464E+000	-5.018015392026646E+002	7.4294043E-001	-1.4804060E+000	0
2.9360447E+000	1.359457967609342E+002	-1.4825569E+000	-5.049503989230479E+002	7.4861771E-001	-1.4824059E+000	0
2.9290433E+000	1.361457967558817E+002	-1.4845293E+000	-5.068307628458597E+002	7.5240511E-001	-1.4844060E+000	0
2.8969445E+000	1.363457967508293E+002	-1.4868912E+000	-5.132618618962988E+002	7.6316452E-001	-1.4864060E+000	0
2.8671818E+000	1.365457967457769E+002	-1.4890547E+000	-5.193443544305651E+002	7.7333212E-001	-1.4884061E+000	0
2.8530161E+000	1.367457967407245E+002	-1.4910519E+000	-5.226230374636843E+002	7.7925807E-001	-1.4904060E+000	0
2.8482411E+000	1.369457967356720E+002	-1.4930291E+000	-5.241933698027060E+002	7.8263599E-001	-1.4924060E+000	0
2.8704255E+000	1.371457967306196E+002	-1.4950830E+000	-5.208576063039343E+002	7.7872533E-001	-1.4944060E+000	0
2.8887947E+000	1.373457967255672E+002	-1.4970398E+000	-5.182229669921244E+002	7.7580041E-001	-1.4964061E+000	0
2.8763986E+000	1.375457967205148E+002	-1.4990305E+000	-5.211483898681845E+002	7.8121734E-001	-1.4984061E+000	0
2.8193119E+000	1.377457967154623E+002	-1.5010723E+000	-5.324250466136987E+002	7.9920846E-001	-1.5004060E+000	0
2.8125684E+000	1.379457967104099E+002	-1.5030627E+000	-5.344093203512184E+002	8.0325073E-001	-1.5024061E+000	0
2.8260889E+000	1.381457967053575E+002	-1.5050498E+000	-5.325557284192967E+002	8.0152291E-001	-1.5044060E+000	0
2.8236678E+000	1.383457967003051E+002	-1.5070904E+000	-5.337350638729113E+002	8.0438703E-001	-1.5064061E+000	0
2.8037727E+000	1.385457966952526E+002	-1.5090495E+000	-5.382210532251138E+002	8.1220222E-001	-1.5084060E+000	0
2.8030698E+000	1.387457966902002E+002	-1.5110669E+000	-5.390757395383180E+002	8.1457949E-001	-1.5104060E+000	0
2.7951868E+000	1.389457966851478E+002	-1.5130947E+000	-5.413214933304553E+002	8.1907064E-001	-1.5124061E+000	0
2.7628565E+000	1.391457966800954E+002	-1.5151050E+000	-5.483835284736961E+002	8.3085865E-001	-1.5144060E+000	0
2.7627614E+000	1.393457966750429E+002	-1.5171014E+000	-5.491250408112028E+002	8.3307838E-001	-1.5164061E+000	0
2.7613101E+000	1.395457966699905E+002	-1.5190752E+000	-5.501284140243019E+002	8.3568639E-001	-1.5184062E+000	0
2.7758925E+000	1.397457966649381E+002	-1.5210860E+000	-5.479628698387896E+002	8.3349866E-001	-1.5204060E+000	0
2.7646360E+000	1.399457966598857E+002	-1.5231066E+000	-5.509248232419795E+002	8.3911723E-001	-1.5224061E+000	0
2.7210574E+000	1.401457966548332E+002	-1.5250775E+000	-5.604723475060493E+002	8.5476375E-001	-1.5244060E+000	0
2.6778471E+000	1.403457966497808E+002	-1.5270631E+000	-5.702577620223001E+002	8.7081963E-001	-1.5264060E+000	0
2.6904597E+000	1.405457966447284E+002	-1.5290860E+000	-5.683363235586094E+002	8.6903512E-001	-1.5284059E+000	0
2.6962433E+000	1.407457966396760E+002	-1.5310761E+000	-5.678552943032892E+002	8.6942965E-001	-1.5304060E+000	0
2.6833010E+000	1.408857966361393E+002	-1.5325748E+000	-5.711527447213939E+002	8.7533426E-001	-1.5318059E+000	0
2.6726847E+000	1.409221966352197E+002	-1.5328441E+000	-5.735222473144531E+002	8.7912017E-001	-1.5323057E+000	1