EC-Lab ASCII FILE
Nb header lines : 63                          

Linear Sweep Voltammetry

Run on channel : 1 (SN 1340)
User : 
Electrode connection : standard
Potential control : Ewe
Ewe ctrl range : min = -5.00 V, max = 5.00 V
Ewe,I filtering : <None>
Safety Limits :
	Do not start on E overload
Channel : Floating
Acquisition started on : 03/11/2026 11:20:18.747
Technique started on : 03/11/2026 11:20:21.585
Loaded Setting File :  NONE
Saved on :
	File : Ni_N52magA_flat_3-11_02_LSV_C01.mpr
	Directory : C:\Users\volt\Documents\Platalytix\
	Host : 172.28.65.128
Device : SP-200 (SN 0262)
Address : USB
EC-LAB for windows v11.60 (software)
Internet server v11.60 (firmware)
Command interpretor v11.60 (firmware)
Electrode material : Ni
Initial state : 
Electrolyte : KOH (1 M)
Comments : With magnet A (+) side, flat position
Cable : standard
Reference electrode : Hg/HgO (0.140 V)
Electrode surface area : 1.000 cmｲ
Characteristic mass : 0.001 g
Equivalent Weight : 0.000 g/eq.
Density : 0.000 g/cm3
Volume (V) : 0.001 cmｳ
Cycle Definition : Charge/Discharge alternance
tR (h:m:s)          0:00:5.0000         
dER/dt (mV/h)       0.0                 
dER (mV)            0                   
dtR (s)             0.0000              
dE/dt               10.000              
dE/dt unit          mV/s                
Ei (V)              -0.200              
vs.                 Ref                 
EL (V)              -2.500              
vs.                 Ref                 
record              <I>                 
dI                  0.000               
unit dI             ｵA                  
tI (s)              0.0000              
step percent        50                  
N                   10                  
E range min (V)     -5.000              
E range max (V)     5.000               
I Range             Auto                
I Range min         Unset               
I Range max         Unset               
I Range init        Unset               
Bandwidth           8                   

<I>/mA	Ewe/V	control/V	Rwe/Ohm	time/s	
0.000000000000000E+000	-1.6621916E-001	0.0000000E+000	0.0000000E+000	2.838400134787662E+000
0.000000000000000E+000	-3.5152268E-001	-1.9983749E-001	0.0000000E+000	7.838200008482090E+000
6.041795673966406E-001	-2.0170940E-001	-2.0173727E-001	3.3385672E+002	8.038200003429665E+000
1.787959288777206E-001	-2.0282687E-001	-2.0293732E-001	1.1344043E+003	8.158200000398210E+000
7.393345421194930E-002	-2.0491099E-001	-2.0503733E-001	2.7715598E+003	8.368199995093164E+000
4.765770992441049E-002	-2.0713426E-001	-2.0723732E-001	4.3462905E+003	8.588199989535497E+000
3.554385554419240E-002	-2.0932163E-001	-2.0943731E-001	5.8891089E+003	8.808199983977829E+000
2.887606279567609E-002	-2.1132152E-001	-2.1143733E-001	7.3182246E+003	9.008199978925404E+000
2.426618813627335E-002	-2.1332395E-001	-2.1343733E-001	8.7909951E+003	9.208199973872979E+000
2.090672011101247E-002	-2.1536224E-001	-2.1543731E-001	1.0301101E+004	9.408199968820554E+000
1.830509826176654E-002	-2.1735682E-001	-2.1743733E-001	1.1874113E+004	9.608199963768129E+000
1.624606336536130E-002	-2.1935458E-001	-2.1943733E-001	1.3502015E+004	9.808199958715704E+000
1.454571139462330E-002	-2.2133537E-001	-2.2143732E-001	1.5216538E+004	1.000819995366328E+001
1.317420260703014E-002	-2.2338088E-001	-2.2343732E-001	1.6955932E+004	1.020819994861085E+001
1.199560183082718E-002	-2.2535276E-001	-2.2543734E-001	1.8786283E+004	1.040819994355843E+001
1.095194428613522E-002	-2.2741310E-001	-2.2743732E-001	2.0764633E+004	1.060819993850600E+001
1.006135896059196E-002	-2.2932130E-001	-2.2943732E-001	2.2792279E+004	1.080819993345358E+001
9.312693279103501E-003	-2.3143221E-001	-2.3143734E-001	2.4851266E+004	1.100819992840115E+001
8.589355211085649E-003	-2.3341510E-001	-2.3343730E-001	2.7174926E+004	1.120819992334873E+001
7.971908282813300E-003	-2.3538975E-001	-2.3543733E-001	2.9527404E+004	1.140819991829630E+001
7.439073630887923E-003	-2.3732702E-001	-2.3743734E-001	3.1902766E+004	1.160819991324388E+001
6.941353268404005E-003	-2.3937252E-001	-2.3943733E-001	3.4484992E+004	1.180819990819145E+001
6.485774761549983E-003	-2.4134357E-001	-2.4143733E-001	3.7211219E+004	1.200819990313903E+001
6.057533382958440E-003	-2.4329825E-001	-2.4343733E-001	4.0164574E+004	1.220819989808660E+001
5.668599205085011E-003	-2.4536623E-001	-2.4543734E-001	4.3285160E+004	1.240819989303418E+001
5.333489700358591E-003	-2.4741325E-001	-2.4743731E-001	4.6388625E+004	1.260819988798175E+001
5.002079861179315E-003	-2.4934341E-001	-2.4943732E-001	4.9847945E+004	1.280819988292933E+001
4.712117886332558E-003	-2.5134692E-001	-2.5143731E-001	5.3340539E+004	1.300819987787690E+001
4.428012778255538E-003	-2.5335020E-001	-2.5343731E-001	5.7215328E+004	1.320819987282448E+001
4.159633206180374E-003	-2.5536260E-001	-2.5543731E-001	6.1390652E+004	1.340819986777205E+001
3.943849841135133E-003	-2.5735888E-001	-2.5743732E-001	6.5255750E+004	1.360819986271963E+001
3.680202618514266E-003	-2.5934389E-001	-2.5943732E-001	7.0470000E+004	1.380819985766720E+001
3.478352823204953E-003	-2.6137650E-001	-2.6143730E-001	7.5143758E+004	1.400819985261478E+001
3.263570259266067E-003	-2.6336637E-001	-2.6343733E-001	8.0698852E+004	1.420819984756236E+001
3.112109311089073E-003	-2.6529539E-001	-2.6543733E-001	8.5246164E+004	1.440819984250993E+001
2.905677894128114E-003	-2.6735914E-001	-2.6743731E-001	9.2012656E+004	1.460819983745751E+001
2.741701370577179E-003	-2.6936772E-001	-2.6943731E-001	9.8248383E+004	1.480819983240508E+001
2.601716006343058E-003	-2.7132156E-001	-2.7143732E-001	1.0428562E+005	1.500819982735266E+001
2.445290285442304E-003	-2.7330852E-001	-2.7343732E-001	1.1176935E+005	1.520819982230023E+001
2.303582649561417E-003	-2.7535212E-001	-2.7543733E-001	1.1953213E+005	1.540819981724781E+001
2.159316090554712E-003	-2.7734244E-001	-2.7743733E-001	1.2843995E+005	1.560819981219538E+001
2.021842814507329E-003	-2.7933615E-001	-2.7943733E-001	1.3815919E+005	1.580819980714296E+001
1.887647600883495E-003	-2.8134307E-001	-2.8143731E-001	1.4904428E+005	1.600819980209053E+001
1.793897376166141E-003	-2.8333718E-001	-2.8343734E-001	1.5794503E+005	1.620819979703811E+001
1.652320564930643E-003	-2.8534070E-001	-2.8543732E-001	1.7269088E+005	1.640819979198568E+001
1.554103297766497E-003	-2.8740340E-001	-2.8743732E-001	1.8493198E+005	1.660819978693326E+001
1.451724041827421E-003	-2.8934005E-001	-2.8943732E-001	1.9930789E+005	1.680819978188083E+001
1.350899841350395E-003	-2.9135585E-001	-2.9143730E-001	2.1567539E+005	1.700819977682841E+001
1.254766982653848E-003	-2.9333389E-001	-2.9343730E-001	2.3377559E+005	1.720819977177598E+001
1.152962719310726E-003	-2.9535097E-001	-2.9543731E-001	2.5616697E+005	1.740819976672356E+001
1.077029831660723E-003	-2.9744187E-001	-2.9743734E-001	2.7616866E+005	1.760819976167113E+001
9.932212670928954E-004	-2.9934117E-001	-2.9943731E-001	3.0138419E+005	1.780819975661871E+001
9.115724718635016E-004	-3.0135316E-001	-3.0143735E-001	3.3058606E+005	1.800819975156628E+001
8.060997645022890E-004	-3.0337554E-001	-3.0343732E-001	3.7634988E+005	1.820819974651386E+001
7.212223665064251E-004	-3.0536139E-001	-3.0543730E-001	4.2339422E+005	1.840819974146143E+001
6.840754014564208E-004	-3.0739760E-001	-3.0743730E-001	4.4936216E+005	1.860819973640901E+001
5.781061022606193E-004	-3.0938834E-001	-3.0943733E-001	5.3517569E+005	1.880819973135658E+001
4.978655025615073E-004	-3.1135470E-001	-3.1143731E-001	6.2537913E+005	1.900819972630416E+001
4.524657884931466E-004	-3.1332767E-001	-3.1343734E-001	6.9248919E+005	1.920819972125173E+001
3.643585078848438E-004	-3.1536552E-001	-3.1543732E-001	8.6553631E+005	1.940819971619931E+001
3.063565202446328E-004	-3.1735924E-001	-3.1743732E-001	1.0359148E+006	1.960819971114688E+001
2.212994532126483E-004	-3.1936228E-001	-3.1943735E-001	1.4431228E+006	1.980819970609446E+001
1.596442199237377E-004	-3.2137346E-001	-3.2143733E-001	2.0130604E+006	2.000819970104203E+001
1.038686615049007E-004	-3.2333237E-001	-3.2343733E-001	3.1128963E+006	2.020819969598961E+001
3.808050969515507E-005	-3.2532483E-001	-3.2543731E-001	8.5430800E+006	2.040819969093718E+001
-3.008082835049316E-005	-3.2740450E-001	-3.2743731E-001	1.0884158E+007	2.060819968588476E+001
-9.310058832987618E-005	-3.2937172E-001	-3.2943732E-001	3.5378050E+006	2.080819968083233E+001
-1.332622366729142E-004	-3.3135355E-001	-3.3143732E-001	2.4864775E+006	2.100819967577991E+001
-1.920940942578501E-004	-3.3329719E-001	-3.3343732E-001	1.7350726E+006	2.120819967072748E+001
-2.524826830271676E-004	-3.3533952E-001	-3.3543733E-001	1.3281684E+006	2.140819966567506E+001
-3.382029780004603E-004	-3.3741835E-001	-3.3743733E-001	9.9768000E+005	2.160819966062263E+001
-3.766451458908551E-004	-3.3935416E-001	-3.3943734E-001	9.0099175E+005	2.180819965557021E+001
-4.393233412242601E-004	-3.4137800E-001	-3.4143731E-001	7.7705413E+005	2.200819965051778E+001
-5.033158234666541E-004	-3.4335223E-001	-3.4343734E-001	6.8218050E+005	2.220819964546536E+001
-5.251986278046999E-004	-3.4533936E-001	-3.4543732E-001	6.5754050E+005	2.240819964041293E+001
-6.348038555299236E-004	-3.4732738E-001	-3.4743732E-001	5.4714125E+005	2.260819963536051E+001
-6.681585334555578E-004	-3.4935188E-001	-3.4943736E-001	5.2285778E+005	2.280819963030808E+001
-7.060175767099313E-004	-3.5137570E-001	-3.5143733E-001	4.9768691E+005	2.300819962525566E+001
-7.438060402105706E-004	-3.5332176E-001	-3.5343733E-001	4.7501869E+005	2.320819962020323E+001
-8.054314683273132E-004	-3.5535896E-001	-3.5543734E-001	4.4120322E+005	2.340819961515081E+001
-8.753421673639598E-004	-3.5736182E-001	-3.5743734E-001	4.0825388E+005	2.360819961009838E+001
-9.277047132145479E-004	-3.5935387E-001	-3.5943732E-001	3.8735803E+005	2.380819960504596E+001
-9.876734507191405E-004	-3.6133084E-001	-3.6143735E-001	3.6584038E+005	2.400819959999353E+001
-1.040745545873229E-003	-3.6337930E-001	-3.6343732E-001	3.4915288E+005	2.420819959494111E+001
-1.107225052258876E-003	-3.6537853E-001	-3.6543730E-001	3.2999481E+005	2.440819958988868E+001
-1.149716051599515E-003	-3.6735272E-001	-3.6743733E-001	3.1951603E+005	2.460819958483626E+001
-1.189517558482714E-003	-3.6931995E-001	-3.6943731E-001	3.1047878E+005	2.480819957978383E+001
-1.278507948802521E-003	-3.7129602E-001	-3.7143734E-001	2.9041353E+005	2.500819957473141E+001
-1.315962315234353E-003	-3.7341842E-001	-3.7343732E-001	2.8376072E+005	2.520819956967898E+001
-1.369601850064246E-003	-3.7537050E-001	-3.7543732E-001	2.7407272E+005	2.540819956462656E+001
-1.432964101769415E-003	-3.7733945E-001	-3.7743735E-001	2.6332791E+005	2.560819955957413E+001
-1.497578677574875E-003	-3.7934336E-001	-3.7943733E-001	2.5330447E+005	2.580819955452171E+001
-1.536047268782689E-003	-3.8130295E-001	-3.8143736E-001	2.4823647E+005	2.600819954946928E+001
-1.573978502248954E-003	-3.8335419E-001	-3.8343734E-001	2.4355745E+005	2.620819954441686E+001
-1.642979785198996E-003	-3.8531438E-001	-3.8543731E-001	2.3452167E+005	2.640819953936443E+001
-1.714993076547048E-003	-3.8734397E-001	-3.8743734E-001	2.2585745E+005	2.660819953431201E+001
-1.764984132026106E-003	-3.8929868E-001	-3.8943732E-001	2.2056781E+005	2.680819952925958E+001
-1.833216536701569E-003	-3.9133209E-001	-3.9143735E-001	2.1346747E+005	2.700819952420716E+001
-1.884076008221897E-003	-3.9329332E-001	-3.9343733E-001	2.0874600E+005	2.720819951915473E+001
-1.959139183518380E-003	-3.9533037E-001	-3.9543736E-001	2.0178780E+005	2.740819951410231E+001
-2.012065810447564E-003	-3.9729756E-001	-3.9743730E-001	1.9745753E+005	2.760819950904988E+001
-2.071548295584150E-003	-3.9935496E-001	-3.9943734E-001	1.9278091E+005	2.780819950399746E+001
-2.135031684665376E-003	-4.0135846E-001	-4.0143737E-001	1.8798713E+005	2.800819949894503E+001
-2.219048047993267E-003	-4.0335831E-001	-4.0343738E-001	1.8177088E+005	2.820819949389261E+001
-2.257691889004206E-003	-4.0536055E-001	-4.0543732E-001	1.7954644E+005	2.840819948884018E+001
-2.308961864839018E-003	-4.0737936E-001	-4.0743735E-001	1.7643398E+005	2.860819948378776E+001
-2.382450580213573E-003	-4.0936369E-001	-4.0943739E-001	1.7182463E+005	2.880819947873533E+001
-2.464508166341808E-003	-4.1132817E-001	-4.1143733E-001	1.6690072E+005	2.900819947368291E+001
-2.523401011084406E-003	-4.1339004E-001	-4.1343734E-001	1.6382258E+005	2.920819946863048E+001
-2.557567262779128E-003	-4.1533980E-001	-4.1543737E-001	1.6239644E+005	2.940819946357806E+001
-2.663700591041705E-003	-4.1735622E-001	-4.1743731E-001	1.5668286E+005	2.960819945852563E+001
-2.704383047017887E-003	-4.1934893E-001	-4.1943735E-001	1.5506270E+005	2.980819945347321E+001
-2.787262306932277E-003	-4.2139870E-001	-4.2143735E-001	1.5118731E+005	3.000819944842078E+001
-2.851311475182375E-003	-4.2331707E-001	-4.2343736E-001	1.4846398E+005	3.020819944336836E+001
-2.939888855200613E-003	-4.2536110E-001	-4.2543733E-001	1.4468611E+005	3.040819943831593E+001
-2.978489814448732E-003	-4.2740002E-001	-4.2743737E-001	1.4349555E+005	3.060819943326351E+001
-3.033063660316412E-003	-4.2937678E-001	-4.2943734E-001	1.4156538E+005	3.080819942821108E+001
-3.139738237875066E-003	-4.3140960E-001	-4.3143734E-001	1.3740305E+005	3.100819942315866E+001
-3.222708718804604E-003	-4.3337974E-001	-4.3343735E-001	1.3447686E+005	3.120819941810623E+001
-3.283070144149915E-003	-4.3534252E-001	-4.3543738E-001	1.3260227E+005	3.140819941305381E+001
-3.345528796083942E-003	-4.3737847E-001	-4.3743736E-001	1.3073523E+005	3.160819940800138E+001
-3.447029318668682E-003	-4.3940425E-001	-4.3943736E-001	1.2747331E+005	3.180819940294896E+001
-3.527629286808207E-003	-4.4139582E-001	-4.4143736E-001	1.2512534E+005	3.200819939789653E+001
-3.559483864847768E-003	-4.4335771E-001	-4.4343737E-001	1.2455674E+005	3.220819939284411E+001
-3.657582811273416E-003	-4.4542593E-001	-4.4543734E-001	1.2178150E+005	3.240819938779168E+001
-3.768850972294145E-003	-4.4738024E-001	-4.4743732E-001	1.1870468E+005	3.260819938273926E+001
-3.816933486189084E-003	-4.4933707E-001	-4.4943738E-001	1.1772201E+005	3.280819937768683E+001
-3.871171290486279E-003	-4.5134586E-001	-4.5143738E-001	1.1659155E+005	3.300819937263441E+001
-3.981056639560608E-003	-4.5338282E-001	-4.5343733E-001	1.1388505E+005	3.320819936758198E+001
-4.057040015786464E-003	-4.5533988E-001	-4.5543736E-001	1.1223451E+005	3.340819936252956E+001
-4.162570448530806E-003	-4.5741615E-001	-4.5743737E-001	1.0988791E+005	3.360819935747713E+001
-4.259151014905392E-003	-4.5936704E-001	-4.5943731E-001	1.0785413E+005	3.380819935242471E+001
-4.314089794198422E-003	-4.6135539E-001	-4.6143734E-001	1.0694154E+005	3.400819934737228E+001
-4.402157524349845E-003	-4.6337631E-001	-4.6343738E-001	1.0526119E+005	3.420819934231986E+001
-4.481825353976329E-003	-4.6532041E-001	-4.6543735E-001	1.0382386E+005	3.440819933726743E+001
-4.590632877502136E-003	-4.6735868E-001	-4.6743733E-001	1.0180702E+005	3.460819933221501E+001
-4.672347947843207E-003	-4.6936575E-001	-4.6943736E-001	1.0045608E+005	3.480819932716258E+001
-4.766742102285712E-003	-4.7135124E-001	-4.7143739E-001	9.8883313E+004	3.500819932211016E+001
-4.830659055878317E-003	-4.7339588E-001	-4.7343734E-001	9.7998195E+004	3.520819931705773E+001
-4.953513912944470E-003	-4.7537646E-001	-4.7543734E-001	9.5967523E+004	3.540819931200531E+001
-5.069392791120567E-003	-4.7735155E-001	-4.7743738E-001	9.4163453E+004	3.560819930695288E+001
-5.144585334439022E-003	-4.7932577E-001	-4.7943735E-001	9.3170922E+004	3.580819930190046E+001
-5.252085713271827E-003	-4.8135236E-001	-4.8143736E-001	9.1649750E+004	3.600819929684803E+001
-5.351281777204314E-003	-4.8332781E-001	-4.8343739E-001	9.0320008E+004	3.620819929179561E+001
-5.434202592414193E-003	-4.8541543E-001	-4.8543736E-001	8.9325969E+004	3.640819928674318E+001
-5.531602801452595E-003	-4.8736098E-001	-4.8743734E-001	8.8104844E+004	3.660819928169076E+001
-5.648774380605293E-003	-4.8934001E-001	-4.8943734E-001	8.6627641E+004	3.680819927663833E+001
-5.734209822796495E-003	-4.9137834E-001	-4.9143741E-001	8.5692422E+004	3.700819927158591E+001
-5.847326984120625E-003	-4.9332431E-001	-4.9343735E-001	8.4367492E+004	3.720819926653348E+001
-5.942046031123055E-003	-4.9536833E-001	-4.9543732E-001	8.3366625E+004	3.740819926148106E+001
-6.053656372312931E-003	-4.9738732E-001	-4.9743736E-001	8.2163125E+004	3.760819925642863E+001
-6.155741149773436E-003	-4.9934664E-001	-4.9943733E-001	8.1118852E+004	3.780819925137621E+001
-6.268333194380344E-003	-5.0136435E-001	-5.0143731E-001	7.9983680E+004	3.800819924632378E+001
-6.408786271670269E-003	-5.0333142E-001	-5.0343734E-001	7.8537711E+004	3.820819924127136E+001
-6.490014563816204E-003	-5.0535357E-001	-5.0543737E-001	7.7866320E+004	3.840819923621893E+001
-6.626950700510226E-003	-5.0731993E-001	-5.0743735E-001	7.6554055E+004	3.860819923116651E+001
-6.740828268765861E-003	-5.0936079E-001	-5.0943732E-001	7.5563531E+004	3.880819922611408E+001
-6.837422934428346E-003	-5.1140243E-001	-5.1143736E-001	7.4794617E+004	3.900819922106166E+001
-6.979936554137298E-003	-5.1330453E-001	-5.1343739E-001	7.3540000E+004	3.920819921600923E+001
-7.074515951127930E-003	-5.1535910E-001	-5.1543736E-001	7.2847258E+004	3.940819921095681E+001
-7.200540624302317E-003	-5.1741165E-001	-5.1743734E-001	7.1857336E+004	3.960819920590438E+001
-7.357795780396310E-003	-5.1938945E-001	-5.1943737E-001	7.0590359E+004	3.980819920085196E+001
-7.415380037261415E-003	-5.2132589E-001	-5.2143729E-001	7.0303328E+004	4.000819919579953E+001
-7.545500819435613E-003	-5.2332389E-001	-5.2343738E-001	6.9355750E+004	4.020819919074711E+001
-7.697088005472072E-003	-5.2539593E-001	-5.2543741E-001	6.8259055E+004	4.040819918569468E+001
-7.791044066323249E-003	-5.2736467E-001	-5.2743739E-001	6.7688578E+004	4.060819918064226E+001
-7.937318736820874E-003	-5.2934939E-001	-5.2943736E-001	6.6691211E+004	4.080819917558983E+001
-8.079757864846774E-003	-5.3138393E-001	-5.3143734E-001	6.5767313E+004	4.100819917053741E+001
-8.171170770231315E-003	-5.3332561E-001	-5.3343743E-001	6.5269180E+004	4.120819916548498E+001
-8.324801802657392E-003	-5.3543055E-001	-5.3543729E-001	6.4317512E+004	4.140819916043256E+001
-8.426632958714070E-003	-5.3733557E-001	-5.3743732E-001	6.3766344E+004	4.160819915538013E+001
-8.585726128613413E-003	-5.3933340E-001	-5.3943741E-001	6.2817449E+004	4.180819915032771E+001
-8.708666249937561E-003	-5.4138982E-001	-5.4143733E-001	6.2166789E+004	4.200819914527528E+001
-8.854564424045058E-003	-5.4336601E-001	-5.4343736E-001	6.1365641E+004	4.220819914022286E+001
-9.012107999230828E-003	-5.4541624E-001	-5.4543734E-001	6.0520383E+004	4.240819913517043E+001
-9.133780390367881E-003	-5.4732680E-001	-5.4743743E-001	5.9923359E+004	4.260819913011801E+001
-9.261676363352400E-003	-5.4935551E-001	-5.4943734E-001	5.9314910E+004	4.280819912506558E+001
-9.417842020193010E-003	-5.5139315E-001	-5.5143738E-001	5.8547719E+004	4.300819912001316E+001
-9.554558463158121E-003	-5.5338174E-001	-5.5343741E-001	5.7918086E+004	4.320819911496073E+001
-9.725079181867546E-003	-5.5536127E-001	-5.5543733E-001	5.7106094E+004	4.340819910990831E+001
-9.846148398230226E-003	-5.5740553E-001	-5.5743736E-001	5.6611531E+004	4.360819910485588E+001
-9.984144137416218E-003	-5.5942243E-001	-5.5943739E-001	5.6031086E+004	4.380819909980346E+001
-1.015351496635811E-002	-5.6138068E-001	-5.6143737E-001	5.5289297E+004	4.400819909475103E+001
-1.031479170366961E-002	-5.6339103E-001	-5.6343734E-001	5.4619719E+004	4.420819908969861E+001
-1.047345072922218E-002	-5.6539851E-001	-5.6543738E-001	5.3983977E+004	4.440819908464618E+001
-1.061135738092325E-002	-5.6734067E-001	-5.6743741E-001	5.3465418E+004	4.460819907959376E+001
-1.073690157942267E-002	-5.6930804E-001	-5.6943733E-001	5.3023496E+004	4.480819907454134E+001
-1.090771622926499E-002	-5.7134384E-001	-5.7143730E-001	5.2379785E+004	4.500819906948891E+001
-1.103877123687344E-002	-5.7331890E-001	-5.7343739E-001	5.1936840E+004	4.520819906443649E+001
-1.117996490692988E-002	-5.7526362E-001	-5.7543731E-001	5.1454867E+004	4.540819905938406E+001
-1.139813170063758E-002	-5.7735854E-001	-5.7743734E-001	5.0653789E+004	4.560819905433164E+001
-1.153700482956863E-002	-5.7939494E-001	-5.7943738E-001	5.0220566E+004	4.580819904927921E+001
-1.167966829275752E-002	-5.8132261E-001	-5.8143741E-001	4.9772184E+004	4.600819904422679E+001
-1.185004904263290E-002	-5.8334124E-001	-5.8343732E-001	4.9226906E+004	4.620819903917436E+001
-1.204610625636984E-002	-5.8536571E-001	-5.8543736E-001	4.8593770E+004	4.640819903412194E+001
-1.219050305652116E-002	-5.8728772E-001	-5.8743739E-001	4.8175840E+004	4.660819902906951E+001
-1.237459352349252E-002	-5.8941406E-001	-5.8943737E-001	4.7630984E+004	4.680819902401709E+001
-1.249062940977251E-002	-5.9136856E-001	-5.9143734E-001	4.7344977E+004	4.700819901896466E+001
-1.269572587193318E-002	-5.9338289E-001	-5.9343737E-001	4.6738793E+004	4.720819901391224E+001
-1.285205734840889E-002	-5.9533632E-001	-5.9543741E-001	4.6322258E+004	4.740819900885981E+001
-1.301251691048061E-002	-5.9733707E-001	-5.9743738E-001	4.5904805E+004	4.760819900380739E+001
-1.315574670200448E-002	-5.9933311E-001	-5.9943736E-001	4.5556754E+004	4.780819899875496E+001
-1.334276749811070E-002	-6.0136735E-001	-6.0143739E-001	4.5070660E+004	4.800819899370254E+001
-1.355139405546868E-002	-6.0335386E-001	-6.0343736E-001	4.4523379E+004	4.820819898865011E+001
-1.369645368215966E-002	-6.0540760E-001	-6.0543734E-001	4.4201777E+004	4.840819898359769E+001
-1.391267520032378E-002	-6.0739332E-001	-6.0743737E-001	4.3657551E+004	4.860819897854526E+001
-1.405624246785453E-002	-6.0934526E-001	-6.0943735E-001	4.3350508E+004	4.880819897349284E+001
-1.421391823574003E-002	-6.1136764E-001	-6.1143732E-001	4.3011902E+004	4.900819896844041E+001
-1.437947291380870E-002	-6.1335772E-001	-6.1343735E-001	4.2655090E+004	4.920819896338799E+001
-1.457297390940876E-002	-6.1543995E-001	-6.1543739E-001	4.2231598E+004	4.940819895833556E+001
-1.477945385310192E-002	-6.1739761E-001	-6.1743736E-001	4.1774047E+004	4.960819895328314E+001
-1.491589803943449E-002	-6.1940497E-001	-6.1943734E-001	4.1526496E+004	4.980819894823071E+001
-1.513429403227445E-002	-6.2145531E-001	-6.2143737E-001	4.1062723E+004	5.000819894317829E+001
-1.529342726653321E-002	-6.2347871E-001	-6.2343740E-001	4.0767758E+004	5.020819893812586E+001
-1.548121525148938E-002	-6.2541693E-001	-6.2543732E-001	4.0398438E+004	5.040819893307344E+001
-1.566593507790517E-002	-6.2737286E-001	-6.2743735E-001	4.0046945E+004	5.060819892802101E+001
-1.586097471963486E-002	-6.2943125E-001	-6.2943745E-001	3.9684273E+004	5.080819892296859E+001
-1.598505148808779E-002	-6.3138491E-001	-6.3143736E-001	3.9498461E+004	5.100819891791616E+001
-1.613440324566612E-002	-6.3340122E-001	-6.3343740E-001	3.9257801E+004	5.120819891286374E+001
-1.634041418476129E-002	-6.3533950E-001	-6.3543737E-001	3.8881480E+004	5.140819890781131E+001
-1.653950152823136E-002	-6.3735694E-001	-6.3743740E-001	3.8535438E+004	5.160819890275889E+001
-1.671468678971672E-002	-6.3940907E-001	-6.3943732E-001	3.8254324E+004	5.180819889770646E+001
-1.693156910645765E-002	-6.4142787E-001	-6.4143735E-001	3.7883547E+004	5.200819889265404E+001
-1.712543015418971E-002	-6.4348674E-001	-6.4343745E-001	3.7574926E+004	5.220819888760161E+001
-1.727745542249931E-002	-6.4546412E-001	-6.4543730E-001	3.7358750E+004	5.240819888254919E+001
-1.745601368185273E-002	-6.4733690E-001	-6.4743733E-001	3.7083891E+004	5.260819887749676E+001
-1.764741350522857E-002	-6.4940679E-001	-6.4943743E-001	3.6798980E+004	5.280819887244434E+001
-1.780417898765929E-002	-6.5143490E-001	-6.5143734E-001	3.6588875E+004	5.300819886739191E+001
-1.800945079465699E-002	-6.5335602E-001	-6.5343732E-001	3.6278508E+004	5.320819886233949E+001
-1.817847619927648E-002	-6.5536952E-001	-6.5543735E-001	3.6051949E+004	5.340819885728706E+001
-1.836056796735672E-002	-6.5745687E-001	-6.5743744E-001	3.5808090E+004	5.360819885223464E+001
-1.854197618268039E-002	-6.5942448E-001	-6.5943736E-001	3.5563871E+004	5.380819884718221E+001
-1.875715639034081E-002	-6.6135311E-001	-6.6143733E-001	3.5258707E+004	5.400819884212979E+001
-1.894290608859706E-002	-6.6341150E-001	-6.6343743E-001	3.5021633E+004	5.420819883707736E+001
-1.909900403184533E-002	-6.6536450E-001	-6.6543734E-001	3.4837656E+004	5.440819883202494E+001
-1.930844736847259E-002	-6.6740960E-001	-6.6743737E-001	3.4565680E+004	5.460819882697251E+001
-1.946536440688953E-002	-6.6942871E-001	-6.6943735E-001	3.4390762E+004	5.480819882192009E+001
-1.966164267860570E-002	-6.7141145E-001	-6.7143738E-001	3.4148289E+004	5.500819881686766E+001
-1.982753346169939E-002	-6.7342359E-001	-6.7343736E-001	3.3964063E+004	5.520819881181524E+001
-2.001127017708920E-002	-6.7534393E-001	-6.7543733E-001	3.3748180E+004	5.540819880676281E+001
-2.022688809131284E-002	-6.7740709E-001	-6.7743742E-001	3.3490426E+004	5.560819880171039E+001
-2.040293495249446E-002	-6.7938578E-001	-6.7943734E-001	3.3298434E+004	5.580819879665796E+001
-2.060515654593809E-002	-6.8144232E-001	-6.8143731E-001	3.3071445E+004	5.600819879160554E+001
-2.082269859913094E-002	-6.8340528E-001	-6.8343741E-001	3.2820207E+004	5.620819878655311E+001
-2.093878999294901E-002	-6.8533832E-001	-6.8543732E-001	3.2730561E+004	5.640819878150069E+001
-2.118184965839306E-002	-6.8735749E-001	-6.8743736E-001	3.2450305E+004	5.660819877644826E+001
-2.137850278124209E-002	-6.8939775E-001	-6.8943733E-001	3.2247242E+004	5.680819877139584E+001
-2.155011084908515E-002	-6.9139183E-001	-6.9143742E-001	3.2082982E+004	5.700819876634341E+001
-2.178154291892359E-002	-6.9340110E-001	-6.9343734E-001	3.1834342E+004	5.720819876129099E+001
-2.196280914939552E-002	-6.9542772E-001	-6.9543731E-001	3.1663879E+004	5.740819875623856E+001
-2.216100333313419E-002	-6.9742042E-001	-6.9743741E-001	3.1470615E+004	5.760819875118614E+001
-2.235353258219308E-002	-6.9939280E-001	-6.9943738E-001	3.1287797E+004	5.780819874613371E+001
-2.257325394829318E-002	-7.0147455E-001	-7.0143735E-001	3.1075473E+004	5.800819874108129E+001
-2.277139313344789E-002	-7.0338655E-001	-7.0343739E-001	3.0889043E+004	5.820819873602886E+001
-2.295783923225073E-002	-7.0540380E-001	-7.0543742E-001	3.0726055E+004	5.840819873097644E+001
-2.314530570950168E-002	-7.0736504E-001	-7.0743740E-001	3.0561922E+004	5.860819872592401E+001
-2.337746788489431E-002	-7.0937073E-001	-7.0943737E-001	3.0344207E+004	5.880819872087159E+001
-2.357746750805867E-002	-7.1142322E-001	-7.1143746E-001	3.0173861E+004	5.900819871581916E+001
-2.380133714144644E-002	-7.1336722E-001	-7.1343738E-001	2.9971729E+004	5.920819871076674E+001
-2.401142015875273E-002	-7.1544272E-001	-7.1543735E-001	2.9795936E+004	5.940819870571431E+001
-2.420796365572186E-002	-7.1741694E-001	-7.1743739E-001	2.9635576E+004	5.960819870066189E+001
-2.444024173352263E-002	-7.1938258E-001	-7.1943742E-001	2.9434348E+004	5.980819869560946E+001
-2.464842211978846E-002	-7.2139955E-001	-7.2143739E-001	2.9267574E+004	6.000819869055704E+001
-2.488359161747666E-002	-7.2339880E-001	-7.2343737E-001	2.9071318E+004	6.020819868550461E+001
-2.507217642993723E-002	-7.2538990E-001	-7.2543746E-001	2.8932066E+004	6.040819868045219E+001
-2.532227403989018E-002	-7.2743815E-001	-7.2743744E-001	2.8727205E+004	6.060819867539976E+001
-2.554706365050646E-002	-7.2940874E-001	-7.2943729E-001	2.8551568E+004	6.080819867034734E+001
-2.572664879410269E-002	-7.3144925E-001	-7.3143739E-001	2.8431578E+004	6.100819866529491E+001
-2.599291287995070E-002	-7.3341376E-001	-7.3343736E-001	2.8215912E+004	6.120819866024249E+001
-2.621745452461155E-002	-7.3546118E-001	-7.3543733E-001	2.8052350E+004	6.140819865519006E+001
-2.647547156401098E-002	-7.3741406E-001	-7.3743743E-001	2.7852727E+004	6.160819865013764E+001
-2.668801793652265E-002	-7.3939121E-001	-7.3943740E-001	2.7704988E+004	6.180819864508521E+001
-2.691173824495396E-002	-7.4143761E-001	-7.4143738E-001	2.7550715E+004	6.200819864003279E+001
-2.716134367389245E-002	-7.4341875E-001	-7.4343735E-001	2.7370471E+004	6.220819863498036E+001
-2.742448234967584E-002	-7.4538767E-001	-7.4543744E-001	2.7179645E+004	6.240819862992794E+001
-2.765518541436218E-002	-7.4744171E-001	-7.4743742E-001	2.7027182E+004	6.260819862487551E+001
-2.791932679220710E-002	-7.4941820E-001	-7.4943739E-001	2.6842273E+004	6.280819861982309E+001
-2.818820886461737E-002	-7.5140131E-001	-7.5143737E-001	2.6656582E+004	6.300819861477066E+001
-2.844478809454232E-002	-7.5342184E-001	-7.5343740E-001	2.6487166E+004	6.320819860971824E+001
-2.868946483084200E-002	-7.5536418E-001	-7.5543737E-001	2.6328975E+004	6.340819860466581E+001
-2.896657340675213E-002	-7.5738853E-001	-7.5743735E-001	2.6146984E+004	6.360819859961339E+001
-2.922612246835507E-002	-7.5940710E-001	-7.5943744E-001	2.5983848E+004	6.380819859456096E+001
-2.952240827934755E-002	-7.6136792E-001	-7.6143742E-001	2.5789492E+004	6.400819858950854E+001
-2.979226456242320E-002	-7.6341742E-001	-7.6343739E-001	2.5624686E+004	6.420819858445611E+001
-3.008450950810559E-002	-7.6544112E-001	-7.6543736E-001	2.5443031E+004	6.440819857940369E+001
-3.040929166959117E-002	-7.6741254E-001	-7.6743746E-001	2.5236121E+004	6.460819857435126E+001
-3.070106268137068E-002	-7.6945084E-001	-7.6943731E-001	2.5062678E+004	6.480819856929884E+001
-3.097584403237191E-002	-7.7140611E-001	-7.7143741E-001	2.4903473E+004	6.500819856424641E+001
-3.130194439807210E-002	-7.7333051E-001	-7.7343750E-001	2.4705510E+004	6.520819855919399E+001
-3.164276515520154E-002	-7.7540904E-001	-7.7543736E-001	2.4505098E+004	6.540819855414156E+001
-3.196082701389164E-002	-7.7739632E-001	-7.7743733E-001	2.4323410E+004	6.560819854908914E+001
-3.243233162467318E-002	-7.7938384E-001	-7.7943742E-001	2.4031076E+004	6.580819854403671E+001
-3.285968927888283E-002	-7.8136504E-001	-7.8143740E-001	2.3778832E+004	6.600819853898429E+001
-3.311355425759753E-002	-7.8340340E-001	-7.8343737E-001	2.3658088E+004	6.620819853393186E+001
-3.344805085769664E-002	-7.8540152E-001	-7.8543741E-001	2.3481234E+004	6.640819852887944E+001
-3.379181438192200E-002	-7.8740168E-001	-7.8743750E-001	2.3301551E+004	6.660819852382701E+001
-3.414608197167412E-002	-7.8936630E-001	-7.8943741E-001	2.3117332E+004	6.680819851877459E+001
-3.452479910335654E-002	-7.9142457E-001	-7.9143733E-001	2.2923365E+004	6.700819851372216E+001
-3.493102191727765E-002	-7.9342330E-001	-7.9343748E-001	2.2714002E+004	6.720819850866974E+001
-3.534240613278630E-002	-7.9540628E-001	-7.9543746E-001	2.2505719E+004	6.740819850361731E+001
-3.576108440334420E-002	-7.9742867E-001	-7.9743743E-001	2.2298783E+004	6.760819849856489E+001
-3.619514692225234E-002	-7.9941159E-001	-7.9943740E-001	2.2086154E+004	6.780819849351246E+001
-3.663240321552835E-002	-8.0136496E-001	-8.0143744E-001	2.1875850E+004	6.800819848846004E+001
-3.710229029903273E-002	-8.0342048E-001	-8.0343741E-001	2.1654201E+004	6.820819848340761E+001
-3.755718208516812E-002	-8.0537701E-001	-8.0543739E-001	2.1444021E+004	6.840819847835519E+001
-3.806211039357428E-002	-8.0740178E-001	-8.0743748E-001	2.1212744E+004	6.860819847330276E+001
-3.857388022638725E-002	-8.0943364E-001	-8.0943745E-001	2.0983982E+004	6.880819846825034E+001
-3.907741256989547E-002	-8.1136787E-001	-8.1143743E-001	2.0763092E+004	6.900819846319791E+001
-3.959877779913209E-002	-8.1334752E-001	-8.1343740E-001	2.0539713E+004	6.920819845814549E+001
-4.017641409083796E-002	-8.1542486E-001	-8.1543738E-001	2.0296109E+004	6.940819845309306E+001
-4.071827704728914E-002	-8.1740171E-001	-8.1743747E-001	2.0074564E+004	6.960819844804064E+001
-4.131524748054860E-002	-8.1941193E-001	-8.1943738E-001	1.9833160E+004	6.980819844298821E+001
-4.193976551902540E-002	-8.2140768E-001	-8.2143748E-001	1.9585414E+004	7.000819843793579E+001
-4.258600210131075E-002	-8.2345843E-001	-8.2343751E-001	1.9336363E+004	7.020819843288336E+001
-4.323777071434731E-002	-8.2541943E-001	-8.2543731E-001	1.9090240E+004	7.040819842783094E+001
-4.389204946716130E-002	-8.2740360E-001	-8.2743746E-001	1.8850877E+004	7.060819842277851E+001
-4.459203766419220E-002	-8.2938015E-001	-8.2943743E-001	1.8599287E+004	7.080819841772609E+001
-4.531084291601045E-002	-8.3140910E-001	-8.3143741E-001	1.8349010E+004	7.100819841267366E+001
-4.605536450433406E-002	-8.3341730E-001	-8.3343744E-001	1.8095988E+004	7.120819840762124E+001
-4.683157107307079E-002	-8.3538467E-001	-8.3543742E-001	1.7838066E+004	7.140819840256881E+001
-4.764715822354426E-002	-8.3742869E-001	-8.3743745E-001	1.7575627E+004	7.160819839751639E+001
-4.845482534428014E-002	-8.3942717E-001	-8.3943737E-001	1.7323912E+004	7.180819839246396E+001
-4.928089151910742E-002	-8.4141982E-001	-8.4143746E-001	1.7073957E+004	7.200819838741154E+001
-5.020220205610160E-002	-8.4341943E-001	-8.4343743E-001	1.6800447E+004	7.220819838235911E+001
-5.110498799788249E-002	-8.4539807E-001	-8.4543741E-001	1.6542379E+004	7.240819837730669E+001
-5.207544772319794E-002	-8.4740120E-001	-8.4743738E-001	1.6272566E+004	7.260819837225426E+001
-5.309503643547542E-002	-8.4940237E-001	-8.4943748E-001	1.5997773E+004	7.280819836720184E+001
-5.409097543003161E-002	-8.5140878E-001	-8.5143745E-001	1.5740312E+004	7.300819836214941E+001
-5.515754435954801E-002	-8.5342932E-001	-8.5343736E-001	1.5472576E+004	7.320819835709699E+001
-5.625721087041484E-002	-8.5538602E-001	-8.5543752E-001	1.5204913E+004	7.340819835204456E+001
-5.740652629543866E-002	-8.5737318E-001	-8.5743749E-001	1.4935117E+004	7.360819834699214E+001
-5.860133554951152E-002	-8.5938185E-001	-8.5943735E-001	1.4664885E+004	7.380819834193971E+001
-5.984039250296651E-002	-8.6140865E-001	-8.6143744E-001	1.4395104E+004	7.400819833688729E+001
-6.113696626921827E-002	-8.6343038E-001	-8.6343753E-001	1.4122886E+004	7.420819833183486E+001
-6.246385079293271E-002	-8.6544281E-001	-8.6543739E-001	1.3855099E+004	7.440819832678244E+001
-6.384812553398467E-002	-8.6739087E-001	-8.6743742E-001	1.3585221E+004	7.460819832173001E+001
-6.528260372790273E-002	-8.6942929E-001	-8.6943746E-001	1.3317933E+004	7.480819831667759E+001
-6.683931386788855E-002	-8.7136036E-001	-8.7143743E-001	1.3036645E+004	7.500819831162516E+001
-6.836165368922287E-002	-8.7342262E-001	-8.7343740E-001	1.2776499E+004	7.520819830657274E+001
-7.002340287208772E-002	-8.7540472E-001	-8.7543744E-001	1.2501602E+004	7.540819830152032E+001
-7.168745840720148E-002	-8.7739056E-001	-8.7743747E-001	1.2239108E+004	7.560819829646789E+001
-7.345233934502743E-002	-8.7935650E-001	-8.7943739E-001	1.1971797E+004	7.580819829141547E+001
-7.532537698137484E-002	-8.8138121E-001	-8.8143736E-001	1.1700986E+004	7.600819828636304E+001
-7.723572651502986E-002	-8.8340139E-001	-8.8343745E-001	1.1437730E+004	7.620819828131062E+001
-7.926452068174833E-002	-8.8544106E-001	-8.8543743E-001	1.1170711E+004	7.640819827625819E+001
-8.136438638713117E-002	-8.8752425E-001	-8.8743740E-001	1.0908019E+004	7.660819827120577E+001
-8.390833971580558E-002	-8.8946688E-001	-8.8943750E-001	1.0600459E+004	7.680819826615334E+001
-8.593283811808017E-002	-8.9137572E-001	-8.9143747E-001	1.0372935E+004	7.700819826110092E+001
-8.827613510588517E-002	-8.9341128E-001	-8.9343745E-001	1.0120644E+004	7.720819825604849E+001
-9.078656298439980E-002	-8.9541417E-001	-8.9543742E-001	9.8628496E+003	7.740819825099607E+001
-9.339768759053135E-002	-8.9744711E-001	-8.9743751E-001	9.6088789E+003	7.760819824594364E+001
-9.618098685959264E-002	-8.9939284E-001	-8.9943737E-001	9.3510459E+003	7.780819824089122E+001
-9.919037251354856E-002	-9.0152073E-001	-9.0153748E-001	9.0887930E+003	7.801819823558617E+001
-1.023499284207801E-001	-9.0357113E-001	-9.0363747E-001	8.8282539E+003	7.822819823028112E+001
-1.055498786868270E-001	-9.0559411E-001	-9.0563744E-001	8.5797744E+003	7.842819822522870E+001
-1.088767208659480E-001	-9.0756297E-001	-9.0763742E-001	8.3356934E+003	7.862819822017627E+001
-1.123701116226421E-001	-9.0958267E-001	-9.0963751E-001	8.0945249E+003	7.882819821512385E+001
-1.161126446130933E-001	-9.1162878E-001	-9.1163749E-001	7.8512446E+003	7.902819821007142E+001
-1.198625433567043E-001	-9.1362894E-001	-9.1363746E-001	7.6223057E+003	7.922819820501900E+001
-1.239040137232698E-001	-9.1562635E-001	-9.1563743E-001	7.3898037E+003	7.942819819996657E+001
-1.280956279830652E-001	-9.1761762E-001	-9.1763753E-001	7.1635356E+003	7.962819819491415E+001
-1.325760770857317E-001	-9.1961908E-001	-9.1963738E-001	6.9365386E+003	7.982819818986172E+001
-1.371568448317834E-001	-9.2160833E-001	-9.2163742E-001	6.7193755E+003	8.002819818480930E+001
-1.420287013945090E-001	-9.2361087E-001	-9.2363745E-001	6.5029873E+003	8.022819817975687E+001
-1.471546886925948E-001	-9.2563951E-001	-9.2563742E-001	6.2902480E+003	8.042819817470445E+001
-1.525227428665238E-001	-9.2759162E-001	-9.2763740E-001	6.0816611E+003	8.062819816965202E+001
-1.581175947042348E-001	-9.2960066E-001	-9.2963743E-001	5.8791729E+003	8.082819816459960E+001
-1.639819855943252E-001	-9.3162125E-001	-9.3163741E-001	5.6812412E+003	8.102819815954717E+001
-1.701478323352239E-001	-9.3360209E-001	-9.3363738E-001	5.4870054E+003	8.122819815449475E+001
-1.765302922460510E-001	-9.3564868E-001	-9.3563747E-001	5.3002158E+003	8.142819814944232E+001
-1.832339428914305E-001	-9.3763328E-001	-9.3763751E-001	5.1171377E+003	8.162819814438990E+001
-1.902027482350621E-001	-9.3961084E-001	-9.3963742E-001	4.9400488E+003	8.182819813933747E+001
-1.974101279431419E-001	-9.4157994E-001	-9.4163746E-001	4.7696636E+003	8.202819813428505E+001
-2.049436642980531E-001	-9.4355780E-001	-9.4363749E-001	4.6039863E+003	8.222819812923262E+001
-2.136172259209550E-001	-9.4558263E-001	-9.4563752E-001	4.4265278E+003	8.242819812418020E+001
-2.218445465897902E-001	-9.4762087E-001	-9.4763744E-001	4.2715537E+003	8.262819811912777E+001
-2.303121790517961E-001	-9.4959927E-001	-9.4963741E-001	4.1230962E+003	8.282819811407535E+001
-2.389973354675794E-001	-9.5160586E-001	-9.5163751E-001	3.9816589E+003	8.302819810902292E+001
-2.479047687141369E-001	-9.5360756E-001	-9.5363748E-001	3.8466689E+003	8.322819810397050E+001
-2.571384284007545E-001	-9.5559937E-001	-9.5563740E-001	3.7162837E+003	8.342819809891807E+001
-2.665923285486005E-001	-9.5757329E-001	-9.5763743E-001	3.5919011E+003	8.362819809386565E+001
-2.762558790591132E-001	-9.5962018E-001	-9.5963740E-001	3.4736643E+003	8.382819808881322E+001
-2.862056468079135E-001	-9.6158445E-001	-9.6163738E-001	3.3597676E+003	8.402819808376080E+001
-2.963871860395173E-001	-9.6359652E-001	-9.6363741E-001	3.2511409E+003	8.422819807870837E+001
-3.067335390703336E-001	-9.6559042E-001	-9.6563745E-001	3.1479780E+003	8.442819807365595E+001
-3.173535252539050E-001	-9.6760964E-001	-9.6763742E-001	3.0489961E+003	8.462819806860352E+001
-3.282534741731082E-001	-9.6960330E-001	-9.6963745E-001	2.9538250E+003	8.482819806355110E+001
-3.393610915477439E-001	-9.7161251E-001	-9.7163749E-001	2.8630640E+003	8.502819805849867E+001
-3.507411061699539E-001	-9.7359973E-001	-9.7363740E-001	2.7758359E+003	8.522819805344625E+001
-3.622841746303473E-001	-9.7563231E-001	-9.7563738E-001	2.6930029E+003	8.542819804839382E+001
-3.741701148311005E-001	-9.7763383E-001	-9.7763747E-001	2.6128057E+003	8.562819804334140E+001
-3.863014236637419E-001	-9.7958237E-001	-9.7963750E-001	2.5357981E+003	8.582819803828897E+001
-3.987838280579403E-001	-9.8157758E-001	-9.8163742E-001	2.4614277E+003	8.602819803323655E+001
-4.115373850789545E-001	-9.8359972E-001	-9.8363739E-001	2.3900618E+003	8.622819802818412E+001
-4.246478242770078E-001	-9.8559117E-001	-9.8563749E-001	2.3209614E+003	8.642819802313170E+001
-4.381493691295870E-001	-9.8758215E-001	-9.8763746E-001	2.2539851E+003	8.662819801807927E+001
-4.519337553345109E-001	-9.8962420E-001	-9.8963737E-001	2.1897549E+003	8.682819801302685E+001
-4.665839673778099E-001	-9.9155903E-001	-9.9163753E-001	2.1251460E+003	8.702819800797442E+001
-4.824146824992361E-001	-9.9363202E-001	-9.9363738E-001	2.0597051E+003	8.722819800292200E+001
-4.972956246461995E-001	-9.9558675E-001	-9.9563748E-001	2.0020018E+003	8.742819799786957E+001
-5.124320795172466E-001	-9.9761218E-001	-9.9763745E-001	1.9468184E+003	8.762819799281715E+001
-5.279178558563706E-001	-9.9963278E-001	-9.9963742E-001	1.8935385E+003	8.782819798776472E+001
-5.437272193750818E-001	-1.0016105E+000	-1.0016375E+000	1.8421195E+003	8.802819798271230E+001
-5.595857408742431E-001	-1.0035933E+000	-1.0036374E+000	1.7934576E+003	8.822819797765987E+001
-5.756031849216710E-001	-1.0056143E+000	-1.0056374E+000	1.7470616E+003	8.842819797260745E+001
-5.919601512046508E-001	-1.0076140E+000	-1.0076374E+000	1.7021653E+003	8.862819796755502E+001
-6.083888610753121E-001	-1.0096246E+000	-1.0096374E+000	1.6595054E+003	8.882819796250260E+001
-6.248498592787588E-001	-1.0116118E+000	-1.0116374E+000	1.6189678E+003	8.902819795745017E+001
-6.415470338251259E-001	-1.0136092E+000	-1.0136374E+000	1.5799452E+003	8.922819795239775E+001
-6.581534691948994E-001	-1.0155920E+000	-1.0156374E+000	1.5430929E+003	8.942819794734532E+001
-6.747321566005073E-001	-1.0175856E+000	-1.0176374E+000	1.5081327E+003	8.962819794229290E+001
-6.915043011949719E-001	-1.0196338E+000	-1.0196375E+000	1.4745154E+003	8.982819793724047E+001
-7.080970829787763E-001	-1.0216058E+000	-1.0216374E+000	1.4427483E+003	9.002819793218805E+001
-7.249457998425104E-001	-1.0236444E+000	-1.0236374E+000	1.4120289E+003	9.022819792713562E+001
-7.439954577398229E-001	-1.0256380E+000	-1.0256374E+000	1.3785541E+003	9.042819792208320E+001
-7.604694151216087E-001	-1.0276599E+000	-1.0276374E+000	1.3513494E+003	9.062819791703078E+001
-7.767556187973392E-001	-1.0296572E+000	-1.0296375E+000	1.3255872E+003	9.082819791197835E+001
-7.929043649461383E-001	-1.0316398E+000	-1.0316374E+000	1.3010898E+003	9.102819790692593E+001
-8.089208420695542E-001	-1.0336096E+000	-1.0336374E+000	1.2777637E+003	9.122819790187350E+001
-8.248508847202434E-001	-1.0356388E+000	-1.0356374E+000	1.2555468E+003	9.142819789682108E+001
-8.405291697774882E-001	-1.0376198E+000	-1.0376374E+000	1.2344840E+003	9.162819789176865E+001
-8.562432396354485E-001	-1.0396483E+000	-1.0396374E+000	1.2141974E+003	9.182819788671623E+001
-8.717279658735198E-001	-1.0416564E+000	-1.0416375E+000	1.1949329E+003	9.202819788166380E+001
-8.871515037538344E-001	-1.0436068E+000	-1.0436375E+000	1.1763568E+003	9.222819787661138E+001
-9.024969772382931E-001	-1.0456359E+000	-1.0456375E+000	1.1586033E+003	9.242819787155895E+001
-9.177004920314467E-001	-1.0476302E+000	-1.0476375E+000	1.1415818E+003	9.262819786650653E+001
-9.329087351978931E-001	-1.0496342E+000	-1.0496374E+000	1.1251200E+003	9.282819786145410E+001
-9.482714236880732E-001	-1.0516574E+000	-1.0516375E+000	1.1090258E+003	9.302819785640168E+001
-9.634139970232116E-001	-1.0536000E+000	-1.0536375E+000	1.0936108E+003	9.322819785134925E+001
-9.784518112164520E-001	-1.0556641E+000	-1.0556375E+000	1.0789127E+003	9.342819784629683E+001
-9.953386673361679E-001	-1.0576246E+000	-1.0576375E+000	1.0625776E+003	9.362819784124440E+001
-1.011692053893929E+000	-1.0596169E+000	-1.0596374E+000	1.0473710E+003	9.382819783619198E+001
-1.026889085034730E+000	-1.0616533E+000	-1.0616375E+000	1.0338539E+003	9.402819783113955E+001
-1.042210591851385E+000	-1.0636549E+000	-1.0636375E+000	1.0205758E+003	9.422819782608713E+001
-1.057604786354935E+000	-1.0656427E+000	-1.0656374E+000	1.0076001E+003	9.442819782103470E+001
-1.075091868272089E+000	-1.0676659E+000	-1.0677375E+000	9.9309277E+002	9.463819781572965E+001
-1.091718321366242E+000	-1.0697979E+000	-1.0698375E+000	9.7992114E+002	9.484819781042461E+001
-1.107636679056817E+000	-1.0717906E+000	-1.0718375E+000	9.6763733E+002	9.504819780537218E+001
-1.123814617940432E+000	-1.0738289E+000	-1.0738375E+000	9.5552142E+002	9.524819780031976E+001
-1.140173318916233E+000	-1.0757968E+000	-1.0758374E+000	9.4353796E+002	9.544819779526733E+001
-1.156860977994143E+000	-1.0777963E+000	-1.0778375E+000	9.3165588E+002	9.564819779021491E+001
-1.173902526734361E+000	-1.0797782E+000	-1.0798374E+000	9.1981927E+002	9.584819778516248E+001
-1.191305629309274E+000	-1.0818058E+000	-1.0818375E+000	9.0808423E+002	9.604819778011006E+001
-1.209290631926383E+000	-1.0837858E+000	-1.0838375E+000	8.9621613E+002	9.624819777505763E+001
-1.227406127424802E+000	-1.0857941E+000	-1.0858374E+000	8.8462494E+002	9.644819777000521E+001
-1.246913450332928E+000	-1.0877546E+000	-1.0878375E+000	8.7235773E+002	9.664819776495278E+001
-1.269907566425212E+000	-1.0898030E+000	-1.0898376E+000	8.5817505E+002	9.684819775990036E+001
-1.289924979961714E+000	-1.0917616E+000	-1.0918374E+000	8.4637604E+002	9.704819775484793E+001
-1.310586125494876E+000	-1.0937942E+000	-1.0938375E+000	8.3458398E+002	9.724819774979551E+001
-1.331866465635649E+000	-1.0957516E+000	-1.0958375E+000	8.2271887E+002	9.744819774474308E+001
-1.354055984490586E+000	-1.0977743E+000	-1.0978373E+000	8.1073035E+002	9.764819773969066E+001
-1.376999354847362E+000	-1.0997907E+000	-1.0998374E+000	7.9868640E+002	9.784819773463823E+001
-1.400870852662322E+000	-1.1017396E+000	-1.1018375E+000	7.8646765E+002	9.804819772958581E+001
-1.425638012444423E+000	-1.1037592E+000	-1.1038374E+000	7.7422119E+002	9.824819772453338E+001
-1.451059269940572E+000	-1.1057810E+000	-1.1058375E+000	7.6205084E+002	9.844819771948096E+001
-1.477545568968701E+000	-1.1077604E+000	-1.1078374E+000	7.4973010E+002	9.864819771442853E+001
-1.505630568514619E+000	-1.1098089E+000	-1.1098375E+000	7.3710571E+002	9.884819770937611E+001
-1.539543889505186E+000	-1.1117796E+000	-1.1118375E+000	7.2214868E+002	9.904819770432368E+001
-1.569972531705290E+000	-1.1137822E+000	-1.1138374E+000	7.0942780E+002	9.924819769927126E+001
-1.601832585911904E+000	-1.1158276E+000	-1.1158375E+000	6.9659436E+002	9.944819769421883E+001
-1.634846140096254E+000	-1.1177872E+000	-1.1178374E+000	6.8372626E+002	9.964819768916641E+001
-1.669236988268468E+000	-1.1197304E+000	-1.1198374E+000	6.7080371E+002	9.984819768411398E+001
-1.705882051617513E+000	-1.1217868E+000	-1.1218375E+000	6.5759930E+002	1.000481976790616E+002
-1.743997253173461E+000	-1.1237692E+000	-1.1238375E+000	6.4436407E+002	1.002481976740091E+002
-1.788679997447264E+000	-1.1257962E+000	-1.1258374E+000	6.2940057E+002	1.004481976689567E+002
-1.833568315505303E+000	-1.1277639E+000	-1.1278374E+000	6.1506506E+002	1.006481976639043E+002
-1.878265552408568E+000	-1.1297622E+000	-1.1298375E+000	6.0149225E+002	1.008481976588519E+002
-1.924602546558084E+000	-1.1317835E+000	-1.1318375E+000	5.8806091E+002	1.010481976537994E+002
-1.973510387550000E+000	-1.1337970E+000	-1.1338375E+000	5.7450775E+002	1.012481976487470E+002
-2.026294053867971E+000	-1.1357484E+000	-1.1358374E+000	5.6050519E+002	1.014481976436946E+002
-2.087168507565167E+000	-1.1377678E+000	-1.1378374E+000	5.4512500E+002	1.016481976386422E+002
-2.144800148667795E+000	-1.1397746E+000	-1.1398375E+000	5.3141296E+002	1.018481976335897E+002
-2.205378701171234E+000	-1.1417303E+000	-1.1418375E+000	5.1770264E+002	1.020481976285373E+002
-2.269097094514879E+000	-1.1437814E+000	-1.1438375E+000	5.0406897E+002	1.022481976234849E+002
-2.345970345580795E+000	-1.1457763E+000	-1.1458374E+000	4.8840186E+002	1.024481976184325E+002
-2.417097578783964E+000	-1.1478192E+000	-1.1478374E+000	4.7487497E+002	1.026481976133800E+002
-2.492442779310565E+000	-1.1498001E+000	-1.1498375E+000	4.6131451E+002	1.028481976083276E+002
-2.578527694927049E+000	-1.1517801E+000	-1.1518375E+000	4.4668130E+002	1.030481976032752E+002
-2.667101390811863E+000	-1.1537505E+000	-1.1538374E+000	4.3258594E+002	1.032481975982228E+002
-2.755519363733509E+000	-1.1557878E+000	-1.1558374E+000	4.1944464E+002	1.034481975931703E+002
-2.858049092734085E+000	-1.1577890E+000	-1.1578375E+000	4.0509766E+002	1.036481975881179E+002
-2.961264928198858E+000	-1.1597766E+000	-1.1598375E+000	3.9164905E+002	1.038481975830655E+002
-3.068765529361720E+000	-1.1617961E+000	-1.1618375E+000	3.7858743E+002	1.040481975780131E+002
-3.191417435636041E+000	-1.1638145E+000	-1.1638374E+000	3.6467010E+002	1.042481975729606E+002
-3.310340179607708E+000	-1.1658144E+000	-1.1658373E+000	3.5217358E+002	1.044481975679082E+002
-3.449561883836903E+000	-1.1677679E+000	-1.1678374E+000	3.3852643E+002	1.046481975628558E+002
-3.582123185400242E+000	-1.1697628E+000	-1.1698375E+000	3.2655573E+002	1.048481975578034E+002
-3.737644524395876E+000	-1.1717870E+000	-1.1718376E+000	3.1350949E+002	1.050481975527509E+002
-3.894936157800174E+000	-1.1738197E+000	-1.1738374E+000	3.0137070E+002	1.052481975476985E+002
-4.059896566531293E+000	-1.1757876E+000	-1.1758374E+000	2.8961023E+002	1.054481975426461E+002
-4.243179003701712E+000	-1.1778008E+000	-1.1778375E+000	2.7757507E+002	1.056481975375937E+002
-4.429574332134507E+000	-1.1797907E+000	-1.1798375E+000	2.6634406E+002	1.058481975325412E+002
-4.628909436348081E+000	-1.1817788E+000	-1.1818373E+000	2.5530394E+002	1.060481975274888E+002
-4.844708953044321E+000	-1.1837741E+000	-1.1838374E+000	2.4434370E+002	1.062481975224364E+002
-5.073399190797289E+000	-1.1857811E+000	-1.1858374E+000	2.3372517E+002	1.064481975173840E+002
-5.315761961228709E+000	-1.1877556E+000	-1.1878374E+000	2.2344032E+002	1.066481975123315E+002
-5.570263732554139E+000	-1.1897745E+000	-1.1898375E+000	2.1359393E+002	1.068481975072791E+002
-5.841357480878202E+000	-1.1917650E+000	-1.1918374E+000	2.0402191E+002	1.070481975022267E+002
-6.128808899767812E+000	-1.1937758E+000	-1.1938374E+000	1.9478104E+002	1.072481974971743E+002
-6.436289792766390E+000	-1.1957562E+000	-1.1958374E+000	1.8578346E+002	1.074481974921218E+002
-6.756759080081252E+000	-1.1978000E+000	-1.1978375E+000	1.7727434E+002	1.076481974870694E+002
-7.102258540470331E+000	-1.1997662E+000	-1.1998376E+000	1.6892741E+002	1.078481974820170E+002
-7.467034128247491E+000	-1.2017787E+000	-1.2018374E+000	1.6094458E+002	1.080481974769646E+002
-7.853133461980875E+000	-1.2037922E+000	-1.2038374E+000	1.5328813E+002	1.082481974719121E+002
-8.260693281686230E+000	-1.2058274E+000	-1.2058375E+000	1.4597169E+002	1.084481974668597E+002
-8.682506670622004E+000	-1.2078311E+000	-1.2078375E+000	1.3911089E+002	1.086481974618073E+002
-9.141461607753072E+000	-1.2097852E+000	-1.2098374E+000	1.3234045E+002	1.088481974567549E+002
-9.618020902482826E+000	-1.2118081E+000	-1.2118374E+000	1.2599350E+002	1.090481974517024E+002
-1.012909438456001E+001	-1.2137684E+000	-1.2138375E+000	1.1982990E+002	1.092481974466500E+002
-1.065708713561229E+001	-1.2158194E+000	-1.2158374E+000	1.1408553E+002	1.094481974415976E+002
-1.125814761300472E+001	-1.2178766E+000	-1.2179376E+000	1.0817735E+002	1.096581974362925E+002
-1.187597715523503E+001	-1.2199461E+000	-1.2200375E+000	1.0272385E+002	1.098681974309875E+002
-1.250444176164615E+001	-1.2220055E+000	-1.2220374E+000	9.7725716E+001	1.100681974259351E+002
-1.316235396786342E+001	-1.2239864E+000	-1.2240374E+000	9.2991447E+001	1.102681974208826E+002
-1.384756909652083E+001	-1.2260377E+000	-1.2260374E+000	8.8538124E+001	1.104681974158302E+002
-1.456697769459684E+001	-1.2280531E+000	-1.2280375E+000	8.4303902E+001	1.106681974107778E+002
-1.529689762205766E+001	-1.2300131E+000	-1.2300375E+000	8.0409317E+001	1.108681974057254E+002
-1.606615678199023E+001	-1.2320409E+000	-1.2320374E+000	7.6685478E+001	1.110681974006729E+002
-1.685592305727826E+001	-1.2340248E+000	-1.2340375E+000	7.3210159E+001	1.112681973956205E+002
-1.766814288030679E+001	-1.2360728E+000	-1.2360374E+000	6.9960541E+001	1.114681973905681E+002
-1.852752128939512E+001	-1.2380418E+000	-1.2380375E+000	6.6821770E+001	1.116681973855157E+002
-1.941015817802781E+001	-1.2400327E+000	-1.2400374E+000	6.3885757E+001	1.118681973804632E+002
-2.032039613883239E+001	-1.2420546E+000	-1.2420374E+000	6.1123543E+001	1.120681973754108E+002
-2.125071169959716E+001	-1.2440397E+000	-1.2440374E+000	5.8541080E+001	1.122681973703584E+002
-2.220189713053145E+001	-1.2460327E+000	-1.2460375E+000	5.6122803E+001	1.124681973653060E+002
-2.317244335650864E+001	-1.2480254E+000	-1.2480375E+000	5.3858170E+001	1.126681973602535E+002
-2.418406316658265E+001	-1.2500660E+000	-1.2500376E+000	5.1689663E+001	1.128681973552011E+002
-2.521163551053223E+001	-1.2520496E+000	-1.2520375E+000	4.9661575E+001	1.130681973501487E+002
-2.627711590050035E+001	-1.2540296E+000	-1.2540374E+000	4.7723259E+001	1.132681973450963E+002
-2.734982413067030E+001	-1.2560611E+000	-1.2560374E+000	4.5925747E+001	1.134681973400438E+002
-2.841269578603942E+001	-1.2580559E+000	-1.2580376E+000	4.4277950E+001	1.136681973349914E+002
-2.952737548832454E+001	-1.2600477E+000	-1.2600375E+000	4.2673882E+001	1.138681973299390E+002
-3.067563719814308E+001	-1.2620648E+000	-1.2620375E+000	4.1142254E+001	1.140681973248866E+002
-3.189678007675131E+001	-1.2640358E+000	-1.2640375E+000	3.9628948E+001	1.142681973198341E+002
-3.316393639197969E+001	-1.2660418E+000	-1.2660375E+000	3.8175255E+001	1.144681973147817E+002
-3.445618010972902E+001	-1.2680855E+000	-1.2680376E+000	3.6802845E+001	1.146681973097293E+002
-3.577369407001811E+001	-1.2700126E+000	-1.2700375E+000	3.5501301E+001	1.148681973046769E+002
-3.708370998981593E+001	-1.2720492E+000	-1.2720375E+000	3.4302101E+001	1.150681972996244E+002
-3.854180901526328E+001	-1.2741134E+000	-1.2740375E+000	3.3057957E+001	1.152681972945720E+002
-4.000244865314764E+001	-1.2760479E+000	-1.2760373E+000	3.1899246E+001	1.154681972895196E+002
-4.165178687340016E+001	-1.2780567E+000	-1.2780374E+000	3.0684320E+001	1.156681972844672E+002
-4.318930108503974E+001	-1.2800558E+000	-1.2800375E+000	2.9638260E+001	1.158681972794147E+002
-4.489406011866890E+001	-1.2820601E+000	-1.2820374E+000	2.8557455E+001	1.160681972743623E+002
-4.671924409574422E+001	-1.2840486E+000	-1.2840374E+000	2.7484362E+001	1.162681972693099E+002
-4.834253163645894E+001	-1.2860882E+000	-1.2860374E+000	2.6603659E+001	1.164681972642575E+002
-4.977558768687607E+001	-1.2880697E+000	-1.2880374E+000	2.5877539E+001	1.166681972592050E+002
-5.148465497045015E+001	-1.2900753E+000	-1.2900375E+000	2.5057472E+001	1.168681972541526E+002
-5.343228713617282E+001	-1.2921026E+000	-1.2920375E+000	2.4182056E+001	1.170681972491002E+002
-5.564796471595758E+001	-1.2940859E+000	-1.2940375E+000	2.3254864E+001	1.172681972440478E+002
-5.770960027776869E+001	-1.2960985E+000	-1.2960374E+000	2.2458975E+001	1.174681972389953E+002
-5.968664690318269E+001	-1.2981044E+000	-1.2980374E+000	2.1748657E+001	1.176681972339429E+002
-6.183169437806373E+001	-1.3001099E+000	-1.3000375E+000	2.1026592E+001	1.178681972288905E+002
-6.417125122509322E+001	-1.3020805E+000	-1.3020375E+000	2.0290714E+001	1.180681972238381E+002
-6.686072613538823E+001	-1.3040851E+000	-1.3040375E+000	1.9504501E+001	1.182681972187856E+002
-6.912426077914074E+001	-1.3060831E+000	-1.3060374E+000	1.8894712E+001	1.184681972137332E+002
-7.169008618309383E+001	-1.3080779E+000	-1.3080375E+000	1.8246288E+001	1.186681972086808E+002
-7.418426605471154E+001	-1.3100842E+000	-1.3100375E+000	1.7659866E+001	1.188681972036284E+002
-7.637848455132803E+001	-1.3121189E+000	-1.3120375E+000	1.7179169E+001	1.190681971985759E+002
-7.876072910096946E+001	-1.3141060E+000	-1.3140374E+000	1.6684788E+001	1.192681971935235E+002
-8.125141860514287E+001	-1.3161209E+000	-1.3160374E+000	1.6198128E+001	1.194681971884711E+002
-8.345053947161159E+001	-1.3180931E+000	-1.3180375E+000	1.5794902E+001	1.196681971834187E+002
-8.575009784893109E+001	-1.3201452E+000	-1.3200375E+000	1.5395263E+001	1.198681971783662E+002
-8.782392264547832E+001	-1.3221053E+000	-1.3220375E+000	1.5054045E+001	1.200681971733138E+002
-9.001131736448269E+001	-1.3241079E+000	-1.3240374E+000	1.4710460E+001	1.202681971682614E+002
-9.221545617488528E+001	-1.3261451E+000	-1.3260375E+000	1.4380941E+001	1.204681971632090E+002
-9.465916671828609E+001	-1.3281314E+000	-1.3280375E+000	1.4030669E+001	1.206681971581565E+002
-9.902457855942566E+001	-1.3301179E+000	-1.3300376E+000	1.3432200E+001	1.208681971531041E+002
-1.007814224344802E+002	-1.3321095E+000	-1.3320374E+000	1.3217808E+001	1.210681971480517E+002
-1.029432519666192E+002	-1.3341327E+000	-1.3340374E+000	1.2959885E+001	1.212681971429993E+002
-1.063708422048834E+002	-1.3361269E+000	-1.3360374E+000	1.2561026E+001	1.214681971379468E+002
-1.098872179868272E+002	-1.3382148E+000	-1.3381376E+000	1.2178075E+001	1.216781971326418E+002
-1.131910700808847E+002	-1.3403119E+000	-1.3402375E+000	1.1841146E+001	1.218881971273368E+002
-1.153159602115484E+002	-1.3423251E+000	-1.3422374E+000	1.1640410E+001	1.220881971222843E+002
-1.174139893503684E+002	-1.3442888E+000	-1.3442374E+000	1.1449137E+001	1.222881971172319E+002
-1.207904246961721E+002	-1.3463078E+000	-1.3462374E+000	1.1145815E+001	1.224881971121795E+002
-1.244069252479107E+002	-1.3483034E+000	-1.3482375E+000	1.0837849E+001	1.226881971071271E+002
-1.270072706140356E+002	-1.3502960E+000	-1.3502375E+000	1.0631643E+001	1.228881971020746E+002
-1.294578443817004E+002	-1.3523002E+000	-1.3522375E+000	1.0445872E+001	1.230881970970222E+002
-1.327626631611328E+002	-1.3543444E+000	-1.3542374E+000	1.0201244E+001	1.232881970919698E+002
-1.375477479017773E+002	-1.3562995E+000	-1.3562374E+000	9.8605728E+000	1.234881970869174E+002
-1.383230940327894E+002	-1.3583062E+000	-1.3582375E+000	9.8198080E+000	1.236881970818649E+002
-1.404978935161679E+002	-1.3603038E+000	-1.3602375E+000	9.6820221E+000	1.238881970768125E+002
-1.445239976593148E+002	-1.3623281E+000	-1.3622375E+000	9.4263105E+000	1.240881970717601E+002
-1.516431319610874E+002	-1.3643017E+000	-1.3642374E+000	8.9967918E+000	1.242881970667077E+002
-1.531838060679625E+002	-1.3663045E+000	-1.3662374E+000	8.9193792E+000	1.244881970616552E+002
-1.555066514826144E+002	-1.3683051E+000	-1.3682375E+000	8.7990131E+000	1.246881970566028E+002
-1.591480517008940E+002	-1.3703121E+000	-1.3702374E+000	8.6102972E+000	1.248881970515504E+002
-1.608395870440127E+002	-1.3723148E+000	-1.3722374E+000	8.5321951E+000	1.250881970464980E+002
-1.630446619544164E+002	-1.3743246E+000	-1.3742374E+000	8.4291296E+000	1.252881970414455E+002
-1.661358624120959E+002	-1.3763254E+000	-1.3762374E+000	8.2843361E+000	1.254881970363931E+002
-1.720154312321929E+002	-1.3783416E+000	-1.3782375E+000	8.0128946E+000	1.256881970313407E+002
-1.719577040034352E+002	-1.3803161E+000	-1.3802375E+000	8.0270681E+000	1.258881970262883E+002
-1.798208254427054E+002	-1.3822832E+000	-1.3822374E+000	7.6870031E+000	1.260881970212358E+002
-1.810162193391326E+002	-1.3843098E+000	-1.3842374E+000	7.6474352E+000	1.262881970161834E+002
-1.834933833513669E+002	-1.3862753E+000	-1.3862374E+000	7.5549064E+000	1.264881970111310E+002
-1.868965406828725E+002	-1.3882904E+000	-1.3882375E+000	7.4281225E+000	1.266881970060786E+002
-1.914482113163488E+002	-1.3903512E+000	-1.3902376E+000	7.2622833E+000	1.268881970010261E+002
-1.960327682213992E+002	-1.3922946E+000	-1.3922374E+000	7.1023569E+000	1.270881969959737E+002
-1.985168622961928E+002	-1.3943115E+000	-1.3942374E+000	7.0236430E+000	1.272881969909213E+002
-1.978940730981545E+002	-1.3963184E+000	-1.3962375E+000	7.0558882E+000	1.274881969858689E+002
-2.064967888791007E+002	-1.3983306E+000	-1.3982375E+000	6.7716818E+000	1.276881969808164E+002
-2.101397958137013E+002	-1.4002947E+000	-1.4002376E+000	6.6636338E+000	1.278881969757640E+002
-2.152866488065301E+002	-1.4023314E+000	-1.4022377E+000	6.5137868E+000	1.280881969707116E+002
-2.106937112959606E+002	-1.4043051E+000	-1.4042374E+000	6.6651497E+000	1.282881969656592E+002
-2.123332714353287E+002	-1.4063385E+000	-1.4062375E+000	6.6232600E+000	1.284881969606067E+002
-2.141887114907604E+002	-1.4083357E+000	-1.4082375E+000	6.5752096E+000	1.286881969555543E+002
-2.187580829693889E+002	-1.4103439E+000	-1.4102376E+000	6.4470482E+000	1.288881969505019E+002
-2.221756207796993E+002	-1.4123226E+000	-1.4122375E+000	6.3567848E+000	1.290881969454495E+002
-2.239910106875192E+002	-1.4143293E+000	-1.4142375E+000	6.3142233E+000	1.292881969403970E+002
-2.265073914733339E+002	-1.4163350E+000	-1.4162375E+000	6.2529306E+000	1.294881969353446E+002
-2.358747653161031E+002	-1.4183781E+000	-1.4182376E+000	6.0132675E+000	1.296881969302922E+002
-2.392362211923756E+002	-1.4203229E+000	-1.4202374E+000	5.9369059E+000	1.298881969252398E+002
-2.387839788795866E+002	-1.4223676E+000	-1.4222375E+000	5.9567127E+000	1.300881969201873E+002
-2.453409062902388E+002	-1.4243097E+000	-1.4242374E+000	5.8054309E+000	1.302881969151349E+002
-2.506521370232522E+002	-1.4263641E+000	-1.4262375E+000	5.6906118E+000	1.304881969100825E+002
-2.501566100650357E+002	-1.4283730E+000	-1.4282376E+000	5.7099152E+000	1.306881969050301E+002
-2.545326281026378E+002	-1.4303421E+000	-1.4302375E+000	5.6194839E+000	1.308881968999776E+002
-2.687149740790028E+002	-1.4323508E+000	-1.4322375E+000	5.3303719E+000	1.310881968949252E+002
-2.651944005408259E+002	-1.4343619E+000	-1.4342374E+000	5.4087186E+000	1.312881968898728E+002
-2.678274526150445E+002	-1.4363692E+000	-1.4362382E+000	5.3630395E+000	1.314882968848178E+002
-2.657342451056657E+002	-1.4384203E+000	-1.4382395E+000	5.4130030E+000	1.316883968797629E+002
-2.657783572260792E+002	-1.4403824E+000	-1.4402411E+000	5.4194870E+000	1.318885968747054E+002
-2.696108632639157E+002	-1.4423975E+000	-1.4422435E+000	5.3499236E+000	1.320887968696479E+002
-2.696114839004558E+002	-1.4444332E+000	-1.4442436E+000	5.3574619E+000	1.322887968645955E+002
-2.718209495946073E+002	-1.4463726E+000	-1.4462441E+000	5.3210492E+000	1.324888968595405E+002
-2.694656956939609E+002	-1.4483843E+000	-1.4482464E+000	5.3750229E+000	1.326890968544831E+002
-2.691002269672299E+002	-1.4503917E+000	-1.4502463E+000	5.3897824E+000	1.328890968494306E+002
-2.710761039399622E+002	-1.4524170E+000	-1.4522485E+000	5.3579679E+000	1.330892968443732E+002
-2.729618245511906E+002	-1.4543684E+000	-1.4542495E+000	5.3281016E+000	1.332893968393182E+002
-2.745187706891127E+002	-1.4564060E+000	-1.4562510E+000	5.3053055E+000	1.334895968342607E+002
-2.726084214727339E+002	-1.4584056E+000	-1.4582534E+000	5.3498187E+000	1.336897968292033E+002
-2.829904858144064E+002	-1.4604073E+000	-1.4602542E+000	5.1606231E+000	1.338898968241483E+002
-2.952764385575883E+002	-1.4624139E+000	-1.4622569E+000	4.9526944E+000	1.340901968190883E+002
-3.200302499031527E+002	-1.4643904E+000	-1.4642614E+000	4.5757875E+000	1.342905968140258E+002
-3.168095650175960E+002	-1.4664578E+000	-1.4662633E+000	4.6288309E+000	1.344907968089683E+002
-3.167771665309292E+002	-1.4684415E+000	-1.4682635E+000	4.6355662E+000	1.346907968039159E+002
-3.116227085775606E+002	-1.4704267E+000	-1.4702648E+000	4.7186122E+000	1.348909967988584E+002
-3.205776015170873E+002	-1.4724035E+000	-1.4722682E+000	4.5929708E+000	1.350912967937984E+002
-3.177820939996072E+002	-1.4744215E+000	-1.4742695E+000	4.6397247E+000	1.352913967887434E+002
-3.272690689691344E+002	-1.4764515E+000	-1.4762692E+000	4.5114303E+000	1.354913967836910E+002
-3.238096398143998E+002	-1.4784416E+000	-1.4782709E+000	4.5657740E+000	1.356915967786335E+002
-3.208805505330720E+002	-1.4804469E+000	-1.4802732E+000	4.6137009E+000	1.358917967735761E+002
-3.232078297204575E+002	-1.4824324E+000	-1.4822744E+000	4.5866227E+000	1.360918967685211E+002
-3.242570792628514E+002	-1.4844326E+000	-1.4842755E+000	4.5779495E+000	1.362919967634662E+002
-3.289990941196902E+002	-1.4864136E+000	-1.4862756E+000	4.5179868E+000	1.364919967584137E+002
-3.245454974381028E+002	-1.4884506E+000	-1.4882770E+000	4.5862617E+000	1.366921967533563E+002
-3.190826487395443E+002	-1.4904382E+000	-1.4902803E+000	4.6710100E+000	1.368924967482963E+002
-3.231514011694460E+002	-1.4924784E+000	-1.4922814E+000	4.6185112E+000	1.370925967432413E+002
-3.408400781592527E+002	-1.4944847E+000	-1.4942814E+000	4.3847094E+000	1.372925967381889E+002
-3.463511106903088E+002	-1.4964769E+000	-1.4962823E+000	4.3206930E+000	1.374926967331339E+002
-3.491082536930953E+002	-1.4984660E+000	-1.4982836E+000	4.2922673E+000	1.376927967280790E+002
-3.885824934283382E+002	-1.5005178E+000	-1.5002843E+000	3.8615170E+000	1.378928967230240E+002
-3.748585673135440E+002	-1.5024587E+000	-1.5022855E+000	4.0080681E+000	1.380929967179691E+002
-3.777126250719739E+002	-1.5044969E+000	-1.5042863E+000	3.9831789E+000	1.382930967129141E+002
-3.767362471886454E+002	-1.5064815E+000	-1.5062882E+000	3.9987698E+000	1.384932967078566E+002
-3.749984266276815E+002	-1.5085162E+000	-1.5082896E+000	4.0227265E+000	1.386933967028017E+002
-3.784737098265687E+002	-1.5105176E+000	-1.5102894E+000	3.9910767E+000	1.388933966977493E+002
-3.766361994831876E+002	-1.5124887E+000	-1.5122904E+000	4.0157814E+000	1.390934966926943E+002
-3.692976601670889E+002	-1.5145119E+000	-1.5142941E+000	4.1010604E+000	1.392938966876318E+002
-3.648198551718407E+002	-1.5165322E+000	-1.5162970E+000	4.1569343E+000	1.394941966825718E+002
-3.679510957514831E+002	-1.5184983E+000	-1.5183017E+000	4.1269026E+000	1.396946966775067E+002
-3.702858996968807E+002	-1.5205227E+000	-1.5203083E+000	4.1063480E+000	1.398952966724391E+002
-3.916613434209837E+002	-1.5225657E+000	-1.5223095E+000	3.8874547E+000	1.400953966673842E+002
-4.116269383289928E+002	-1.5245275E+000	-1.5243094E+000	3.7036631E+000	1.402953966623318E+002
-4.233335262220720E+002	-1.5265394E+000	-1.5263095E+000	3.6059971E+000	1.404953966572793E+002
-4.156367760466467E+002	-1.5285738E+000	-1.5283110E+000	3.6776671E+000	1.406955966522219E+002
-4.187861214251207E+002	-1.5305525E+000	-1.5303142E+000	3.6547356E+000	1.408958966471619E+002
-4.142037853951024E+002	-1.5325818E+000	-1.5323163E+000	3.7000670E+000	1.410960966421044E+002
-4.244200366589503E+002	-1.5345862E+000	-1.5343183E+000	3.6157250E+000	1.412962966370469E+002
-4.287872134948539E+002	-1.5365925E+000	-1.5363208E+000	3.5835781E+000	1.414965966319869E+002
-4.258449214494158E+002	-1.5385573E+000	-1.5383235E+000	3.6129520E+000	1.416967966269294E+002
-4.292235549876514E+002	-1.5405731E+000	-1.5403242E+000	3.5892091E+000	1.418968966218745E+002
-4.454764546251845E+002	-1.5426213E+000	-1.5423262E+000	3.4628570E+000	1.420970966168170E+002
-4.602345035344279E+002	-1.5446020E+000	-1.5443282E+000	3.3561196E+000	1.422972966117595E+002
-4.663844664394187E+002	-1.5465869E+000	-1.5463296E+000	3.3161201E+000	1.424973966067046E+002
-4.616136827922996E+002	-1.5485799E+000	-1.5483295E+000	3.3547099E+000	1.426973966016521E+002
-4.584630158241764E+002	-1.5506027E+000	-1.5503302E+000	3.3821762E+000	1.428974965965972E+002
-4.861425489568393E+002	-1.5525975E+000	-1.5523314E+000	3.1937084E+000	1.430975965915422E+002
-4.646922697817654E+002	-1.5545886E+000	-1.5543321E+000	3.3454151E+000	1.432976965864873E+002
-4.615110285938181E+002	-1.5566157E+000	-1.5563350E+000	3.3728678E+000	1.434979965814273E+002
-4.753015463310937E+002	-1.5586150E+000	-1.5583383E+000	3.2792130E+000	1.436982965763673E+002
-4.724941262139237E+002	-1.5606459E+000	-1.5603395E+000	3.3029954E+000	1.438983965713123E+002
-4.671259527271291E+002	-1.5626130E+000	-1.5623395E+000	3.3451643E+000	1.440983965662599E+002
-4.717613931987162E+002	-1.5646032E+000	-1.5643414E+000	3.3165138E+000	1.442985965612024E+002
-4.948248355902656E+002	-1.5666523E+000	-1.5663422E+000	3.1660745E+000	1.444986965561475E+002
-4.946695961732439E+002	-1.5686618E+000	-1.5683451E+000	3.1711304E+000	1.446989965510875E+002
-4.783163493868624E+002	-1.5706358E+000	-1.5703492E+000	3.2836757E+000	1.448993965460249E+002
-4.796746233163784E+002	-1.5726082E+000	-1.5723515E+000	3.2784896E+000	1.450995965409675E+002
-5.078916338792988E+002	-1.5746820E+000	-1.5743515E+000	3.1004291E+000	1.452995965359150E+002
-5.046959932309092E+002	-1.5766269E+000	-1.5763534E+000	3.1239140E+000	1.454997965308576E+002
-4.955008529394948E+002	-1.5786437E+000	-1.5783535E+000	3.1859555E+000	1.456997965258051E+002
-4.940273906206048E+002	-1.5806211E+000	-1.5803535E+000	3.1994605E+000	1.458997965207527E+002
-4.939221859097324E+002	-1.5826384E+000	-1.5823544E+000	3.2042263E+000	1.460998965156978E+002
-5.002007325008271E+002	-1.5846711E+000	-1.5843564E+000	3.1680703E+000	1.463000965106403E+002
-5.289333960647755E+002	-1.5866758E+000	-1.5863574E+000	2.9997647E+000	1.465001965055853E+002
-5.382961924044985E+002	-1.5886614E+000	-1.5883583E+000	2.9512775E+000	1.467002965005304E+002
-5.335069067186550E+002	-1.5906351E+000	-1.5903600E+000	2.9814703E+000	1.469004964954729E+002
-5.255341173288767E+002	-1.5926681E+000	-1.5923616E+000	3.0305703E+000	1.471005964904180E+002
-5.365153293133872E+002	-1.5946494E+000	-1.5943614E+000	2.9722347E+000	1.473005964853655E+002
-5.478376418479174E+002	-1.5966829E+000	-1.5963614E+000	2.9145184E+000	1.475005964803131E+002
-5.527433417703028E+002	-1.5986421E+000	-1.5983613E+000	2.8921959E+000	1.477005964752607E+002
-5.446344766595212E+002	-1.6006335E+000	-1.6003612E+000	2.9389133E+000	1.479005964702083E+002
-5.500484495573846E+002	-1.6026624E+000	-1.6023612E+000	2.9136751E+000	1.481005964651558E+002
-5.533247271643759E+002	-1.6046776E+000	-1.6043613E+000	2.9000647E+000	1.483005964601034E+002
-5.556082634179775E+002	-1.6066904E+000	-1.6063614E+000	2.8917685E+000	1.485005964550510E+002
-5.491756481681014E+002	-1.6087089E+000	-1.6083612E+000	2.9293158E+000	1.487005964499986E+002
-5.365112142670969E+002	-1.6106584E+000	-1.6103612E+000	3.0020964E+000	1.489005964449461E+002
-5.359660844694736E+002	-1.6126671E+000	-1.6123612E+000	3.0088975E+000	1.491005964398937E+002
-5.507216331239761E+002	-1.6146774E+000	-1.6143613E+000	2.9319303E+000	1.493005964348413E+002
-5.377471882999607E+002	-1.6167046E+000	-1.6163614E+000	3.0064399E+000	1.495005964297889E+002
-5.310949087683572E+002	-1.6186608E+000	-1.6183612E+000	3.0477808E+000	1.497005964247364E+002
-5.327395178476982E+002	-1.6206524E+000	-1.6203612E+000	3.0421104E+000	1.499005964196840E+002
-5.423404619904586E+002	-1.6226764E+000	-1.6223613E+000	2.9919884E+000	1.501005964146316E+002
-5.335233598782634E+002	-1.6246985E+000	-1.6243613E+000	3.0452247E+000	1.503005964095792E+002
-5.216109613215297E+002	-1.6266423E+000	-1.6263614E+000	3.1184971E+000	1.505005964045267E+002
-5.310704160677324E+002	-1.6286573E+000	-1.6283612E+000	3.0667446E+000	1.507005963994743E+002
-5.525488469562824E+002	-1.6307158E+000	-1.6303613E+000	2.9512610E+000	1.509005963944219E+002
-5.984144237284777E+002	-1.6327040E+000	-1.6323613E+000	2.7283835E+000	1.511005963893695E+002
-5.936230972056483E+002	-1.6347009E+000	-1.6343613E+000	2.7537689E+000	1.513005963843170E+002
-5.917638553956740E+002	-1.6367267E+000	-1.6363614E+000	2.7658443E+000	1.515005963792646E+002
-5.937874160342727E+002	-1.6387298E+000	-1.6383613E+000	2.7597921E+000	1.517005963742122E+002
-5.937636620592903E+002	-1.6404432E+000	-1.6400613E+000	2.7627881E+000	1.518705963699176E+002
-5.954162368774414E+002	-1.6411968E+000	-1.6408609E+000	2.7563858E+000	1.519439963680634E+002