EC-Lab ASCII FILE
Nb header lines : 63                          

Linear Sweep Voltammetry

Run on channel : 1 (SN 1340)
User : 
Electrode connection : standard
Potential control : Ewe
Ewe ctrl range : min = -5.00 V, max = 5.00 V
Ewe,I filtering : <None>
Safety Limits :
	Do not start on E overload
Channel : Floating
Acquisition started on : 03/11/2026 11:48:50.031
Technique started on : 03/11/2026 11:48:53.211
Loaded Setting File :  NONE
Saved on :
	File : Ni_N52magB_up_3-11_02_LSV_C01.mpr
	Directory : C:\Users\volt\Documents\Platalytix\
	Host : 172.28.65.128
Device : SP-200 (SN 0262)
Address : USB
EC-LAB for windows v11.60 (software)
Internet server v11.60 (firmware)
Command interpretor v11.60 (firmware)
Electrode material : Ni
Initial state : 
Electrolyte : KOH (1 M)
Comments : With magnet B (-) side, up position
Cable : standard
Reference electrode : Hg/HgO (0.140 V)
Electrode surface area : 1.000 cm˛
Characteristic mass : 0.001 g
Equivalent Weight : 0.000 g/eq.
Density : 0.000 g/cm3
Volume (V) : 0.001 cmł
Cycle Definition : Charge/Discharge alternance
tR (h:m:s)          0:00:5.0000         
dER/dt (mV/h)       0.0                 
dER (mV)            0                   
dtR (s)             0.0000              
dE/dt               10.000              
dE/dt unit          mV/s                
Ei (V)              -0.200              
vs.                 Ref                 
EL (V)              -2.500              
vs.                 Ref                 
record              <I>                 
dI                  0.000               
unit dI             µA                  
tI (s)              0.0000              
step percent        50                  
N                   10                  
E range min (V)     -5.000              
E range max (V)     5.000               
I Range             Auto                
I Range min         Unset               
I Range max         Unset               
I Range init        Unset               
Bandwidth           8                   

<I>/mA	Ewe/V	control/V	Rwe/Ohm	time/s	
0.000000000000000E+000	-2.2361676E-001	0.0000000E+000	0.0000000E+000	3.180400151031790E+000
0.000000000000000E+000	-3.8571802E-001	-1.9983144E-001	0.0000000E+000	8.180200024726219E+000
6.812190461158751E-001	-2.0138510E-001	-2.0133123E-001	2.9562457E+002	8.340200020684279E+000
1.496040704921935E-001	-2.0266889E-001	-2.0273127E-001	1.3547017E+003	8.480200017147581E+000
6.790676852424193E-002	-2.0496589E-001	-2.0503126E-001	3.0183425E+003	8.710200011337292E+000
5.073925570923793E-002	-2.0703495E-001	-2.0703128E-001	4.0803701E+003	8.910200006284867E+000
4.086634792261079E-002	-2.0918185E-001	-2.0923126E-001	5.1186821E+003	9.130200000727200E+000
3.454522151038564E-002	-2.1148501E-001	-2.1143126E-001	6.1219761E+003	9.350199995169532E+000
3.035683907059500E-002	-2.1339385E-001	-2.1343127E-001	7.0295146E+003	9.550199990117108E+000
2.707564767794313E-002	-2.1541093E-001	-2.1543126E-001	7.9558921E+003	9.750199985064683E+000
2.447520989249935E-002	-2.1745133E-001	-2.1743126E-001	8.8845547E+003	9.950199980012258E+000
2.228282373440778E-002	-2.1937208E-001	-2.1943130E-001	9.8448955E+003	1.015019997495983E+001
2.045141399390327E-002	-2.2148827E-001	-2.2143126E-001	1.0829974E+004	1.035019996990741E+001
1.888578995041207E-002	-2.2342066E-001	-2.2343127E-001	1.1830094E+004	1.055019996485498E+001
1.749724912514718E-002	-2.2541736E-001	-2.2543128E-001	1.2883018E+004	1.075019995980256E+001
1.627441110338086E-002	-2.2750211E-001	-2.2743127E-001	1.3979130E+004	1.095019995475013E+001
1.520564246728967E-002	-2.2946127E-001	-2.2943127E-001	1.5090534E+004	1.115019994969771E+001
1.426436415717186E-002	-2.3155601E-001	-2.3143128E-001	1.6233182E+004	1.135019994464528E+001
1.338794599751819E-002	-2.3342685E-001	-2.3343128E-001	1.7435600E+004	1.155019993959286E+001
1.258292904492184E-002	-2.3546475E-001	-2.3543127E-001	1.8713031E+004	1.175019993454043E+001
1.186921992324676E-002	-2.3747161E-001	-2.3743129E-001	2.0007348E+004	1.195019992948801E+001
1.121780439213974E-002	-2.3939574E-001	-2.3943126E-001	2.1340695E+004	1.215019992443558E+001
1.061773329235130E-002	-2.4146990E-001	-2.4143127E-001	2.2742133E+004	1.235019991938316E+001
1.002823115270239E-002	-2.4347043E-001	-2.4343129E-001	2.4278502E+004	1.255019991433073E+001
9.518029214708755E-003	-2.4543847E-001	-2.4543124E-001	2.5786689E+004	1.275019990927831E+001
9.025774134495637E-003	-2.4743198E-001	-2.4743128E-001	2.7413934E+004	1.295019990422588E+001
8.557332467785131E-003	-2.4946581E-001	-2.4943128E-001	2.9152287E+004	1.315019989917346E+001
8.160358506292847E-003	-2.5147122E-001	-2.5143126E-001	3.0816197E+004	1.335019989412103E+001
7.749172251673139E-003	-2.5345030E-001	-2.5343129E-001	3.2706758E+004	1.355019988906861E+001
7.376868537214837E-003	-2.5544658E-001	-2.5543126E-001	3.4628051E+004	1.375019988401618E+001
7.047803192982868E-003	-2.5740910E-001	-2.5743130E-001	3.6523309E+004	1.395019987896376E+001
6.694607107275541E-003	-2.5940391E-001	-2.5943127E-001	3.8748191E+004	1.415019987391133E+001
6.393007255862032E-003	-2.6146874E-001	-2.6143128E-001	4.0899176E+004	1.435019986885891E+001
6.132104288091855E-003	-2.6340410E-001	-2.6343125E-001	4.2954930E+004	1.455019986380648E+001
5.854179300373102E-003	-2.6542670E-001	-2.6543126E-001	4.5339695E+004	1.475019985875406E+001
5.558525717598392E-003	-2.6742294E-001	-2.6743126E-001	4.8110410E+004	1.495019985370163E+001
5.305583601681018E-003	-2.6939291E-001	-2.6943126E-001	5.0775359E+004	1.515019984864921E+001
5.055563077248748E-003	-2.7142084E-001	-2.7143127E-001	5.3687559E+004	1.535019984359678E+001
4.837911040416580E-003	-2.7342877E-001	-2.7343124E-001	5.6517941E+004	1.555019983854436E+001
4.653362206231151E-003	-2.7539173E-001	-2.7543128E-001	5.9181234E+004	1.575019983349193E+001
4.403744312834797E-003	-2.7741984E-001	-2.7743128E-001	6.2996355E+004	1.595019982843951E+001
4.215910056549949E-003	-2.7941248E-001	-2.7943128E-001	6.6275719E+004	1.615019982338708E+001
4.044111416594109E-003	-2.8139392E-001	-2.8143126E-001	6.9581148E+004	1.635019981833466E+001
3.846431935746936E-003	-2.8342712E-001	-2.8343126E-001	7.3685727E+004	1.655019981328223E+001
3.687747342083301E-003	-2.8543508E-001	-2.8543127E-001	7.7400930E+004	1.675019980822981E+001
3.493591124028743E-003	-2.8743452E-001	-2.8743127E-001	8.2274805E+004	1.695019980317738E+001
3.330229845088316E-003	-2.8945974E-001	-2.8943121E-001	8.6918844E+004	1.715019979812496E+001
3.175299230708500E-003	-2.9146746E-001	-2.9143125E-001	9.1792125E+004	1.735019979307253E+001
3.047681996871915E-003	-2.9342750E-001	-2.9343125E-001	9.6278906E+004	1.755019978802011E+001
2.886812320021186E-003	-2.9543966E-001	-2.9543129E-001	1.0234114E+005	1.775019978296768E+001
2.751939477427497E-003	-2.9745251E-001	-2.9743126E-001	1.0808832E+005	1.795019977791526E+001
2.606406520754882E-003	-2.9942101E-001	-2.9943126E-001	1.1487886E+005	1.815019977286283E+001
2.497910217109718E-003	-3.0147627E-001	-3.0143127E-001	1.2069140E+005	1.835019976781041E+001
2.375460396633104E-003	-3.0342925E-001	-3.0343127E-001	1.2773492E+005	1.855019976275798E+001
2.238433494974643E-003	-3.0544862E-001	-3.0543128E-001	1.3645642E+005	1.875019975770556E+001
2.122637647882002E-003	-3.0738828E-001	-3.0743128E-001	1.4481430E+005	1.895019975265313E+001
2.013448409735111E-003	-3.0941996E-001	-3.0943128E-001	1.5367663E+005	1.915019974760071E+001
1.903546321371567E-003	-3.1144151E-001	-3.1143126E-001	1.6361120E+005	1.935019974254828E+001
1.786811212875612E-003	-3.1340575E-001	-3.1343129E-001	1.7539948E+005	1.955019973749586E+001
1.653843955080735E-003	-3.1540009E-001	-3.1543127E-001	1.9070728E+005	1.975019973244343E+001
1.568514682150413E-003	-3.1744158E-001	-3.1743127E-001	2.0238356E+005	1.995019972739101E+001
1.464944407140269E-003	-3.1947288E-001	-3.1943128E-001	2.1807850E+005	2.015019972233858E+001
1.366656247276563E-003	-3.2140103E-001	-3.2143128E-001	2.3517328E+005	2.035019971728616E+001
1.291374941304012E-003	-3.2345796E-001	-3.2343125E-001	2.5047564E+005	2.055019971223373E+001
1.189978773275174E-003	-3.2537958E-001	-3.2543126E-001	2.7343309E+005	2.075019970718131E+001
1.093293536755718E-003	-3.2743737E-001	-3.2743126E-001	2.9949631E+005	2.095019970212888E+001
9.791883402563654E-004	-3.2946846E-001	-3.2943127E-001	3.3647097E+005	2.115019969707646E+001
9.135681449936100E-004	-3.3143079E-001	-3.3143130E-001	3.6278716E+005	2.135019969202403E+001
8.123070759947521E-004	-3.3338544E-001	-3.3343127E-001	4.1041800E+005	2.155019968697161E+001
7.385188915103777E-004	-3.3550546E-001	-3.3543128E-001	4.5429503E+005	2.175019968191918E+001
6.447319245733675E-004	-3.3742785E-001	-3.3743125E-001	5.2336147E+005	2.195019967686676E+001
6.049737563114613E-004	-3.3946109E-001	-3.3943129E-001	5.6111706E+005	2.215019967181433E+001
4.989460526486477E-004	-3.4139645E-001	-3.4143126E-001	6.8423519E+005	2.235019966676191E+001
3.919980059490704E-004	-3.4338614E-001	-3.4343126E-001	8.7598950E+005	2.255019966170948E+001
3.348366944684058E-004	-3.4549317E-001	-3.4543127E-001	1.0318259E+006	2.275019965665706E+001
2.709238961184943E-004	-3.4745872E-001	-3.4743127E-001	1.2824956E+006	2.295019965160463E+001
1.754650556904376E-004	-3.4938347E-001	-3.4943128E-001	1.9911855E+006	2.315019964655221E+001
1.189643782026264E-004	-3.5146105E-001	-3.5143128E-001	2.9543385E+006	2.335019964149978E+001
1.696265274161030E-005	-3.5341510E-001	-3.5343128E-001	2.0834896E+007	2.355019963644736E+001
-6.625589605595122E-005	-3.5545188E-001	-3.5543132E-001	5.3648340E+006	2.375019963139493E+001
-1.238046343943174E-004	-3.5744452E-001	-3.5743129E-001	2.8871660E+006	2.395019962634251E+001
-2.199894669906964E-004	-3.5942891E-001	-3.5943127E-001	1.6338460E+006	2.415019962129008E+001
-2.620797120186655E-004	-3.6138743E-001	-3.6143130E-001	1.3789219E+006	2.435019961623766E+001
-3.591840171836909E-004	-3.6338773E-001	-3.6343127E-001	1.0117035E+006	2.455019961118524E+001
-4.179868686263579E-004	-3.6546570E-001	-3.6543128E-001	8.7434731E+005	2.475019960613281E+001
-4.917227131023168E-004	-3.6742401E-001	-3.6743128E-001	7.4721788E+005	2.495019960108039E+001
-5.751109678842617E-004	-3.6938211E-001	-3.6943129E-001	6.4227975E+005	2.515019959602796E+001
-6.404619074866190E-004	-3.7143224E-001	-3.7143129E-001	5.7994431E+005	2.535019959097554E+001
-7.295713675862427E-004	-3.7339437E-001	-3.7343130E-001	5.1179966E+005	2.555019958592311E+001
-7.856278826031612E-004	-3.7543732E-001	-3.7543127E-001	4.7788188E+005	2.575019958087069E+001
-8.813685700114499E-004	-3.7740028E-001	-3.7743130E-001	4.2819803E+005	2.595019957581826E+001
-9.551862330749658E-004	-3.7938744E-001	-3.7943128E-001	3.9718688E+005	2.615019957076584E+001
-9.957989822491397E-004	-3.8145545E-001	-3.8143125E-001	3.8306472E+005	2.635019956571341E+001
-1.105137531047152E-003	-3.8345149E-001	-3.8343129E-001	3.4697175E+005	2.655019956066099E+001
-1.196832261220837E-003	-3.8549402E-001	-3.8543129E-001	3.2209528E+005	2.675019955560856E+001
-1.226807734773109E-003	-3.8742748E-001	-3.8743126E-001	3.1580131E+005	2.695019955055614E+001
-1.301229706082949E-003	-3.8948315E-001	-3.8943130E-001	2.9931928E+005	2.715019954550371E+001
-1.360797105389852E-003	-3.9147970E-001	-3.9143130E-001	2.8768409E+005	2.735019954045129E+001
-1.467660698917302E-003	-3.9338323E-001	-3.9343131E-001	2.6803419E+005	2.755019953539886E+001
-1.533268841872194E-003	-3.9549431E-001	-3.9543128E-001	2.5794192E+005	2.775019953034644E+001
-1.601303329750177E-003	-3.9740503E-001	-3.9743131E-001	2.4817598E+005	2.795019952529401E+001
-1.681609383247067E-003	-3.9941701E-001	-3.9943129E-001	2.3752069E+005	2.815019952024159E+001
-1.770196342761593E-003	-4.0147337E-001	-4.0143132E-001	2.2679595E+005	2.835019951518916E+001
-1.846486276431157E-003	-4.0345415E-001	-4.0343130E-001	2.1849833E+005	2.855019951013674E+001
-1.873898866976569E-003	-4.0541986E-001	-4.0543127E-001	2.1635098E+005	2.875019950508431E+001
-1.954380816712932E-003	-4.0743545E-001	-4.0743130E-001	2.0847291E+005	2.895019950003189E+001
-2.056161596094230E-003	-4.0948075E-001	-4.0943128E-001	1.9914814E+005	2.915019949497946E+001
-2.139585845502640E-003	-4.1145706E-001	-4.1143131E-001	1.9230688E+005	2.935019948992704E+001
-2.220104443118684E-003	-4.1348946E-001	-4.1343132E-001	1.8624775E+005	2.955019948487461E+001
-2.298820358319596E-003	-4.1547146E-001	-4.1543132E-001	1.8073247E+005	2.975019947982219E+001
-2.358301097546015E-003	-4.1755921E-001	-4.1743127E-001	1.7705933E+005	2.995019947476976E+001
-2.450781645916683E-003	-4.1946363E-001	-4.1943130E-001	1.7115505E+005	3.015019946971734E+001
-2.520163553174138E-003	-4.2149428E-001	-4.2143133E-001	1.6724878E+005	3.035019946466491E+001
-2.636735580583463E-003	-4.2350602E-001	-4.2343131E-001	1.6061756E+005	3.055019945961249E+001
-2.669882931678689E-003	-4.2547199E-001	-4.2543128E-001	1.5935980E+005	3.075019945456006E+001
-2.798500774740940E-003	-4.2754018E-001	-4.2743132E-001	1.5277472E+005	3.095019944950764E+001
-2.830885785842754E-003	-4.2949885E-001	-4.2943129E-001	1.5171889E+005	3.115019944445521E+001
-2.920109884366764E-003	-4.3146038E-001	-4.3143129E-001	1.4775484E+005	3.135019943940279E+001
-2.981730631777403E-003	-4.3350503E-001	-4.3343130E-001	1.4538705E+005	3.155019943435036E+001
-3.105690611854769E-003	-4.3548709E-001	-4.3543133E-001	1.4022230E+005	3.175019942929794E+001
-3.171488340798063E-003	-4.3749908E-001	-4.3743128E-001	1.3794756E+005	3.195019942424551E+001
-3.235586809932606E-003	-4.3952125E-001	-4.3943131E-001	1.3583973E+005	3.215019941919309E+001
-3.327127443680633E-003	-4.4146383E-001	-4.4143134E-001	1.3268617E+005	3.235019941414066E+001
-3.426007798499622E-003	-4.4348472E-001	-4.4343129E-001	1.2944650E+005	3.255019940908824E+001
-3.504466638411197E-003	-4.4548011E-001	-4.4543129E-001	1.2711780E+005	3.275019940403581E+001
-3.587621986409826E-003	-4.4746089E-001	-4.4743133E-001	1.2472353E+005	3.295019939898339E+001
-3.701862494577129E-003	-4.4949326E-001	-4.4943136E-001	1.2142354E+005	3.315019939393096E+001
-3.790978686426055E-003	-4.5150018E-001	-4.5143130E-001	1.1909858E+005	3.335019938887854E+001
-3.854671669445503E-003	-4.5349237E-001	-4.5343131E-001	1.1764747E+005	3.355019938382611E+001
-3.938279195276603E-003	-4.5549485E-001	-4.5543131E-001	1.1565834E+005	3.375019937877369E+001
-4.035807839683755E-003	-4.5747861E-001	-4.5743129E-001	1.1335491E+005	3.395019937372126E+001
-4.166650617540853E-003	-4.5948377E-001	-4.5943126E-001	1.1027653E+005	3.415019936866884E+001
-4.233763861399190E-003	-4.6156728E-001	-4.6143135E-001	1.0902055E+005	3.435019936361641E+001
-4.330426598017398E-003	-4.6344218E-001	-4.6343133E-001	1.0701998E+005	3.455019935856399E+001
-4.409495662660745E-003	-4.6537900E-001	-4.6543127E-001	1.0554019E+005	3.475019935351156E+001
-4.495239891378462E-003	-4.6758109E-001	-4.6743131E-001	1.0401694E+005	3.495019934845914E+001
-4.613024549814285E-003	-4.6950591E-001	-4.6943131E-001	1.0177832E+005	3.515019934340671E+001
-4.703254966963354E-003	-4.7147799E-001	-4.7143126E-001	1.0024504E+005	3.535019933835429E+001
-4.797309720520490E-003	-4.7345173E-001	-4.7343129E-001	9.8691094E+004	3.555019933330186E+001
-4.916853579060840E-003	-4.7537294E-001	-4.7543132E-001	9.6682344E+004	3.575019932824944E+001
-5.004890585268568E-003	-4.7755340E-001	-4.7743133E-001	9.5417352E+004	3.595019932319701E+001
-5.110880771189635E-003	-4.7947645E-001	-4.7943127E-001	9.3814836E+004	3.615019931814459E+001
-5.207852489019855E-003	-4.8148230E-001	-4.8143131E-001	9.2453133E+004	3.635019931309216E+001
-5.299202712475019E-003	-4.8339114E-001	-4.8343134E-001	9.1219594E+004	3.655019930803974E+001
-5.423265834696114E-003	-4.8549524E-001	-4.8543131E-001	8.9520828E+004	3.675019930298731E+001
-5.528911641128967E-003	-4.8746240E-001	-4.8743129E-001	8.8166070E+004	3.695019929793489E+001
-5.626057279919209E-003	-4.8950219E-001	-4.8943132E-001	8.7006258E+004	3.715019929288246E+001
-5.763930013547691E-003	-4.9151099E-001	-4.9143133E-001	8.5273586E+004	3.735019928783004E+001
-5.853143457528937E-003	-4.9348685E-001	-4.9343130E-001	8.4311422E+004	3.755019928277761E+001
-5.960623907596357E-003	-4.9550164E-001	-4.9543133E-001	8.3129156E+004	3.775019927772519E+001
-6.038481090158435E-003	-4.9749750E-001	-4.9743131E-001	8.2387852E+004	3.795019927267276E+001
-6.186123785183698E-003	-4.9955550E-001	-4.9943128E-001	8.0754203E+004	3.815019926762034E+001
-6.295000856701080E-003	-5.0143570E-001	-5.0143135E-001	7.9656180E+004	3.835019926256791E+001
-6.417648010486492E-003	-5.0349623E-001	-5.0343132E-001	7.8454945E+004	3.855019925751549E+001
-6.537870741346360E-003	-5.0544268E-001	-5.0543129E-001	7.7309984E+004	3.875019925246306E+001
-6.662007765881425E-003	-5.0748074E-001	-5.0743127E-001	7.6175344E+004	3.895019924741064E+001
-6.764425981241814E-003	-5.0955176E-001	-5.0943130E-001	7.5328156E+004	3.915019924235821E+001
-6.900453327863543E-003	-5.1145488E-001	-5.1143134E-001	7.4119023E+004	3.935019923730579E+001
-7.010400447046206E-003	-5.1348573E-001	-5.1343125E-001	7.3246273E+004	3.955019923225336E+001
-7.140481892654840E-003	-5.1550496E-001	-5.1543128E-001	7.2194703E+004	3.975019922720094E+001
-7.260437517732032E-003	-5.1750505E-001	-5.1743132E-001	7.1277391E+004	3.995019922214851E+001
-7.393776532117355E-003	-5.1948875E-001	-5.1943129E-001	7.0260273E+004	4.015019921709609E+001
-7.513470607801803E-003	-5.2149481E-001	-5.2143133E-001	6.9407977E+004	4.035019921204366E+001
-7.635048752288473E-003	-5.2345651E-001	-5.2343130E-001	6.8559680E+004	4.055019920699124E+001
-7.754192919147779E-003	-5.2547568E-001	-5.2543139E-001	6.7766648E+004	4.075019920193881E+001
-7.887780866250457E-003	-5.2744472E-001	-5.2743131E-001	6.6868578E+004	4.095019919688639E+001
-8.000160398845033E-003	-5.2949226E-001	-5.2943128E-001	6.6185203E+004	4.115019919183396E+001
-8.119318857335009E-003	-5.3152603E-001	-5.3143138E-001	6.5464363E+004	4.135019918678154E+001
-8.269318690628580E-003	-5.3353703E-001	-5.3343123E-001	6.4520070E+004	4.155019918172911E+001
-8.375164777908450E-003	-5.3547853E-001	-5.3543133E-001	6.3936477E+004	4.175019917667669E+001
-8.533467837282593E-003	-5.3748012E-001	-5.3743136E-001	6.2984957E+004	4.195019917162426E+001
-8.658732567140920E-003	-5.3948295E-001	-5.3943133E-001	6.2305070E+004	4.215019916657184E+001
-8.820263713375472E-003	-5.4153454E-001	-5.4143131E-001	6.1396637E+004	4.235019916151941E+001
-8.952998724154157E-003	-5.4349566E-001	-5.4343128E-001	6.0705434E+004	4.255019915646699E+001
-9.081053500506659E-003	-5.4551250E-001	-5.4543138E-001	6.0071500E+004	4.275019915141456E+001
-9.234905361777054E-003	-5.4751897E-001	-5.4743123E-001	5.9287988E+004	4.295019914636214E+001
-9.377471150662980E-003	-5.4948807E-001	-5.4943126E-001	5.8596613E+004	4.315019914130971E+001
-9.513737396571992E-003	-5.5145419E-001	-5.5143136E-001	5.7963992E+004	4.335019913625729E+001
-9.672234958494938E-003	-5.5352283E-001	-5.5343127E-001	5.7228016E+004	4.355019913120486E+001
-9.800643894212674E-003	-5.5547667E-001	-5.5543131E-001	5.6677570E+004	4.375019912615244E+001
-9.948272226365639E-003	-5.5746448E-001	-5.5743128E-001	5.6036313E+004	4.395019912110001E+001
-1.009670074834051E-002	-5.5957854E-001	-5.5943137E-001	5.5421918E+004	4.415019911604759E+001
-1.025164878591648E-002	-5.6148738E-001	-5.6143129E-001	5.4770445E+004	4.435019911099516E+001
-1.042119036425992E-002	-5.6347853E-001	-5.6343132E-001	5.4070457E+004	4.455019910594274E+001
-1.055467412327928E-002	-5.6558073E-001	-5.6543136E-001	5.3585805E+004	4.475019910089031E+001
-1.069986384831609E-002	-5.6746435E-001	-5.6743127E-001	5.3034727E+004	4.495019909583789E+001
-1.088475622777887E-002	-5.6935090E-001	-5.6943130E-001	5.2307180E+004	4.515019909078546E+001
-1.099512942182587E-002	-5.7152545E-001	-5.7143134E-001	5.1979875E+004	4.535019908573304E+001
-1.115723278586250E-002	-5.7354295E-001	-5.7343131E-001	5.1405484E+004	4.555019908068061E+001
-1.132528533218774E-002	-5.7546389E-001	-5.7543135E-001	5.0812309E+004	4.575019907562819E+001
-1.150277630642980E-002	-5.7748365E-001	-5.7743132E-001	5.0203852E+004	4.595019907057576E+001
-1.167336806263980E-002	-5.7950222E-001	-5.7943135E-001	4.9643105E+004	4.615019906552334E+001
-1.180915459011134E-002	-5.8151972E-001	-5.8143127E-001	4.9243129E+004	4.635019906047091E+001
-1.199508604898203E-002	-5.8347654E-001	-5.8343124E-001	4.8642965E+004	4.655019905541849E+001
-1.216943345665922E-002	-5.8547515E-001	-5.8543134E-001	4.8110305E+004	4.675019905036606E+001
-1.229841817516723E-002	-5.8750916E-001	-5.8743131E-001	4.7771117E+004	4.695019904531364E+001
-1.251874920843982E-002	-5.8954775E-001	-5.8943129E-001	4.7093184E+004	4.715019904026121E+001
-1.264194640660427E-002	-5.9152102E-001	-5.9143132E-001	4.6790344E+004	4.735019903520879E+001
-1.281301726578143E-002	-5.9349275E-001	-5.9343135E-001	4.6319516E+004	4.755019903015636E+001
-1.301221111541209E-002	-5.9543914E-001	-5.9543127E-001	4.5760027E+004	4.775019902510394E+001
-1.315447595089257E-002	-5.9746069E-001	-5.9743130E-001	4.5418813E+004	4.795019902005151E+001
-1.333425509481523E-002	-5.9955746E-001	-5.9943134E-001	4.4963699E+004	4.815019901499909E+001
-1.351166456909278E-002	-6.0146850E-001	-6.0143131E-001	4.4514762E+004	4.835019900994666E+001
-1.368174478443357E-002	-6.0355937E-001	-6.0343128E-001	4.4114211E+004	4.855019900489424E+001
-1.384347491797856E-002	-6.0540032E-001	-6.0543132E-001	4.3731816E+004	4.875019899984181E+001
-1.404793955960637E-002	-6.0744435E-001	-6.0743135E-001	4.3240813E+004	4.895019899478939E+001
-1.421175340439730E-002	-6.0948068E-001	-6.0943133E-001	4.2885680E+004	4.915019898973696E+001
-1.439544376589846E-002	-6.1151844E-001	-6.1143130E-001	4.2480000E+004	4.935019898468454E+001
-1.458011100347454E-002	-6.1351955E-001	-6.1343133E-001	4.2079211E+004	4.955019897963211E+001
-1.476452707116602E-002	-6.1551946E-001	-6.1543137E-001	4.1689074E+004	4.975019897457969E+001
-1.494923032291734E-002	-6.1754715E-001	-6.1743128E-001	4.1309629E+004	4.995019896952726E+001
-1.513401891990267E-002	-6.1951703E-001	-6.1943132E-001	4.0935395E+004	5.015019896447484E+001
-1.531345162476261E-002	-6.2145817E-001	-6.2143135E-001	4.0582500E+004	5.035019895942241E+001
-1.549195445695983E-002	-6.2353110E-001	-6.2343127E-001	4.0248703E+004	5.055019895436999E+001
-1.567109128858372E-002	-6.2552923E-001	-6.2543130E-001	3.9916125E+004	5.075019894931756E+001
-1.584825317149388E-002	-6.2757158E-001	-6.2743139E-001	3.9598785E+004	5.095019894426514E+001
-1.603434577358825E-002	-6.2953877E-001	-6.2943137E-001	3.9261895E+004	5.115019893921271E+001
-1.624254482867440E-002	-6.3152206E-001	-6.3143128E-001	3.8880734E+004	5.135019893416029E+001
-1.643843939192609E-002	-6.3344979E-001	-6.3343132E-001	3.8534668E+004	5.155019892910786E+001
-1.662060053905053E-002	-6.3557327E-001	-6.3543141E-001	3.8240090E+004	5.175019892405544E+001
-1.680340273136827E-002	-6.3752830E-001	-6.3743126E-001	3.7940430E+004	5.195019891900301E+001
-1.699954054615080E-002	-6.3945073E-001	-6.3943130E-001	3.7615766E+004	5.215019891395059E+001
-1.719378538642510E-002	-6.4154935E-001	-6.4143139E-001	3.7312863E+004	5.235019890889816E+001
-1.739016700973695E-002	-6.4353001E-001	-6.4343131E-001	3.7005395E+004	5.255019890384574E+001
-1.757432297774952E-002	-6.4559811E-001	-6.4543134E-001	3.6735305E+004	5.275019889879331E+001
-1.777377685552031E-002	-6.4745921E-001	-6.4743131E-001	3.6427777E+004	5.295019889374089E+001
-1.796640107083999E-002	-6.4955270E-001	-6.4943135E-001	3.6153746E+004	5.315019888868846E+001
-1.815468035907594E-002	-6.5150517E-001	-6.5143126E-001	3.5886348E+004	5.335019888363604E+001
-1.834190848057501E-002	-6.5355241E-001	-6.5343130E-001	3.5631648E+004	5.355019887858361E+001
-1.855378197635416E-002	-6.5555543E-001	-6.5543139E-001	3.5332711E+004	5.375019887353119E+001
-1.878052613726458E-002	-6.5759671E-001	-6.5743130E-001	3.5014816E+004	5.395019886847876E+001
-1.895333243343364E-002	-6.5953261E-001	-6.5943128E-001	3.4797711E+004	5.415019886342634E+001
-1.913022756158922E-002	-6.6157120E-001	-6.6143137E-001	3.4582504E+004	5.435019885837391E+001
-1.934608271941560E-002	-6.6350323E-001	-6.6343129E-001	3.4296516E+004	5.455019885332149E+001
-1.954051280220495E-002	-6.6552788E-001	-6.6543126E-001	3.4058875E+004	5.475019884826906E+001
-1.974407640032905E-002	-6.6752023E-001	-6.6743129E-001	3.3808633E+004	5.495019884321664E+001
-1.995813343481245E-002	-6.6955161E-001	-6.6943139E-001	3.3547809E+004	5.515019883816422E+001
-2.016271414000814E-002	-6.7151421E-001	-6.7143130E-001	3.3304754E+004	5.535019883311179E+001
-2.034014451479575E-002	-6.7351085E-001	-6.7343128E-001	3.3112391E+004	5.555019882805937E+001
-2.056010978722987E-002	-6.7553520E-001	-6.7543137E-001	3.2856594E+004	5.575019882300694E+001
-2.077979381476544E-002	-6.7748839E-001	-6.7743129E-001	3.2603230E+004	5.595019881795452E+001
-2.101543705563041E-002	-6.7954659E-001	-6.7943132E-001	3.2335592E+004	5.615019881290209E+001
-2.120761066287669E-002	-6.8147272E-001	-6.8143129E-001	3.2133404E+004	5.635019880784967E+001
-2.142479275223906E-002	-6.8349993E-001	-6.8343133E-001	3.1902289E+004	5.655019880279724E+001
-2.163979557357082E-002	-6.8550193E-001	-6.8543130E-001	3.1677838E+004	5.675019879774482E+001
-2.185608133372208E-002	-6.8748564E-001	-6.8743128E-001	3.1455119E+004	5.695019879269239E+001
-2.206827724661869E-002	-6.8952799E-001	-6.8943137E-001	3.1245211E+004	5.715019878763997E+001
-2.228760063136637E-002	-6.9149858E-001	-6.9143134E-001	3.1026156E+004	5.735019878258754E+001
-2.249716148780900E-002	-6.9344014E-001	-6.9343126E-001	3.0823451E+004	5.755019877753512E+001
-2.274541308640876E-002	-6.9545388E-001	-6.9543135E-001	3.0575566E+004	5.775019877248269E+001
-2.293570126687197E-002	-6.9746780E-001	-6.9743139E-001	3.0409701E+004	5.795019876743027E+001
-2.318250297203395E-002	-6.9952822E-001	-6.9943136E-001	3.0174836E+004	5.815019876237784E+001
-2.339073870283007E-002	-7.0145285E-001	-7.0143133E-001	2.9988486E+004	5.835019875732542E+001
-2.360771039116473E-002	-7.0351684E-001	-7.0343143E-001	2.9800299E+004	5.855019875227299E+001
-2.383027716630615E-002	-7.0550424E-001	-7.0543140E-001	2.9605373E+004	5.875019874722057E+001
-2.409684228567743E-002	-7.0746052E-001	-7.0743126E-001	2.9359055E+004	5.895019874216814E+001
-2.432950057816330E-002	-7.0948309E-001	-7.0943135E-001	2.9161432E+004	5.915019873711572E+001
-2.456222740165637E-002	-7.1147835E-001	-7.1143132E-001	2.8966361E+004	5.935019873206329E+001
-2.479556138635675E-002	-7.1349674E-001	-7.1343130E-001	2.8775180E+004	5.955019872701087E+001
-2.502762835341898E-002	-7.1552503E-001	-7.1543133E-001	2.8589406E+004	5.975019872195844E+001
-2.530253830797716E-002	-7.1745002E-001	-7.1743137E-001	2.8354863E+004	5.995019871690602E+001
-2.551967029083863E-002	-7.1948493E-001	-7.1943134E-001	2.8193348E+004	6.015019871185359E+001
-2.578820368484119E-002	-7.2147697E-001	-7.2143131E-001	2.7977016E+004	6.035019870680117E+001
-2.605188296935707E-002	-7.2346532E-001	-7.2343141E-001	2.7770174E+004	6.055019870174874E+001
-2.631175852287759E-002	-7.2551590E-001	-7.2543132E-001	2.7573828E+004	6.075019869669632E+001
-2.656833721613061E-002	-7.2753477E-001	-7.2743130E-001	2.7383527E+004	6.095019869164389E+001
-2.680464297778004E-002	-7.2938079E-001	-7.2943133E-001	2.7210986E+004	6.115019868659147E+001
-2.708159934263672E-002	-7.3155463E-001	-7.3143137E-001	2.7012977E+004	6.135019868153904E+001
-2.736802309352365E-002	-7.3347253E-001	-7.3343134E-001	2.6800348E+004	6.155019867648662E+001
-2.762163533457457E-002	-7.3547065E-001	-7.3543131E-001	2.6626615E+004	6.175019867143419E+001
-2.792231036194909E-002	-7.3755622E-001	-7.3743141E-001	2.6414584E+004	6.195019866638177E+001
-2.818458938132767E-002	-7.3950809E-001	-7.3943138E-001	2.6238029E+004	6.215019866132934E+001
-2.846925019348878E-002	-7.4149930E-001	-7.4143124E-001	2.6045621E+004	6.235019865627692E+001
-2.875813528131943E-002	-7.4348474E-001	-7.4343133E-001	2.5853023E+004	6.255019865122449E+001
-2.908321643800454E-002	-7.4547464E-001	-7.4543142E-001	2.5632469E+004	6.275019864617207E+001
-2.936014780656426E-002	-7.4750233E-001	-7.4743128E-001	2.5459760E+004	6.295019864111964E+001
-2.968617845400573E-002	-7.4946499E-001	-7.4943137E-001	2.5246260E+004	6.315019863606722E+001
-2.999394173050698E-002	-7.5148237E-001	-7.5143135E-001	2.5054473E+004	6.335019863101479E+001
-3.032084170712028E-002	-7.5356811E-001	-7.5343132E-001	2.4853139E+004	6.355019862596237E+001
-3.061585147525112E-002	-7.5546533E-001	-7.5543129E-001	2.4675627E+004	6.375019862090994E+001
-3.098586072687004E-002	-7.5750160E-001	-7.5743139E-001	2.4446686E+004	6.395019861585752E+001
-3.130552561688621E-002	-7.5956804E-001	-7.5943136E-001	2.4263066E+004	6.415019861080509E+001
-3.165478566334134E-002	-7.6145178E-001	-7.6143128E-001	2.4054871E+004	6.435019860575267E+001
-3.202325831269810E-002	-7.6352143E-001	-7.6343131E-001	2.3842715E+004	6.455019860070024E+001
-3.238323437184099E-002	-7.6547670E-001	-7.6543134E-001	2.3638057E+004	6.475019859564782E+001
-3.275283523666295E-002	-7.6741773E-001	-7.6743132E-001	2.3430574E+004	6.495019859059539E+001
-3.315012914454873E-002	-7.6952916E-001	-7.6943135E-001	2.3213459E+004	6.515019858554297E+001
-3.351411467804544E-002	-7.7152044E-001	-7.7143139E-001	2.3020762E+004	6.535019858049054E+001
-3.392111236211592E-002	-7.7351671E-001	-7.7343136E-001	2.2803400E+004	6.555019857543812E+001
-3.434405005890695E-002	-7.7550048E-001	-7.7543133E-001	2.2580344E+004	6.575019857038569E+001
-3.476225548606499E-002	-7.7751225E-001	-7.7743131E-001	2.2366564E+004	6.595019856533327E+001
-3.519332415002974E-002	-7.7946848E-001	-7.7943140E-001	2.2148191E+004	6.615019856028084E+001
-3.562059540981571E-002	-7.8150672E-001	-7.8143126E-001	2.1939744E+004	6.635019855522842E+001
-3.612393803436242E-002	-7.8346407E-001	-7.8343135E-001	2.1688225E+004	6.655019855017599E+001
-3.657920771466416E-002	-7.8548938E-001	-7.8543144E-001	2.1473658E+004	6.675019854512357E+001
-3.708231779181792E-002	-7.8748482E-001	-7.8743130E-001	2.1236127E+004	6.695019854007114E+001
-3.758589936105657E-002	-7.8951186E-001	-7.8943139E-001	2.1005533E+004	6.715019853501872E+001
-3.808066123767062E-002	-7.9150826E-001	-7.9143137E-001	2.0785045E+004	6.735019852996629E+001
-3.864716032737450E-002	-7.9350239E-001	-7.9343134E-001	2.0531971E+004	6.755019852491387E+001
-3.921050863533720E-002	-7.9548556E-001	-7.9543144E-001	2.0287561E+004	6.775019851986144E+001
-3.978107159201244E-002	-7.9751062E-001	-7.9743135E-001	2.0047490E+004	6.795019851480902E+001
-4.035931137889898E-002	-7.9946965E-001	-7.9943144E-001	1.9808803E+004	6.815019850975659E+001
-4.095936173550947E-002	-8.0152792E-001	-8.0143136E-001	1.9568857E+004	6.835019850470417E+001
-4.158836976723203E-002	-8.0349487E-001	-8.0343127E-001	1.9320182E+004	6.855019849965174E+001
-4.227066516338784E-002	-8.0551022E-001	-8.0543143E-001	1.9056010E+004	6.875019849459932E+001
-4.293638724905524E-002	-8.0747581E-001	-8.0743140E-001	1.8806328E+004	6.895019848954689E+001
-4.364300380902320E-002	-8.0945289E-001	-8.0943137E-001	1.8547141E+004	6.915019848449447E+001
-4.435207245131217E-002	-8.1154156E-001	-8.1143135E-001	1.8297715E+004	6.935019847944204E+001
-4.512474038337244E-002	-8.1351846E-001	-8.1343138E-001	1.8028213E+004	6.955019847438962E+001
-4.591067687686445E-002	-8.1553447E-001	-8.1543136E-001	1.7763504E+004	6.975019846933719E+001
-4.673885581397208E-002	-8.1756550E-001	-8.1743133E-001	1.7492201E+004	6.995019846428477E+001
-4.755680502261450E-002	-8.1953794E-001	-8.1943142E-001	1.7232822E+004	7.015019845923234E+001
-4.848929441532907E-002	-8.2145876E-001	-8.2143140E-001	1.6941033E+004	7.035019845417992E+001
-4.937966449118586E-002	-8.2350063E-001	-8.2343137E-001	1.6676918E+004	7.055019844912749E+001
-5.033264027553663E-002	-8.2552755E-001	-8.2543135E-001	1.6401436E+004	7.075019844407507E+001
-5.132849998677114E-002	-8.2748091E-001	-8.2743132E-001	1.6121276E+004	7.095019843902264E+001
-5.234429436892063E-002	-8.2957172E-001	-8.2943141E-001	1.5848369E+004	7.115019843397022E+001
-5.343173646902388E-002	-8.3149350E-001	-8.3143133E-001	1.5561791E+004	7.135019842891779E+001
-5.451801612861318E-002	-8.3352137E-001	-8.3343148E-001	1.5288916E+004	7.155019842386537E+001
-5.569224028748843E-002	-8.3551794E-001	-8.3543146E-001	1.5002412E+004	7.175019841881294E+001
-5.692199499255513E-002	-8.3752173E-001	-8.3743125E-001	1.4713499E+004	7.195019841376052E+001
-5.814153121260612E-002	-8.3953053E-001	-8.3943141E-001	1.4439430E+004	7.215019840870809E+001
-5.947153033401431E-002	-8.4150946E-001	-8.4143138E-001	1.4149786E+004	7.235019840365567E+001
-6.082981570292278E-002	-8.4347659E-001	-8.4343135E-001	1.3866171E+004	7.255019839860324E+001
-6.223565623398586E-002	-8.4550065E-001	-8.4543139E-001	1.3585470E+004	7.275019839355082E+001
-6.377775325279367E-002	-8.4757781E-001	-8.4743142E-001	1.3289553E+004	7.295019838849839E+001
-6.532897169663754E-002	-8.4951442E-001	-8.4943140E-001	1.3003640E+004	7.315019838344597E+001
-6.692552425246046E-002	-8.5158545E-001	-8.5143131E-001	1.2724375E+004	7.335019837839354E+001
-6.861222512933432E-002	-8.5352349E-001	-8.5343140E-001	1.2439816E+004	7.355019837334112E+001
-7.036636996372314E-002	-8.5552728E-001	-8.5543138E-001	1.2158185E+004	7.375019836828869E+001
-7.221483261601125E-002	-8.5755646E-001	-8.5743135E-001	1.1875074E+004	7.395019836323627E+001
-7.410292914390670E-002	-8.5953718E-001	-8.5943133E-001	1.1599233E+004	7.415019835818384E+001
-7.610136491580222E-002	-8.6159283E-001	-8.6143142E-001	1.1321647E+004	7.435019835313142E+001
-7.816400632205234E-002	-8.6350417E-001	-8.6343139E-001	1.1047338E+004	7.455019834807899E+001
-8.033731074839046E-002	-8.6550838E-001	-8.6543131E-001	1.0773430E+004	7.475019834302657E+001
-8.257185712999437E-002	-8.6756563E-001	-8.6743146E-001	1.0506796E+004	7.495019833797414E+001
-8.495057333691572E-002	-8.6949772E-001	-8.6943144E-001	1.0235337E+004	7.515019833292172E+001
-8.742195856229507E-002	-8.7156451E-001	-8.7143129E-001	9.9696289E+003	7.535019832786929E+001
-8.994894773992890E-002	-8.7356865E-001	-8.7343138E-001	9.7118271E+003	7.555019832281687E+001
-9.262631888936362E-002	-8.7543660E-001	-8.7543148E-001	9.4512725E+003	7.575019831776444E+001
-9.618751003366458E-002	-8.7761527E-001	-8.7753141E-001	9.1240049E+003	7.596019831245940E+001
-9.930680575410966E-002	-8.7969130E-001	-8.7963134E-001	8.8583184E+003	7.617019830715435E+001
-1.023906723389196E-001	-8.8170046E-001	-8.8163131E-001	8.6111406E+003	7.637019830210193E+001
-1.055152867825664E-001	-8.8370657E-001	-8.8363141E-001	8.3751523E+003	7.657019829704950E+001
-1.088883032042389E-001	-8.8571829E-001	-8.8563132E-001	8.1341914E+003	7.677019829199708E+001
-1.123258365696198E-001	-8.8772237E-001	-8.8763148E-001	7.9031006E+003	7.697019828694465E+001
-1.159063491731660E-001	-8.8968301E-001	-8.8963145E-001	7.6758779E+003	7.717019828189223E+001
-1.196890831766583E-001	-8.9170581E-001	-8.9163131E-001	7.4501851E+003	7.737019827683980E+001
-1.235993064331764E-001	-8.9368588E-001	-8.9363140E-001	7.2305088E+003	7.757019827178738E+001
-1.276398320743588E-001	-8.9569432E-001	-8.9563137E-001	7.0173574E+003	7.777019826673495E+001
-1.319479746036567E-001	-8.9770842E-001	-8.9763135E-001	6.8035029E+003	7.797019826168253E+001
-1.362927378526977E-001	-8.9968616E-001	-8.9963138E-001	6.6011304E+003	7.817019825663010E+001
-1.408628426004386E-001	-9.0163416E-001	-9.0163141E-001	6.4007949E+003	7.837019825157768E+001
-1.456358986368187E-001	-9.0373141E-001	-9.0363139E-001	6.2054165E+003	7.857019824652525E+001
-1.505530352340994E-001	-9.0576524E-001	-9.0563136E-001	6.0162534E+003	7.877019824147283E+001
-1.555933379114116E-001	-9.0769815E-001	-9.0763140E-001	5.8337856E+003	7.897019823642040E+001
-1.608691671694255E-001	-9.0972400E-001	-9.0963137E-001	5.6550552E+003	7.917019823136798E+001
-1.663200528225741E-001	-9.1169822E-001	-9.1163135E-001	5.4815894E+003	7.937019822631555E+001
-1.718764300046327E-001	-9.1376662E-001	-9.1363144E-001	5.3164160E+003	7.957019822126313E+001
-1.776472691144546E-001	-9.1572624E-001	-9.1563141E-001	5.1547441E+003	7.977019821621070E+001
-1.835710935942974E-001	-9.1772938E-001	-9.1763139E-001	4.9993130E+003	7.997019821115828E+001
-1.895863638014497E-001	-9.1969359E-001	-9.1963136E-001	4.8510537E+003	8.017019820610585E+001
-1.956984121162370E-001	-9.2169565E-001	-9.2163146E-001	4.7097759E+003	8.037019820105343E+001
-2.020542357062030E-001	-9.2372072E-001	-9.2363149E-001	4.5716475E+003	8.057019819600100E+001
-2.092177355429681E-001	-9.2569673E-001	-9.2563140E-001	4.4245615E+003	8.077019819094858E+001
-2.159154200356226E-001	-9.2773837E-001	-9.2763138E-001	4.2967676E+003	8.097019818589615E+001
-2.224387868166042E-001	-9.2973053E-001	-9.2963147E-001	4.1797139E+003	8.117019818084373E+001
-2.290755036559429E-001	-9.3170893E-001	-9.3163133E-001	4.0672568E+003	8.137019817579130E+001
-2.357142856006688E-001	-9.3370801E-001	-9.3363136E-001	3.9611855E+003	8.157019817073888E+001
-2.424332851189233E-001	-9.3571383E-001	-9.3563139E-001	3.8596755E+003	8.177019816568645E+001
-2.490918520952066E-001	-9.3772793E-001	-9.3763137E-001	3.7645869E+003	8.197019816063403E+001
-2.557181491349705E-001	-9.3971044E-001	-9.3963134E-001	3.6747898E+003	8.217019815558160E+001
-2.624370487398402E-001	-9.4170856E-001	-9.4163138E-001	3.5883218E+003	8.237019815052918E+001
-2.691586541493431E-001	-9.4372755E-001	-9.4363135E-001	3.5062129E+003	8.257019814547675E+001
-2.758843694917026E-001	-9.4572270E-001	-9.4563133E-001	3.4279678E+003	8.277019814042433E+001
-2.825724499811193E-001	-9.4771093E-001	-9.4763142E-001	3.3538689E+003	8.297019813537190E+001
-2.893598140354623E-001	-9.4977200E-001	-9.4963145E-001	3.2823218E+003	8.317019813031948E+001
-2.962224127306623E-001	-9.5175415E-001	-9.5163137E-001	3.2129714E+003	8.337019812526705E+001
-3.030628626405880E-001	-9.5372081E-001	-9.5363140E-001	3.1469404E+003	8.357019812021463E+001
-3.099943054396475E-001	-9.5572937E-001	-9.5563143E-001	3.0830547E+003	8.377019811516220E+001
-3.170390159689953E-001	-9.5773721E-001	-9.5763147E-001	3.0208811E+003	8.397019811010978E+001
-3.258619965191354E-001	-9.5976895E-001	-9.5963138E-001	2.9453232E+003	8.417019810505735E+001
-3.331633551012465E-001	-9.6174735E-001	-9.6163136E-001	2.8867141E+003	8.437019810000493E+001
-3.406909452181082E-001	-9.6375906E-001	-9.6363145E-001	2.8288367E+003	8.457019809495250E+001
-3.484211083999984E-001	-9.6575433E-001	-9.6563131E-001	2.7718020E+003	8.477019808990008E+001
-3.564188684423435E-001	-9.6772981E-001	-9.6763134E-001	2.7151475E+003	8.497019808484765E+001
-3.645788329566839E-001	-9.6977425E-001	-9.6963137E-001	2.6599851E+003	8.517019807979523E+001
-3.728636183043150E-001	-9.7173512E-001	-9.7163135E-001	2.6061409E+003	8.537019807474280E+001
-3.814928317801565E-001	-9.7374368E-001	-9.7363138E-001	2.5524561E+003	8.557019806969038E+001
-3.901702376893486E-001	-9.7575486E-001	-9.7563142E-001	2.5008440E+003	8.577019806463795E+001
-3.990644376488444E-001	-9.7770697E-001	-9.7763139E-001	2.4499978E+003	8.597019805958553E+001
-4.081991645011229E-001	-9.7969395E-001	-9.7963136E-001	2.4000391E+003	8.617019805453310E+001
-4.175367978086801E-001	-9.8168147E-001	-9.8163140E-001	2.3511257E+003	8.637019804948068E+001
-4.268842773541568E-001	-9.8369181E-001	-9.8363143E-001	2.3043523E+003	8.657019804442825E+001
-4.374607810602775E-001	-9.8569351E-001	-9.8563135E-001	2.2532158E+003	8.677019803937583E+001
-4.479770079601451E-001	-9.8767596E-001	-9.8763132E-001	2.2047471E+003	8.697019803432340E+001
-4.577151689163159E-001	-9.8971605E-001	-9.8963141E-001	2.1622969E+003	8.717019802927098E+001
-4.674380055318279E-001	-9.9170059E-001	-9.9163145E-001	2.1215659E+003	8.737019802421855E+001
-4.772620655410398E-001	-9.9370462E-001	-9.9363136E-001	2.0820942E+003	8.757019801916613E+001
-4.870295687040098E-001	-9.9571735E-001	-9.9563134E-001	2.0444700E+003	8.777019801411370E+001
-4.968782972941478E-001	-9.9769920E-001	-9.9763143E-001	2.0079347E+003	8.797019800906128E+001
-5.067417000604117E-001	-9.9967778E-001	-9.9963129E-001	1.9727561E+003	8.817019800400885E+001
-5.164292327882256E-001	-1.0017281E+000	-1.0016314E+000	1.9397198E+003	8.837019799895643E+001
-5.260811254736915E-001	-1.0037205E+000	-1.0036314E+000	1.9079197E+003	8.857019799390400E+001
-5.357064435051555E-001	-1.0057057E+000	-1.0056313E+000	1.8773448E+003	8.877019798885158E+001
-5.452453302358897E-001	-1.0076780E+000	-1.0076314E+000	1.8481187E+003	8.897019798379915E+001
-5.567759480369610E-001	-1.0097145E+000	-1.0096314E+000	1.8135023E+003	8.917019797874673E+001
-5.661440668902191E-001	-1.0117273E+000	-1.0116314E+000	1.7870492E+003	8.937019797369430E+001
-5.754400301268507E-001	-1.0137155E+000	-1.0136313E+000	1.7616354E+003	8.957019796864188E+001
-5.846191772181637E-001	-1.0157156E+000	-1.0156314E+000	1.7373970E+003	8.977019796358945E+001
-5.937008334665883E-001	-1.0177153E+000	-1.0176314E+000	1.7141888E+003	8.997019795853703E+001
-6.027398279228180E-001	-1.0197365E+000	-1.0196314E+000	1.6918353E+003	9.017019795348460E+001
-6.117231319119951E-001	-1.0217330E+000	-1.0216314E+000	1.6702540E+003	9.037019794843218E+001
-6.205031473248734E-001	-1.0237247E+000	-1.0236315E+000	1.6498300E+003	9.057019794337975E+001
-6.295574242185760E-001	-1.0257269E+000	-1.0256314E+000	1.6292826E+003	9.077019793832733E+001
-6.382703702736343E-001	-1.0277619E+000	-1.0276314E+000	1.6102297E+003	9.097019793327490E+001
-6.468353227853707E-001	-1.0297208E+000	-1.0296314E+000	1.5919365E+003	9.117019792822248E+001
-6.555345191656201E-001	-1.0317588E+000	-1.0316315E+000	1.5739198E+003	9.137019792317005E+001
-6.653076821384847E-001	-1.0337186E+000	-1.0336313E+000	1.5537451E+003	9.157019791811763E+001
-6.748556955136751E-001	-1.0357404E+000	-1.0356313E+000	1.5347583E+003	9.177019791306520E+001
-6.833628004674477E-001	-1.0377281E+000	-1.0376314E+000	1.5185609E+003	9.197019790801278E+001
-6.918326214065740E-001	-1.0397369E+000	-1.0396314E+000	1.5028734E+003	9.217019790296035E+001
-7.002728965910627E-001	-1.0417659E+000	-1.0416313E+000	1.4876571E+003	9.237019789790793E+001
-7.086973540324450E-001	-1.0437009E+000	-1.0436313E+000	1.4727032E+003	9.257019789285550E+001
-7.171420389047212E-001	-1.0457648E+000	-1.0456314E+000	1.4582394E+003	9.277019788780308E+001
-7.257053285854049E-001	-1.0477020E+000	-1.0476315E+000	1.4437017E+003	9.297019788275065E+001
-7.342848091844543E-001	-1.0497365E+000	-1.0496314E+000	1.4296040E+003	9.317019787769823E+001
-7.429843690423752E-001	-1.0517981E+000	-1.0516315E+000	1.4156396E+003	9.337019787264580E+001
-7.518872717424987E-001	-1.0537429E+000	-1.0536314E+000	1.4014639E+003	9.357019786759338E+001
-7.606462981644819E-001	-1.0557809E+000	-1.0556313E+000	1.3880050E+003	9.377019786254095E+001
-7.695816945149438E-001	-1.0577154E+000	-1.0576314E+000	1.3744031E+003	9.397019785748853E+001
-7.802715563297689E-001	-1.0597291E+000	-1.0596315E+000	1.3581542E+003	9.417019785243610E+001
-7.903972003701849E-001	-1.0617751E+000	-1.0616313E+000	1.3433436E+003	9.437019784738368E+001
-7.997635948110595E-001	-1.0637335E+000	-1.0636314E+000	1.3300598E+003	9.457019784233125E+001
-8.092833580934951E-001	-1.0657288E+000	-1.0656314E+000	1.3168796E+003	9.477019783727883E+001
-8.188818423098603E-001	-1.0677725E+000	-1.0676315E+000	1.3039397E+003	9.497019783222640E+001
-8.288160063191201E-001	-1.0697817E+000	-1.0696315E+000	1.2907347E+003	9.517019782717398E+001
-8.390994801813241E-001	-1.0717322E+000	-1.0716313E+000	1.2772408E+003	9.537019782212155E+001
-8.493985740759307E-001	-1.0737734E+000	-1.0736313E+000	1.2641572E+003	9.557019781706913E+001
-8.602127731944513E-001	-1.0757161E+000	-1.0756314E+000	1.2505233E+003	9.577019781201670E+001
-8.710853433122452E-001	-1.0777124E+000	-1.0776314E+000	1.2372064E+003	9.597019780696428E+001
-8.823256989235642E-001	-1.0797260E+000	-1.0796314E+000	1.2237272E+003	9.617019780191185E+001
-8.963007052722638E-001	-1.0817145E+000	-1.0816313E+000	1.2068656E+003	9.637019779685943E+001
-9.090662256829294E-001	-1.0837058E+000	-1.0836314E+000	1.1921088E+003	9.657019779180700E+001
-9.215276211567707E-001	-1.0857170E+000	-1.0856314E+000	1.1781708E+003	9.677019778675458E+001
-9.344787114551156E-001	-1.0877228E+000	-1.0876315E+000	1.1639888E+003	9.697019778170215E+001
-9.478576405822814E-001	-1.0897387E+000	-1.0896314E+000	1.1496860E+003	9.717019777664973E+001
-9.615740449909023E-001	-1.0917780E+000	-1.0916314E+000	1.1354071E+003	9.737019777159730E+001
-9.759084834144929E-001	-1.0937414E+000	-1.0936314E+000	1.1207418E+003	9.757019776654488E+001
-9.906838471978006E-001	-1.0957755E+000	-1.0956314E+000	1.1060798E+003	9.777019776149245E+001
-1.007510979057976E+000	-1.0977358E+000	-1.0976315E+000	1.0895521E+003	9.797019775644003E+001
-1.025628094517052E+000	-1.0997441E+000	-1.0996314E+000	1.0722640E+003	9.817019775138760E+001
-1.042467388934767E+000	-1.1017413E+000	-1.1016314E+000	1.0568593E+003	9.837019774633518E+001
-1.059848074376780E+000	-1.1037391E+000	-1.1036314E+000	1.0414126E+003	9.857019774128275E+001
-1.080688598740378E+000	-1.1057973E+000	-1.1057315E+000	1.0232339E+003	9.878019773597771E+001
-1.100744874391900E+000	-1.1079111E+000	-1.1078315E+000	1.0065104E+003	9.899019773067266E+001
-1.124320620311898E+000	-1.1098876E+000	-1.1098315E+000	9.8716290E+002	9.919019772562024E+001
-1.145258212863320E+000	-1.1119182E+000	-1.1118314E+000	9.7088867E+002	9.939019772056781E+001
-1.167110798293364E+000	-1.1138995E+000	-1.1138314E+000	9.5440765E+002	9.959019771551539E+001
-1.189789679137959E+000	-1.1159118E+000	-1.1158314E+000	9.3790680E+002	9.979019771046296E+001
-1.213435392243927E+000	-1.1178583E+000	-1.1178315E+000	9.2123431E+002	9.999019770541054E+001
-1.240742469337388E+000	-1.1199210E+000	-1.1198314E+000	9.0262164E+002	1.001901977003581E+002
-1.268836959731889E+000	-1.1219099E+000	-1.1218314E+000	8.8420331E+002	1.003901976953057E+002
-1.296696659794200E+000	-1.1238735E+000	-1.1238314E+000	8.6672040E+002	1.005901976902533E+002
-1.324680647308053E+000	-1.1259339E+000	-1.1258314E+000	8.4996631E+002	1.007901976852008E+002
-1.357196608849733E+000	-1.1278751E+000	-1.1278315E+000	8.3103296E+002	1.009901976801484E+002
-1.390983538131941E+000	-1.1299070E+000	-1.1298314E+000	8.1230798E+002	1.011901976750960E+002
-1.423744392148365E+000	-1.1319410E+000	-1.1318314E+000	7.9504504E+002	1.013901976700436E+002
-1.459673293070051E+000	-1.1339201E+000	-1.1338314E+000	7.7683142E+002	1.015901976649911E+002
-1.499747374802489E+000	-1.1358777E+000	-1.1358315E+000	7.5737939E+002	1.017901976599387E+002
-1.537514723651540E+000	-1.1378821E+000	-1.1378314E+000	7.4007886E+002	1.019901976548863E+002
-1.582003744450013E+000	-1.1398990E+000	-1.1398314E+000	7.2054126E+002	1.021901976498339E+002
-1.627169518277492E+000	-1.1418971E+000	-1.1418314E+000	7.0176898E+002	1.023901976447814E+002
-1.671172446049667E+000	-1.1438996E+000	-1.1438313E+000	6.8448926E+002	1.025901976397290E+002
-1.724511880469839E+000	-1.1458901E+000	-1.1458315E+000	6.6447217E+002	1.027901976346766E+002
-1.776363107741149E+000	-1.1479238E+000	-1.1478314E+000	6.4622137E+002	1.029901976296242E+002
-1.834858314385485E+000	-1.1498842E+000	-1.1498314E+000	6.2668829E+002	1.031901976245717E+002
-1.890904578779423E+000	-1.1519186E+000	-1.1518314E+000	6.0918921E+002	1.033901976195193E+002
-1.955726559014138E+000	-1.1538882E+000	-1.1538314E+000	5.9000488E+002	1.035901976144669E+002
-2.018365336214604E+000	-1.1559246E+000	-1.1558315E+000	5.7270331E+002	1.037901976094145E+002
-2.091124988974075E+000	-1.1579155E+000	-1.1578314E+000	5.5372852E+002	1.039901976043620E+002
-2.162031129610778E+000	-1.1598792E+000	-1.1598313E+000	5.3647662E+002	1.041901975993096E+002
-2.237878823918955E+000	-1.1618447E+000	-1.1618314E+000	5.1917230E+002	1.043901975942572E+002
-2.324743751411136E+000	-1.1639004E+000	-1.1638314E+000	5.0065750E+002	1.045901975892048E+002
-2.411953885386993E+000	-1.1658863E+000	-1.1658313E+000	4.8337836E+002	1.047901975841523E+002
-2.500693253344963E+000	-1.1678971E+000	-1.1678314E+000	4.6702933E+002	1.049901975790999E+002
-2.597049420500969E+000	-1.1699045E+000	-1.1698314E+000	4.5047449E+002	1.051901975740475E+002
-2.698534570262701E+000	-1.1719335E+000	-1.1718314E+000	4.3428516E+002	1.053901975689951E+002
-2.805368037873251E+000	-1.1738694E+000	-1.1738313E+000	4.1843686E+002	1.055901975639426E+002
-2.922174654123854E+000	-1.1758777E+000	-1.1758314E+000	4.0239816E+002	1.057901975588902E+002
-3.041743607460887E+000	-1.1779242E+000	-1.1778314E+000	3.8725293E+002	1.059901975538378E+002
-3.167466616921137E+000	-1.1798830E+000	-1.1798314E+000	3.7250052E+002	1.061901975487854E+002
-3.302419023584051E+000	-1.1818707E+000	-1.1818314E+000	3.5788031E+002	1.063901975437329E+002
-3.449178482973936E+000	-1.1838387E+000	-1.1838313E+000	3.4322339E+002	1.065901975386805E+002
-3.603782267088000E+000	-1.1859243E+000	-1.1858314E+000	3.2907767E+002	1.067901975336281E+002
-3.769201381744438E+000	-1.1878363E+000	-1.1878314E+000	3.1514270E+002	1.069901975285757E+002
-3.948234094784108E+000	-1.1898552E+000	-1.1898314E+000	3.0136389E+002	1.071901975235232E+002
-4.131737293907840E+000	-1.1918721E+000	-1.1918315E+000	2.8846756E+002	1.073901975184708E+002
-4.327718239150878E+000	-1.1939205E+000	-1.1938313E+000	2.7587759E+002	1.075901975134184E+002
-4.540816211004355E+000	-1.1958638E+000	-1.1958314E+000	2.6335880E+002	1.077901975083660E+002
-4.760067129182445E+000	-1.1978821E+000	-1.1978314E+000	2.5165234E+002	1.079901975033135E+002
-4.984674483537670E+000	-1.1999060E+000	-1.1998314E+000	2.4071902E+002	1.081901974982611E+002
-5.225545037157687E+000	-1.2019097E+000	-1.2018313E+000	2.3000656E+002	1.083901974932087E+002
-5.483091746260506E+000	-1.2038871E+000	-1.2038314E+000	2.1956355E+002	1.085901974881563E+002
-5.764843666668384E+000	-1.2059180E+000	-1.2058314E+000	2.0918484E+002	1.087901974831038E+002
-6.044926619043171E+000	-1.2078599E+000	-1.2078315E+000	1.9981381E+002	1.089901974780514E+002
-6.352653624114012E+000	-1.2098942E+000	-1.2098315E+000	1.9045493E+002	1.091901974729990E+002
-6.670767117181867E+000	-1.2118894E+000	-1.2118313E+000	1.8167166E+002	1.093901974679466E+002
-7.014186262138281E+000	-1.2138851E+000	-1.2138313E+000	1.7306143E+002	1.095901974628941E+002
-7.382132778092000E+000	-1.2159233E+000	-1.2158314E+000	1.6471165E+002	1.097901974578417E+002
-7.762908278949681E+000	-1.2179234E+000	-1.2178315E+000	1.5689009E+002	1.099901974527893E+002
-8.159393000697378E+000	-1.2199520E+000	-1.2198315E+000	1.4951505E+002	1.101901974477369E+002
-8.578437670963950E+000	-1.2219579E+000	-1.2218313E+000	1.4244528E+002	1.103901974426844E+002
-9.019159206592562E+000	-1.2239529E+000	-1.2238314E+000	1.3570587E+002	1.105901974376320E+002
-9.489184535279591E+000	-1.2260064E+000	-1.2258314E+000	1.2920039E+002	1.107901974325796E+002
-9.973893205595115E+000	-1.2279658E+000	-1.2278314E+000	1.2311800E+002	1.109901974275272E+002
-1.047965992064704E+001	-1.2299577E+000	-1.2298315E+000	1.1736619E+002	1.111901974224747E+002
-1.107261338361670E+001	-1.2320714E+000	-1.2319314E+000	1.1127196E+002	1.114001974171697E+002
-1.168039949052456E+001	-1.2341301E+000	-1.2340313E+000	1.0565821E+002	1.116101974118646E+002
-1.227674134322302E+001	-1.2361383E+000	-1.2360314E+000	1.0068945E+002	1.118101974068122E+002
-1.290686897680064E+001	-1.2381667E+000	-1.2380315E+000	9.5930832E+001	1.120101974017598E+002
-1.355169711415732E+001	-1.2401546E+000	-1.2400314E+000	9.1512863E+001	1.122101973967074E+002
-1.422078664002771E+001	-1.2421379E+000	-1.2420313E+000	8.7346642E+001	1.124101973916549E+002
-1.491076400558433E+001	-1.2441103E+000	-1.2440314E+000	8.3437065E+001	1.126101973866025E+002
-1.561227834724781E+001	-1.2461419E+000	-1.2460314E+000	7.9818069E+001	1.128101973815501E+002
-1.636296524387916E+001	-1.2481371E+000	-1.2480314E+000	7.6278175E+001	1.130101973764977E+002
-1.715929286604296E+001	-1.2501371E+000	-1.2500314E+000	7.2854813E+001	1.132101973714452E+002
-1.797964488689599E+001	-1.2521375E+000	-1.2520313E+000	6.9641953E+001	1.134101973663928E+002
-1.881158840656290E+001	-1.2541275E+000	-1.2540313E+000	6.6667816E+001	1.136101973613404E+002
-1.970804765921866E+001	-1.2561405E+000	-1.2560314E+000	6.3737438E+001	1.138101973562880E+002
-2.062602855329345E+001	-1.2580982E+000	-1.2580315E+000	6.0995663E+001	1.140101973512355E+002
-2.161949771156125E+001	-1.2601002E+000	-1.2600313E+000	5.8285362E+001	1.142101973461831E+002
-2.262814077065934E+001	-1.2620964E+000	-1.2620313E+000	5.5775524E+001	1.144101973411307E+002
-2.366049198228486E+001	-1.2641224E+000	-1.2640314E+000	5.3427559E+001	1.146101973360783E+002
-2.466199749410839E+001	-1.2661343E+000	-1.2660314E+000	5.1339485E+001	1.148101973310258E+002
-2.576060469593861E+001	-1.2681354E+000	-1.2680314E+000	4.9227703E+001	1.150101973259734E+002
-2.691238313737625E+001	-1.2701389E+000	-1.2700315E+000	4.7195332E+001	1.152101973209210E+002
-2.805449890171320E+001	-1.2721419E+000	-1.2720314E+000	4.5345379E+001	1.154101973158686E+002
-2.919517612700542E+001	-1.2741828E+000	-1.2740314E+000	4.3643608E+001	1.156101973108161E+002
-3.045603817931112E+001	-1.2761620E+000	-1.2760314E+000	4.1901775E+001	1.158101973057637E+002
-3.170591752302070E+001	-1.2781537E+000	-1.2780313E+000	4.0312778E+001	1.160101973007113E+002
-3.305901706462004E+001	-1.2801307E+000	-1.2800314E+000	3.8722588E+001	1.162101972956589E+002
-3.440451806067340E+001	-1.2821585E+000	-1.2820314E+000	3.7267155E+001	1.164101972906064E+002
-3.583498849782279E+001	-1.2841544E+000	-1.2840314E+000	3.5835213E+001	1.166101972855540E+002
-3.732864793844516E+001	-1.2861041E+000	-1.2860315E+000	3.4453541E+001	1.168101972805016E+002
-3.879357846523897E+001	-1.2881490E+000	-1.2880315E+000	3.3205212E+001	1.170101972754492E+002
-4.037225602678689E+001	-1.2901493E+000	-1.2900314E+000	3.1956335E+001	1.172101972703967E+002
-4.192210814444667E+001	-1.2921952E+000	-1.2920314E+000	3.0823717E+001	1.174101972653443E+002
-4.354896597364859E+001	-1.2941705E+000	-1.2940314E+000	2.9717594E+001	1.176101972602919E+002
-4.526434513230447E+001	-1.2962048E+000	-1.2960315E+000	2.8636332E+001	1.178101972552395E+002
-4.692192294727397E+001	-1.2981247E+000	-1.2980314E+000	2.7665632E+001	1.180101972501870E+002
-4.875064517446100E+001	-1.3001697E+000	-1.3000313E+000	2.6669794E+001	1.182101972451346E+002
-5.047565008804628E+001	-1.3021760E+000	-1.3020314E+000	2.5798103E+001	1.184101972400822E+002
-5.220758621222308E+001	-1.3041599E+000	-1.3040314E+000	2.4980276E+001	1.186101972350298E+002
-5.383519963612628E+001	-1.3061492E+000	-1.3060315E+000	2.4261993E+001	1.188101972299773E+002
-5.582780704638844E+001	-1.3081613E+000	-1.3080314E+000	2.3432074E+001	1.190101972249249E+002
-5.784278719387362E+001	-1.3101469E+000	-1.3100314E+000	2.2650135E+001	1.192101972198725E+002
-5.977734346833060E+001	-1.3121678E+000	-1.3120314E+000	2.1950922E+001	1.194101972148201E+002
-6.169789355141802E+001	-1.3141870E+000	-1.3140314E+000	2.1300356E+001	1.196101972097676E+002
-6.378483282357382E+001	-1.3161646E+000	-1.3160315E+000	2.0634445E+001	1.198101972047152E+002
-6.612625350541293E+001	-1.3181781E+000	-1.3180314E+000	1.9934261E+001	1.200101971996628E+002
-6.825427499271609E+001	-1.3202057E+000	-1.3200314E+000	1.9342461E+001	1.202101971946104E+002
-7.057326533518676E+001	-1.3221281E+000	-1.3220314E+000	1.8734121E+001	1.204101971895579E+002
-7.350430192320277E+001	-1.3241990E+000	-1.3240314E+000	1.8015259E+001	1.206101971845055E+002
-7.583788550629902E+001	-1.3262248E+000	-1.3260314E+000	1.7487629E+001	1.208101971794531E+002
-7.777878027546194E+001	-1.3282038E+000	-1.3280313E+000	1.7076685E+001	1.210101971744007E+002
-7.975289663814374E+001	-1.3302299E+000	-1.3300314E+000	1.6679392E+001	1.212101971693482E+002
-8.220341704599991E+001	-1.3322028E+000	-1.3320314E+000	1.6206173E+001	1.214101971642958E+002
-8.465642793000188E+001	-1.3342215E+000	-1.3340313E+000	1.5760427E+001	1.216101971592434E+002
-8.686225742980184E+001	-1.3362056E+000	-1.3360314E+000	1.5383040E+001	1.218101971541910E+002
-8.904956656626814E+001	-1.3381767E+000	-1.3380314E+000	1.5027325E+001	1.220101971491385E+002
-9.264249261382463E+001	-1.3401660E+000	-1.3400314E+000	1.4465997E+001	1.222101971440861E+002
-9.529081704935533E+001	-1.3422248E+000	-1.3420314E+000	1.4085564E+001	1.224101971390337E+002
-9.768298571882860E+001	-1.3441733E+000	-1.3440313E+000	1.3760568E+001	1.226101971339813E+002
-9.965527067649418E+001	-1.3461709E+000	-1.3460314E+000	1.3508276E+001	1.228101971289288E+002
-1.020273013536621E+002	-1.3481832E+000	-1.3480314E+000	1.3213945E+001	1.230101971238764E+002
-1.042017573391233E+002	-1.3501743E+000	-1.3500314E+000	1.2957309E+001	1.232101971188240E+002
-1.085553591757406E+002	-1.3523223E+000	-1.3521314E+000	1.2457444E+001	1.234201971135190E+002
-1.122949632160248E+002	-1.3544295E+000	-1.3542314E+000	1.2061356E+001	1.236301971082139E+002
-1.144300045902232E+002	-1.3563788E+000	-1.3562315E+000	1.1853349E+001	1.238301971031615E+002
-1.167753614503511E+002	-1.3584042E+000	-1.3582314E+000	1.1632627E+001	1.240301970981091E+002
-1.199114571709749E+002	-1.3603617E+000	-1.3602314E+000	1.1344718E+001	1.242301970930566E+002
-1.238564955382667E+002	-1.3624110E+000	-1.3622314E+000	1.0999916E+001	1.244301970880042E+002
-1.276461410165642E+002	-1.3643701E+000	-1.3642313E+000	1.0688690E+001	1.246301970829518E+002
-1.295420349936369E+002	-1.3664147E+000	-1.3662314E+000	1.0548040E+001	1.248301970778994E+002
-1.317392157329721E+002	-1.3683867E+000	-1.3682314E+000	1.0387088E+001	1.250301970728469E+002
-1.346778405983162E+002	-1.3704157E+000	-1.3702314E+000	1.0175509E+001	1.252301970677945E+002
-1.366982447846947E+002	-1.3723650E+000	-1.3722314E+000	1.0039375E+001	1.254301970627421E+002
-1.406456013861166E+002	-1.3744181E+000	-1.3742315E+000	9.7722082E+000	1.256301970576897E+002
-1.455909548195036E+002	-1.3764168E+000	-1.3762314E+000	9.4539995E+000	1.258301970526372E+002
-1.483568001539534E+002	-1.3783733E+000	-1.3782314E+000	9.2909346E+000	1.260301970475848E+002
-1.503345894738150E+002	-1.3804657E+000	-1.3802322E+000	9.1826220E+000	1.262302970425299E+002
-1.532806108608811E+002	-1.3824039E+000	-1.3822334E+000	9.0187778E+000	1.264303970374749E+002
-1.559709917317592E+002	-1.3844290E+000	-1.3842342E+000	8.8761950E+000	1.266304970324200E+002
-1.577575543169517E+002	-1.3864210E+000	-1.3862381E+000	8.7883015E+000	1.268308970273574E+002
-1.608195904614968E+002	-1.3884388E+000	-1.3882394E+000	8.6335182E+000	1.270309970223025E+002
-1.640325599926882E+002	-1.3904197E+000	-1.3902403E+000	8.4764862E+000	1.272310970172475E+002
-1.661981210611308E+002	-1.3924005E+000	-1.3922415E+000	8.3779554E+000	1.274311970121926E+002
-1.715003151536798E+002	-1.3944049E+000	-1.3942413E+000	8.1306257E+000	1.276311970071401E+002
-1.744910544108220E+002	-1.3964571E+000	-1.3962430E+000	8.0030298E+000	1.278313970020827E+002
-1.785461485917685E+002	-1.3984799E+000	-1.3982469E+000	7.8325963E+000	1.280317969970201E+002
-1.818208350266293E+002	-1.4004382E+000	-1.4002503E+000	7.7022977E+000	1.282320969919601E+002
-1.857164963648706E+002	-1.4023887E+000	-1.4022514E+000	7.5512338E+000	1.284321969869052E+002
-1.881086255179511E+002	-1.4044546E+000	-1.4042515E+000	7.4661894E+000	1.286321969818528E+002
-1.916754197285009E+002	-1.4064436E+000	-1.4062513E+000	7.3376317E+000	1.288321969768003E+002
-1.937260261669774E+002	-1.4084331E+000	-1.4082521E+000	7.2702317E+000	1.290322969717454E+002
-1.940915140431180E+002	-1.4104493E+000	-1.4102542E+000	7.2669291E+000	1.292324969666879E+002
-1.965602908339897E+002	-1.4124228E+000	-1.4122554E+000	7.1856976E+000	1.294325969616330E+002
-2.011116550244456E+002	-1.4144157E+000	-1.4142554E+000	7.0329871E+000	1.296325969565805E+002
-2.084951797459389E+002	-1.4164391E+000	-1.4162569E+000	6.7936296E+000	1.298327969515231E+002
-2.089818878498189E+002	-1.4184494E+000	-1.4182594E+000	6.7874274E+000	1.300329969464656E+002
-2.097888842667053E+002	-1.4204664E+000	-1.4202595E+000	6.7709327E+000	1.302329969414131E+002
-2.141048519591063E+002	-1.4224740E+000	-1.4222603E+000	6.6438198E+000	1.304330969363582E+002
-2.198508591604427E+002	-1.4244453E+000	-1.4242622E+000	6.4791436E+000	1.306332969313007E+002
-2.233910926701101E+002	-1.4263798E+000	-1.4262642E+000	6.3851237E+000	1.308334969262432E+002
-2.248066204097004E+002	-1.4284897E+000	-1.4282655E+000	6.3543043E+000	1.310335969211883E+002
-2.290510229829240E+002	-1.4304079E+000	-1.4302664E+000	6.2449312E+000	1.312336969161333E+002
-2.286379641605463E+002	-1.4324312E+000	-1.4322681E+000	6.2650628E+000	1.314338969110759E+002
-2.314237768522762E+002	-1.4344631E+000	-1.4342703E+000	6.1984258E+000	1.316340969060184E+002
-2.400969203774896E+002	-1.4364947E+000	-1.4362723E+000	5.9829783E+000	1.318342969009609E+002
-2.432343318023927E+002	-1.4384987E+000	-1.4382743E+000	5.9140449E+000	1.320344968959034E+002
-2.443582470952250E+002	-1.4405000E+000	-1.4402753E+000	5.8950334E+000	1.322345968908485E+002
-2.428494758541071E+002	-1.4425350E+000	-1.4422754E+000	5.9400377E+000	1.324345968857961E+002
-2.465624519551413E+002	-1.4445037E+000	-1.4442755E+000	5.8585711E+000	1.326345968807436E+002
-2.518383153762577E+002	-1.4464525E+000	-1.4462782E+000	5.7435760E+000	1.328348968756836E+002
-2.606619922698492E+002	-1.4484921E+000	-1.4482794E+000	5.5569744E+000	1.330349968706287E+002
-2.660555358592601E+002	-1.4504828E+000	-1.4502794E+000	5.4518046E+000	1.332349968655763E+002
-2.679165905608620E+002	-1.4524529E+000	-1.4522793E+000	5.4212875E+000	1.334349968605238E+002
-2.690120848225353E+002	-1.4544715E+000	-1.4542794E+000	5.4067144E+000	1.336349968554714E+002
-2.686391597410436E+002	-1.4565161E+000	-1.4562795E+000	5.4218311E+000	1.338349968504190E+002
-2.729103929818079E+002	-1.4585222E+000	-1.4582794E+000	5.3443265E+000	1.340349968453666E+002
-2.782820701832202E+002	-1.4604723E+000	-1.4602802E+000	5.2481728E+000	1.342350968403116E+002
-2.813057290292168E+002	-1.4625409E+000	-1.4622833E+000	5.1991153E+000	1.344353968352516E+002
-2.818313857400763E+002	-1.4645089E+000	-1.4642835E+000	5.1964011E+000	1.346353968301992E+002
-2.822727591002067E+002	-1.4664869E+000	-1.4662834E+000	5.1952834E+000	1.348353968251467E+002
-2.874836745928199E+002	-1.4685271E+000	-1.4682844E+000	5.1082106E+000	1.350354968200918E+002
-2.915501763847683E+002	-1.4705118E+000	-1.4702854E+000	5.0437694E+000	1.352355968150368E+002
-2.911671718978009E+002	-1.4725418E+000	-1.4722854E+000	5.0573759E+000	1.354355968099844E+002
-2.945178628216518E+002	-1.4745371E+000	-1.4742854E+000	5.0066137E+000	1.356355968049320E+002
-3.016987098901463E+002	-1.4765115E+000	-1.4762853E+000	4.8939934E+000	1.358355967998796E+002
-3.097932747215914E+002	-1.4784778E+000	-1.4782852E+000	4.7724657E+000	1.360355967948271E+002
-3.121603965197028E+002	-1.4805166E+000	-1.4802853E+000	4.7428069E+000	1.362355967897747E+002
-3.139947514609689E+002	-1.4825093E+000	-1.4822851E+000	4.7214460E+000	1.364355967847223E+002
-3.162481968483955E+002	-1.4845098E+000	-1.4842851E+000	4.6941290E+000	1.366355967796699E+002
-3.115954867641938E+002	-1.4865382E+000	-1.4862852E+000	4.7707310E+000	1.368355967746174E+002
-3.078974352099181E+002	-1.4885405E+000	-1.4882852E+000	4.8345337E+000	1.370355967695650E+002
-3.135972307879907E+002	-1.4905100E+000	-1.4902852E+000	4.7529435E+000	1.372355967645126E+002
-3.196892461149596E+002	-1.4925303E+000	-1.4922853E+000	4.6686912E+000	1.374355967594602E+002
-3.295386866074277E+002	-1.4945865E+000	-1.4942851E+000	4.5353899E+000	1.376355967544077E+002
-3.324330365209071E+002	-1.4965935E+000	-1.4962852E+000	4.5019398E+000	1.378355967493553E+002
-3.454956758157468E+002	-1.4985554E+000	-1.4982852E+000	4.3374071E+000	1.380355967443029E+002
-3.510443069669927E+002	-1.5005299E+000	-1.5002851E+000	4.2744741E+000	1.382355967392505E+002
-3.503923126207719E+002	-1.5025505E+000	-1.5022852E+000	4.2881947E+000	1.384355967341980E+002
-3.519038017190765E+002	-1.5045594E+000	-1.5042852E+000	4.2754850E+000	1.386355967291456E+002
-3.580271243984198E+002	-1.5065762E+000	-1.5062852E+000	4.2079945E+000	1.388355967240932E+002
-3.634454158795952E+002	-1.5085442E+000	-1.5082853E+000	4.1506763E+000	1.390355967190408E+002
-3.602519038431756E+002	-1.5105199E+000	-1.5102851E+000	4.1929545E+000	1.392355967139883E+002
-3.607344289918069E+002	-1.5125620E+000	-1.5122852E+000	4.1930070E+000	1.394355967089359E+002
-3.569713420716546E+002	-1.5145631E+000	-1.5142851E+000	4.2428141E+000	1.396355967038835E+002
-3.551895092274322E+002	-1.5165446E+000	-1.5162852E+000	4.2696772E+000	1.398355966988311E+002
-3.660206455005828E+002	-1.5185549E+000	-1.5182853E+000	4.1488233E+000	1.400355966937786E+002
-3.669447913288784E+002	-1.5205002E+000	-1.5202852E+000	4.1436758E+000	1.402355966887262E+002
-3.665242259507813E+002	-1.5225383E+000	-1.5222852E+000	4.1539907E+000	1.404355966836738E+002
-3.705973356835166E+002	-1.5246291E+000	-1.5242851E+000	4.1139774E+000	1.406355966786214E+002
-3.812779033297575E+002	-1.5264943E+000	-1.5262852E+000	4.0036263E+000	1.408355966735689E+002
-3.911245514638313E+002	-1.5290827E+000	-1.5282853E+000	3.9094520E+000	1.410355966685165E+002
-4.011145764154098E+002	-1.5311114E+000	-1.5302851E+000	3.8171422E+000	1.412355966634641E+002
-4.142577411452667E+002	-1.5330868E+000	-1.5322852E+000	3.7008042E+000	1.414355966584117E+002
-4.114962975378749E+002	-1.5350926E+000	-1.5342851E+000	3.7305138E+000	1.416355966533592E+002
-4.116313682694554E+002	-1.5371208E+000	-1.5362852E+000	3.7342169E+000	1.418355966483068E+002
-4.086435967745947E+002	-1.5390469E+000	-1.5382853E+000	3.7662327E+000	1.420355966432544E+002
-4.046316931977562E+002	-1.5410970E+000	-1.5402851E+000	3.8086414E+000	1.422355966382020E+002
-4.122871684379318E+002	-1.5430931E+000	-1.5422852E+000	3.7427628E+000	1.424355966331495E+002
-4.171543066712484E+002	-1.5450429E+000	-1.5442852E+000	3.7037683E+000	1.426355966280971E+002
-4.214673158814317E+002	-1.5471582E+000	-1.5462852E+000	3.6708856E+000	1.428355966230447E+002
-4.214337236183865E+002	-1.5491434E+000	-1.5482852E+000	3.6758885E+000	1.430355966179923E+002
-4.301286506393353E+002	-1.5511127E+000	-1.5502851E+000	3.6061599E+000	1.432355966129398E+002
-4.323535748609345E+002	-1.5531619E+000	-1.5522852E+000	3.5923419E+000	1.434355966078874E+002
-4.315818817112727E+002	-1.5551586E+000	-1.5542852E+000	3.6033919E+000	1.436355966028350E+002
-4.316809838915615E+002	-1.5570942E+000	-1.5562851E+000	3.6070485E+000	1.438355965977826E+002
-4.327692734941065E+002	-1.5590752E+000	-1.5582852E+000	3.6025553E+000	1.440355965927301E+002
-4.414244477581287E+002	-1.5611327E+000	-1.5602853E+000	3.5365796E+000	1.442355965876777E+002
-4.355361986614416E+002	-1.5631042E+000	-1.5622851E+000	3.5889189E+000	1.444355965826253E+002
-4.357077736194969E+002	-1.5650758E+000	-1.5642852E+000	3.5920308E+000	1.446355965775729E+002
-4.540755808131780E+002	-1.5671338E+000	-1.5662853E+000	3.4512620E+000	1.448355965725204E+002
-4.651762856766727E+002	-1.5691465E+000	-1.5682852E+000	3.3732297E+000	1.450355965674680E+002
-4.650219658702395E+002	-1.5710841E+000	-1.5702853E+000	3.3785160E+000	1.452355965624156E+002
-4.680148919207182E+002	-1.5731629E+000	-1.5722852E+000	3.3613522E+000	1.454355965573632E+002
-4.822367170294938E+002	-1.5751289E+000	-1.5742853E+000	3.2662983E+000	1.456355965523107E+002
-4.810788444726613E+002	-1.5771577E+000	-1.5762852E+000	3.2783768E+000	1.458355965472583E+002
-4.751535774845106E+002	-1.5791495E+000	-1.5782852E+000	3.3234508E+000	1.460355965422059E+002
-4.697445838348667E+002	-1.5811566E+000	-1.5802853E+000	3.3659923E+000	1.462355965371535E+002
-4.677898695766253E+002	-1.5831548E+000	-1.5822853E+000	3.3843288E+000	1.464355965321010E+002
-4.715009738982678E+002	-1.5851376E+000	-1.5842853E+000	3.3618968E+000	1.466355965270486E+002
-4.818869161324710E+002	-1.5871623E+000	-1.5862852E+000	3.2936404E+000	1.468355965219962E+002
-4.837879548624269E+002	-1.5891187E+000	-1.5882853E+000	3.2847421E+000	1.470355965169438E+002
-4.846095496932403E+002	-1.5911341E+000	-1.5902852E+000	3.2833321E+000	1.472355965118913E+002
-4.916148780814110E+002	-1.5931134E+000	-1.5922853E+000	3.2405720E+000	1.474355965068389E+002
-4.935987358958273E+002	-1.5951656E+000	-1.5942852E+000	3.2317052E+000	1.476355965017865E+002
-4.954266016564379E+002	-1.5971867E+000	-1.5962852E+000	3.2238615E+000	1.478355964967341E+002
-4.913224310626274E+002	-1.5991548E+000	-1.5982853E+000	3.2547972E+000	1.480355964916816E+002
-4.841414093138665E+002	-1.6011626E+000	-1.6002852E+000	3.3072209E+000	1.482355964866292E+002
-5.001421401354746E+002	-1.6031710E+000	-1.6022853E+000	3.2054307E+000	1.484355964815768E+002
-5.054354948792079E+002	-1.6052107E+000	-1.6042854E+000	3.1758962E+000	1.486355964765244E+002
-5.117561588071098E+002	-1.6071823E+000	-1.6062852E+000	3.1405234E+000	1.488355964714719E+002
-5.137964891489919E+002	-1.6091905E+000	-1.6082853E+000	3.1319609E+000	1.490355964664195E+002
-5.134723912972149E+002	-1.6112059E+000	-1.6102852E+000	3.1378629E+000	1.492355964613671E+002
-5.302402156431945E+002	-1.6131930E+000	-1.6122853E+000	3.0423815E+000	1.494355964563147E+002
-5.474510577627861E+002	-1.6152231E+000	-1.6142851E+000	2.9504428E+000	1.496355964512622E+002
-5.417616094126461E+002	-1.6172038E+000	-1.6162852E+000	2.9850838E+000	1.498355964462098E+002
-5.544754229781302E+002	-1.6192187E+000	-1.6182853E+000	2.9202714E+000	1.500355964411574E+002
-5.519674049732084E+002	-1.6211895E+000	-1.6202852E+000	2.9371109E+000	1.502355964361050E+002
-5.441389693608335E+002	-1.6232122E+000	-1.6222852E+000	2.9830840E+000	1.504355964310525E+002
-5.378441143425151E+002	-1.6252120E+000	-1.6242851E+000	3.0217156E+000	1.506355964260001E+002
-5.426024344870311E+002	-1.6272087E+000	-1.6262852E+000	2.9988968E+000	1.508355964209477E+002
-5.369951344747406E+002	-1.6292032E+000	-1.6282853E+000	3.0339255E+000	1.510355964158953E+002
-5.513840868554130E+002	-1.6312050E+000	-1.6302854E+000	2.9583824E+000	1.512355964108428E+002
-5.652721124506334E+002	-1.6331908E+000	-1.6322852E+000	2.8892117E+000	1.514355964057904E+002
-5.699760194203204E+002	-1.6352185E+000	-1.6342853E+000	2.8689251E+000	1.516355964007380E+002
-5.675868620018318E+002	-1.6371800E+000	-1.6362852E+000	2.8844571E+000	1.518355963956856E+002
-5.704366873570307E+002	-1.6392169E+000	-1.6382853E+000	2.8736176E+000	1.520355963906331E+002
-5.624755207502940E+002	-1.6405717E+000	-1.6396852E+000	2.9166989E+000	1.521755963870964E+002
-5.614712727864589E+002	-1.6411157E+000	-1.6401849E+000	2.9228845E+000	1.522061963863234E+002