EC-Lab ASCII FILE
Nb header lines : 63                          

Linear Sweep Voltammetry

Run on channel : 1 (SN 1340)
User : 
Electrode connection : standard
Potential control : Ewe
Ewe ctrl range : min = -5.00 V, max = 5.00 V
Ewe,I filtering : <None>
Safety Limits :
	Do not start on E overload
Channel : Floating
Acquisition started on : 03/11/2026 11:40:16.786
Technique started on : 03/11/2026 11:40:19.467
Loaded Setting File :  NONE
Saved on :
	File : Ni_N52magA_up_3-11_02_LSV_C01.mpr
	Directory : C:\Users\volt\Documents\Platalytix\
	Host : 172.28.65.128
Device : SP-200 (SN 0262)
Address : USB
EC-LAB for windows v11.60 (software)
Internet server v11.60 (firmware)
Command interpretor v11.60 (firmware)
Electrode material : Ni
Initial state : 
Electrolyte : KOH (1 M)
Comments : With magnet A (+) side, up position
Cable : standard
Reference electrode : Hg/HgO (0.140 V)
Electrode surface area : 1.000 cmｲ
Characteristic mass : 0.001 g
Equivalent Weight : 0.000 g/eq.
Density : 0.000 g/cm3
Volume (V) : 0.001 cmｳ
Cycle Definition : Charge/Discharge alternance
tR (h:m:s)          0:00:5.0000         
dER/dt (mV/h)       0.0                 
dER (mV)            0                   
dtR (s)             0.0000              
dE/dt               10.000              
dE/dt unit          mV/s                
Ei (V)              -0.200              
vs.                 Ref                 
EL (V)              -2.500              
vs.                 Ref                 
record              <I>                 
dI                  0.000               
unit dI             ｵA                  
tI (s)              0.0000              
step percent        50                  
N                   10                  
E range min (V)     -5.000              
E range max (V)     5.000               
I Range             Auto                
I Range min         Unset               
I Range max         Unset               
I Range init        Unset               
Bandwidth           8                   

<I>/mA	Ewe/V	control/V	Rwe/Ohm	time/s	
0.000000000000000E+000	-2.2154634E-001	0.0000000E+000	0.0000000E+000	2.681400127330562E+000
0.000000000000000E+000	-3.5443306E-001	-1.9987610E-001	0.0000000E+000	7.681200001024990E+000
4.751647865772251E-001	-2.0117643E-001	-2.0137589E-001	4.2338245E+002	7.841199996983050E+000
1.259153656763941E-001	-2.0235144E-001	-2.0247592E-001	1.6070432E+003	7.951199994204217E+000
5.729731433663743E-002	-2.0436056E-001	-2.0447592E-001	3.5666692E+003	8.151199989151792E+000
4.042913091356598E-002	-2.0655210E-001	-2.0667592E-001	5.1089917E+003	8.371199983594124E+000
3.220239539008762E-002	-2.0874251E-001	-2.0887592E-001	6.4822046E+003	8.591199978036457E+000
2.743049671075173E-002	-2.1072519E-001	-2.1087593E-001	7.6821499E+003	8.791199972984032E+000
2.400820450107571E-002	-2.1278916E-001	-2.1287593E-001	8.8631855E+003	8.991199967931607E+000
2.137793016001213E-002	-2.1470584E-001	-2.1487592E-001	1.0043341E+004	9.191199962879182E+000
1.930012903347844E-002	-2.1686423E-001	-2.1687593E-001	1.1236413E+004	9.391199957826757E+000
1.756724028699225E-002	-2.1873890E-001	-2.1887593E-001	1.2451523E+004	9.591199952774332E+000
1.613735402958009E-002	-2.2063692E-001	-2.2087593E-001	1.3672435E+004	9.791199947721907E+000
1.489450538962819E-002	-2.2279806E-001	-2.2287592E-001	1.4958406E+004	9.991199942669482E+000
1.381666898698911E-002	-2.2465450E-001	-2.2487594E-001	1.6259671E+004	1.019119993761706E+001
1.287684815208795E-002	-2.2685300E-001	-2.2687593E-001	1.7617121E+004	1.039119993256463E+001
1.198661840685000E-002	-2.2863811E-001	-2.2887592E-001	1.9074447E+004	1.059119992751221E+001
1.123423246012645E-002	-2.3077124E-001	-2.3087594E-001	2.0541789E+004	1.079119992245978E+001
1.054029178524774E-002	-2.3276305E-001	-2.3287593E-001	2.2083170E+004	1.099119991740736E+001
9.897264930387450E-003	-2.3472093E-001	-2.3487593E-001	2.3715736E+004	1.119119991235493E+001
9.335167658364254E-003	-2.3686084E-001	-2.3687594E-001	2.5372961E+004	1.139119990730251E+001
8.802720332753686E-003	-2.3867059E-001	-2.3887594E-001	2.7113275E+004	1.159119990225008E+001
8.302716654725414E-003	-2.4082474E-001	-2.4087593E-001	2.9005535E+004	1.179119989719766E+001
7.865117019271554E-003	-2.4274801E-001	-2.4287593E-001	3.0863877E+004	1.199119989214523E+001
7.427859268691855E-003	-2.4479073E-001	-2.4487594E-001	3.2955758E+004	1.219119988709281E+001
7.024345452772644E-003	-2.4675284E-001	-2.4687591E-001	3.5128234E+004	1.239119988204038E+001
6.650555840270519E-003	-2.4876691E-001	-2.4887595E-001	3.7405434E+004	1.259119987698796E+001
6.318462854979862E-003	-2.5080800E-001	-2.5087595E-001	3.9694465E+004	1.279119987193553E+001
6.007496512728860E-003	-2.5277135E-001	-2.5287592E-001	4.2075988E+004	1.299119986688311E+001
5.708131172144928E-003	-2.5481239E-001	-2.5487593E-001	4.4640246E+004	1.319119986183068E+001
5.411876007915060E-003	-2.5687593E-001	-2.5687590E-001	4.7465230E+004	1.339119985677826E+001
5.130786982188343E-003	-2.5875038E-001	-2.5887594E-001	5.0430934E+004	1.359119985172583E+001
4.899173992182581E-003	-2.6083833E-001	-2.6087594E-001	5.3241289E+004	1.379119984667341E+001
4.659421881707010E-003	-2.6281676E-001	-2.6287591E-001	5.6405441E+004	1.399119984162098E+001
4.409063581551222E-003	-2.6475108E-001	-2.6487592E-001	6.0047008E+004	1.419119983656856E+001
4.176700479846500E-003	-2.6667434E-001	-2.6687592E-001	6.3848090E+004	1.439119983151613E+001
3.964772854407390E-003	-2.6875380E-001	-2.6887593E-001	6.7785422E+004	1.459119982646371E+001
3.768219997356111E-003	-2.7083302E-001	-2.7087593E-001	7.1872930E+004	1.479119982141128E+001
3.565931333475228E-003	-2.7273107E-001	-2.7287593E-001	7.6482422E+004	1.499119981635886E+001
3.380993605261921E-003	-2.7472159E-001	-2.7487591E-001	8.1254695E+004	1.519119981130643E+001
3.235023519978023E-003	-2.7671593E-001	-2.7687594E-001	8.5537531E+004	1.539119980625401E+001
3.022639000879540E-003	-2.7881810E-001	-2.7887595E-001	9.2243266E+004	1.559119980120158E+001
2.880779446780828E-003	-2.8069574E-001	-2.8087592E-001	9.7437430E+004	1.579119979614916E+001
2.690339282621391E-003	-2.8276083E-001	-2.8287590E-001	1.0510230E+005	1.599119979109673E+001
2.542362487200453E-003	-2.8478906E-001	-2.8487578E-001	1.1201748E+005	1.619119978604431E+001
2.389244767463029E-003	-2.8675699E-001	-2.8687593E-001	1.2001993E+005	1.639119978099188E+001
2.264471536312453E-003	-2.8876600E-001	-2.8887594E-001	1.2752026E+005	1.659119977593946E+001
2.104724068071225E-003	-2.9077604E-001	-2.9087594E-001	1.3815400E+005	1.679119977088703E+001
1.975327883518389E-003	-2.9274115E-001	-2.9287595E-001	1.4819877E+005	1.699119976583461E+001
1.838727057763626E-003	-2.9477665E-001	-2.9487592E-001	1.6031561E+005	1.719119976078218E+001
1.730078439003160E-003	-2.9676148E-001	-2.9687595E-001	1.7153066E+005	1.739119975572976E+001
1.568043611439125E-003	-2.9879808E-001	-2.9887590E-001	1.9055470E+005	1.759119975067733E+001
1.478215119454958E-003	-3.0081448E-001	-3.0087593E-001	2.0349845E+005	1.779119974562491E+001
1.365909047056767E-003	-3.0275705E-001	-3.0287594E-001	2.2165242E+005	1.799119974057248E+001
1.252820610464697E-003	-3.0477116E-001	-3.0487591E-001	2.4326800E+005	1.819119973552006E+001
1.140658305067838E-003	-3.0674767E-001	-3.0687594E-001	2.6892163E+005	1.839119973046763E+001
1.039425366612526E-003	-3.0874801E-001	-3.0887592E-001	2.9703722E+005	1.859119972541521E+001
9.010109459875642E-004	-3.1076676E-001	-3.1087595E-001	3.4490897E+005	1.879119972036278E+001
7.870615485071394E-004	-3.1276855E-001	-3.1287593E-001	3.9738766E+005	1.899119971531036E+001
6.723935526821555E-004	-3.1477496E-001	-3.1487596E-001	4.6814097E+005	1.919119971025793E+001
5.963183222023379E-004	-3.1674260E-001	-3.1687590E-001	5.3116363E+005	1.939119970520551E+001
5.061915321240094E-004	-3.1873232E-001	-3.1887594E-001	6.2966744E+005	1.959119970015308E+001
3.796065928011612E-004	-3.2073280E-001	-3.2087591E-001	8.4490844E+005	1.979119969510066E+001
2.832576899121234E-004	-3.2279295E-001	-3.2287592E-001	1.1395735E+006	1.999119969004823E+001
2.035071644129031E-004	-3.2477731E-001	-3.2487592E-001	1.5959011E+006	2.019119968499581E+001
1.133903364390322E-004	-3.2672542E-001	-3.2687593E-001	2.8814220E+006	2.039119967994338E+001
-2.903661053213168E-006	-3.2873273E-001	-3.2887593E-001	1.1321319E+008	2.059119967489096E+001
-6.450480101740578E-005	-3.3072874E-001	-3.3087593E-001	5.1271955E+006	2.079119966983853E+001
-2.097677834434876E-004	-3.3276156E-001	-3.3287597E-001	1.5863330E+006	2.099119966478611E+001
-2.832070532043209E-004	-3.3474931E-001	-3.3487591E-001	1.1819950E+006	2.119119965973368E+001
-3.611641112765615E-004	-3.3676296E-001	-3.3687595E-001	9.3243750E+005	2.139119965468126E+001
-4.845624975273796E-004	-3.3875245E-001	-3.3887592E-001	6.9908931E+005	2.159119964962883E+001
-5.484199449578998E-004	-3.4083512E-001	-3.4087592E-001	6.2148563E+005	2.179119964457641E+001
-6.436194972942021E-004	-3.4279761E-001	-3.4287593E-001	5.3260913E+005	2.199119963952398E+001
-7.739689833026939E-004	-3.4478307E-001	-3.4487593E-001	4.4547400E+005	2.219119963447156E+001
-8.279518746845938E-004	-3.4673288E-001	-3.4687594E-001	4.1878388E+005	2.239119962941913E+001
-9.213220330103336E-004	-3.4877008E-001	-3.4887594E-001	3.7855394E+005	2.259119962436671E+001
-1.014366136475974E-003	-3.5076827E-001	-3.5087594E-001	3.4580044E+005	2.279119961931428E+001
-1.124618194832887E-003	-3.5276860E-001	-3.5287595E-001	3.1367853E+005	2.299119961426186E+001
-1.225810396073396E-003	-3.5475782E-001	-3.5487595E-001	2.8940675E+005	2.319119960920943E+001
-1.294187245311291E-003	-3.5680544E-001	-3.5687593E-001	2.7569847E+005	2.339119960415701E+001
-1.393001579239668E-003	-3.5877305E-001	-3.5887590E-001	2.5755395E+005	2.359119959910458E+001
-1.482280251844784E-003	-3.6080536E-001	-3.6087593E-001	2.4341238E+005	2.379119959405216E+001
-1.576317130097405E-003	-3.6271635E-001	-3.6287597E-001	2.3010366E+005	2.399119958899973E+001
-1.676540447714080E-003	-3.6473235E-001	-3.6487594E-001	2.1755058E+005	2.419119958394731E+001
-1.777939101010401E-003	-3.6676133E-001	-3.6687595E-001	2.0628453E+005	2.439119957889488E+001
-1.868825701204127E-003	-3.6878747E-001	-3.6887595E-001	1.9733647E+005	2.459119957384246E+001
-1.962873796461057E-003	-3.7075046E-001	-3.7087595E-001	1.8888145E+005	2.479119956879003E+001
-2.051942734999218E-003	-3.7280631E-001	-3.7287593E-001	1.8168456E+005	2.499119956373761E+001
-2.176051051175238E-003	-3.7476036E-001	-3.7487596E-001	1.7222039E+005	2.519119955868518E+001
-2.259291213390795E-003	-3.7671763E-001	-3.7687594E-001	1.6674152E+005	2.539119955363276E+001
-2.348051237941184E-003	-3.7879938E-001	-3.7887591E-001	1.6132500E+005	2.559119954858033E+001
-2.446630967663743E-003	-3.8075021E-001	-3.8087595E-001	1.5562225E+005	2.579119954352791E+001
-2.552350945323946E-003	-3.8278979E-001	-3.8287592E-001	1.4997538E+005	2.599119953847548E+001
-2.639164632651424E-003	-3.8474214E-001	-3.8487595E-001	1.4578178E+005	2.619119953342306E+001
-2.747969525976286E-003	-3.8676363E-001	-3.8687596E-001	1.4074523E+005	2.639119952837063E+001
-2.852156403122877E-003	-3.8875887E-001	-3.8887593E-001	1.3630348E+005	2.659119952331821E+001
-2.968768186975092E-003	-3.9074239E-001	-3.9087597E-001	1.3161769E+005	2.679119951826578E+001
-3.038914855420452E-003	-3.9278004E-001	-3.9287597E-001	1.2925009E+005	2.699119951321336E+001
-3.165521564683055E-003	-3.9478502E-001	-3.9487597E-001	1.2471405E+005	2.719119950816093E+001
-3.259542527076137E-003	-3.9671612E-001	-3.9687595E-001	1.2170914E+005	2.739119950310851E+001
-3.351598129675851E-003	-3.9875779E-001	-3.9887592E-001	1.1897541E+005	2.759119949805608E+001
-3.434401844106011E-003	-4.0082836E-001	-4.0087596E-001	1.1670980E+005	2.779119949300366E+001
-3.552101918957093E-003	-4.0272531E-001	-4.0287599E-001	1.1337662E+005	2.799119948795123E+001
-3.661239375120091E-003	-4.0470994E-001	-4.0487596E-001	1.1053905E+005	2.819119948289881E+001
-3.787461040573731E-003	-4.0670934E-001	-4.0687594E-001	1.0738311E+005	2.839119947784639E+001
-3.882089520580459E-003	-4.0876311E-001	-4.0887597E-001	1.0529461E+005	2.859119947279396E+001
-3.995549295298467E-003	-4.1076279E-001	-4.1087592E-001	1.0280509E+005	2.879119946774154E+001
-4.112659865530152E-003	-4.1280934E-001	-4.1287595E-001	1.0037527E+005	2.899119946268911E+001
-4.204694146010331E-003	-4.1486269E-001	-4.1487598E-001	9.8666555E+004	2.919119945763669E+001
-4.295374647198903E-003	-4.1673866E-001	-4.1687599E-001	9.7020328E+004	2.939119945258426E+001
-4.406713312611873E-003	-4.1886604E-001	-4.1887593E-001	9.5051805E+004	2.959119944753184E+001
-4.522805243266995E-003	-4.2070740E-001	-4.2087597E-001	9.3019133E+004	2.979119944247941E+001
-4.626271338941187E-003	-4.2285433E-001	-4.2287600E-001	9.1402836E+004	2.999119943742699E+001
-4.755254930022289E-003	-4.2475197E-001	-4.2487594E-001	8.9322648E+004	3.019119943237456E+001
-4.857334732839596E-003	-4.2684537E-001	-4.2687595E-001	8.7876461E+004	3.039119942732214E+001
-4.992804102836680E-003	-4.2877287E-001	-4.2887598E-001	8.5878164E+004	3.059119942226971E+001
-5.083326120865372E-003	-4.3089840E-001	-4.3087593E-001	8.4767016E+004	3.079119941721729E+001
-5.192570231182830E-003	-4.3278384E-001	-4.3287596E-001	8.3346750E+004	3.099119941216486E+001
-5.334693097221441E-003	-4.3474898E-001	-4.3487597E-001	8.1494656E+004	3.119119940711244E+001
-5.426818197623445E-003	-4.3676814E-001	-4.3687597E-001	8.0483281E+004	3.139119940206001E+001
-5.568198016604471E-003	-4.3874109E-001	-4.3887594E-001	7.8794086E+004	3.159119939700759E+001
-5.678651275157043E-003	-4.4079742E-001	-4.4087598E-001	7.7623609E+004	3.179119939195516E+001
-5.807088309765139E-003	-4.4278559E-001	-4.4287595E-001	7.6249156E+004	3.199119938690274E+001
-5.921893962282765E-003	-4.4483450E-001	-4.4487596E-001	7.5116930E+004	3.219119938185031E+001
-6.002994505573706E-003	-4.4679251E-001	-4.4687596E-001	7.4428273E+004	3.239119937679789E+001
-6.143709062268660E-003	-4.4885531E-001	-4.4887596E-001	7.3059336E+004	3.259119937174546E+001
-6.289628745492770E-003	-4.5076090E-001	-4.5087597E-001	7.1667328E+004	3.279119936669304E+001
-6.381315792395481E-003	-4.5277923E-001	-4.5287597E-001	7.0953898E+004	3.299119936164061E+001
-6.544460251857703E-003	-4.5478994E-001	-4.5487598E-001	6.9492352E+004	3.319119935658819E+001
-6.653506631641937E-003	-4.5676860E-001	-4.5687598E-001	6.8650805E+004	3.339119935153576E+001
-6.772673448210906E-003	-4.5877931E-001	-4.5887595E-001	6.7739766E+004	3.359119934648334E+001
-6.917491306874440E-003	-4.6084556E-001	-4.6087593E-001	6.6620328E+004	3.379119934143091E+001
-7.049235631579810E-003	-4.6287769E-001	-4.6287596E-001	6.5663531E+004	3.399119933637849E+001
-7.206186116765427E-003	-4.6480414E-001	-4.6487600E-001	6.4500715E+004	3.419119933132606E+001
-7.303624759061780E-003	-4.6678856E-001	-4.6687594E-001	6.3911902E+004	3.439119932627364E+001
-7.450248092590366E-003	-4.6875298E-001	-4.6887597E-001	6.2917770E+004	3.459119932122121E+001
-7.587984137703258E-003	-4.7082776E-001	-4.7087598E-001	6.2049121E+004	3.479119931616879E+001
-7.717394711377933E-003	-4.7279876E-001	-4.7287592E-001	6.1264039E+004	3.499119931111636E+001
-7.882275471773711E-003	-4.7475517E-001	-4.7487596E-001	6.0230727E+004	3.519119930606394E+001
-8.009152264516928E-003	-4.7680449E-001	-4.7687599E-001	5.9532453E+004	3.539119930101151E+001
-8.162853522374031E-003	-4.7877654E-001	-4.7887596E-001	5.8653086E+004	3.559119929595909E+001
-8.293120973466891E-003	-4.8077577E-001	-4.8087594E-001	5.7972840E+004	3.579119929090666E+001
-8.417762970248821E-003	-4.8278859E-001	-4.8287597E-001	5.7353551E+004	3.599119928585424E+001
-8.572932650784459E-003	-4.8483029E-001	-4.8487601E-001	5.6553609E+004	3.619119928080181E+001
-8.728240769332221E-003	-4.8669815E-001	-4.8687595E-001	5.5761313E+004	3.639119927574939E+001
-8.858856657356792E-003	-4.8876402E-001	-4.8887596E-001	5.5172359E+004	3.659119927069696E+001
-9.013960161655513E-003	-4.9079594E-001	-4.9087599E-001	5.4448426E+004	3.679119926564454E+001
-9.172759907924145E-003	-4.9282321E-001	-4.9287593E-001	5.3726820E+004	3.699119926059211E+001
-9.332800178897899E-003	-4.9476600E-001	-4.9487597E-001	5.3013672E+004	3.719119925553969E+001
-9.451738564451171E-003	-4.9678281E-001	-4.9687600E-001	5.2559941E+004	3.739119925048726E+001
-9.643506200056488E-003	-4.9880648E-001	-4.9887598E-001	5.1724598E+004	3.759119924543484E+001
-9.800711355109792E-003	-5.0080872E-001	-5.0087595E-001	5.1099223E+004	3.779119924038241E+001
-9.921094580197631E-003	-5.0274408E-001	-5.0287598E-001	5.0674254E+004	3.799119923532999E+001
-1.008944388811872E-002	-5.0476855E-001	-5.0487602E-001	5.0029371E+004	3.819119923027756E+001
-1.025482201020875E-002	-5.0683802E-001	-5.0687593E-001	4.9424359E+004	3.839119922522514E+001
-1.043651648123944E-002	-5.0885087E-001	-5.0887597E-001	4.8756773E+004	3.859119922017271E+001
-1.056253366911987E-002	-5.1081014E-001	-5.1087600E-001	4.8360570E+004	3.879119921512029E+001
-1.073464221817858E-002	-5.1283997E-001	-5.1287597E-001	4.7774297E+004	3.899119921006786E+001
-1.088450117527176E-002	-5.1483816E-001	-5.1487595E-001	4.7300113E+004	3.919119920501544E+001
-1.106094810918989E-002	-5.1676291E-001	-5.1687598E-001	4.6719586E+004	3.939119919996301E+001
-1.124478636164056E-002	-5.1880097E-001	-5.1887602E-001	4.6137023E+004	3.959119919491059E+001
-1.139370795338553E-002	-5.2086645E-001	-5.2087593E-001	4.5715273E+004	3.979119918985816E+001
-1.157212868829663E-002	-5.2282560E-001	-5.2287591E-001	4.5179727E+004	3.999119918480574E+001
-1.175281991452229E-002	-5.2479511E-001	-5.2487600E-001	4.4652699E+004	4.019119917975331E+001
-1.190620243791951E-002	-5.2682233E-001	-5.2687597E-001	4.4247723E+004	4.039119917470089E+001
-1.208039530254099E-002	-5.2882284E-001	-5.2887595E-001	4.3775293E+004	4.059119916964846E+001
-1.227091069977629E-002	-5.3079915E-001	-5.3087598E-001	4.3256703E+004	4.079119916459604E+001
-1.241245907464736E-002	-5.3277826E-001	-5.3287601E-001	4.2922863E+004	4.099119915954361E+001
-1.258437178924449E-002	-5.3482580E-001	-5.3487593E-001	4.2499207E+004	4.119119915449119E+001
-1.276092243641136E-002	-5.3678226E-001	-5.3687596E-001	4.2064535E+004	4.139119914943876E+001
-1.295965297576335E-002	-5.3877980E-001	-5.3887600E-001	4.1573629E+004	4.159119914438634E+001
-1.311568563918598E-002	-5.4083097E-001	-5.4087597E-001	4.1235434E+004	4.179119913933391E+001
-1.329559535133944E-002	-5.4285973E-001	-5.4287595E-001	4.0830043E+004	4.199119913428149E+001
-1.347386646095042E-002	-5.4480207E-001	-5.4487598E-001	4.0433980E+004	4.219119912922906E+001
-1.364352258728485E-002	-5.4681599E-001	-5.4687595E-001	4.0078797E+004	4.239119912417664E+001
-1.384044543559118E-002	-5.4883683E-001	-5.4887599E-001	3.9654563E+004	4.259119911912421E+001
-1.406546452733662E-002	-5.5081028E-001	-5.5087596E-001	3.9160477E+004	4.279119911407179E+001
-1.423181912279958E-002	-5.5286294E-001	-5.5287600E-001	3.8846961E+004	4.299119910901936E+001
-1.442184252413675E-002	-5.5483013E-001	-5.5487603E-001	3.8471516E+004	4.319119910396694E+001
-1.458493277457984E-002	-5.5687118E-001	-5.5687594E-001	3.8181266E+004	4.339119909891451E+001
-1.472992434146837E-002	-5.5879635E-001	-5.5887598E-001	3.7936133E+004	4.359119909386209E+001
-1.489954436189430E-002	-5.6087178E-001	-5.6087601E-001	3.7643551E+004	4.379119908880966E+001
-1.507184506922454E-002	-5.6277823E-001	-5.6287593E-001	3.7339703E+004	4.399119908375724E+001
-1.523514944624976E-002	-5.6486487E-001	-5.6487596E-001	3.7076426E+004	4.419119907870481E+001
-1.542740885805563E-002	-5.6676728E-001	-5.6687599E-001	3.6737684E+004	4.439119907365239E+001
-1.562909180334876E-002	-5.6885809E-001	-5.6887603E-001	3.6397387E+004	4.459119906859996E+001
-1.579209739107912E-002	-5.7078099E-001	-5.7087594E-001	3.6143457E+004	4.479119906354754E+001
-1.596855347679904E-002	-5.7276493E-001	-5.7287598E-001	3.5868305E+004	4.499119905849511E+001
-1.616303865188551E-002	-5.7476056E-001	-5.7487601E-001	3.5560180E+004	4.519119905344269E+001
-1.634045142618109E-002	-5.7677293E-001	-5.7687593E-001	3.5297246E+004	4.539119904839026E+001
-1.653305866294641E-002	-5.7877219E-001	-5.7887596E-001	3.5006965E+004	4.559119904333784E+001
-1.670011470177207E-002	-5.8076102E-001	-5.8087599E-001	3.4775871E+004	4.579119903828541E+001
-1.689246137583708E-002	-5.8284593E-001	-5.8287597E-001	3.4503316E+004	4.599119903323299E+001
-1.708054933667943E-002	-5.8472532E-001	-5.8487600E-001	3.4233402E+004	4.619119902818056E+001
-1.726482287387185E-002	-5.8683932E-001	-5.8687598E-001	3.3990461E+004	4.639119902312814E+001
-1.745737324267634E-002	-5.8883703E-001	-5.8887601E-001	3.3729988E+004	4.659119901807571E+001
-1.762284575357015E-002	-5.9086221E-001	-5.9087592E-001	3.3528195E+004	4.679119901302329E+001
-1.778752327386640E-002	-5.9277320E-001	-5.9287596E-001	3.3325223E+004	4.699119900797086E+001
-1.797505056479196E-002	-5.9483522E-001	-5.9487599E-001	3.3092270E+004	4.719119900291844E+001
-1.817966300227042E-002	-5.9679586E-001	-5.9687591E-001	3.2827664E+004	4.739119899786601E+001
-1.832285281648222E-002	-5.9875864E-001	-5.9887600E-001	3.2678242E+004	4.759119899281359E+001
-1.852180030872166E-002	-6.0081279E-001	-6.0087603E-001	3.2438143E+004	4.779119898776116E+001
-1.867883064670067E-002	-6.0280991E-001	-6.0287595E-001	3.2272357E+004	4.799119898270874E+001
-1.885411831829592E-002	-6.0480005E-001	-6.0487592E-001	3.2077875E+004	4.819119897765631E+001
-1.904033924795617E-002	-6.0685337E-001	-6.0687596E-001	3.1871982E+004	4.839119897260389E+001
-1.922087931713564E-002	-6.0876513E-001	-6.0887605E-001	3.1672074E+004	4.859119896755146E+001
-1.939662712306207E-002	-6.1082000E-001	-6.1087596E-001	3.1491041E+004	4.879119896249904E+001
-1.958129358348003E-002	-6.1272711E-001	-6.1287594E-001	3.1291451E+004	4.899119895744661E+001
-1.977714949354531E-002	-6.1486387E-001	-6.1487603E-001	3.1089611E+004	4.919119895239419E+001
-1.993271726135545E-002	-6.1674279E-001	-6.1687595E-001	3.0941230E+004	4.939119894734176E+001
-2.010280811140748E-002	-6.1876798E-001	-6.1887598E-001	3.0780176E+004	4.959119894228934E+001
-2.027508117471855E-002	-6.2075633E-001	-6.2087595E-001	3.0616713E+004	4.979119893723691E+001
-2.044344492889663E-002	-6.2282687E-001	-6.2287599E-001	3.0465848E+004	4.999119893218449E+001
-2.059728268609442E-002	-6.2478179E-001	-6.2487596E-001	3.0333215E+004	5.019119892713206E+001
-2.078515625769448E-002	-6.2682897E-001	-6.2687594E-001	3.0157529E+004	5.039119892207964E+001
-2.092614909172030E-002	-6.2882948E-001	-6.2887603E-001	3.0049938E+004	5.059119891702721E+001
-2.110679315291181E-002	-6.3086224E-001	-6.3087600E-001	2.9889061E+004	5.079119891197479E+001
-2.126875331046171E-002	-6.3282675E-001	-6.3287598E-001	2.9753824E+004	5.099119890692236E+001
-2.145554328283464E-002	-6.3489252E-001	-6.3487601E-001	2.9591072E+004	5.119119890186994E+001
-2.161519165700426E-002	-6.3682497E-001	-6.3687599E-001	2.9461916E+004	5.139119889681751E+001
-2.178353856514623E-002	-6.3884395E-001	-6.3887596E-001	2.9326914E+004	5.159119889176509E+001
-2.191972114777196E-002	-6.4082128E-001	-6.4087594E-001	2.9234920E+004	5.179119888671266E+001
-2.209224857143371E-002	-6.4283258E-001	-6.4287603E-001	2.9097652E+004	5.199119888166024E+001
-2.227973861909144E-002	-6.4478582E-001	-6.4487600E-001	2.8940457E+004	5.219119887660781E+001
-2.243433921474355E-002	-6.4673114E-001	-6.4687592E-001	2.8827732E+004	5.239119887155539E+001
-2.258148914413705E-002	-6.4886385E-001	-6.4887601E-001	2.8734324E+004	5.259119886650296E+001
-2.271895071604055E-002	-6.5083712E-001	-6.5087599E-001	2.8647322E+004	5.279119886145054E+001
-2.291463255668968E-002	-6.5287721E-001	-6.5287596E-001	2.8491717E+004	5.299119885639811E+001
-2.305162464830263E-002	-6.5483016E-001	-6.5487593E-001	2.8407115E+004	5.319119885134569E+001
-2.319089941986124E-002	-6.5684319E-001	-6.5687597E-001	2.8323316E+004	5.339119884629326E+001
-2.335282151791640E-002	-6.5886974E-001	-6.5887600E-001	2.8213711E+004	5.359119884124084E+001
-2.350061320129027E-002	-6.6082424E-001	-6.6087598E-001	2.8119447E+004	5.379119883618841E+001
-2.367457305622356E-002	-6.6278172E-001	-6.6287601E-001	2.7995508E+004	5.399119883113599E+001
-2.383015552232604E-002	-6.6485202E-001	-6.6487598E-001	2.7899609E+004	5.419119882608356E+001
-2.400200494420934E-002	-6.6682667E-001	-6.6687596E-001	2.7782123E+004	5.439119882103114E+001
-2.414203004894655E-002	-6.6879129E-001	-6.6887599E-001	2.7702363E+004	5.459119881597871E+001
-2.430900158093982E-002	-6.7083174E-001	-6.7087603E-001	2.7596021E+004	5.479119881092629E+001
-2.443822644861592E-002	-6.7283159E-001	-6.7287594E-001	2.7531932E+004	5.499119880587386E+001
-2.459941323384085E-002	-6.7481154E-001	-6.7487597E-001	2.7432018E+004	5.519119880082144E+001
-2.475909169661961E-002	-6.7683363E-001	-6.7687601E-001	2.7336771E+004	5.539119879576901E+001
-2.490073082785912E-002	-6.7877501E-001	-6.7887598E-001	2.7259240E+004	5.559119879071659E+001
-2.507618885928697E-002	-6.8085355E-001	-6.8087596E-001	2.7151396E+004	5.579119878566416E+001
-2.522619136439141E-002	-6.8280464E-001	-6.8287599E-001	2.7067291E+004	5.599119878061174E+001
-2.537917450852811E-002	-6.8482107E-001	-6.8487602E-001	2.6983584E+004	5.619119877555931E+001
-2.555151528767524E-002	-6.8678707E-001	-6.8687594E-001	2.6878525E+004	5.639119877050689E+001
-2.567120389051969E-002	-6.8877661E-001	-6.8887597E-001	2.6830709E+004	5.659119876545446E+001
-2.582880927333220E-002	-6.9087738E-001	-6.9087601E-001	2.6748324E+004	5.679119876040204E+001
-2.598972719816306E-002	-6.9278932E-001	-6.9287598E-001	2.6656275E+004	5.699119875534961E+001
-2.618762687331204E-002	-6.9481772E-001	-6.9487596E-001	2.6532291E+004	5.719119875029719E+001
-2.632320997444587E-002	-6.9681692E-001	-6.9687605E-001	2.6471578E+004	5.739119874524476E+001
-2.647599291828284E-002	-6.9878399E-001	-6.9887602E-001	2.6393117E+004	5.759119874019234E+001
-2.663285394311132E-002	-7.0078743E-001	-7.0087594E-001	2.6312893E+004	5.779119873513991E+001
-2.682098561091151E-002	-7.0284164E-001	-7.0287597E-001	2.6204914E+004	5.799119873008749E+001
-2.697001805432911E-002	-7.0481664E-001	-7.0487601E-001	2.6133340E+004	5.819119872503506E+001
-2.712139782898110E-002	-7.0685786E-001	-7.0687598E-001	2.6062736E+004	5.839119871998264E+001
-2.729775840094500E-002	-7.0888174E-001	-7.0887595E-001	2.5968496E+004	5.859119871493021E+001
-2.747289038288603E-002	-7.1082008E-001	-7.1087605E-001	2.5873510E+004	5.879119870987779E+001
-2.763158542578176E-002	-7.1276075E-001	-7.1287602E-001	2.5795145E+004	5.899119870482537E+001
-2.779471375868603E-002	-7.1489453E-001	-7.1487600E-001	2.5720521E+004	5.919119869977294E+001
-2.799217612245028E-002	-7.1683079E-001	-7.1687597E-001	2.5608256E+004	5.939119869472052E+001
-2.816846503484416E-002	-7.1887374E-001	-7.1887606E-001	2.5520516E+004	5.959119868966809E+001
-2.836028200388391E-002	-7.2069150E-001	-7.2087592E-001	2.5412000E+004	5.979119868461567E+001
-2.852084911153857E-002	-7.2282743E-001	-7.2287601E-001	2.5343826E+004	5.999119867956324E+001
-2.869083199997449E-002	-7.2481537E-001	-7.2487605E-001	2.5262961E+004	6.019119867451082E+001
-2.889017302800578E-002	-7.2682244E-001	-7.2687596E-001	2.5158119E+004	6.039119866945839E+001
-2.906855442265555E-002	-7.2879475E-001	-7.2887594E-001	2.5071586E+004	6.059119866440597E+001
-2.926195700164025E-002	-7.3083580E-001	-7.3087603E-001	2.4975629E+004	6.079119865935354E+001
-2.947122926951562E-002	-7.3278701E-001	-7.3287600E-001	2.4864488E+004	6.099119865430112E+001
-2.965929301491516E-002	-7.3485970E-001	-7.3487598E-001	2.4776711E+004	6.119119864924869E+001
-2.987759982107968E-002	-7.3681074E-001	-7.3687595E-001	2.4660975E+004	6.139119864419627E+001
-3.006436399267576E-002	-7.3880583E-001	-7.3887604E-001	2.4574139E+004	6.159119863914384E+001
-3.028177382459302E-002	-7.4075323E-001	-7.4087596E-001	2.4462016E+004	6.179119863409142E+001
-3.050193481243368E-002	-7.4276966E-001	-7.4287599E-001	2.4351559E+004	6.199119862903899E+001
-3.073721508867189E-002	-7.4476874E-001	-7.4487603E-001	2.4230195E+004	6.219119862398657E+001
-3.097006018340065E-002	-7.4695718E-001	-7.4687600E-001	2.4118688E+004	6.239119861893414E+001
-3.117723400834448E-002	-7.4870777E-001	-7.4887598E-001	2.4014566E+004	6.259119861388172E+001
-3.146319748235060E-002	-7.5093788E-001	-7.5087595E-001	2.3867182E+004	6.279119860882929E+001
-3.170565444270718E-002	-7.5276184E-001	-7.5287610E-001	2.3742195E+004	6.299119860377687E+001
-3.193776585851194E-002	-7.5487906E-001	-7.5487602E-001	2.3635938E+004	6.319119859872444E+001
-3.222980686883667E-002	-7.5680357E-001	-7.5687599E-001	2.3481480E+004	6.339119859367202E+001
-3.249424420030012E-002	-7.5884467E-001	-7.5887603E-001	2.3353203E+004	6.359119858861959E+001
-3.275622806512882E-002	-7.6075941E-001	-7.6087594E-001	2.3224879E+004	6.379119858356717E+001
-3.303043853043847E-002	-7.6280200E-001	-7.6287603E-001	2.3093910E+004	6.399119857851474E+001
-3.336198563643150E-002	-7.6486945E-001	-7.6487601E-001	2.2926377E+004	6.419119857346232E+001
-3.362603423152905E-002	-7.6675206E-001	-7.6687610E-001	2.2802334E+004	6.439119856840989E+001
-3.395620300941365E-002	-7.6881051E-001	-7.6887596E-001	2.2641238E+004	6.459119856335747E+001
-3.426979884506332E-002	-7.7085495E-001	-7.7087599E-001	2.2493711E+004	6.479119855830504E+001
-3.462325434449667E-002	-7.7274853E-001	-7.7287602E-001	2.2318771E+004	6.499119855325262E+001
-3.495142954800834E-002	-7.7481937E-001	-7.7487600E-001	2.2168461E+004	6.519119854820019E+001
-3.530541010113331E-002	-7.7678090E-001	-7.7687591E-001	2.2001752E+004	6.539119854314777E+001
-3.566624642621141E-002	-7.7881664E-001	-7.7887601E-001	2.1836238E+004	6.559119853809534E+001
-3.606903128607852E-002	-7.8073120E-001	-7.8087598E-001	2.1645473E+004	6.579119853304292E+001
-3.644787519932616E-002	-7.8281599E-001	-7.8287601E-001	2.1477686E+004	6.599119852799049E+001
-3.687677538585200E-002	-7.8480333E-001	-7.8487599E-001	2.1281777E+004	6.619119852293807E+001
-3.728267878595970E-002	-7.8688359E-001	-7.8687608E-001	2.1105875E+004	6.639119851788564E+001
-3.771877593478035E-002	-7.8878742E-001	-7.8887606E-001	2.0912328E+004	6.659119851283322E+001
-3.816894029980936E-002	-7.9083824E-001	-7.9087597E-001	2.0719418E+004	6.679119850778079E+001
-3.866467537419649E-002	-7.9278880E-001	-7.9287606E-001	2.0504215E+004	6.699119850272837E+001
-3.917596547108337E-002	-7.9479802E-001	-7.9487604E-001	2.0287898E+004	6.719119849767594E+001
-3.970097271116257E-002	-7.9681021E-001	-7.9687601E-001	2.0070295E+004	6.739119849262352E+001
-4.019639908537798E-002	-7.9879659E-001	-7.9887599E-001	1.9872342E+004	6.759119848757109E+001
-4.076314011146256E-002	-8.0081654E-001	-8.0087608E-001	1.9645605E+004	6.779119848251867E+001
-4.132210042368817E-002	-8.0282307E-001	-8.0287611E-001	1.9428418E+004	6.799119847746624E+001
-4.192016593839504E-002	-8.0484694E-001	-8.0487597E-001	1.9199518E+004	6.819119847241382E+001
-4.257401707793373E-002	-8.0680025E-001	-8.0687606E-001	1.8950531E+004	6.839119846736139E+001
-4.321544645475572E-002	-8.0877924E-001	-8.0887610E-001	1.8715051E+004	6.859119846230897E+001
-4.387865465793284E-002	-8.1078136E-001	-8.1087595E-001	1.8477809E+004	6.879119845725654E+001
-4.459713316758007E-002	-8.1282097E-001	-8.1287605E-001	1.8225857E+004	6.899119845220412E+001
-4.530980166754250E-002	-8.1481445E-001	-8.1487614E-001	1.7983184E+004	6.919119844715169E+001
-4.609022731180035E-002	-8.1683809E-001	-8.1687599E-001	1.7722588E+004	6.939119844209927E+001
-4.688943085094893E-002	-8.1879652E-001	-8.1887597E-001	1.7462283E+004	6.959119843704684E+001
-4.772636047543322E-002	-8.2081479E-001	-8.2087606E-001	1.7198354E+004	6.979119843199442E+001
-4.860090991126298E-002	-8.2286721E-001	-8.2287604E-001	1.6931107E+004	6.999119842694199E+001
-4.951137165663533E-002	-8.2481909E-001	-8.2487601E-001	1.6659186E+004	7.019119842188957E+001
-5.044279309188154E-002	-8.2682496E-001	-8.2687604E-001	1.6391340E+004	7.039119841683714E+001
-5.141153246588820E-002	-8.2886124E-001	-8.2887608E-001	1.6122088E+004	7.059119841178472E+001
-5.245959342672751E-002	-8.3078790E-001	-8.3087599E-001	1.5836720E+004	7.079119840673229E+001
-5.349776369958781E-002	-8.3285439E-001	-8.3287597E-001	1.5568022E+004	7.099119840167987E+001
-5.463636116876502E-002	-8.3479899E-001	-8.3487606E-001	1.5279184E+004	7.119119839662744E+001
-5.578380254891369E-002	-8.3680391E-001	-8.3687603E-001	1.5000840E+004	7.139119839157502E+001
-5.699547767151301E-002	-8.3879590E-001	-8.3887601E-001	1.4716885E+004	7.159119838652259E+001
-5.830263194275365E-002	-8.4080768E-001	-8.4087610E-001	1.4421436E+004	7.179119838147017E+001
-5.959542545536428E-002	-8.4279841E-001	-8.4287608E-001	1.4141998E+004	7.199119837641774E+001
-6.099424362256545E-002	-8.4478414E-001	-8.4487593E-001	1.3850228E+004	7.219119837136532E+001
-6.245414305493102E-002	-8.4679669E-001	-8.4687603E-001	1.3558695E+004	7.239119836631289E+001
-6.396013663452338E-002	-8.4883195E-001	-8.4887612E-001	1.3271266E+004	7.259119836126047E+001
-6.552252430065453E-002	-8.5080624E-001	-8.5087597E-001	1.2984943E+004	7.279119835620804E+001
-6.719792553787507E-002	-8.5284632E-001	-8.5287607E-001	1.2691558E+004	7.299119835115562E+001
-6.897065981318717E-002	-8.5479575E-001	-8.5487604E-001	1.2393614E+004	7.319119834610319E+001
-7.075023839129813E-002	-8.5683173E-001	-8.5687602E-001	1.2110655E+004	7.339119834105077E+001
-7.263024014266650E-002	-8.5883164E-001	-8.5887599E-001	1.1824712E+004	7.359119833599834E+001
-7.459167619721541E-002	-8.6083037E-001	-8.6087602E-001	1.1540568E+004	7.379119833094592E+001
-7.665025257154912E-002	-8.6284447E-001	-8.6287618E-001	1.1256903E+004	7.399119832589349E+001
-7.879546124439540E-002	-8.6485732E-001	-8.6487603E-001	1.0975979E+004	7.419119832084107E+001
-8.107348712363938E-002	-8.6687452E-001	-8.6687595E-001	1.0692454E+004	7.439119831578864E+001
-8.344834936886214E-002	-8.6881667E-001	-8.6887610E-001	1.0411431E+004	7.459119831073622E+001
-8.626270172378847E-002	-8.7103581E-001	-8.7097603E-001	1.0097479E+004	7.480119830543117E+001
-8.941570309501889E-002	-8.7295133E-001	-8.7307602E-001	9.7628418E+003	7.501119830012613E+001
-9.202781611105282E-002	-8.7506837E-001	-8.7507606E-001	9.5087373E+003	7.521119829507370E+001
-9.492279084234623E-002	-8.7698609E-001	-8.7707603E-001	9.2389414E+003	7.541119829002128E+001
-9.786451609156888E-002	-8.7902164E-001	-8.7907600E-001	8.9820264E+003	7.561119828496885E+001
-1.010323944649416E-001	-8.8094050E-001	-8.8107604E-001	8.7193867E+003	7.581119827991643E+001
-1.042601625506857E-001	-8.8301140E-001	-8.8307607E-001	8.4693076E+003	7.601119827486400E+001
-1.076986532079696E-001	-8.8497645E-001	-8.8507599E-001	8.2171543E+003	7.621119826981158E+001
-1.112214152283055E-001	-8.8702351E-001	-8.8707596E-001	7.9752944E+003	7.641119826475915E+001
-1.149740319914456E-001	-8.8898909E-001	-8.8907611E-001	7.7320859E+003	7.661119825970673E+001
-1.188491348952240E-001	-8.9103281E-001	-8.9107603E-001	7.4971753E+003	7.681119825465430E+001
-1.228990223218598E-001	-8.9300632E-001	-8.9307606E-001	7.2661792E+003	7.701119824960188E+001
-1.271242332009096E-001	-8.9504421E-001	-8.9507610E-001	7.0407051E+003	7.721119824454945E+001
-1.315346086363971E-001	-8.9701122E-001	-8.9707613E-001	6.8195835E+003	7.741119823949703E+001
-1.361196316808224E-001	-8.9906412E-001	-8.9907604E-001	6.6049556E+003	7.761119823444460E+001
-1.408970047299519E-001	-9.0098476E-001	-9.0107602E-001	6.3946338E+003	7.781119822939218E+001
-1.459064617934650E-001	-9.0303850E-001	-9.0307611E-001	6.1891606E+003	7.801119822433975E+001
-1.510316286565493E-001	-9.0495735E-001	-9.0507609E-001	5.9918398E+003	7.821119821928733E+001
-1.563785969609156E-001	-9.0701878E-001	-9.0707600E-001	5.8001465E+003	7.841119821423490E+001
-1.618056444793332E-001	-9.0898985E-001	-9.0907604E-001	5.6177881E+003	7.861119820918248E+001
-1.675303029846780E-001	-9.1096723E-001	-9.1107601E-001	5.4376265E+003	7.881119820413005E+001
-1.733638532998256E-001	-9.1296029E-001	-9.1307598E-001	5.2661514E+003	7.901119819907763E+001
-1.793562800997275E-001	-9.1500258E-001	-9.1507608E-001	5.1015923E+003	7.921119819402520E+001
-1.855408732490000E-001	-9.1698742E-001	-9.1707605E-001	4.9422393E+003	7.941119818897278E+001
-1.926608447000273E-001	-9.1900355E-001	-9.1907603E-001	4.7700586E+003	7.961119818392035E+001
-1.991950166105489E-001	-9.2095882E-001	-9.2107606E-001	4.6234028E+003	7.981119817886793E+001
-2.058146990066954E-001	-9.2300248E-001	-9.2307609E-001	4.4846284E+003	8.001119817381550E+001
-2.125058971163805E-001	-9.2500556E-001	-9.2507601E-001	4.3528467E+003	8.021119816876308E+001
-2.192470747111643E-001	-9.2697161E-001	-9.2707604E-001	4.2279771E+003	8.041119816371065E+001
-2.261024572930871E-001	-9.2898548E-001	-9.2907608E-001	4.1086924E+003	8.061119815865823E+001
-2.329836321673647E-001	-9.3103600E-001	-9.3107611E-001	3.9961433E+003	8.081119815360580E+001
-2.399274424867294E-001	-9.3299478E-001	-9.3307602E-001	3.8886538E+003	8.101119814855338E+001
-2.468446489748732E-001	-9.3502164E-001	-9.3507600E-001	3.7878950E+003	8.121119814350095E+001
-2.538272348230448E-001	-9.3702084E-001	-9.3707609E-001	3.6915693E+003	8.141119813844853E+001
-2.608703615021404E-001	-9.3900818E-001	-9.3907607E-001	3.5995203E+003	8.161119813339610E+001
-2.677797464856591E-001	-9.4102621E-001	-9.4107598E-001	3.5141799E+003	8.181119812834368E+001
-2.748123153794957E-001	-9.4296080E-001	-9.4307613E-001	3.4312903E+003	8.201119812329125E+001
-2.818415428505470E-001	-9.4500339E-001	-9.4507599E-001	3.3529600E+003	8.221119811823883E+001
-2.887784463190828E-001	-9.4698900E-001	-9.4707608E-001	3.2792925E+003	8.241119811318640E+001
-2.973966924241338E-001	-9.4903779E-001	-9.4907606E-001	3.1911511E+003	8.261119810813398E+001
-3.044585624008600E-001	-9.5099908E-001	-9.5107603E-001	3.1235747E+003	8.281119810308155E+001
-3.115913622871118E-001	-9.5303017E-001	-9.5307612E-001	3.0585898E+003	8.301119809802913E+001
-3.188493813043818E-001	-9.5505357E-001	-9.5507604E-001	2.9953125E+003	8.321119809297670E+001
-3.261849544984612E-001	-9.5699728E-001	-9.5707607E-001	2.9339099E+003	8.341119808792428E+001
-3.337775107722329E-001	-9.5901537E-001	-9.5907605E-001	2.8732175E+003	8.361119808287185E+001
-3.414135258792644E-001	-9.6102089E-001	-9.6107602E-001	2.8148296E+003	8.381119807781943E+001
-3.493009135105956E-001	-9.6305585E-001	-9.6307606E-001	2.7570952E+003	8.401119807276700E+001
-3.573580237333571E-001	-9.6502542E-001	-9.6507609E-001	2.7004443E+003	8.421119806771458E+001
-3.654621958969120E-001	-9.6698189E-001	-9.6707606E-001	2.6459150E+003	8.441119806266215E+001
-3.740151576093842E-001	-9.6900713E-001	-9.6907598E-001	2.5908232E+003	8.461119805760973E+001
-3.826950241340641E-001	-9.7099507E-001	-9.7107607E-001	2.5372556E+003	8.481119805255730E+001
-3.919291918814309E-001	-9.7301114E-001	-9.7307605E-001	2.4826196E+003	8.501119804750488E+001
-4.025070525562198E-001	-9.7502214E-001	-9.7507602E-001	2.4223728E+003	8.521119804245245E+001
-4.118202135870730E-001	-9.7707504E-001	-9.7707611E-001	2.3725767E+003	8.541119803740003E+001
-4.213487916539451E-001	-9.7903162E-001	-9.7907597E-001	2.3235657E+003	8.561119803234760E+001
-4.311533696535559E-001	-9.8098212E-001	-9.8107606E-001	2.2752510E+003	8.581119802729518E+001
-4.411007633132860E-001	-9.8300219E-001	-9.8307604E-001	2.2285208E+003	8.601119802224275E+001
-4.512044297586169E-001	-9.8501277E-001	-9.8507613E-001	2.1830742E+003	8.621119801719033E+001
-4.615946833568039E-001	-9.8698485E-001	-9.8707610E-001	2.1382068E+003	8.641119801213790E+001
-4.720460298278972E-001	-9.8902357E-001	-9.8907602E-001	2.0951846E+003	8.661119800708548E+001
-4.825100268864506E-001	-9.9101543E-001	-9.9107605E-001	2.0538752E+003	8.681119800203305E+001
-4.932459023508684E-001	-9.9301815E-001	-9.9307615E-001	2.0132314E+003	8.701119799698063E+001
-5.059068893375986E-001	-9.9499208E-001	-9.9507600E-001	1.9667494E+003	8.721119799192820E+001
-5.166109314150367E-001	-9.9698138E-001	-9.9707603E-001	1.9298496E+003	8.741119798687578E+001
-5.274966859729640E-001	-9.9897349E-001	-9.9907607E-001	1.8938005E+003	8.761119798182335E+001
-5.384935145635943E-001	-1.0010279E+000	-1.0010760E+000	1.8589415E+003	8.781119797677093E+001
-5.492464756580393E-001	-1.0030446E+000	-1.0030760E+000	1.8262195E+003	8.801119797171850E+001
-5.600737944887351E-001	-1.0050460E+000	-1.0050761E+000	1.7944885E+003	8.821119796666608E+001
-5.708735437510430E-001	-1.0070413E+000	-1.0070760E+000	1.7640358E+003	8.841119796161365E+001
-5.815968684167885E-001	-1.0090013E+000	-1.0090760E+000	1.7348809E+003	8.861119795656123E+001
-5.923166703770715E-001	-1.0110058E+000	-1.0110760E+000	1.7068669E+003	8.881119795150880E+001
-6.049687858637148E-001	-1.0130324E+000	-1.0130759E+000	1.6745201E+003	8.901119794645638E+001
-6.159008668689152E-001	-1.0150124E+000	-1.0150760E+000	1.6480126E+003	8.921119794140395E+001
-6.264657499458712E-001	-1.0170027E+000	-1.0170760E+000	1.6233971E+003	8.941119793635153E+001
-6.369352530975263E-001	-1.0189914E+000	-1.0190761E+000	1.5998351E+003	8.961119793129910E+001
-6.474723799783504E-001	-1.0209705E+000	-1.0210760E+000	1.5768556E+003	8.981119792624668E+001
-6.578926990091656E-001	-1.0230459E+000	-1.0230761E+000	1.5550345E+003	9.001119792119425E+001
-6.683670827345973E-001	-1.0250144E+000	-1.0250760E+000	1.5336100E+003	9.021119791614183E+001
-6.787663764128147E-001	-1.0270663E+000	-1.0270761E+000	1.5131367E+003	9.041119791108940E+001
-6.890342334230493E-001	-1.0289990E+000	-1.0290760E+000	1.4933931E+003	9.061119790603698E+001
-6.994276844311393E-001	-1.0311012E+000	-1.0310761E+000	1.4742070E+003	9.081119790098455E+001
-7.119998736032453E-001	-1.0330243E+000	-1.0330760E+000	1.4508771E+003	9.101119789593213E+001
-7.220963051842588E-001	-1.0350211E+000	-1.0350760E+000	1.4333560E+003	9.121119789087970E+001
-7.322712502106525E-001	-1.0370151E+000	-1.0370761E+000	1.4161625E+003	9.141119788582728E+001
-7.425353333835538E-001	-1.0390474E+000	-1.0390761E+000	1.3993239E+003	9.161119788077485E+001
-7.526289663718941E-001	-1.0410058E+000	-1.0410761E+000	1.3831594E+003	9.181119787572243E+001
-7.628112234969286E-001	-1.0430121E+000	-1.0430760E+000	1.3673267E+003	9.201119787067000E+001
-7.729767343988172E-001	-1.0450351E+000	-1.0450760E+000	1.3519619E+003	9.221119786561758E+001
-7.832646538670307E-001	-1.0470506E+000	-1.0470761E+000	1.3367776E+003	9.241119786056515E+001
-7.934176521439156E-001	-1.0490501E+000	-1.0490761E+000	1.3221915E+003	9.261119785551273E+001
-8.040626985939632E-001	-1.0510730E+000	-1.0510761E+000	1.3072028E+003	9.281119785046030E+001
-8.169042683309939E-001	-1.0530460E+000	-1.0530760E+000	1.2890690E+003	9.301119784540788E+001
-8.272082617426193E-001	-1.0550851E+000	-1.0550761E+000	1.2754769E+003	9.321119784035545E+001
-8.377285487443018E-001	-1.0571033E+000	-1.0570761E+000	1.2618685E+003	9.341119783530303E+001
-8.484953698657769E-001	-1.0590498E+000	-1.0590761E+000	1.2481504E+003	9.361119783025060E+001
-8.592731110295482E-001	-1.0610423E+000	-1.0610760E+000	1.2348138E+003	9.381119782519818E+001
-8.703551521005295E-001	-1.0630684E+000	-1.0630759E+000	1.2214191E+003	9.401119782014575E+001
-8.814320318704976E-001	-1.0651054E+000	-1.0650761E+000	1.2083807E+003	9.421119781509333E+001
-8.930138938737138E-001	-1.0670053E+000	-1.0670761E+000	1.1948362E+003	9.441119781004090E+001
-9.046305713588012E-001	-1.0690763E+000	-1.0690762E+000	1.1817822E+003	9.461119780498848E+001
-9.193820432335311E-001	-1.0710180E+000	-1.0710760E+000	1.1649325E+003	9.481119779993605E+001
-9.314013308847588E-001	-1.0730938E+000	-1.0730760E+000	1.1521283E+003	9.501119779488363E+001
-9.436879976570225E-001	-1.0750064E+000	-1.0750761E+000	1.1391544E+003	9.521119778983120E+001
-9.559403311486570E-001	-1.0770416E+000	-1.0770762E+000	1.1266829E+003	9.541119778477878E+001
-9.688596734164587E-001	-1.0790756E+000	-1.0790759E+000	1.1137584E+003	9.561119777972635E+001
-9.820930363014777E-001	-1.0810438E+000	-1.0810760E+000	1.1007550E+003	9.581119777467393E+001
-9.956937677769702E-001	-1.0830466E+000	-1.0830760E+000	1.0877306E+003	9.601119776962150E+001
-1.010353431663142E+000	-1.0850556E+000	-1.0850760E+000	1.0739366E+003	9.621119776456908E+001
-1.027522834419120E+000	-1.0870615E+000	-1.0870761E+000	1.0579440E+003	9.641119775951665E+001
-1.042626978453595E+000	-1.0890574E+000	-1.0890760E+000	1.0445322E+003	9.661119775446423E+001
-1.058144364185004E+000	-1.0910306E+000	-1.0910760E+000	1.0310791E+003	9.681119774941180E+001
-1.076335433774956E+000	-1.0931215E+000	-1.0931761E+000	1.0155956E+003	9.702119774410676E+001
-1.094186690735231E+000	-1.0952194E+000	-1.0952761E+000	1.0009438E+003	9.723119773880171E+001
-1.111413362134000E+000	-1.0971996E+000	-1.0972761E+000	9.8721106E+002	9.743119773374929E+001
-1.133014300842337E+000	-1.0992458E+000	-1.0992759E+000	9.7019586E+002	9.763119772869686E+001
-1.151718271444309E+000	-1.1011982E+000	-1.1012760E+000	9.5613507E+002	9.783119772364444E+001
-1.170882930079485E+000	-1.1032594E+000	-1.1032760E+000	9.4224573E+002	9.803119771859201E+001
-1.190931705660828E+000	-1.1052361E+000	-1.1052760E+000	9.2804321E+002	9.823119771353959E+001
-1.212315955357692E+000	-1.1072125E+000	-1.1072761E+000	9.1330359E+002	9.843119770848716E+001
-1.237929303249739E+000	-1.1092253E+000	-1.1092761E+000	8.9603284E+002	9.863119770343474E+001
-1.260484115007310E+000	-1.1112013E+000	-1.1112760E+000	8.8156708E+002	9.883119769838231E+001
-1.284219775703697E+000	-1.1132301E+000	-1.1132760E+000	8.6685327E+002	9.903119769332989E+001
-1.309004077159899E+000	-1.1152050E+000	-1.1152761E+000	8.5194928E+002	9.923119768827746E+001
-1.339386905368219E+000	-1.1172316E+000	-1.1172761E+000	8.3413660E+002	9.943119768322504E+001
-1.366926520826325E+000	-1.1192236E+000	-1.1192760E+000	8.1878839E+002	9.963119767817261E+001
-1.395176476581433E+000	-1.1211956E+000	-1.1212760E+000	8.0362274E+002	9.983119767312019E+001
-1.427049673443271E+000	-1.1232411E+000	-1.1232760E+000	7.8710718E+002	1.000311976680678E+002
-1.461472747201213E+000	-1.1252075E+000	-1.1252761E+000	7.6991345E+002	1.002311976630153E+002
-1.494475736403143E+000	-1.1272166E+000	-1.1272761E+000	7.5425549E+002	1.004311976579629E+002
-1.530744846783520E+000	-1.1292019E+000	-1.1292760E+000	7.3768134E+002	1.006311976529105E+002
-1.570661739063976E+000	-1.1311774E+000	-1.1312760E+000	7.2019165E+002	1.008311976478581E+002
-1.609702679947388E+000	-1.1332108E+000	-1.1332760E+000	7.0398761E+002	1.010311976428056E+002
-1.654265294692007E+000	-1.1351954E+000	-1.1352761E+000	6.8622327E+002	1.012311976377532E+002
-1.697148569451978E+000	-1.1372367E+000	-1.1372761E+000	6.7008673E+002	1.014311976327008E+002
-1.744398213956769E+000	-1.1392343E+000	-1.1392760E+000	6.5308154E+002	1.016311976276484E+002
-1.794164118667446E+000	-1.1412073E+000	-1.1412760E+000	6.3606628E+002	1.018311976225959E+002
-1.846523703850988E+000	-1.1432080E+000	-1.1432761E+000	6.1911365E+002	1.020311976175435E+002
-1.901241840452570E+000	-1.1452123E+000	-1.1452761E+000	6.0234961E+002	1.022311976124911E+002
-1.960509072237417E+000	-1.1472189E+000	-1.1472762E+000	5.8516382E+002	1.024311976074387E+002
-2.019978104822354E+000	-1.1491992E+000	-1.1492761E+000	5.6891669E+002	1.026311976023862E+002
-2.089605998644895E+000	-1.1512417E+000	-1.1512760E+000	5.5093719E+002	1.028311975973338E+002
-2.156772826804588E+000	-1.1531889E+000	-1.1532761E+000	5.3468262E+002	1.030311975922814E+002
-2.228199903470991E+000	-1.1551782E+000	-1.1552761E+000	5.1843561E+002	1.032311975872290E+002
-2.306949406135791E+000	-1.1571901E+000	-1.1572762E+000	5.0161050E+002	1.034311975821765E+002
-2.390816491663184E+000	-1.1592013E+000	-1.1592761E+000	4.8485580E+002	1.036311975771241E+002
-2.479847230676093E+000	-1.1612340E+000	-1.1612760E+000	4.6826837E+002	1.038311975720717E+002
-2.572008576759401E+000	-1.1632444E+000	-1.1632761E+000	4.5227078E+002	1.040311975670193E+002
-2.667989171365633E+000	-1.1652397E+000	-1.1652761E+000	4.3674829E+002	1.042311975619668E+002
-2.772478662481937E+000	-1.1671771E+000	-1.1672760E+000	4.2098685E+002	1.044311975569144E+002
-2.880736153986717E+000	-1.1692212E+000	-1.1692760E+000	4.0587582E+002	1.046311975518620E+002
-3.001793301970523E+000	-1.1712118E+000	-1.1712761E+000	3.9017072E+002	1.048311975468096E+002
-3.124816803755806E+000	-1.1732091E+000	-1.1732759E+000	3.7544891E+002	1.050311975417571E+002
-3.262153047451619E+000	-1.1751683E+000	-1.1752760E+000	3.6024313E+002	1.052311975367047E+002
-3.399844668619759E+000	-1.1772196E+000	-1.1772761E+000	3.4625690E+002	1.054311975316523E+002
-3.548372966598489E+000	-1.1792002E+000	-1.1792760E+000	3.3232138E+002	1.056311975265999E+002
-3.707488165217995E+000	-1.1812485E+000	-1.1812760E+000	3.1861154E+002	1.058311975215474E+002
-3.877116263352022E+000	-1.1831399E+000	-1.1832761E+000	3.0515976E+002	1.060311975164950E+002
-4.053872214558474E+000	-1.1852307E+000	-1.1852762E+000	2.9237003E+002	1.062311975114426E+002
-4.245573618041675E+000	-1.1871797E+000	-1.1872761E+000	2.7962762E+002	1.064311975063902E+002
-4.445952982960648E+000	-1.1892219E+000	-1.1892760E+000	2.6748413E+002	1.066311975013377E+002
-4.663608231579644E+000	-1.1911886E+000	-1.1912761E+000	2.5542209E+002	1.068311974962853E+002
-4.891475774634991E+000	-1.1932164E+000	-1.1932760E+000	2.4393793E+002	1.070311974912329E+002
-5.138581828533113E+000	-1.1952000E+000	-1.1952760E+000	2.3259335E+002	1.072311974861805E+002
-5.393175289609303E+000	-1.1972532E+000	-1.1972761E+000	2.2199413E+002	1.074311974811280E+002
-5.663801024289938E+000	-1.1991997E+000	-1.1992761E+000	2.1173055E+002	1.076311974760756E+002
-5.950278116698399E+000	-1.2012043E+000	-1.2012761E+000	2.0187364E+002	1.078311974710232E+002
-6.253619321214373E+000	-1.2032005E+000	-1.2032760E+000	1.9240065E+002	1.080311974659708E+002
-6.572282485815933E+000	-1.2052175E+000	-1.2052761E+000	1.8337883E+002	1.082311974609183E+002
-6.914927593502078E+000	-1.2072018E+000	-1.2072761E+000	1.7457910E+002	1.084311974558659E+002
-7.273390956746738E+000	-1.2091700E+000	-1.2092761E+000	1.6624570E+002	1.086311974508135E+002
-7.660082458706398E+000	-1.2112126E+000	-1.2112761E+000	1.5812006E+002	1.088311974457611E+002
-8.066590095931417E+000	-1.2132341E+000	-1.2132760E+000	1.5040234E+002	1.090311974407086E+002
-8.494563328233127E+000	-1.2152469E+000	-1.2152761E+000	1.4306172E+002	1.092311974356562E+002
-8.940646131563081E+000	-1.2172509E+000	-1.2172761E+000	1.3614798E+002	1.094311974306038E+002
-9.424032306454905E+000	-1.2192807E+000	-1.2192761E+000	1.2937994E+002	1.096311974255514E+002
-9.914825398365114E+000	-1.2212596E+000	-1.2212760E+000	1.2317509E+002	1.098311974204989E+002
-1.043545502728347E+001	-1.2232698E+000	-1.2232760E+000	1.1722247E+002	1.100311974154465E+002
-1.104070619624486E+001	-1.2253988E+000	-1.2253761E+000	1.1098917E+002	1.102411974101415E+002
-1.166646258583688E+001	-1.2274731E+000	-1.2274761E+000	1.0521382E+002	1.104511974048364E+002
-1.227402517158971E+001	-1.2294209E+000	-1.2294761E+000	1.0016444E+002	1.106511973997840E+002
-1.290857856316899E+001	-1.2314166E+000	-1.2314761E+000	9.5395210E+001	1.108511973947316E+002
-1.355419674414358E+001	-1.2334486E+000	-1.2334760E+000	9.1001236E+001	1.110511973896791E+002
-1.422995887835285E+001	-1.2354549E+000	-1.2354761E+000	8.6820694E+001	1.112511973846267E+002
-1.493058310290316E+001	-1.2374096E+000	-1.2374761E+000	8.2877510E+001	1.114511973795743E+002
-1.566664862997681E+001	-1.2394595E+000	-1.2394760E+000	7.9114525E+001	1.116511973745219E+002
-1.643062978185492E+001	-1.2414479E+000	-1.2414761E+000	7.5556931E+001	1.118511973694694E+002
-1.721772186650706E+001	-1.2434902E+000	-1.2434760E+000	7.2221527E+001	1.120511973644170E+002
-1.802557012796949E+001	-1.2454621E+000	-1.2454761E+000	6.9094185E+001	1.122511973593646E+002
-1.885658063572276E+001	-1.2474444E+000	-1.2474761E+000	6.6154327E+001	1.124511973543122E+002
-1.970052174862283E+001	-1.2494750E+000	-1.2494761E+000	6.3423447E+001	1.126511973492597E+002
-2.059471562160121E+001	-1.2514843E+000	-1.2514760E+000	6.0767254E+001	1.128511973442073E+002
-2.148865133618552E+001	-1.2534478E+000	-1.2534761E+000	5.8330685E+001	1.130511973391549E+002
-2.242094495547872E+001	-1.2554407E+000	-1.2554761E+000	5.5994102E+001	1.132511973341025E+002
-2.341379247433474E+001	-1.2574492E+000	-1.2574761E+000	5.3705486E+001	1.134511973290500E+002
-2.437592342610799E+001	-1.2594645E+000	-1.2594761E+000	5.1668381E+001	1.136511973239976E+002
-2.539576893950264E+001	-1.2614646E+000	-1.2614760E+000	4.9672234E+001	1.138511973189452E+002
-2.642601100928130E+001	-1.2634665E+000	-1.2634760E+000	4.7811470E+001	1.140511973138928E+002
-2.747851109396561E+001	-1.2654486E+000	-1.2654762E+000	4.6052296E+001	1.142511973088403E+002
-2.854991796119418E+001	-1.2674718E+000	-1.2674760E+000	4.4394936E+001	1.144511973037879E+002
-2.960788247725850E+001	-1.2694527E+000	-1.2694761E+000	4.2875496E+001	1.146511972987355E+002
-3.075992271175738E+001	-1.2714475E+000	-1.2714760E+000	4.1334549E+001	1.148511972936831E+002
-3.196727410817090E+001	-1.2734413E+000	-1.2734761E+000	3.9835781E+001	1.150511972886306E+002
-3.321395024042278E+001	-1.2754182E+000	-1.2754761E+000	3.8400074E+001	1.152511972835782E+002
-3.447090815794979E+001	-1.2774514E+000	-1.2774761E+000	3.7058826E+001	1.154511972785258E+002
-3.572163290474691E+001	-1.2794778E+000	-1.2794760E+000	3.5818012E+001	1.156511972734734E+002
-3.710776977852618E+001	-1.2814825E+000	-1.2814760E+000	3.4534073E+001	1.158511972684209E+002
-3.849673049682386E+001	-1.2834353E+000	-1.2834760E+000	3.3338814E+001	1.160511972633685E+002
-4.006941250446437E+001	-1.2854630E+000	-1.2854761E+000	3.2080902E+001	1.162511972583161E+002
-4.150202447865297E+001	-1.2874647E+000	-1.2874761E+000	3.1021734E+001	1.164511972532637E+002
-4.292654797198290E+001	-1.2894663E+000	-1.2894760E+000	3.0038900E+001	1.166511972482112E+002
-4.452254727394961E+001	-1.2914598E+000	-1.2914760E+000	2.9006872E+001	1.168511972431588E+002
-4.614485344594846E+001	-1.2934715E+000	-1.2934761E+000	2.8030676E+001	1.170511972381064E+002
-4.780518771028852E+001	-1.2954642E+000	-1.2954761E+000	2.7098820E+001	1.172511972330540E+002
-4.950083281610023E+001	-1.2974855E+000	-1.2974761E+000	2.6211388E+001	1.174511972280015E+002
-5.122002154196753E+001	-1.2994461E+000	-1.2994760E+000	2.5369886E+001	1.176511972229491E+002
-5.295666439841392E+001	-1.3014699E+000	-1.3014760E+000	2.4576132E+001	1.178511972178967E+002
-5.475958568060463E+001	-1.3035309E+000	-1.3034761E+000	2.3804617E+001	1.180511972128443E+002
-5.645347987497216E+001	-1.3054363E+000	-1.3054761E+000	2.3124105E+001	1.182511972077918E+002
-5.841395311615088E+001	-1.3074898E+000	-1.3074760E+000	2.2383175E+001	1.184511972027394E+002
-6.029542284325419E+001	-1.3094664E+000	-1.3094760E+000	2.1717508E+001	1.186511971976870E+002
-6.220344443926729E+001	-1.3115135E+000	-1.3114761E+000	2.1084259E+001	1.188511971926346E+002
-6.418067709604884E+001	-1.3134991E+000	-1.3134761E+000	2.0465647E+001	1.190511971875821E+002
-6.622582356945986E+001	-1.3154826E+000	-1.3154762E+000	1.9863590E+001	1.192511971825297E+002
-6.830523789010090E+001	-1.3174998E+000	-1.3174760E+000	1.9288414E+001	1.194511971774773E+002
-7.037171862022655E+001	-1.3194691E+000	-1.3194760E+000	1.8749990E+001	1.196511971724249E+002
-7.226061471303319E+001	-1.3214710E+000	-1.3214760E+000	1.8287569E+001	1.198511971673724E+002
-7.402081908930973E+001	-1.3235246E+000	-1.3234761E+000	1.7880438E+001	1.200511971623200E+002
-7.605792821237492E+001	-1.3255142E+000	-1.3254761E+000	1.7427692E+001	1.202511971572676E+002
-7.819952419771874E+001	-1.3275051E+000	-1.3274761E+000	1.6975872E+001	1.204511971522152E+002
-8.046441795442138E+001	-1.3295189E+000	-1.3294760E+000	1.6523066E+001	1.206511971471627E+002
-8.261229111277862E+001	-1.3314778E+000	-1.3314760E+000	1.6117188E+001	1.208511971421103E+002
-8.501925913330660E+001	-1.3335192E+000	-1.3334761E+000	1.5684908E+001	1.210511971370579E+002
-8.707682045138601E+001	-1.3354446E+000	-1.3354762E+000	1.5336395E+001	1.212511971320055E+002
-8.986697584269018E+001	-1.3374997E+000	-1.3374760E+000	1.4883106E+001	1.214511971269530E+002
-9.230521548632305E+001	-1.3395303E+000	-1.3394761E+000	1.4511969E+001	1.216511971219006E+002
-9.468276290342112E+001	-1.3415260E+000	-1.3414760E+000	1.4168640E+001	1.218511971168482E+002
-9.693595637539966E+001	-1.3434635E+000	-1.3434761E+000	1.3859290E+001	1.220511971117958E+002
-9.914124630097649E+001	-1.3455302E+000	-1.3454760E+000	1.3571850E+001	1.222511971067433E+002
-1.013668395797140E+002	-1.3475511E+000	-1.3474760E+000	1.3293806E+001	1.224511971016909E+002
-1.042097753353946E+002	-1.3495253E+000	-1.3494760E+000	1.2950084E+001	1.226511970966385E+002
-1.069603511016654E+002	-1.3515159E+000	-1.3514760E+000	1.2635672E+001	1.228511970915861E+002
-1.097676212524880E+002	-1.3536077E+000	-1.3535761E+000	1.2331575E+001	1.230611970862810E+002
-1.143184171360908E+002	-1.3557023E+000	-1.3556762E+000	1.1859001E+001	1.232711970809760E+002
-1.176112141003682E+002	-1.3576614E+000	-1.3576760E+000	1.1543639E+001	1.234711970759236E+002
-1.203289285625190E+002	-1.3597035E+000	-1.3596761E+000	1.1299889E+001	1.236711970708711E+002
-1.229255098399112E+002	-1.3617413E+000	-1.3616760E+000	1.1077776E+001	1.238711970658187E+002
-1.254108635844016E+002	-1.3637094E+000	-1.3636761E+000	1.0873934E+001	1.240711970607663E+002
-1.272384524583276E+002	-1.3656526E+000	-1.3656760E+000	1.0733018E+001	1.242711970557139E+002
-1.307817215076103E+002	-1.3677169E+000	-1.3676760E+000	1.0458013E+001	1.244711970506614E+002
-1.328327308533685E+002	-1.3697265E+000	-1.3696760E+000	1.0311665E+001	1.246711970456090E+002
-1.354146627006621E+002	-1.3716595E+000	-1.3716760E+000	1.0129328E+001	1.248711970405566E+002
-1.373614939010604E+002	-1.3736985E+000	-1.3736761E+000	1.0000608E+001	1.250711970355042E+002
-1.402878088958289E+002	-1.3755207E+000	-1.3754776E+000	9.8049908E+000	1.252513970309519E+002
-1.430336395898430E+002	-1.3771658E+000	-1.3770845E+000	9.6282654E+000	1.254120970268923E+002
-1.453213594651452E+002	-1.3788207E+000	-1.3787874E+000	9.4880800E+000	1.255823970225902E+002
-1.479592755491828E+002	-1.3806100E+000	-1.3805926E+000	9.3310137E+000	1.257628970180303E+002
-1.528855259996067E+002	-1.3823346E+000	-1.3822964E+000	9.0416317E+000	1.259332970137257E+002
-1.549840228842401E+002	-1.3840564E+000	-1.3840023E+000	8.9303169E+000	1.261038970094160E+002
-1.573332985627425E+002	-1.3856870E+000	-1.3856111E+000	8.8073349E+000	1.262647970053513E+002
-1.603704192960813E+002	-1.3874476E+000	-1.3874187E+000	8.6515179E+000	1.264454970007864E+002
-1.628164629665721E+002	-1.3890325E+000	-1.3890231E+000	8.5312777E+000	1.266059969967318E+002
-1.653543190793275E+002	-1.3908454E+000	-1.3908292E+000	8.4113035E+000	1.267865969921695E+002
-1.673412058250487E+002	-1.3927779E+000	-1.3927346E+000	8.3229828E+000	1.269770969873571E+002
-1.707360815265297E+002	-1.3944054E+000	-1.3944403E+000	8.1670218E+000	1.271476969830474E+002
-1.727114366958249E+002	-1.3961124E+000	-1.3960456E+000	8.0834970E+000	1.273081969789928E+002
-1.753825496413785E+002	-1.3976676E+000	-1.3976482E+000	7.9692516E+000	1.274684969749433E+002
-1.781969706556874E+002	-1.3994336E+000	-1.3993505E+000	7.8532963E+000	1.276386969706437E+002
-1.807473872381452E+002	-1.4010633E+000	-1.4010563E+000	7.7514997E+000	1.278092969663339E+002
-1.828513552830846E+002	-1.4030054E+000	-1.4029623E+000	7.6729283E+000	1.279998969615190E+002
-1.858940904649589E+002	-1.4049330E+000	-1.4048693E+000	7.5577064E+000	1.281905969567015E+002
-1.888248939342252E+002	-1.4066664E+000	-1.4066756E+000	7.4495811E+000	1.283711969521391E+002
-1.924153838777979E+002	-1.4084311E+000	-1.4083823E+000	7.3197427E+000	1.285418969478269E+002
-1.971295184473001E+002	-1.4102342E+000	-1.4101883E+000	7.1538458E+000	1.287224969432646E+002
-2.003608652756411E+002	-1.4122335E+000	-1.4121935E+000	7.0484495E+000	1.289229969381995E+002
-2.013274647917378E+002	-1.4140096E+000	-1.4139978E+000	7.0234313E+000	1.291033969336422E+002
-2.035763908480171E+002	-1.4158272E+000	-1.4158015E+000	6.9547710E+000	1.292837969290849E+002
-2.070579611638823E+002	-1.4177333E+000	-1.4177071E+000	6.8470359E+000	1.294743969242700E+002
-2.089686794019067E+002	-1.4196242E+000	-1.4196135E+000	6.7934785E+000	1.296649969194550E+002
-2.120665697730051E+002	-1.4214624E+000	-1.4214182E+000	6.7029066E+000	1.298454969148952E+002
-2.191272539036245E+002	-1.4231796E+000	-1.4231242E+000	6.4947634E+000	1.300160969105855E+002
-2.222681309572738E+002	-1.4248703E+000	-1.4248313E+000	6.4105916E+000	1.301867969062732E+002
-2.276189325562600E+002	-1.4268116E+000	-1.4267364E+000	6.2684221E+000	1.303772969014608E+002
-2.316917947125748E+002	-1.4286186E+000	-1.4285437E+000	6.1660299E+000	1.305579968968959E+002
-2.330879472805300E+002	-1.4304129E+000	-1.4303472E+000	6.1367946E+000	1.307383968923386E+002
-2.333559993817566E+002	-1.4321228E+000	-1.4320533E+000	6.1370730E+000	1.309089968880289E+002
-2.365793539157739E+002	-1.4338461E+000	-1.4337562E+000	6.0607405E+000	1.310792968837268E+002
-2.398137454230191E+002	-1.4356515E+000	-1.4355625E+000	5.9865274E+000	1.312598968791644E+002
-2.425501904785665E+002	-1.4373143E+000	-1.4372673E+000	5.9258428E+000	1.314303968748573E+002
-2.457984441611152E+002	-1.4386182E+000	-1.4385750E+000	5.8528366E+000	1.315611968715530E+002
-2.489498517422790E+002	-1.4402544E+000	-1.4401803E+000	5.7853198E+000	1.317216968674984E+002
-2.511377233756457E+002	-1.4419748E+000	-1.4418862E+000	5.7417688E+000	1.318922968631887E+002
-2.548503747247564E+002	-1.4434527E+000	-1.4433922E+000	5.6639223E+000	1.320428968593842E+002
-2.579127079818782E+002	-1.4452883E+000	-1.4451979E+000	5.6037889E+000	1.322234968548219E+002
-2.628605377410190E+002	-1.4469957E+000	-1.4470042E+000	5.5048041E+000	1.324040968502595E+002
-2.636385588422672E+002	-1.4489783E+000	-1.4489088E+000	5.4960790E+000	1.325944968454496E+002
-2.635602783648615E+002	-1.4510033E+000	-1.4509101E+000	5.5053945E+000	1.327945968403947E+002
-2.647124229229948E+002	-1.4526783E+000	-1.4526122E+000	5.4877601E+000	1.329648968360925E+002
-2.678661423149601E+002	-1.4546295E+000	-1.4545156E+000	5.4304347E+000	1.331551968312851E+002
-2.697623526451557E+002	-1.4563874E+000	-1.4563195E+000	5.3987794E+000	1.333355968267279E+002
-2.727959935716874E+002	-1.4579916E+000	-1.4579239E+000	5.3446226E+000	1.334960968226733E+002
-2.777088524611154E+002	-1.4597964E+000	-1.4597313E+000	5.2565713E+000	1.336767968181084E+002
-2.805285666178149E+002	-1.4618134E+000	-1.4617338E+000	5.2109256E+000	1.338769968130509E+002
-2.817435632368347E+002	-1.4638088E+000	-1.4637338E+000	5.1955357E+000	1.340769968079985E+002
-2.831998354031653E+002	-1.4658040E+000	-1.4657338E+000	5.1758647E+000	1.342769968029461E+002
-2.866466655579827E+002	-1.4677627E+000	-1.4677339E+000	5.1204596E+000	1.344769967978937E+002
-2.883877772419910E+002	-1.4698284E+000	-1.4697340E+000	5.0967083E+000	1.346769967928412E+002
-2.905162938219623E+002	-1.4717606E+000	-1.4717338E+000	5.0660176E+000	1.348769967877888E+002
-2.964786699126379E+002	-1.4738293E+000	-1.4737338E+000	4.9711142E+000	1.350769967827364E+002
-2.989265536591574E+002	-1.4758302E+000	-1.4757338E+000	4.9370999E+000	1.352769967776840E+002
-3.003315676345305E+002	-1.4777784E+000	-1.4777339E+000	4.9204898E+000	1.354769967726315E+002
-3.043111825346141E+002	-1.4798422E+000	-1.4797339E+000	4.8629241E+000	1.356769967675791E+002
-3.115398317302443E+002	-1.4818826E+000	-1.4817338E+000	4.7566390E+000	1.358769967625267E+002
-3.136000606294660E+002	-1.4838489E+000	-1.4837338E+000	4.7316604E+000	1.360769967574743E+002
-3.191450458773143E+002	-1.4858431E+000	-1.4857339E+000	4.6556983E+000	1.362769967524218E+002
-3.216982663342737E+002	-1.4878130E+000	-1.4877338E+000	4.6248713E+000	1.364769967473694E+002
-3.265588975417634E+002	-1.4898242E+000	-1.4897338E+000	4.5621915E+000	1.366769967423170E+002
-3.316268565465525E+002	-1.4918306E+000	-1.4917339E+000	4.4985218E+000	1.368769967372646E+002
-3.440404734146582E+002	-1.4938533E+000	-1.4937338E+000	4.3420858E+000	1.370769967322121E+002
-3.431304531529913E+002	-1.4958328E+000	-1.4957339E+000	4.3593707E+000	1.372769967271597E+002
-3.430995794802298E+002	-1.4978607E+000	-1.4977338E+000	4.3656731E+000	1.374769967221073E+002
-3.427100529400399E+002	-1.4998566E+000	-1.4997338E+000	4.3764591E+000	1.376769967170549E+002
-3.465971765583072E+002	-1.5018176E+000	-1.5017339E+000	4.3330345E+000	1.378769967120024E+002
-3.502076792316902E+002	-1.5038295E+000	-1.5037339E+000	4.2941074E+000	1.380769967069500E+002
-3.529199807800667E+002	-1.5058198E+000	-1.5057338E+000	4.2667456E+000	1.382769967018976E+002
-3.588965059916172E+002	-1.5081755E+000	-1.5077339E+000	4.2022572E+000	1.384769966968452E+002
-3.639203043740881E+002	-1.5103134E+000	-1.5097338E+000	4.1501212E+000	1.386769966917927E+002
-3.759614445065699E+002	-1.5123585E+000	-1.5117339E+000	4.0226426E+000	1.388769966867403E+002
-3.766976854082141E+002	-1.5143378E+000	-1.5137337E+000	4.0200348E+000	1.390769966816879E+002
-3.794482926608734E+002	-1.5163870E+000	-1.5157338E+000	3.9962940E+000	1.392769966766355E+002
-3.801063951635042E+002	-1.5183864E+000	-1.5177339E+000	3.9946351E+000	1.394769966715830E+002
-3.797100374606725E+002	-1.5203636E+000	-1.5197339E+000	4.0040121E+000	1.396769966665306E+002
-3.781322439695423E+002	-1.5223567E+000	-1.5217339E+000	4.0259905E+000	1.398769966614782E+002
-3.828003403280873E+002	-1.5244073E+000	-1.5237337E+000	3.9822516E+000	1.400769966564258E+002
-3.777557644616991E+002	-1.5263731E+000	-1.5257338E+000	4.0406351E+000	1.402769966513733E+002
-3.779397170830198E+002	-1.5284220E+000	-1.5277339E+000	4.0440893E+000	1.404769966463209E+002
-3.808787291693316E+002	-1.5303718E+000	-1.5297338E+000	4.0180030E+000	1.406769966412685E+002
-3.874586939952260E+002	-1.5323950E+000	-1.5317339E+000	3.9549894E+000	1.408769966362161E+002
-4.086073086321212E+002	-1.5343972E+000	-1.5337340E+000	3.7551880E+000	1.410769966311636E+002
-4.171873043908017E+002	-1.5363582E+000	-1.5357338E+000	3.6826582E+000	1.412769966261112E+002
-4.206986488895900E+002	-1.5383815E+000	-1.5377339E+000	3.6567302E+000	1.414769966210588E+002
-4.230177089189438E+002	-1.5404035E+000	-1.5397338E+000	3.6414633E+000	1.416769966160064E+002
-4.208590068514368E+002	-1.5424070E+000	-1.5417339E+000	3.6649020E+000	1.418769966109539E+002
-4.290008407471660E+002	-1.5443848E+000	-1.5437338E+000	3.5999577E+000	1.420769966059015E+002
-4.349474899222787E+002	-1.5463805E+000	-1.5457338E+000	3.5553269E+000	1.422769966008491E+002
-4.404044316306954E+002	-1.5484179E+000	-1.5477339E+000	3.5158999E+000	1.424769965957967E+002
-4.433773609126765E+002	-1.5503777E+000	-1.5497338E+000	3.4967453E+000	1.426769965907442E+002
-4.439693499844107E+002	-1.5523673E+000	-1.5517339E+000	3.4965641E+000	1.428769965856918E+002
-4.400605713634523E+002	-1.5544096E+000	-1.5537338E+000	3.5322628E+000	1.430769965806394E+002
-4.392426454712729E+002	-1.5563791E+000	-1.5557338E+000	3.5433242E+000	1.432769965755870E+002
-4.367136031689279E+002	-1.5584337E+000	-1.5577339E+000	3.5685484E+000	1.434769965705345E+002
-4.454922411912139E+002	-1.5603739E+000	-1.5597340E+000	3.5025837E+000	1.436769965654821E+002
-4.544894362123100E+002	-1.5624086E+000	-1.5617337E+000	3.4377224E+000	1.438769965604297E+002
-4.569358071177994E+002	-1.5643786E+000	-1.5637338E+000	3.4236288E+000	1.440769965553773E+002
-4.695237802258976E+002	-1.5664223E+000	-1.5657339E+000	3.3361938E+000	1.442769965503248E+002
-4.684110026067601E+002	-1.5684466E+000	-1.5677339E+000	3.3484411E+000	1.444769965452724E+002
-4.624847235820198E+002	-1.5704529E+000	-1.5697340E+000	3.3956861E+000	1.446769965402200E+002
-4.611945323771106E+002	-1.5723864E+000	-1.5717338E+000	3.4093778E+000	1.448769965351676E+002
-4.728636978218638E+002	-1.5744034E+000	-1.5737339E+000	3.3295078E+000	1.450769965301151E+002
-4.803742359490086E+002	-1.5764381E+000	-1.5757339E+000	3.2816875E+000	1.452769965250627E+002
-4.814531767189901E+002	-1.5784321E+000	-1.5777339E+000	3.2784748E+000	1.454769965200103E+002
-4.782803374136920E+002	-1.5804663E+000	-1.5797340E+000	3.3044767E+000	1.456769965149579E+002
-4.935092729754456E+002	-1.5824652E+000	-1.5817339E+000	3.2065561E+000	1.458769965099054E+002
-5.021143147258795E+002	-1.5844375E+000	-1.5837339E+000	3.1555314E+000	1.460769965048530E+002
-4.941597840142631E+002	-1.5864241E+000	-1.5857339E+000	3.2103465E+000	1.462769964998006E+002
-4.878449564261246E+002	-1.5884604E+000	-1.5877340E+000	3.2560763E+000	1.464769964947482E+002
-4.752294647147614E+002	-1.5904125E+000	-1.5897338E+000	3.3466201E+000	1.466769964896957E+002
-4.736324799942061E+002	-1.5924083E+000	-1.5917339E+000	3.3621180E+000	1.468769964846433E+002
-4.842794084873312E+002	-1.5944239E+000	-1.5937339E+000	3.2923636E+000	1.470769964795909E+002
-4.913976568191774E+002	-1.5964125E+000	-1.5957339E+000	3.2487183E+000	1.472769964745385E+002
-5.138108475527260E+002	-1.5984571E+000	-1.5977340E+000	3.1109836E+000	1.474769964694860E+002
-5.159616672619668E+002	-1.6004609E+000	-1.5997338E+000	3.1018989E+000	1.476769964644336E+002
-5.109185817701214E+002	-1.6025107E+000	-1.6017339E+000	3.1365285E+000	1.478769964593812E+002
-5.147621382758707E+002	-1.6044686E+000	-1.6037340E+000	3.1169126E+000	1.480769964543288E+002
-5.163469912297601E+002	-1.6064850E+000	-1.6057339E+000	3.1112509E+000	1.482769964492763E+002
-5.182615414963293E+002	-1.6084085E+000	-1.6077340E+000	3.1034687E+000	1.484769964442239E+002
-5.290139628473034E+002	-1.6104534E+000	-1.6097338E+000	3.0442550E+000	1.486769964391715E+002
-5.264234191652304E+002	-1.6125034E+000	-1.6117339E+000	3.0631301E+000	1.488769964341191E+002
-5.421773666027156E+002	-1.6144562E+000	-1.6137338E+000	2.9777269E+000	1.490769964290666E+002
-5.403164871544523E+002	-1.6165130E+000	-1.6157339E+000	2.9917891E+000	1.492769964240142E+002
-5.339787577977261E+002	-1.6184900E+000	-1.6177340E+000	3.0310006E+000	1.494769964189618E+002
-5.320691371839876E+002	-1.6204832E+000	-1.6197338E+000	3.0456252E+000	1.496769964139094E+002
-5.390705525880480E+002	-1.6224858E+000	-1.6217339E+000	3.0097837E+000	1.498769964088569E+002
-5.468992726375691E+002	-1.6245060E+000	-1.6237338E+000	2.9703934E+000	1.500769964038045E+002
-5.414821872538168E+002	-1.6264896E+000	-1.6257339E+000	3.0037732E+000	1.502769963987521E+002
-5.556591862010337E+002	-1.6284924E+000	-1.6277339E+000	2.9307396E+000	1.504769963936997E+002
-5.574851209938915E+002	-1.6305392E+000	-1.6297340E+000	2.9248121E+000	1.506769963886472E+002
-5.567242469009075E+002	-1.6324995E+000	-1.6317339E+000	2.9323304E+000	1.508769963835948E+002
-5.725139777125139E+002	-1.6344986E+000	-1.6337339E+000	2.8549497E+000	1.510769963785424E+002
-5.755417287225337E+002	-1.6364895E+000	-1.6357338E+000	2.8433897E+000	1.512769963734900E+002
-5.899805140397966E+002	-1.6377159E+000	-1.6370336E+000	2.7758813E+000	1.514069963702059E+002
-5.953978169759112E+002	-1.6381934E+000	-1.6374335E+000	2.7514265E+000	1.514281963696703E+002