EC-Lab ASCII FILE
Nb header lines : 61                          

Linear Sweep Voltammetry

Run on channel : 1 (SN 1340)
User : 
Electrode connection : standard
Potential control : Ewe
Ewe ctrl range : min = -5.00 V, max = 5.00 V
Ewe,I filtering : <None>
Channel : Grounded
Acquisition started on : 03/11/2026 18:49:59.007
Technique started on : 03/11/2026 18:50:01.688
Loaded Setting File :  NONE
Saved on :
	File : X225_N52magB_up_3_11_02_LSV_C01.mpr
	Directory : C:\Users\volt\Documents\Platalytix\
	Host : 172.28.65.128
Device : SP-200 (SN 0262)
Address : USB
EC-LAB for windows v11.60 (software)
Internet server v11.60 (firmware)
Command interpretor v11.60 (firmware)
Electrode material : Pt22.5Pd22.5Ni22.5Co22.5Cr10
Initial state : 
Electrolyte : KOH (1M)
Comments : With magnet side B (-), up position
Cable : standard
Reference electrode : Hg/HgO (0.140 V)
Electrode surface area : 1.000 cm˛
Characteristic mass : 0.001 g
Equivalent Weight : 0.000 g/eq.
Density : 0.000 g/cm3
Volume (V) : 0.001 cmł
Cycle Definition : Charge/Discharge alternance
tR (h:m:s)          0:00:5.0000         
dER/dt (mV/h)       0.0                 
dER (mV)            0                   
dtR (s)             0.0000              
dE/dt               10.000              
dE/dt unit          mV/s                
Ei (V)              -0.200              
vs.                 Ref                 
EL (V)              -2.500              
vs.                 Ref                 
record              <I>                 
dI                  0.000               
unit dI             µA                  
tI (s)              0.0000              
step percent        50                  
N                   10                  
E range min (V)     -5.000              
E range max (V)     5.000               
I Range             Auto                
I Range min         Unset               
I Range max         Unset               
I Range init        Unset               
Bandwidth           8                   

<I>/mA	Ewe/V	control/V	Rwe/Ohm	time/s	
0.000000000000000E+000	-1.4779398E-001	0.0000000E+000	0.0000000E+000	2.681400127330562E+000
0.000000000000000E+000	-3.2363702E-002	-1.9999923E-001	0.0000000E+000	7.681200001024990E+000
-6.272163208574058E-002	-2.0176148E-001	-2.0189901E-001	3.2167766E+003	7.881199995972565E+000
-1.604594840582614E-001	-2.0298599E-001	-2.0309907E-001	1.2650295E+003	8.001199992941110E+000
-1.496105989517300E-001	-2.0502530E-001	-2.0519905E-001	1.3703929E+003	8.211199987636064E+000
-1.362043819907637E-001	-2.0705996E-001	-2.0719907E-001	1.5202151E+003	8.411199982583639E+000
-1.262930188393494E-001	-2.0905958E-001	-2.0919900E-001	1.6553534E+003	8.611199977531214E+000
-1.188522385329840E-001	-2.1108569E-001	-2.1119890E-001	1.7760347E+003	8.811199972478789E+000
-1.130239327814084E-001	-2.1309583E-001	-2.1319878E-001	1.8854044E+003	9.011199967426364E+000
-1.082603007907683E-001	-2.1507186E-001	-2.1519870E-001	1.9866179E+003	9.211199962373939E+000
-1.042828876419575E-001	-2.1704978E-001	-2.1719860E-001	2.0813557E+003	9.411199957321514E+000
-1.008990214749022E-001	-2.1907184E-001	-2.1919850E-001	2.1711987E+003	9.611199952269089E+000
-9.797062149298819E-002	-2.2111531E-001	-2.2119838E-001	2.2569553E+003	9.811199947216664E+000
-9.540074548151911E-002	-2.2308028E-001	-2.2319826E-001	2.3383494E+003	1.001119994216424E+001
-9.309762340226957E-002	-2.2507262E-001	-2.2519818E-001	2.4175979E+003	1.021119993711181E+001
-9.109755710681766E-002	-2.2707413E-001	-2.2719805E-001	2.4926479E+003	1.041119993205939E+001
-8.925648384871154E-002	-2.2906221E-001	-2.2919795E-001	2.5663369E+003	1.061119992700696E+001
-8.757251036319635E-002	-2.3105054E-001	-2.3119786E-001	2.6383911E+003	1.081119992195454E+001
-8.606775263070965E-002	-2.3307726E-001	-2.3319776E-001	2.7080671E+003	1.101119991690211E+001
-8.463523625248370E-002	-2.3507683E-001	-2.3519766E-001	2.7775291E+003	1.121119991184969E+001
-8.329781837911338E-002	-2.3705432E-001	-2.3719755E-001	2.8458647E+003	1.141119990679726E+001
-8.210305337975754E-002	-2.3904561E-001	-2.3919743E-001	2.9115313E+003	1.161119990174484E+001
-8.093170669878025E-002	-2.4107850E-001	-2.4119735E-001	2.9787893E+003	1.181119989669241E+001
-7.982537857282496E-002	-2.4305363E-001	-2.4319723E-001	3.0448164E+003	1.201109989164252E+001
-7.884422835182248E-002	-2.4509163E-001	-2.4519713E-001	3.1085552E+003	1.221099988659262E+001
-7.787343906872213E-002	-2.4706252E-001	-2.4719703E-001	3.1726160E+003	1.241099988154019E+001
-7.700615206230688E-002	-2.4906696E-001	-2.4919695E-001	3.2343774E+003	1.261099987648777E+001
-7.611929453210387E-002	-2.5108352E-001	-2.5119686E-001	3.2985530E+003	1.281099987143534E+001
-7.532168858919003E-002	-2.5309494E-001	-2.5319672E-001	3.3601868E+003	1.301099986638292E+001
-7.457385319200649E-002	-2.5507313E-001	-2.5519663E-001	3.4204097E+003	1.321099986133049E+001
-7.377489694698280E-002	-2.5704998E-001	-2.5719652E-001	3.4842473E+003	1.341099985627807E+001
-7.309143838489540E-002	-2.5906569E-001	-2.5919640E-001	3.5444053E+003	1.361099985122564E+001
-7.245704755260940E-002	-2.6104888E-001	-2.6119632E-001	3.6028088E+003	1.381099984617322E+001
-7.174835458573181E-002	-2.6305503E-001	-2.6319623E-001	3.6663562E+003	1.401099984112079E+001
-7.110936141809415E-002	-2.6506162E-001	-2.6519611E-001	3.7275208E+003	1.421099983606837E+001
-7.056782469934797E-002	-2.6701364E-001	-2.6719603E-001	3.7837874E+003	1.441099983101594E+001
-6.996626179462573E-002	-2.6904351E-001	-2.6919591E-001	3.8453320E+003	1.461099982596352E+001
-6.944089931385200E-002	-2.7110270E-001	-2.7119580E-001	3.9040781E+003	1.481099982091109E+001
-6.886849596794467E-002	-2.7304861E-001	-2.7319571E-001	3.9647825E+003	1.501099981585867E+001
-6.835986009129486E-002	-2.7505496E-001	-2.7519557E-001	4.0236326E+003	1.521099981080624E+001
-6.791514684414479E-002	-2.7705792E-001	-2.7719548E-001	4.0794717E+003	1.541099980575382E+001
-6.739207187639995E-002	-2.7903244E-001	-2.7919540E-001	4.1404341E+003	1.561099980070139E+001
-6.696158679985686E-002	-2.8106362E-001	-2.8119507E-001	4.1973857E+003	1.581089979565149E+001
-6.650116387649035E-002	-2.8307572E-001	-2.8319517E-001	4.2567031E+003	1.601079979060160E+001
-6.608302704831504E-002	-2.8508630E-001	-2.8519508E-001	4.3140625E+003	1.621079978554917E+001
-6.564991108338197E-002	-2.8706184E-001	-2.8719497E-001	4.3726157E+003	1.641079978049675E+001
-6.525899356182530E-002	-2.8908861E-001	-2.8919488E-001	4.4298662E+003	1.661079977544432E+001
-6.486244570641286E-002	-2.9103723E-001	-2.9119477E-001	4.4869912E+003	1.681079977039190E+001
-6.451087433616726E-002	-2.9305592E-001	-2.9319465E-001	4.5427368E+003	1.701079976533947E+001
-6.407873493158889E-002	-2.9501897E-001	-2.9519454E-001	4.6040073E+003	1.721079976028705E+001
-6.378816041880014E-002	-2.9705802E-001	-2.9719445E-001	4.6569458E+003	1.741079975523462E+001
-6.343629320264044E-002	-2.9905248E-001	-2.9919434E-001	4.7142173E+003	1.761079975018220E+001
-6.309766541319650E-002	-3.0107284E-001	-3.0119425E-001	4.7715366E+003	1.781079974512977E+001
-6.277149247561004E-002	-3.0307174E-001	-3.0319414E-001	4.8281748E+003	1.801079974007735E+001
-6.245629224227234E-002	-3.0508360E-001	-3.0519402E-001	4.8847539E+003	1.821079973502492E+001
-6.214741209855559E-002	-3.0703714E-001	-3.0719393E-001	4.9404653E+003	1.841079972997250E+001
-6.185152974558372E-002	-3.0909079E-001	-3.0919382E-001	4.9973022E+003	1.861079972492007E+001
-6.156763429341665E-002	-3.1105727E-001	-3.1119373E-001	5.0522856E+003	1.881079971986765E+001
-6.129041084937337E-002	-3.1304860E-001	-3.1319362E-001	5.1076279E+003	1.901079971481522E+001
-6.097339484006462E-002	-3.1506065E-001	-3.1519350E-001	5.1671821E+003	1.921079970976280E+001
-6.077922960107640E-002	-3.1708398E-001	-3.1719342E-001	5.2169795E+003	1.941079970471037E+001
-6.051159891689140E-002	-3.1902984E-001	-3.1919375E-001	5.2722095E+003	1.961079969965795E+001
-6.022175258063900E-002	-3.2102028E-001	-3.2119322E-001	5.3306367E+003	1.981059969461057E+001
-6.002846440984588E-002	-3.2305548E-001	-3.2319307E-001	5.3817046E+003	2.001059968955815E+001
-5.975215265880018E-002	-3.2503340E-001	-3.2519299E-001	5.4396934E+003	2.021059968450572E+001
-5.954050417786738E-002	-3.2703146E-001	-3.2719287E-001	5.4925879E+003	2.041059967945330E+001
-5.930383263214922E-002	-3.2907370E-001	-3.2919279E-001	5.5489448E+003	2.061059967440087E+001
-5.908798424700214E-002	-3.3101404E-001	-3.3119267E-001	5.6020532E+003	2.081059966934845E+001
-5.893377462917238E-002	-3.3305371E-001	-3.3319259E-001	5.6513213E+003	2.101059966429602E+001
-5.870936923003545E-002	-3.3501041E-001	-3.3519247E-001	5.7062510E+003	2.121059965924360E+001
-5.850544513167305E-002	-3.3702165E-001	-3.3719239E-001	5.7605176E+003	2.141059965419117E+001
-5.827129811582799E-002	-3.3900508E-001	-3.3919227E-001	5.8177026E+003	2.161059964913875E+001
-5.811892294688148E-002	-3.4104198E-001	-3.4119216E-001	5.8680024E+003	2.181059964408632E+001
-5.789710529245706E-002	-3.4304878E-001	-3.4319207E-001	5.9251455E+003	2.201059963903390E+001
-5.776332927204675E-002	-3.4503093E-001	-3.4519196E-001	5.9731831E+003	2.221059963398147E+001
-5.759252809028226E-002	-3.4702522E-001	-3.4719184E-001	6.0255249E+003	2.241059962892905E+001
-5.741729732030532E-002	-3.4902942E-001	-3.4919178E-001	6.0788203E+003	2.261059962387662E+001
-5.726554923450095E-002	-3.5102689E-001	-3.5119164E-001	6.1298091E+003	2.281059961882420E+001
-5.714730987306299E-002	-3.5305592E-001	-3.5319152E-001	6.1779971E+003	2.301059961377177E+001
-5.692995612904472E-002	-3.5505298E-001	-3.5519144E-001	6.2366636E+003	2.321059960871935E+001
-5.678731350327437E-002	-3.5699502E-001	-3.5719132E-001	6.2865278E+003	2.341059960366692E+001
-5.665729804220199E-002	-3.5907167E-001	-3.5919103E-001	6.3376069E+003	2.361039959861955E+001
-5.651238823284177E-002	-3.6108240E-001	-3.6119115E-001	6.3894380E+003	2.381039959356713E+001
-5.640290494081091E-002	-3.6306331E-001	-3.6319104E-001	6.4369609E+003	2.401039958851470E+001
-5.623388239668248E-002	-3.6506775E-001	-3.6519095E-001	6.4919536E+003	2.421039958346228E+001
-5.610920294386457E-002	-3.6708003E-001	-3.6719081E-001	6.5422427E+003	2.441039957840985E+001
-5.601200097305984E-002	-3.6903632E-001	-3.6919069E-001	6.5885225E+003	2.461039957335743E+001
-5.586512459921406E-002	-3.7105876E-001	-3.7119061E-001	6.6420464E+003	2.481039956830500E+001
-5.581539054453988E-002	-3.7305114E-001	-3.7319052E-001	6.6836606E+003	2.501039956325258E+001
-5.570246093714271E-002	-3.7503290E-001	-3.7519041E-001	6.7327886E+003	2.521039955820015E+001
-5.557418948666634E-002	-3.7707189E-001	-3.7719032E-001	6.7850181E+003	2.541039955314773E+001
-5.546763502515403E-002	-3.7902075E-001	-3.7919021E-001	6.8331875E+003	2.561039954809530E+001
-5.536590851505466E-002	-3.8106638E-001	-3.8119006E-001	6.8826899E+003	2.581039954304288E+001
-5.526585358801106E-002	-3.8303369E-001	-3.8318998E-001	6.9307476E+003	2.601039953799045E+001
-5.520455787315237E-002	-3.8504872E-001	-3.8518989E-001	6.9749443E+003	2.621039953293803E+001
-5.510529403494480E-002	-3.8708693E-001	-3.8718978E-001	7.0244961E+003	2.641039952788560E+001
-5.503681884675182E-002	-3.8904658E-001	-3.8918969E-001	7.0688423E+003	2.661039952283318E+001
-5.494138777262336E-002	-3.9104426E-001	-3.9118958E-001	7.1174805E+003	2.681039951778075E+001
-5.487232087729099E-002	-3.9305547E-001	-3.9318949E-001	7.1630918E+003	2.701039951272833E+001
-5.475311765611976E-002	-3.9507836E-001	-3.9518937E-001	7.2156323E+003	2.721039950767590E+001
-5.472338087016004E-002	-3.9705405E-001	-3.9718950E-001	7.2556563E+003	2.741029950262600E+001
-5.464995430429764E-002	-3.9905462E-001	-3.9918917E-001	7.3020117E+003	2.761019949757610E+001
-5.459738393259284E-002	-4.0104818E-001	-4.0118906E-001	7.3455566E+003	2.781019949252368E+001
-5.452704697355326E-002	-4.0306792E-001	-4.0318894E-001	7.3920732E+003	2.801019948747125E+001
-5.452452432480426E-002	-4.0506241E-001	-4.0518886E-001	7.4289946E+003	2.821019948241883E+001
-5.441070027077094E-002	-4.0707555E-001	-4.0718874E-001	7.4815352E+003	2.841019947736640E+001
-5.434702757995186E-002	-4.0905496E-001	-4.0918866E-001	7.5267222E+003	2.861019947231398E+001
-5.437312405049588E-002	-4.1110122E-001	-4.1118854E-001	7.5607432E+003	2.881019946726155E+001
-5.429013025188739E-002	-4.1307530E-001	-4.1318846E-001	7.6086631E+003	2.901019946220913E+001
-5.422924864876702E-002	-4.1511074E-001	-4.1518831E-001	7.6547388E+003	2.921019945715670E+001
-5.424757086505039E-002	-4.1710734E-001	-4.1718826E-001	7.6889590E+003	2.941019945210428E+001
-5.420717676835385E-002	-4.1908419E-001	-4.1918811E-001	7.7311567E+003	2.961019944705185E+001
-5.415539634192279E-002	-4.2111641E-001	-4.2118806E-001	7.7760747E+003	2.981019944199943E+001
-5.407780735719689E-002	-4.2309073E-001	-4.2318791E-001	7.8237402E+003	3.001019943694700E+001
-5.406269082660187E-002	-4.2510346E-001	-4.2518783E-001	7.8631577E+003	3.021019943189458E+001
-5.407296343497503E-002	-4.2709836E-001	-4.2718771E-001	7.8985566E+003	3.041019942684215E+001
-5.399992098755158E-002	-4.2913064E-001	-4.2918760E-001	7.9468755E+003	3.061019942178973E+001
-5.396146679037336E-002	-4.3110913E-001	-4.3118754E-001	7.9892031E+003	3.081019941673731E+001
-5.395659970862976E-002	-4.3310809E-001	-4.3318740E-001	8.0269717E+003	3.101019941168488E+001
-5.393363213958280E-002	-4.3509850E-001	-4.3518642E-001	8.0672944E+003	3.121009940663498E+001
-5.392408901149737E-002	-4.3713057E-001	-4.3718719E-001	8.1064063E+003	3.140999940158508E+001
-5.393178946636334E-002	-4.3908405E-001	-4.3918708E-001	8.1414702E+003	3.160999939653266E+001
-5.386706049682859E-002	-4.4105008E-001	-4.4118699E-001	8.1877510E+003	3.180999939148023E+001
-5.388868124437551E-002	-4.4310862E-001	-4.4318685E-001	8.2226660E+003	3.200999938642781E+001
-5.383776890297684E-002	-4.4511080E-001	-4.4518679E-001	8.2676309E+003	3.220999938137538E+001
-5.381742044554710E-002	-4.4708416E-001	-4.4718665E-001	8.3074248E+003	3.240999937632296E+001
-5.377910778775408E-002	-4.4912481E-001	-4.4918665E-001	8.3512881E+003	3.260999937127053E+001
-5.382894586017772E-002	-4.5115143E-001	-4.5118645E-001	8.3812051E+003	3.280999936621811E+001
-5.379283045948626E-002	-4.5313379E-001	-4.5318636E-001	8.4236836E+003	3.300999936116568E+001
-5.384171138994831E-002	-4.5507675E-001	-4.5518628E-001	8.4521230E+003	3.320999935611326E+001
-5.387284771999656E-002	-4.5711875E-001	-4.5718616E-001	8.4851416E+003	3.340999935106083E+001
-5.381996035755354E-002	-4.5909050E-001	-4.5918611E-001	8.5301162E+003	3.360999934600841E+001
-5.381658208205914E-002	-4.6108136E-001	-4.6118593E-001	8.5676445E+003	3.380999934095598E+001
-5.380815147082252E-002	-4.6306309E-001	-4.6318591E-001	8.6058164E+003	3.400999933590356E+001
-5.381088550392565E-002	-4.6507800E-001	-4.6518573E-001	8.6428232E+003	3.420999933085113E+001
-5.383215867439095E-002	-4.6708512E-001	-4.6718562E-001	8.6766934E+003	3.440999932579871E+001
-5.381713616091499E-002	-4.6909678E-001	-4.6918553E-001	8.7164951E+003	3.460999932074628E+001
-5.382287767853022E-002	-4.7109023E-001	-4.7118539E-001	8.7526016E+003	3.480999931569386E+001
-5.386314369936596E-002	-4.7312179E-001	-4.7318533E-001	8.7837764E+003	3.500999931064143E+001
-5.381838561378288E-002	-4.7508708E-001	-4.7518590E-001	8.8275977E+003	3.520989930559153E+001
-5.383862687914709E-002	-4.7709823E-001	-4.7718513E-001	8.8616348E+003	3.540979930054164E+001
-5.383366298578818E-002	-4.7906789E-001	-4.7918499E-001	8.8990391E+003	3.560979929548921E+001
-5.383653784077802E-002	-4.8108166E-001	-4.8118493E-001	8.9359697E+003	3.580979929043679E+001
-5.387239151395637E-002	-4.8307255E-001	-4.8318481E-001	8.9669775E+003	3.600979928538436E+001
-5.384046183540039E-002	-4.8509902E-001	-4.8518470E-001	9.0099346E+003	3.620979928033194E+001
-5.384191159843182E-002	-4.8707694E-001	-4.8718464E-001	9.0464277E+003	3.640979927527951E+001
-5.386634218736713E-002	-4.8905933E-001	-4.8918450E-001	9.0791260E+003	3.660979927022709E+001
-5.387276850372563E-002	-4.9107203E-001	-4.9118444E-001	9.1154033E+003	3.680979926517466E+001
-5.388059234193809E-002	-4.9306610E-001	-4.9318427E-001	9.1510889E+003	3.700979926012224E+001
-5.387249002982863E-002	-4.9506247E-001	-4.9518421E-001	9.1895225E+003	3.720979925506981E+001
-5.388893377323067E-002	-4.9705610E-001	-4.9718410E-001	9.2237139E+003	3.740979925001739E+001
-5.383460940803708E-002	-4.9906757E-001	-4.9918392E-001	9.2703857E+003	3.760979924496496E+001
-5.392557549947130E-002	-5.0107580E-001	-5.0118387E-001	9.2919883E+003	3.780979923991254E+001
-5.393671894724750E-002	-5.0306243E-001	-5.0318372E-001	9.3269004E+003	3.800979923486011E+001
-5.390320600764387E-002	-5.0507730E-001	-5.0518370E-001	9.3700791E+003	3.820979922980769E+001
-5.394997636316634E-002	-5.0709170E-001	-5.0718355E-001	9.3992939E+003	3.840979922475526E+001
-5.389220679026799E-002	-5.0906283E-001	-5.0918347E-001	9.4459453E+003	3.860979921970284E+001
-5.394572081717974E-002	-5.1105601E-001	-5.1118338E-001	9.4735225E+003	3.880979921465041E+001
-5.396850588943714E-002	-5.1304340E-001	-5.1318282E-001	9.5063477E+003	3.900959920960304E+001
-5.393218775617714E-002	-5.1506919E-001	-5.1518321E-001	9.5503115E+003	3.920959920455061E+001
-5.394596740119850E-002	-5.1713532E-001	-5.1718301E-001	9.5861719E+003	3.940959919949819E+001
-5.394049190447325E-002	-5.1909709E-001	-5.1918298E-001	9.6235146E+003	3.960959919444576E+001
-5.389706273732131E-002	-5.2107990E-001	-5.2118284E-001	9.6680576E+003	3.980959918939334E+001
-5.392491962029999E-002	-5.2307951E-001	-5.2318275E-001	9.7001445E+003	4.000959918434091E+001
-5.401705708587023E-002	-5.2501607E-001	-5.2518260E-001	9.7194492E+003	4.020959917928849E+001
-5.397652708682465E-002	-5.2707613E-001	-5.2718252E-001	9.7649141E+003	4.040959917423606E+001
-5.396304915600003E-002	-5.2906376E-001	-5.2918249E-001	9.8041855E+003	4.060959916918364E+001
-5.388237603162921E-002	-5.3112167E-001	-5.3118235E-001	9.8570576E+003	4.080959916413121E+001
-5.385657545821099E-002	-5.3309685E-001	-5.3318226E-001	9.8984541E+003	4.100959915907879E+001
-5.390806300797912E-002	-5.3509659E-001	-5.3518212E-001	9.9260957E+003	4.120959915402636E+001
-5.388966367301218E-002	-5.3704894E-001	-5.3718203E-001	9.9657129E+003	4.140959914897394E+001
-5.394852558433866E-002	-5.3908074E-001	-5.3918195E-001	9.9925020E+003	4.160959914392151E+001
-5.390960987089222E-002	-5.4110718E-001	-5.4118180E-001	1.0037305E+004	4.180959913886909E+001
-5.383067399204267E-002	-5.4310465E-001	-5.4318172E-001	1.0089130E+004	4.200959913381666E+001
-5.380029847387191E-002	-5.4511374E-001	-5.4518157E-001	1.0132170E+004	4.220959912876424E+001
-5.378813596438103E-002	-5.4708958E-001	-5.4718155E-001	1.0171194E+004	4.240959912371181E+001
-5.380777573231976E-002	-5.4906362E-001	-5.4918140E-001	1.0204169E+004	4.260959911865939E+001
-5.381716898763123E-002	-5.5104440E-001	-5.5118132E-001	1.0239193E+004	4.280949911360949E+001
-5.384324374661520E-002	-5.5298662E-001	-5.5318123E-001	1.0270307E+004	4.300939910855959E+001
-5.377232795475617E-002	-5.5503881E-001	-5.5518109E-001	1.0322016E+004	4.320939910350717E+001
-5.370944408993428E-002	-5.5708736E-001	-5.5718100E-001	1.0372242E+004	4.340939909845474E+001
-5.367729937564825E-002	-5.5918217E-001	-5.5918086E-001	1.0417479E+004	4.360939909340232E+001
-5.370471081400829E-002	-5.6112784E-001	-5.6118083E-001	1.0448392E+004	4.380939908834989E+001
-5.370922821316249E-002	-5.6305122E-001	-5.6318063E-001	1.0483323E+004	4.400939908329747E+001
-5.372113894244646E-002	-5.6498444E-001	-5.6518060E-001	1.0516985E+004	4.420939907824504E+001
-5.367741661089265E-002	-5.6705379E-001	-5.6718045E-001	1.0564104E+004	4.440939907319262E+001
-5.362101130835861E-002	-5.6908047E-001	-5.6918031E-001	1.0613013E+004	4.460939906814019E+001
-5.357917524291334E-002	-5.7117492E-001	-5.7118028E-001	1.0660391E+004	4.480939906308777E+001
-5.356087686669286E-002	-5.7309574E-001	-5.7318008E-001	1.0699895E+004	4.500939905803534E+001
-5.354682173497549E-002	-5.7502234E-001	-5.7518005E-001	1.0738683E+004	4.520939905298292E+001
-5.356634974895680E-002	-5.7692176E-001	-5.7717991E-001	1.0770228E+004	4.540939904793049E+001
-5.355446607343295E-002	-5.7894063E-001	-5.7917988E-001	1.0810314E+004	4.560939904287807E+001
-5.346019232863161E-002	-5.8104098E-001	-5.8117974E-001	1.0868666E+004	4.580939903782564E+001
-5.341490219418954E-002	-5.8307445E-001	-5.8317965E-001	1.0915951E+004	4.600939903277322E+001
-5.333474025662466E-002	-5.8512050E-001	-5.8517957E-001	1.0970720E+004	4.620939902772079E+001
-5.336866701230880E-002	-5.8705044E-001	-5.8717942E-001	1.0999908E+004	4.640939902266837E+001
-5.336292468633303E-002	-5.8900225E-001	-5.8917886E-001	1.1037668E+004	4.660929901761847E+001
-5.334298161297701E-002	-5.9107804E-001	-5.9117919E-001	1.1080709E+004	4.680919901256857E+001
-5.325854527806240E-002	-5.9311366E-001	-5.9317911E-001	1.1136498E+004	4.700919900751614E+001
-5.323043604679167E-002	-5.9508902E-001	-5.9517902E-001	1.1179488E+004	4.720919900246372E+001
-5.313384526592941E-002	-5.9712893E-001	-5.9717894E-001	1.1238203E+004	4.740919899741129E+001
-5.317846168140938E-002	-5.9903133E-001	-5.9917879E-001	1.1264548E+004	4.760919899235887E+001
-5.315915177166558E-002	-6.0105675E-001	-6.0117865E-001	1.1306741E+004	4.780919898730644E+001
-5.309449827199270E-002	-6.0304040E-001	-6.0317862E-001	1.1357870E+004	4.800919898225402E+001
-5.302644983966670E-002	-6.0513031E-001	-6.0517848E-001	1.1411858E+004	4.820919897720160E+001
-5.299844389069652E-002	-6.0710865E-001	-6.0717839E-001	1.1455217E+004	4.840919897214917E+001
-5.297980215738352E-002	-6.0909528E-001	-6.0917830E-001	1.1496745E+004	4.860919896709675E+001
-5.296886856023608E-002	-6.1106223E-001	-6.1117816E-001	1.1536252E+004	4.880919896204432E+001
-5.292863891377642E-002	-6.1303866E-001	-6.1317807E-001	1.1582362E+004	4.900919895699190E+001
-5.285554708672222E-002	-6.1508870E-001	-6.1517793E-001	1.1637165E+004	4.920919895193947E+001
-5.285647939341553E-002	-6.1710107E-001	-6.1717790E-001	1.1675031E+004	4.940919894688705E+001
-5.288037908941401E-002	-6.1916125E-001	-6.1917776E-001	1.1708714E+004	4.960919894183462E+001
-5.282289043803856E-002	-6.2102455E-001	-6.2117767E-001	1.1756731E+004	4.980919893678220E+001
-5.280889012183476E-002	-6.2301052E-001	-6.2317753E-001	1.1797455E+004	5.000919893172977E+001
-5.273227965778104E-002	-6.2506670E-001	-6.2517744E-001	1.1853588E+004	5.020919892667735E+001
-5.266315155467502E-002	-6.2710708E-001	-6.2717670E-001	1.1907892E+004	5.040909892162745E+001
-5.264584660007571E-002	-6.2908459E-001	-6.2917703E-001	1.1949368E+004	5.060899891657755E+001
-5.266012755526739E-002	-6.3107800E-001	-6.3117713E-001	1.1983981E+004	5.080899891152512E+001
-5.262693892287973E-002	-6.3308758E-001	-6.3317704E-001	1.2029725E+004	5.100899890647270E+001
-5.254637302889942E-002	-6.3510782E-001	-6.3517702E-001	1.2086615E+004	5.120899890142027E+001
-5.252840128450631E-002	-6.3711381E-001	-6.3717681E-001	1.2128939E+004	5.140899889636785E+001
-5.250288010363691E-002	-6.3915032E-001	-6.3917679E-001	1.2173624E+004	5.160899889131542E+001
-5.250892816048083E-002	-6.4109951E-001	-6.4117664E-001	1.2209343E+004	5.180899888626300E+001
-5.254006390449275E-002	-6.4305609E-001	-6.4317650E-001	1.2239348E+004	5.200899888121057E+001
-5.245324359919512E-002	-6.4508426E-001	-6.4517641E-001	1.2298272E+004	5.220899887615815E+001
-5.238318316534996E-002	-6.4712352E-001	-6.4717627E-001	1.2353650E+004	5.240899887110572E+001
-5.238240798291161E-002	-6.4911962E-001	-6.4917624E-001	1.2391939E+004	5.260899886605330E+001
-5.236230750067716E-002	-6.5112007E-001	-6.5117610E-001	1.2434900E+004	5.280899886100087E+001
-5.236865570789843E-002	-6.5306044E-001	-6.5317601E-001	1.2470445E+004	5.300899885594845E+001
-5.232026295677294E-002	-6.5509498E-001	-6.5517586E-001	1.2520865E+004	5.320899885089602E+001
-5.230539135715162E-002	-6.5711790E-001	-6.5717578E-001	1.2563101E+004	5.340899884584360E+001
-5.224637491016071E-002	-6.5910065E-001	-6.5917569E-001	1.2615242E+004	5.360899884079117E+001
-5.226152930292560E-002	-6.6103005E-001	-6.6117561E-001	1.2648502E+004	5.380899883573875E+001
-5.225076446522969E-002	-6.6304892E-001	-6.6317552E-001	1.2689746E+004	5.400899883068632E+001
-5.223403007685357E-002	-6.6508752E-001	-6.6517538E-001	1.2732840E+004	5.420899882563390E+001
-5.213368173555322E-002	-6.6710293E-001	-6.6717511E-001	1.2796007E+004	5.440879882058653E+001
-5.215381582261236E-002	-6.6911548E-001	-6.6917515E-001	1.2829655E+004	5.460879881553410E+001
-5.219142541897528E-002	-6.7107874E-001	-6.7117512E-001	1.2858026E+004	5.480879881048168E+001
-5.214489985029317E-002	-6.7306453E-001	-6.7317498E-001	1.2907581E+004	5.500879880542925E+001
-5.211179205818350E-002	-6.7510867E-001	-6.7517489E-001	1.2955008E+004	5.520879880037683E+001
-5.206048396487811E-002	-6.7702544E-001	-6.7717475E-001	1.3004594E+004	5.540879879532440E+001
-5.205068855320460E-002	-6.7907977E-001	-6.7917460E-001	1.3046509E+004	5.560879879027198E+001
-5.210090982579874E-002	-6.8107206E-001	-6.8117458E-001	1.3072172E+004	5.580879878521955E+001
-5.205428516207133E-002	-6.8304795E-001	-6.8317443E-001	1.3121839E+004	5.600879878016713E+001
-5.198299641617465E-002	-6.8510121E-001	-6.8517435E-001	1.3179333E+004	5.620879877511470E+001
-5.201297015682405E-002	-6.8707824E-001	-6.8717426E-001	1.3209748E+004	5.640879877006228E+001
-5.205856882196236E-002	-6.8907034E-001	-6.8917412E-001	1.3236444E+004	5.660879876500985E+001
-5.196317108907667E-002	-6.9109118E-001	-6.9117403E-001	1.3299635E+004	5.680879875995743E+001
-5.194789735767191E-002	-6.9310838E-001	-6.9317389E-001	1.3342376E+004	5.700879875490500E+001
-5.194007168110043E-002	-6.9511545E-001	-6.9517386E-001	1.3383028E+004	5.720879874985258E+001
-5.186408431725403E-002	-6.9705909E-001	-6.9717371E-001	1.3440112E+004	5.740879874480015E+001
-5.192830126897308E-002	-6.9906223E-001	-6.9917363E-001	1.3462066E+004	5.760879873974773E+001
-5.192700873684508E-002	-7.0107728E-001	-7.0117354E-001	1.3501207E+004	5.780879873469530E+001
-5.187762011573260E-002	-7.0303982E-001	-7.0317334E-001	1.3551891E+004	5.800879872964288E+001
-5.185244668853911E-002	-7.0513487E-001	-7.0517331E-001	1.3598874E+004	5.820869872459298E+001
-5.182202304597272E-002	-7.0708084E-001	-7.0717317E-001	1.3644408E+004	5.840859871954308E+001
-5.188642656684006E-002	-7.0906413E-001	-7.0917314E-001	1.3665696E+004	5.860859871449065E+001
-5.187915421994893E-002	-7.1110332E-001	-7.1117294E-001	1.3706918E+004	5.880859870943823E+001
-5.182982877619102E-002	-7.1309900E-001	-7.1317285E-001	1.3758467E+004	5.900859870438580E+001
-5.187301852691761E-002	-7.1509248E-001	-7.1517283E-001	1.3785441E+004	5.920859869933338E+001
-5.184998909959704E-002	-7.1704262E-001	-7.1717268E-001	1.3829176E+004	5.940859869428095E+001
-5.183647017738036E-002	-7.1909863E-001	-7.1917266E-001	1.3872446E+004	5.960859868922853E+001
-5.179355536955010E-002	-7.2107857E-001	-7.2117245E-001	1.3922168E+004	5.980859868417610E+001
-5.184035442870866E-002	-7.2308421E-001	-7.2317237E-001	1.3948288E+004	6.000859867912368E+001
-5.185239245827888E-002	-7.2507334E-001	-7.2517228E-001	1.3983411E+004	6.020859867407125E+001
-5.179916469426704E-002	-7.2708690E-001	-7.2717220E-001	1.4036653E+004	6.040859866901883E+001
-5.179204952548333E-002	-7.2909963E-001	-7.2917205E-001	1.4077443E+004	6.060859866396640E+001
-5.181695487405108E-002	-7.3107845E-001	-7.3117197E-001	1.4108865E+004	6.080859865891398E+001
-5.181561232504373E-002	-7.3304868E-001	-7.3317188E-001	1.4147255E+004	6.100859865386155E+001
-5.181521418358681E-002	-7.3511535E-001	-7.3517168E-001	1.4187249E+004	6.120859864880913E+001
-5.180151239111441E-002	-7.3708385E-001	-7.3717171E-001	1.4229003E+004	6.140859864375670E+001
-5.183749391893722E-002	-7.3905355E-001	-7.3917156E-001	1.4257123E+004	6.160859863870428E+001
-5.183926400255467E-002	-7.4105412E-001	-7.4117148E-001	1.4295229E+004	6.180859863365185E+001
-5.187379162477207E-002	-7.4305028E-001	-7.4317086E-001	1.4324194E+004	6.200849862860196E+001
-5.185093112023831E-002	-7.4511904E-001	-7.4517119E-001	1.4370408E+004	6.220839862355206E+001
-5.187340208979729E-002	-7.4705958E-001	-7.4717110E-001	1.4401592E+004	6.240839861849963E+001
-5.182099588428624E-002	-7.4907762E-001	-7.4917102E-001	1.4455099E+004	6.260839861344721E+001
-5.191479033532875E-002	-7.5107068E-001	-7.5117093E-001	1.4467374E+004	6.280839860839478E+001
-5.195410967838285E-002	-7.5308371E-001	-7.5317079E-001	1.4495171E+004	6.300839860334236E+001
-5.196734008225090E-002	-7.5508314E-001	-7.5517070E-001	1.4529956E+004	6.320839859828993E+001
-5.197604825929275E-002	-7.5710267E-001	-7.5717062E-001	1.4566376E+004	6.340839859323751E+001
-5.198419374432794E-002	-7.5906968E-001	-7.5917053E-001	1.4601933E+004	6.360839858818508E+001
-5.201491357942367E-002	-7.6108468E-001	-7.6117045E-001	1.4632047E+004	6.380839858313266E+001
-5.204100181272588E-002	-7.6309341E-001	-7.6317024E-001	1.4663312E+004	6.400839857808023E+001
-5.201753394999253E-002	-7.6511598E-001	-7.6517022E-001	1.4708810E+004	6.420839857302781E+001
-5.216143827340536E-002	-7.6706815E-001	-7.6717007E-001	1.4705655E+004	6.440839856797538E+001
-5.211606867771912E-002	-7.6907200E-001	-7.6917005E-001	1.4756907E+004	6.460839856292296E+001
-5.212970567199826E-002	-7.7106440E-001	-7.7116984E-001	1.4791268E+004	6.480839855787053E+001
-5.222676536638549E-002	-7.7307945E-001	-7.7316976E-001	1.4802361E+004	6.500839855281811E+001
-5.236363542095113E-002	-7.7509868E-001	-7.7516973E-001	1.4802232E+004	6.520839854776568E+001
-5.229271424442195E-002	-7.7705520E-001	-7.7716953E-001	1.4859722E+004	6.540839854271326E+001
-5.243614022070930E-002	-7.7908081E-001	-7.7916944E-001	1.4857707E+004	6.560839853766083E+001
-5.245378974875073E-002	-7.8106946E-001	-7.8116840E-001	1.4890620E+004	6.580829853261093E+001
-5.255881778901628E-002	-7.8305650E-001	-7.8316909E-001	1.4898670E+004	6.600819852756104E+001
-5.256061790755984E-002	-7.8508478E-001	-7.8516918E-001	1.4936750E+004	6.620819852250861E+001
-5.266497298534485E-002	-7.8706831E-001	-7.8716904E-001	1.4944815E+004	6.640819851745619E+001
-5.277191618744648E-002	-7.8907108E-001	-7.8916901E-001	1.4952481E+004	6.660819851240376E+001
-5.280456583748416E-002	-7.9105991E-001	-7.9116887E-001	1.4980899E+004	6.680819850735134E+001
-5.281793839581184E-002	-7.9304284E-001	-7.9316884E-001	1.5014649E+004	6.700819850229891E+001
-5.304172519507855E-002	-7.9508662E-001	-7.9516864E-001	1.4989833E+004	6.720819849724649E+001
-5.302615834942782E-002	-7.9705489E-001	-7.9716855E-001	1.5031353E+004	6.740819849219406E+001
-5.314558884868070E-002	-7.9907924E-001	-7.9916847E-001	1.5035664E+004	6.760819848714164E+001
-5.326184832022163E-002	-8.0105436E-001	-8.0116838E-001	1.5039928E+004	6.780819848208921E+001
-5.331717941555247E-002	-8.0307686E-001	-8.0316830E-001	1.5062253E+004	6.800819847703679E+001
-5.347779685791881E-002	-8.0506313E-001	-8.0516815E-001	1.5054156E+004	6.820819847198436E+001
-5.355196228924530E-002	-8.0710340E-001	-8.0716807E-001	1.5071406E+004	6.840819846693194E+001
-5.371914353684154E-002	-8.0908859E-001	-8.0916798E-001	1.5061457E+004	6.860819846187951E+001
-5.384945477012630E-002	-8.1105101E-001	-8.1116790E-001	1.5061452E+004	6.880819845682709E+001
-5.393675488447303E-002	-8.1299883E-001	-8.1316769E-001	1.5073188E+004	6.900819845177466E+001
-5.399671498931047E-002	-8.1504691E-001	-8.1516761E-001	1.5094380E+004	6.920819844672224E+001
-5.417406323942386E-002	-8.1705755E-001	-8.1716752E-001	1.5082080E+004	6.940819844166981E+001
-5.439661190445921E-002	-8.1904697E-001	-8.1916738E-001	1.5056948E+004	6.960819843661739E+001
-5.460418580995863E-002	-8.2106936E-001	-8.2116711E-001	1.5036748E+004	6.980799843157001E+001
-5.473763985261582E-002	-8.2308149E-001	-8.2316720E-001	1.5036847E+004	7.000799842651759E+001
-5.497632164280034E-002	-8.2507503E-001	-8.2516712E-001	1.5007825E+004	7.020799842146516E+001
-5.508548966366078E-002	-8.2705575E-001	-8.2716709E-001	1.5014040E+004	7.040799841641274E+001
-5.521588317538845E-002	-8.2908720E-001	-8.2916689E-001	1.5015375E+004	7.060799841136031E+001
-5.555549860496911E-002	-8.3112127E-001	-8.3116680E-001	1.4960198E+004	7.080799840630789E+001
-5.565008001830707E-002	-8.3306289E-001	-8.3316660E-001	1.4969662E+004	7.100799840125546E+001
-5.593002022269356E-002	-8.3506948E-001	-8.3516663E-001	1.4930613E+004	7.120799839620304E+001
-5.620392182865119E-002	-8.3708304E-001	-8.3716649E-001	1.4893677E+004	7.140799839115061E+001
-5.643735341083611E-002	-8.3907312E-001	-8.3916640E-001	1.4867337E+004	7.160799838609819E+001
-5.674411933562928E-002	-8.4099245E-001	-8.4116626E-001	1.4820786E+004	7.180799838104576E+001
-5.712506422865926E-002	-8.4309119E-001	-8.4316611E-001	1.4758691E+004	7.200799837599334E+001
-5.745591014009088E-002	-8.4507829E-001	-8.4516615E-001	1.4708292E+004	7.220799837094091E+001
-5.791246907071747E-002	-8.4708828E-001	-8.4716594E-001	1.4627045E+004	7.240799836588849E+001
-5.836309985597721E-002	-8.4904897E-001	-8.4916592E-001	1.4547702E+004	7.260799836083606E+001
-5.887131468190182E-002	-8.5106152E-001	-8.5116571E-001	1.4456303E+004	7.280799835578364E+001
-5.958250701552059E-002	-8.5310125E-001	-8.5316575E-001	1.4317981E+004	7.300799835073121E+001
-6.018516616716274E-002	-8.5507590E-001	-8.5516554E-001	1.4207419E+004	7.320799834567879E+001
-6.111661693590212E-002	-8.5706353E-001	-8.5716552E-001	1.4023412E+004	7.340799834062636E+001
-6.217211358263508E-002	-8.5910714E-001	-8.5916549E-001	1.3818207E+004	7.360799833557394E+001
-6.336321607295448E-002	-8.6107796E-001	-8.6116523E-001	1.3589556E+004	7.380779833052657E+001
-6.488762095743725E-002	-8.6309695E-001	-8.6316514E-001	1.3301411E+004	7.400779832547414E+001
-6.673561049257799E-002	-8.6507547E-001	-8.6516505E-001	1.2962727E+004	7.420779832042172E+001
-6.883246243230223E-002	-8.6710048E-001	-8.6716497E-001	1.2597261E+004	7.440779831536929E+001
-7.140126175251338E-002	-8.6906272E-001	-8.6916476E-001	1.2171531E+004	7.460779831031687E+001
-7.434280791379022E-002	-8.7103993E-001	-8.7116474E-001	1.1716532E+004	7.480779830526444E+001
-7.751829377924624E-002	-8.7306881E-001	-8.7316465E-001	1.1262745E+004	7.500779830021202E+001
-8.124220576623031E-002	-8.7505710E-001	-8.7516457E-001	1.0770967E+004	7.520779829515959E+001
-8.521774302969509E-002	-8.7705636E-001	-8.7716448E-001	1.0291945E+004	7.540779829010717E+001
-8.937002079457879E-002	-8.7906110E-001	-8.7916428E-001	9.8361963E+003	7.560779828505474E+001
-9.361726306315488E-002	-8.8108552E-001	-8.8116419E-001	9.4115713E+003	7.580779828000232E+001
-9.803946026919785E-002	-8.8303882E-001	-8.8316411E-001	9.0069736E+003	7.600779827494989E+001
-1.026910827516274E-001	-8.8503069E-001	-8.8516396E-001	8.6183789E+003	7.620779826989747E+001
-1.072346118791981E-001	-8.8713467E-001	-8.8716388E-001	8.2728389E+003	7.640779826484504E+001
-1.118932333711511E-001	-8.8906425E-001	-8.8916379E-001	7.9456479E+003	7.660779825979262E+001
-1.167291357401601E-001	-8.9102370E-001	-8.9116371E-001	7.6332588E+003	7.680779825474019E+001
-1.214052026620442E-001	-8.9306617E-001	-8.9316356E-001	7.3560781E+003	7.700779824968777E+001
-1.262089038043879E-001	-8.9506674E-001	-8.9516348E-001	7.0919463E+003	7.720779824463534E+001
-1.312314164613611E-001	-8.9704251E-001	-8.9716345E-001	6.8355776E+003	7.740779823958292E+001
-1.366426610850355E-001	-8.9904016E-001	-8.9916527E-001	6.5794985E+003	7.760779823453049E+001
-1.424557144031389E-001	-9.0108371E-001	-9.0116519E-001	6.3253604E+003	7.780779822947807E+001
-1.485512072691377E-001	-9.0304303E-001	-9.0316516E-001	6.0790015E+003	7.800779822442564E+001
-1.556323047351438E-001	-9.0505546E-001	-9.0516526E-001	5.8153442E+003	7.820779821937322E+001
-1.632267795714324E-001	-9.0709913E-001	-9.0716511E-001	5.5572935E+003	7.840779821432079E+001
-1.723466800217457E-001	-9.0907514E-001	-9.0916514E-001	5.2746890E+003	7.860779820926837E+001
-1.839145585881913E-001	-9.1106552E-001	-9.1116518E-001	4.9537432E+003	7.880779820421594E+001
-1.975540706165595E-001	-9.1306204E-001	-9.1316515E-001	4.6218335E+003	7.900779819916352E+001
-2.139332148514667E-001	-9.1508675E-001	-9.1516513E-001	4.2774414E+003	7.920779819411109E+001
-2.341610895355730E-001	-9.1706318E-001	-9.1716516E-001	3.9163772E+003	7.940779818905867E+001
-2.578805611466728E-001	-9.1910857E-001	-9.1916513E-001	3.5640862E+003	7.960779818400624E+001
-2.909527520317603E-001	-9.2103523E-001	-9.2116511E-001	3.1655835E+003	7.980779817895382E+001
-3.209848170149692E-001	-9.2301434E-001	-9.2316520E-001	2.8755701E+003	8.000779817390139E+001
-3.558151320788729E-001	-9.2508119E-001	-9.2516524E-001	2.5998928E+003	8.020779816884897E+001
-3.997671381040320E-001	-9.2706728E-001	-9.2716515E-001	2.3190183E+003	8.040779816379654E+001
-4.507408718876291E-001	-9.2905265E-001	-9.2916518E-001	2.0611680E+003	8.060779815874412E+001
-5.004046412518486E-001	-9.3107736E-001	-9.3116522E-001	1.8606489E+003	8.080779815369169E+001
-5.702798391170720E-001	-9.3314761E-001	-9.3316525E-001	1.6362977E+003	8.100779814863927E+001
-6.329876701738240E-001	-9.3504429E-001	-9.3516517E-001	1.4771919E+003	8.120779814358684E+001
-7.203943038279030E-001	-9.3705320E-001	-9.3716514E-001	1.3007505E+003	8.140779813853442E+001
-8.047410775178765E-001	-9.3905061E-001	-9.3916523E-001	1.1668978E+003	8.160779813348199E+001
-9.003376577919546E-001	-9.4105387E-001	-9.4116509E-001	1.0452233E+003	8.180779812842957E+001
-1.013418101492311E+000	-9.4305980E-001	-9.4316512E-001	9.3057330E+002	8.200779812337714E+001
-1.136612687898534E+000	-9.4514805E-001	-9.4526517E-001	8.3154803E+002	8.221779811807210E+001
-1.279800207064810E+000	-9.4723463E-001	-9.4736516E-001	7.4014258E+002	8.242779811276705E+001
-1.428419490477868E+000	-9.4923103E-001	-9.4936520E-001	6.6453241E+002	8.262779810771463E+001
-1.589586860738914E+000	-9.5122296E-001	-9.5136523E-001	5.9840894E+002	8.282779810266220E+001
-1.762691494153471E+000	-9.5327687E-001	-9.5336527E-001	5.4080756E+002	8.302779809760978E+001
-1.955133742570467E+000	-9.5526367E-001	-9.5536518E-001	4.8859250E+002	8.322779809255735E+001
-2.157937802306783E+000	-9.5725936E-001	-9.5736516E-001	4.4359915E+002	8.342779808750493E+001
-2.381562922783443E+000	-9.5928019E-001	-9.5936525E-001	4.0279440E+002	8.362779808245250E+001
-2.612413183124966E+000	-9.6126473E-001	-9.6136510E-001	3.6796045E+002	8.382779807740008E+001
-2.857429345364345E+000	-9.6323740E-001	-9.6336514E-001	3.3709930E+002	8.402779807234765E+001
-3.124143226633947E+000	-9.6526814E-001	-9.6536517E-001	3.0897052E+002	8.422779806729523E+001
-3.408786951211574E+000	-9.6727115E-001	-9.6736515E-001	2.8375818E+002	8.442779806224280E+001
-3.699819736436105E+000	-9.6929246E-001	-9.6936512E-001	2.6198370E+002	8.462779805719038E+001
-4.012271481069838E+000	-9.7127736E-001	-9.7136515E-001	2.4207668E+002	8.482779805213795E+001
-4.332493273849675E+000	-9.7322142E-001	-9.7336513E-001	2.2463310E+002	8.502779804708553E+001
-4.680568157849400E+000	-9.7524250E-001	-9.7536516E-001	2.0835985E+002	8.522779804203310E+001
-5.028096623195015E+000	-9.7727394E-001	-9.7736520E-001	1.9436259E+002	8.542779803698068E+001
-5.400973867971345E+000	-9.7927135E-001	-9.7936523E-001	1.8131384E+002	8.562779803192825E+001
-5.772352480935695E+000	-9.8130339E-001	-9.8136514E-001	1.7000060E+002	8.582779802687583E+001
-6.168498321252613E+000	-9.8326606E-001	-9.8336512E-001	1.5940120E+002	8.602779802182340E+001
-6.581167305475475E+000	-9.8527908E-001	-9.8536521E-001	1.4971190E+002	8.622779801677098E+001
-6.998129316468365E+000	-9.8727906E-001	-9.8736525E-001	1.4107756E+002	8.642779801171855E+001
-7.436656099395684E+000	-9.8927677E-001	-9.8936510E-001	1.3302710E+002	8.662779800666613E+001
-7.861440194741260E+000	-9.9118447E-001	-9.9126494E-001	1.2608179E+002	8.681779800186632E+001
-8.291420047921122E+000	-9.9308670E-001	-9.9316514E-001	1.1977281E+002	8.700779799706652E+001
-8.757296332696669E+000	-9.9508935E-001	-9.9516511E-001	1.1362975E+002	8.720779799201409E+001
-9.229277740057356E+000	-9.9707419E-001	-9.9716508E-001	1.0803383E+002	8.740779798696167E+001
-9.722190040714921E+000	-9.9908310E-001	-9.9916518E-001	1.0276318E+002	8.760779798190924E+001
-1.021810415466756E+001	-1.0010828E+000	-1.0011693E+000	9.7971481E+001	8.780829797684419E+001
-1.070448308510834E+001	-1.0030093E+000	-1.0030745E+000	9.3699928E+001	8.799879797203175E+001
-1.122969447299699E+001	-1.0048877E+000	-1.0049804E+000	8.9484863E+001	8.818939796721679E+001
-1.169049364838851E+001	-1.0066860E+000	-1.0067865E+000	8.6111504E+001	8.836999796265445E+001
-1.223048255275057E+001	-1.0087221E+000	-1.0087887E+000	8.2476067E+001	8.857019795759697E+001
-1.273273219438610E+001	-1.0104983E+000	-1.0105923E+000	7.9362251E+001	8.875059795303969E+001
-1.322203793434949E+001	-1.0122895E+000	-1.0123968E+000	7.6560776E+001	8.893099794848240E+001
-1.375500604694004E+001	-1.0142231E+000	-1.0142989E+000	7.3734833E+001	8.912119794367754E+001
-1.429643677676228E+001	-1.0161076E+000	-1.0162005E+000	7.1074181E+001	8.931139793887269E+001
-1.488188393481974E+001	-1.0181442E+000	-1.0182066E+000	6.8415009E+001	8.951199793380511E+001
-1.542466976202587E+001	-1.0199320E+000	-1.0200112E+000	6.6123428E+001	8.969249792924529E+001
-1.592203172366601E+001	-1.0216194E+000	-1.0217137E+000	6.4163887E+001	8.986269792494568E+001
-1.642929606567961E+001	-1.0233154E+000	-1.0234176E+000	6.2286018E+001	9.003309792064101E+001
-1.699784291437800E+001	-1.0251763E+000	-1.0252212E+000	6.0312141E+001	9.021349791608372E+001
-1.750759272209606E+001	-1.0268477E+000	-1.0269268E+000	5.8651566E+001	9.038399791177653E+001
-1.808205917628857E+001	-1.0286740E+000	-1.0287294E+000	5.6889206E+001	9.056429790722177E+001
-1.862160707666666E+001	-1.0303650E+000	-1.0304350E+000	5.5331692E+001	9.073479790291458E+001
-1.919997549651259E+001	-1.0321580E+000	-1.0322394E+000	5.3758297E+001	9.091529789835477E+001
-1.982709810428952E+001	-1.0340484E+000	-1.0341439E+000	5.2153294E+001	9.110569789354486E+001
-2.039075883472111E+001	-1.0357971E+000	-1.0358484E+000	5.0797379E+001	9.127619788923766E+001
-2.099431990590497E+001	-1.0375654E+000	-1.0376512E+000	4.9421242E+001	9.145639788468543E+001
-2.161797139755908E+001	-1.0394357E+000	-1.0394516E+000	4.8082020E+001	9.163649788013572E+001
-2.213585838540753E+001	-1.0408932E+000	-1.0409564E+000	4.7022942E+001	9.178699787633377E+001
-2.278738917126901E+001	-1.0427713E+000	-1.0428607E+000	4.5760895E+001	9.197739787152386E+001
-2.350600750690467E+001	-1.0447645E+000	-1.0448647E+000	4.4446701E+001	9.217779786646133E+001
-2.415165670601283E+001	-1.0465556E+000	-1.0466698E+000	4.3332664E+001	9.235829786190152E+001
-2.474282829713013E+001	-1.0482076E+000	-1.0482703E+000	4.2364101E+001	9.251839785785705E+001
-2.532006982997157E+001	-1.0498074E+000	-1.0498765E+000	4.1461475E+001	9.267899785379996E+001
-2.594573123600378E+001	-1.0515095E+000	-1.0515834E+000	4.0527264E+001	9.284969784948771E+001
-2.664495931352769E+001	-1.0533959E+000	-1.0534896E+000	3.9534527E+001	9.304029784467275E+001
-2.738114400114910E+001	-1.0553423E+000	-1.0553954E+000	3.8542667E+001	9.323089783985779E+001
-2.802754500927654E+001	-1.0568739E+000	-1.0570022E+000	3.7708401E+001	9.339159783579817E+001
-2.860966024942223E+001	-1.0584358E+000	-1.0585057E+000	3.6995750E+001	9.354189783200127E+001
-2.920280789429967E+001	-1.0599000E+000	-1.0600084E+000	3.6294456E+001	9.369219782820437E+001
-2.996505392205646E+001	-1.0618280E+000	-1.0619090E+000	3.5435547E+001	9.388219782340457E+001
-3.078561706703465E+001	-1.0638291E+000	-1.0639114E+000	3.4556042E+001	9.408249781834456E+001
-3.154617546954023E+001	-1.0657209E+000	-1.0658184E+000	3.3782887E+001	9.427319781352708E+001
-3.226587831318670E+001	-1.0674611E+000	-1.0675237E+000	3.3083282E+001	9.444369780921988E+001
-3.300273445119200E+001	-1.0692631E+000	-1.0693250E+000	3.2399227E+001	9.462379780467018E+001
-3.381815805154019E+001	-1.0711409E+000	-1.0712276E+000	3.1673544E+001	9.481409779986279E+001
-3.449382727630672E+001	-1.0727378E+000	-1.0728335E+000	3.1099415E+001	9.497469779580570E+001
-3.525847703059350E+001	-1.0744311E+000	-1.0745375E+000	3.0472986E+001	9.514509779150103E+001
-3.601208459143783E+001	-1.0760924E+000	-1.0761428E+000	2.9881424E+001	9.530559778744646E+001
-3.683210628408369E+001	-1.0777515E+000	-1.0778456E+000	2.9261196E+001	9.547589778314432E+001
-3.767512634198454E+001	-1.0794556E+000	-1.0795503E+000	2.8651678E+001	9.564639777883713E+001
-3.848343330603103E+001	-1.0811669E+000	-1.0812545E+000	2.8094345E+001	9.581679777453246E+001
-3.933904320619700E+001	-1.0829889E+000	-1.0830605E+000	2.7529619E+001	9.599739776997012E+001
-4.022202061352266E+001	-1.0847818E+000	-1.0848655E+000	2.6969847E+001	9.617789776541031E+001
-4.108567038429999E+001	-1.0866089E+000	-1.0866715E+000	2.6447393E+001	9.635849776084797E+001
-4.191620685318969E+001	-1.0883992E+000	-1.0884777E+000	2.5966070E+001	9.653909775628563E+001
-4.283740481870541E+001	-1.0902207E+000	-1.0902814E+000	2.5450205E+001	9.671949775172834E+001
-4.368417630194642E+001	-1.0918914E+000	-1.0919876E+000	2.4995125E+001	9.689009774741862E+001
-4.451637304369356E+001	-1.0937505E+000	-1.0937923E+000	2.4569622E+001	9.707059774285881E+001
-4.523630624825103E+001	-1.0953320E+000	-1.0953985E+000	2.4213560E+001	9.723119773880171E+001
-4.604100849477601E+001	-1.0970507E+000	-1.0971017E+000	2.3827686E+001	9.740149773449957E+001
-4.682663085648244E+001	-1.0988905E+000	-1.0989056E+000	2.3467213E+001	9.758189772994228E+001
-4.769668555336366E+001	-1.1005553E+000	-1.1006105E+000	2.3074041E+001	9.775239772563509E+001
-4.859460008529817E+001	-1.1022450E+000	-1.1023129E+000	2.2682459E+001	9.792259772133548E+001
-4.953834044980965E+001	-1.1038537E+000	-1.1039146E+000	2.2282816E+001	9.808279771728849E+001
-5.044615328626583E+001	-1.1055354E+000	-1.1056166E+000	2.1915157E+001	9.825299771298887E+001
-5.127545701944996E+001	-1.1072319E+000	-1.1073235E+000	2.1593798E+001	9.842369770867663E+001
-5.212239954253164E+001	-1.1090959E+000	-1.1091297E+000	2.1278681E+001	9.860429770411429E+001
-5.302746577184611E+001	-1.1106632E+000	-1.1107347E+000	2.0945055E+001	9.876479770005972E+001
-5.410770681829274E+001	-1.1124572E+000	-1.1125358E+000	2.0560049E+001	9.894489769551001E+001
-5.509888980337473E+001	-1.1140227E+000	-1.1141388E+000	2.0218605E+001	9.910519769146049E+001
-5.601536232338822E+001	-1.1156883E+000	-1.1157417E+000	1.9917542E+001	9.926549768741097E+001
-5.675067856108910E+001	-1.1171753E+000	-1.1172454E+000	1.9685673E+001	9.941589768361155E+001
-5.762540631322736E+001	-1.1187037E+000	-1.1187514E+000	1.9413376E+001	9.956649767980707E+001
-5.887644169682699E+001	-1.1204375E+000	-1.1204544E+000	1.9030319E+001	9.973679767550493E+001
-6.003108356763869E+001	-1.1219984E+000	-1.1220584E+000	1.8690290E+001	9.989719767145289E+001
-6.122533790998538E+001	-1.1236140E+000	-1.1236618E+000	1.8352106E+001	1.000574976674034E+002
-6.239891579344101E+001	-1.1250886E+000	-1.1251661E+000	1.8030579E+001	1.002079976636014E+002
-6.343664206932456E+001	-1.1267530E+000	-1.1267706E+000	1.7761864E+001	1.003683976595494E+002
-6.432942937914171E+001	-1.1284140E+000	-1.1284752E+000	1.7541180E+001	1.005388976552422E+002
-6.537726836064371E+001	-1.1299266E+000	-1.1299804E+000	1.7283173E+001	1.006893976514402E+002
-6.630440213333395E+001	-1.1316757E+000	-1.1316844E+000	1.7067883E+001	1.008597976471356E+002
-6.738138372888920E+001	-1.1332517E+000	-1.1332889E+000	1.6818468E+001	1.010201976430835E+002
-6.909552689970752E+001	-1.1348913E+000	-1.1348904E+000	1.6424959E+001	1.011803976390365E+002
-7.023551691352964E+001	-1.1363976E+000	-1.1363961E+000	1.6179813E+001	1.013309976352321E+002
-7.194763271357817E+001	-1.1381953E+000	-1.1382014E+000	1.5819774E+001	1.015114976306722E+002
-7.302992913823368E+001	-1.1398954E+000	-1.1399077E+000	1.5608606E+001	1.016820976263625E+002
-7.453870426747531E+001	-1.1416684E+000	-1.1417106E+000	1.5316451E+001	1.018623976218078E+002
-7.586548860519247E+001	-1.1432320E+000	-1.1432143E+000	1.5069197E+001	1.020127976180083E+002
-7.701592250001183E+001	-1.1446686E+000	-1.1447175E+000	1.4862752E+001	1.021630976142114E+002
-7.791757713381253E+001	-1.1463447E+000	-1.1463244E+000	1.4712273E+001	1.023237976101518E+002
-7.882832065944672E+001	-1.1478157E+000	-1.1478293E+000	1.4560956E+001	1.024742976063499E+002
-8.028861362625491E+001	-1.1494222E+000	-1.1494346E+000	1.4316130E+001	1.026347976022953E+002
-8.158951545100189E+001	-1.1510096E+000	-1.1510402E+000	1.4107322E+001	1.027953975982382E+002
-8.303642187617970E+001	-1.1526521E+000	-1.1526463E+000	1.3881284E+001	1.029559975941811E+002
-8.503785951605710E+001	-1.1544647E+000	-1.1544524E+000	1.3575891E+001	1.031365975896188E+002
-8.625369134269170E+001	-1.1559302E+000	-1.1559591E+000	1.3401515E+001	1.032872975858118E+002
-8.746644486738785E+001	-1.1575441E+000	-1.1575630E+000	1.3234151E+001	1.034475975817622E+002
-8.855150513078689E+001	-1.1593555E+000	-1.1593667E+000	1.3092443E+001	1.036279975772050E+002
-9.023346840052966E+001	-1.1609956E+000	-1.1610713E+000	1.2866574E+001	1.037984975728978E+002
-9.166053196658265E+001	-1.1626529E+000	-1.1626763E+000	1.2684335E+001	1.039589975688432E+002
-9.276209971198307E+001	-1.1643858E+000	-1.1643823E+000	1.2552387E+001	1.041295975645335E+002
-9.381135517798407E+001	-1.1660525E+000	-1.1660874E+000	1.2429758E+001	1.043000975602263E+002
-9.510114160720468E+001	-1.1677840E+000	-1.1677916E+000	1.2279389E+001	1.044704975559216E+002
-9.616258925791021E+001	-1.1695021E+000	-1.1694953E+000	1.2161716E+001	1.046408975516169E+002
-9.712280425057418E+001	-1.1711862E+000	-1.1712004E+000	1.2058818E+001	1.048113975473098E+002
-9.849694826685908E+001	-1.1729091E+000	-1.1729053E+000	1.1908076E+001	1.049818975430026E+002
-9.994737094353911E+001	-1.1745209E+000	-1.1745112E+000	1.1751393E+001	1.051424975389455E+002
-1.014104040371758E+002	-1.1758877E+000	-1.1759170E+000	1.1595336E+001	1.052830975353936E+002
-1.026832870283953E+002	-1.1775100E+000	-1.1775205E+000	1.1467397E+001	1.054433975313441E+002
-1.039991058592213E+002	-1.1792394E+000	-1.1792245E+000	1.1338938E+001	1.056137975270394E+002
-1.059263571448705E+002	-1.1810709E+000	-1.1810294E+000	1.1149925E+001	1.057942975224796E+002
-1.079861864974619E+002	-1.1828545E+000	-1.1828351E+000	1.0953758E+001	1.059748975179173E+002
-1.097638576286449E+002	-1.1845537E+000	-1.1845418E+000	1.0791838E+001	1.061454975136076E+002
-1.123477397302986E+002	-1.1862209E+000	-1.1862473E+000	1.0558475E+001	1.063160975092978E+002
-1.144309182999016E+002	-1.1879507E+000	-1.1879526E+000	1.0381379E+001	1.064865975049906E+002
-1.169444383789617E+002	-1.1898646E+000	-1.1898574E+000	1.0174615E+001	1.066770975001782E+002
-1.189608883009819E+002	-1.1917622E+000	-1.1917665E+000	1.0018101E+001	1.068679974953557E+002
-1.201809517741906E+002	-1.1935828E+000	-1.1935714E+000	9.9315472E+000	1.070484974907959E+002
-1.216414020851971E+002	-1.1953238E+000	-1.1953766E+000	9.8266201E+000	1.072289974862360E+002
-1.231410202970441E+002	-1.1971992E+000	-1.1971812E+000	9.7221804E+000	1.074094974816762E+002
-1.247160827780788E+002	-1.1989231E+000	-1.1989872E+000	9.6132202E+000	1.075900974771139E+002
-1.260684024063250E+002	-1.2005866E+000	-1.2005941E+000	9.5232944E+000	1.077507974730543E+002
-1.269983555230315E+002	-1.2023717E+000	-1.2023987E+000	9.4676161E+000	1.079311974684970E+002
-1.278170823678690E+002	-1.2039542E+000	-1.2040033E+000	9.4193535E+000	1.080916974644424E+002
-1.286921857142429E+002	-1.2057618E+000	-1.2058066E+000	9.3693476E+000	1.082719974598876E+002
-1.307062206297001E+002	-1.2073421E+000	-1.2074102E+000	9.2370672E+000	1.084323974558356E+002
-1.329023384969582E+002	-1.2089939E+000	-1.2090176E+000	9.0968599E+000	1.085930974517760E+002
-1.361155301170752E+002	-1.2108179E+000	-1.2108235E+000	8.8955164E+000	1.087736974472136E+002
-1.376303154006123E+002	-1.2124884E+000	-1.2125274E+000	8.8097477E+000	1.089440974429090E+002
-1.396605473548279E+002	-1.2142180E+000	-1.2142323E+000	8.6940660E+000	1.091145974386018E+002
-1.421303872022007E+002	-1.2158779E+000	-1.2159377E+000	8.5546656E+000	1.092850974342946E+002
-1.438505268993265E+002	-1.2175195E+000	-1.2175413E+000	8.4637823E+000	1.094454974302425E+002
-1.468789231457100E+002	-1.2188567E+000	-1.2188473E+000	8.2983770E+000	1.095760974269433E+002
-1.487079061181480E+002	-1.2202287E+000	-1.2202510E+000	8.2055397E+000	1.097164974233965E+002
-1.498573719352758E+002	-1.2214247E+000	-1.2214568E+000	8.1505814E+000	1.098369974203524E+002
-1.510525936693678E+002	-1.2228738E+000	-1.2228593E+000	8.0956821E+000	1.099772974168081E+002
-1.533257425135196E+002	-1.2242512E+000	-1.2242621E+000	7.9846420E+000	1.101175974132639E+002
-1.559853529052534E+002	-1.2258980E+000	-1.2258666E+000	7.8590584E+000	1.102779974092118E+002
-1.581289048447720E+002	-1.2274672E+000	-1.2274722E+000	7.7624464E+000	1.104385974051547E+002
-1.597808445090241E+002	-1.2291446E+000	-1.2291768E+000	7.6926904E+000	1.106089974008501E+002
-1.621409175687188E+002	-1.2308134E+000	-1.2307813E+000	7.5910106E+000	1.107694973967955E+002
-1.643839549363765E+002	-1.2324324E+000	-1.2323866E+000	7.4972792E+000	1.109299973927409E+002
-1.666374082254283E+002	-1.2341173E+000	-1.2340934E+000	7.4060040E+000	1.111006973884287E+002
-1.683151861541277E+002	-1.2355169E+000	-1.2355011E+000	7.3404956E+000	1.112414973848718E+002
-1.703804558056672E+002	-1.2368208E+000	-1.2368060E+000	7.2591705E+000	1.113719973815751E+002
-1.714077307603723E+002	-1.2381016E+000	-1.2381102E+000	7.2231374E+000	1.115023973782809E+002
-1.724957166428890E+002	-1.2396476E+000	-1.2396165E+000	7.1865416E+000	1.116529973744764E+002
-1.749211171821539E+002	-1.2412199E+000	-1.2412213E+000	7.0958834E+000	1.118134973704218E+002
-1.766618316621166E+002	-1.2427157E+000	-1.2427284E+000	7.0344324E+000	1.119641973666148E+002
-1.779943073993397E+002	-1.2443246E+000	-1.2443353E+000	6.9908109E+000	1.121248973625552E+002
-1.799791470935784E+002	-1.2458613E+000	-1.2458423E+000	6.9222536E+000	1.122755973587482E+002
-1.817072505788024E+002	-1.2474642E+000	-1.2474502E+000	6.8652415E+000	1.124363973546861E+002
-1.835460394900854E+002	-1.2491308E+000	-1.2491585E+000	6.8055449E+000	1.126071973503713E+002
-1.849730124068701E+002	-1.2508606E+000	-1.2508628E+000	6.7623949E+000	1.127775973460666E+002
-1.866479780743758E+002	-1.2523853E+000	-1.2523634E+000	6.7098784E+000	1.129276973422748E+002
-1.873151193258218E+002	-1.2540691E+000	-1.2540675E+000	6.6949701E+000	1.130980973379701E+002
-1.898822598876475E+002	-1.2558850E+000	-1.2558742E+000	6.6140199E+000	1.132787973334052E+002
-1.938564873180617E+002	-1.2572970E+000	-1.2572832E+000	6.4857106E+000	1.134196973298458E+002
-1.979602001266248E+002	-1.2587980E+000	-1.2587901E+000	6.3588438E+000	1.135703973260388E+002
-2.027618952453095E+002	-1.2603303E+000	-1.2602965E+000	6.2158146E+000	1.137209973222343E+002
-2.056283384788298E+002	-1.2618095E+000	-1.2618014E+000	6.1363597E+000	1.138714973184324E+002
-2.067168776176750E+002	-1.2634107E+000	-1.2634047E+000	6.1117926E+000	1.140317973143829E+002
-2.079204573526813E+002	-1.2651412E+000	-1.2651083E+000	6.0847368E+000	1.142021973100782E+002
-2.112374035719367E+002	-1.2666574E+000	-1.2666142E+000	5.9963689E+000	1.143527973062737E+002
-2.129659863416528E+002	-1.2684293E+000	-1.2684214E+000	5.9560180E+000	1.145334973017088E+002
-2.139489450467402E+002	-1.2701522E+000	-1.2701266E+000	5.9367070E+000	1.147039972974017E+002
-2.159450309177414E+002	-1.2716640E+000	-1.2716342E+000	5.8888321E+000	1.148547972935921E+002
-2.173049107925845E+002	-1.2733680E+000	-1.2733394E+000	5.8598218E+000	1.150252972892849E+002
-2.189999939207737E+002	-1.2746695E+000	-1.2746431E+000	5.8204088E+000	1.151556972859908E+002
-2.218498097362044E+002	-1.2763678E+000	-1.2763474E+000	5.7532969E+000	1.153260972816861E+002
-2.276027158642646E+002	-1.2782056E+000	-1.2781541E+000	5.6159506E+000	1.155067972771212E+002
-2.299209883661179E+002	-1.2797554E+000	-1.2797616E+000	5.5660658E+000	1.156674972730616E+002
-2.309682951515647E+002	-1.2815032E+000	-1.2814646E+000	5.5483942E+000	1.158377972687595E+002
-2.326928117735636E+002	-1.2831830E+000	-1.2831683E+000	5.5144935E+000	1.160081972644548E+002
-2.353009881949693E+002	-1.2845119E+000	-1.2844728E+000	5.4590163E+000	1.161386972611581E+002
-2.372370443321134E+002	-1.2851243E+000	-1.2850842E+000	5.4170475E+000	1.161998972596120E+002
-2.376223883032796E+002	-1.2851481E+000	-1.2851043E+000	5.4083629E+000	1.162018972595615E+002
-2.379692267862006E+002	-1.2854205E+000	-1.2853220E+000	5.4016252E+000	1.162236972590108E+002
-2.385193543325368E+002	-1.2860084E+000	-1.2859362E+000	5.3916311E+000	1.162850972574597E+002
-2.394040968227398E+002	-1.2867080E+000	-1.2866488E+000	5.3746281E+000	1.163562972556610E+002
-2.405333355711564E+002	-1.2877159E+000	-1.2876565E+000	5.3535862E+000	1.164570972531146E+002
-2.432566525953731E+002	-1.2887417E+000	-1.2886652E+000	5.2978683E+000	1.165579972505657E+002
-2.441111061778529E+002	-1.2897458E+000	-1.2896744E+000	5.2834377E+000	1.166588972480167E+002
-2.450857909179740E+002	-1.2903837E+000	-1.2902869E+000	5.2650285E+000	1.167200972464707E+002
-2.461020468474362E+002	-1.2909666E+000	-1.2908993E+000	5.2456560E+000	1.167813972449221E+002
-2.493076572285759E+002	-1.2912639E+000	-1.2912163E+000	5.1793995E+000	1.168130972441213E+002
-2.501795487023402E+002	-1.2914925E+000	-1.2914343E+000	5.1622624E+000	1.168348972435706E+002
-2.506149637714125E+002	-1.2919195E+000	-1.2918504E+000	5.1549973E+000	1.168763972425222E+002
-2.517110203053558E+002	-1.2926615E+000	-1.2926599E+000	5.1354985E+000	1.169573972404760E+002
-2.530067164456188E+002	-1.2933730E+000	-1.2932723E+000	5.1120105E+000	1.170186972389274E+002
-2.545597174541754E+002	-1.2937428E+000	-1.2936882E+000	5.0822763E+000	1.170602972378765E+002
-2.546717140302253E+002	-1.2942945E+000	-1.2942032E+000	5.0822072E+000	1.171117972365755E+002
-2.549031554069895E+002	-1.2953715E+000	-1.2953113E+000	5.0818186E+000	1.172225972337765E+002
-2.561027224505680E+002	-1.2965837E+000	-1.2965181E+000	5.0627484E+000	1.173432972307273E+002
-2.564713723129560E+002	-1.2979741E+000	-1.2979240E+000	5.0608926E+000	1.174838972271755E+002
-2.569952379356220E+002	-1.2992131E+000	-1.2991323E+000	5.0553975E+000	1.176046972241238E+002
-2.596111679486385E+002	-1.2997541E+000	-1.2996472E+000	5.0065417E+000	1.176561972228228E+002
-2.621362549055502E+002	-1.2999883E+000	-1.2999623E+000	4.9592080E+000	1.176876972220271E+002
-2.631322034696730E+002	-1.3000181E+000	-1.2999822E+000	4.9405508E+000	1.176896972219765E+002
-2.633005595472123E+002	-1.3000636E+000	-1.3000023E+000	4.9375648E+000	1.176916972219260E+002
-2.631125901530249E+002	-1.3004915E+000	-1.3004180E+000	4.9427185E+000	1.177332972208751E+002
-2.628097858505739E+002	-1.3014653E+000	-1.3014272E+000	4.9521189E+000	1.178341972183262E+002
-2.634595726118177E+002	-1.3025392E+000	-1.3024366E+000	4.9439816E+000	1.179350972157772E+002
-2.629991141813130E+002	-1.3032326E+000	-1.3031493E+000	4.9552736E+000	1.180063972139760E+002
-2.633875198054602E+002	-1.3034875E+000	-1.3033670E+000	4.9489346E+000	1.180281972134253E+002
-2.636688493388810E+002	-1.3039495E+000	-1.3038822E+000	4.9454060E+000	1.180796972121243E+002
-2.645256118934722E+002	-1.3045387E+000	-1.3044959E+000	4.9316158E+000	1.181410972105732E+002
-2.654590983655717E+002	-1.3047515E+000	-1.3047141E+000	4.9150753E+000	1.181628972100225E+002
-2.657252199252441E+002	-1.3047894E+000	-1.3047342E+000	4.9102960E+000	1.181648972099720E+002
-2.658228420264350E+002	-1.3048683E+000	-1.3048531E+000	4.9087892E+000	1.181767972096713E+002
-2.657120783535911E+002	-1.3054996E+000	-1.3054672E+000	4.9132113E+000	1.182381972081203E+002
-2.665247755081214E+002	-1.3062283E+000	-1.3061777E+000	4.9009638E+000	1.183091972063266E+002
-2.664697849783629E+002	-1.3064904E+000	-1.3063941E+000	4.9029589E+000	1.183308972057785E+002
-2.663057832675918E+002	-1.3072609E+000	-1.3072045E+000	4.9088717E+000	1.184117972037348E+002
-2.665906999284808E+002	-1.3081437E+000	-1.3081124E+000	4.9069366E+000	1.185026972014384E+002
-2.678982273321540E+002	-1.3085909E+000	-1.3087251E+000	4.8846569E+000	1.185639971998899E+002
-2.684925704403713E+002	-1.3091416E+000	-1.3091415E+000	4.8758950E+000	1.186055971988390E+002
-2.678607678211447E+002	-1.3096089E+000	-1.3095573E+000	4.8891406E+000	1.186471971977880E+002
-2.677287578947009E+002	-1.3097144E+000	-1.3096763E+000	4.8919454E+000	1.186590971974874E+002
-2.677467888957922E+002	-1.3097413E+000	-1.3096962E+000	4.8917160E+000	1.186610971974369E+002
-2.686585800455887E+002	-1.3102324E+000	-1.3102112E+000	4.8769422E+000	1.187125971961359E+002
-2.703562625331175E+002	-1.3108801E+000	-1.3108252E+000	4.8487134E+000	1.187739971945848E+002
-2.720696403294842E+002	-1.3115155E+000	-1.3114393E+000	4.8205137E+000	1.188353971930337E+002
-2.724695863833795E+002	-1.3124349E+000	-1.3123503E+000	4.8168125E+000	1.189264971907323E+002
-2.711292832855534E+002	-1.3132542E+000	-1.3131621E+000	4.8436460E+000	1.190076971886811E+002
-2.708454032155378E+002	-1.3136462E+000	-1.3135780E+000	4.8501697E+000	1.190492971876301E+002
-2.739818147336744E+002	-1.3142565E+000	-1.3141921E+000	4.7968750E+000	1.191106971860791E+002
-2.777195798873890E+002	-1.3148649E+000	-1.3148061E+000	4.7345057E+000	1.191720971845280E+002
-2.794482680818924E+002	-1.3157988E+000	-1.3157172E+000	4.7085595E+000	1.192631971822266E+002
-2.805085228604630E+002	-1.3166680E+000	-1.3165287E+000	4.6938610E+000	1.193442971801778E+002
-2.838111640579150E+002	-1.3175327E+000	-1.3174375E+000	4.6422863E+000	1.194351971778815E+002
-2.855110430602031E+002	-1.3186053E+000	-1.3185452E+000	4.6184039E+000	1.195459971750824E+002
-2.859268198232319E+002	-1.3194897E+000	-1.3194555E+000	4.6147814E+000	1.196369971727836E+002
-2.869341057147026E+002	-1.3199141E+000	-1.3198702E+000	4.6000600E+000	1.196784971717352E+002
-2.873434286727452E+002	-1.3202509E+000	-1.3201871E+000	4.5946794E+000	1.197101971709344E+002
-2.886037619363944E+002	-1.3210384E+000	-1.3209985E+000	4.5773430E+000	1.197912971688856E+002
-2.903510173277768E+002	-1.3218137E+000	-1.3217100E+000	4.5524678E+000	1.198624971670870E+002
-2.918701495716937E+002	-1.3225673E+000	-1.3225213E+000	4.5313554E+000	1.199435971650382E+002
-2.936842306440094E+002	-1.3231924E+000	-1.3231341E+000	4.5054932E+000	1.200048971634897E+002
-2.950452015115106E+002	-1.3234270E+000	-1.3234513E+000	4.4855056E+000	1.200365971626889E+002
-2.963780181413188E+002	-1.3243368E+000	-1.3242632E+000	4.4684043E+000	1.201177971606376E+002
-2.973778910660749E+002	-1.3253380E+000	-1.3252732E+000	4.4567471E+000	1.202187971580861E+002
-2.982403364632755E+002	-1.3261508E+000	-1.3260853E+000	4.4465842E+000	1.202999971560348E+002
-2.991750550405013E+002	-1.3271317E+000	-1.3269961E+000	4.4359708E+000	1.203910971537334E+002
-3.002888995845988E+002	-1.3276570E+000	-1.3276100E+000	4.4212656E+000	1.204524971521823E+002
-3.010142579910857E+002	-1.3281908E+000	-1.3281252E+000	4.4123850E+000	1.205038971508839E+002
-3.011262718712060E+002	-1.3284564E+000	-1.3283412E+000	4.4116259E+000	1.205255971503357E+002
-3.022216215292119E+002	-1.3291700E+000	-1.3291532E+000	4.3979979E+000	1.206067971482844E+002
-3.060291110597775E+002	-1.3301978E+000	-1.3301618E+000	4.3466382E+000	1.207075971457380E+002
-3.096369012820106E+002	-1.3311986E+000	-1.3310702E+000	4.2992244E+000	1.207984971434416E+002
-3.119341206003928E+002	-1.3321693E+000	-1.3320802E+000	4.2706752E+000	1.208994971408902E+002
-3.128507389662086E+002	-1.3328730E+000	-1.3327934E+000	4.2604117E+000	1.209707971390890E+002
-3.137409116070244E+002	-1.3335376E+000	-1.3334066E+000	4.2504420E+000	1.210320971375404E+002
-3.143474138983419E+002	-1.3344668E+000	-1.3344152E+000	4.2451973E+000	1.211329971349915E+002
-3.156381340779617E+002	-1.3354124E+000	-1.3353246E+000	4.2308335E+000	1.212238971326951E+002
-3.167993385078389E+002	-1.3363061E+000	-1.3362333E+000	4.2181468E+000	1.213147971303988E+002
-3.202849702395024E+002	-1.3371550E+000	-1.3370444E+000	4.1748915E+000	1.213958971283500E+002
-3.205170158567780E+002	-1.3379443E+000	-1.3378553E+000	4.1743317E+000	1.214769971263013E+002
-3.199758684078770E+002	-1.3388517E+000	-1.3387661E+000	4.1842270E+000	1.215680971239999E+002
-3.198471407218362E+002	-1.3392240E+000	-1.3390831E+000	4.1870751E+000	1.215997971231991E+002
-3.190225732444896E+002	-1.3393935E+000	-1.3393011E+000	4.1984286E+000	1.216215971226484E+002
-3.198751170152937E+002	-1.3399450E+000	-1.3398160E+000	4.1889629E+000	1.216730971213474E+002
-3.188466909510953E+002	-1.3405182E+000	-1.3404301E+000	4.2042723E+000	1.217344971197963E+002
-3.214667985346878E+002	-1.3412527E+000	-1.3411433E+000	4.1722898E+000	1.218057971179951E+002
-3.246819081538570E+002	-1.3420197E+000	-1.3419544E+000	4.1333370E+000	1.218868971159463E+002
-3.294013443882286E+002	-1.3426452E+000	-1.3425671E+000	4.0760159E+000	1.219481971143978E+002
-3.295548686369250E+002	-1.3431846E+000	-1.3430814E+000	4.0757542E+000	1.219995971130993E+002
-3.296019483567488E+002	-1.3441821E+000	-1.3440900E+000	4.0781984E+000	1.221003971105529E+002
-3.292163845366904E+002	-1.3447739E+000	-1.3447022E+000	4.0847721E+000	1.221616971090043E+002
-3.289585480225869E+002	-1.3452234E+000	-1.3451183E+000	4.0893402E+000	1.222032971079534E+002
-3.324824723866250E+002	-1.3456149E+000	-1.3455343E+000	4.0471754E+000	1.222448971069025E+002
-3.336677230695041E+002	-1.3458797E+000	-1.3457515E+000	4.0335927E+000	1.222665971063543E+002
-3.323552134888905E+002	-1.3465778E+000	-1.3464628E+000	4.0516224E+000	1.223376971045582E+002
-3.329361147116624E+002	-1.3473632E+000	-1.3472732E+000	4.0469122E+000	1.224187971025094E+002
-3.330189184784858E+002	-1.3481964E+000	-1.3480825E+000	4.0484080E+000	1.224996971004657E+002
-3.362908631295894E+002	-1.3488765E+000	-1.3487921E+000	4.0110412E+000	1.225706970986721E+002
-3.372140673015929E+002	-1.3495941E+000	-1.3495033E+000	4.0021882E+000	1.226417970968760E+002
-3.385089143799132E+002	-1.3506715E+000	-1.3505132E+000	3.9900620E+000	1.227427970943245E+002
-3.394984346383271E+002	-1.3513837E+000	-1.3512261E+000	3.9805300E+000	1.228140970925233E+002
-3.396778717618945E+002	-1.3518920E+000	-1.3517412E+000	3.9799237E+000	1.228655970912223E+002
-3.400707428762237E+002	-1.3526329E+000	-1.3525532E+000	3.9775045E+000	1.229467970891710E+002
-3.400638773357741E+002	-1.3536601E+000	-1.3535624E+000	3.9806054E+000	1.230476970866221E+002
-3.416737303830341E+002	-1.3543063E+000	-1.3541750E+000	3.9637415E+000	1.231089970850735E+002
-3.422332416540371E+002	-1.3546100E+000	-1.3544922E+000	3.9581485E+000	1.231406970842727E+002
-3.425951892738526E+002	-1.3547341E+000	-1.3546109E+000	3.9543290E+000	1.231525970839721E+002
-3.422861310220942E+002	-1.3556520E+000	-1.3555225E+000	3.9605811E+000	1.232436970816707E+002
-3.435851390691919E+002	-1.3566848E+000	-1.3565322E+000	3.9486132E+000	1.233446970791192E+002
-3.436973016484799E+002	-1.3573403E+000	-1.3572452E+000	3.9492319E+000	1.234159970773180E+002
-3.442648975054422E+002	-1.3577963E+000	-1.3576610E+000	3.9440451E+000	1.234574970762696E+002
-3.453010574537340E+002	-1.3582838E+000	-1.3581727E+000	3.9336219E+000	1.235086970749762E+002
-3.466463108726493E+002	-1.3589084E+000	-1.3587842E+000	3.9201584E+000	1.235698970734302E+002
-3.476750890604972E+002	-1.3596983E+000	-1.3595963E+000	3.9108303E+000	1.236510970713789E+002
-3.487848639408949E+002	-1.3608000E+000	-1.3607044E+000	3.9015455E+000	1.237618970685799E+002
-3.522962675533699E+002	-1.3619223E+000	-1.3618113E+000	3.8658435E+000	1.238725970657833E+002
-3.563495707905213E+002	-1.3624938E+000	-1.3624244E+000	3.8234751E+000	1.239338970642348E+002
-3.571741945618119E+002	-1.3628210E+000	-1.3627411E+000	3.8155639E+000	1.239655970634340E+002
-3.582390970137803E+002	-1.3636309E+000	-1.3635532E+000	3.8064826E+000	1.240467970613827E+002
-3.610359454879494E+002	-1.3644669E+000	-1.3643652E+000	3.7793105E+000	1.241279970593314E+002
-3.620399086278658E+002	-1.3652152E+000	-1.3650782E+000	3.7708969E+000	1.241992970575302E+002
-3.631806147219377E+002	-1.3661534E+000	-1.3660882E+000	3.7616363E+000	1.243002970549787E+002
-3.627800333903133E+002	-1.3667301E+000	-1.3666034E+000	3.7673795E+000	1.243517970536777E+002
-3.634473007276965E+002	-1.3671464E+000	-1.3670193E+000	3.7616084E+000	1.243933970526268E+002
-3.637403202917826E+002	-1.3672147E+000	-1.3671383E+000	3.7587657E+000	1.244052970523262E+002
-3.638594402718286E+002	-1.3676622E+000	-1.3675541E+000	3.7587652E+000	1.244468970512753E+002
-3.637973429210797E+002	-1.3683603E+000	-1.3682666E+000	3.7613256E+000	1.245180970494766E+002
-3.658659794579180E+002	-1.3693627E+000	-1.3692752E+000	3.7427988E+000	1.246189970469277E+002
-3.668578132026078E+002	-1.3705019E+000	-1.3703814E+000	3.7357850E+000	1.247295970441337E+002
-3.690601694403640E+002	-1.3714184E+000	-1.3712913E+000	3.7159750E+000	1.248205970418348E+002
-3.694176945903761E+002	-1.3718892E+000	-1.3718063E+000	3.7136533E+000	1.248720970405338E+002
-3.698774074049413E+002	-1.3723890E+000	-1.3723205E+000	3.7103887E+000	1.249234970392354E+002
-3.715472232220718E+002	-1.3732439E+000	-1.3731312E+000	3.6960144E+000	1.250045970371866E+002
-3.741443141233894E+002	-1.3737738E+000	-1.3736463E+000	3.6717751E+000	1.250560970358856E+002
-3.749327682786521E+002	-1.3737713E+000	-1.3736662E+000	3.6640470E+000	1.250580970358351E+002
-3.758163978517341E+002	-1.3740758E+000	-1.3739831E+000	3.6562421E+000	1.250897970350343E+002
-3.775390195931632E+002	-1.3745551E+000	-1.3743989E+000	3.6408293E+000	1.251313970339834E+002
-3.777506994975079E+002	-1.3752344E+000	-1.3751113E+000	3.6405873E+000	1.252025970321847E+002
-3.783613071014788E+002	-1.3757968E+000	-1.3757240E+000	3.6361985E+000	1.252638970306361E+002
-3.798113867210905E+002	-1.3763210E+000	-1.3762373E+000	3.6236959E+000	1.253151970293402E+002
-3.828767988804905E+002	-1.3766518E+000	-1.3765541E+000	3.5955477E+000	1.253468970285394E+002
-3.865827638069771E+002	-1.3773081E+000	-1.3771675E+000	3.5627768E+000	1.254081970269908E+002
-3.886590096511791E+002	-1.3783790E+000	-1.3782752E+000	3.5464995E+000	1.255189970241918E+002
-3.903806568254022E+002	-1.3790063E+000	-1.3789879E+000	3.5324657E+000	1.255902970223906E+002
-3.898746250438726E+002	-1.3797436E+000	-1.3796014E+000	3.5389416E+000	1.256515970208420E+002
-3.898801318912056E+002	-1.3806418E+000	-1.3805113E+000	3.5411956E+000	1.257425970185432E+002
-3.899480230526879E+002	-1.3817295E+000	-1.3816195E+000	3.5433683E+000	1.258533970157441E+002
-3.928904786737457E+002	-1.3825936E+000	-1.3824300E+000	3.5190306E+000	1.259344970136954E+002
-3.932754890307083E+002	-1.3833787E+000	-1.3832414E+000	3.5175819E+000	1.260155970116466E+002
-3.948297968084098E+002	-1.3838871E+000	-1.3837552E+000	3.5050218E+000	1.260669970103481E+002
-3.968617203143613E+002	-1.3844931E+000	-1.3843683E+000	3.4886034E+000	1.261282970087996E+002
-3.994461070179506E+002	-1.3854223E+000	-1.3852781E+000	3.4683585E+000	1.262192970065007E+002
-3.990378994647408E+002	-1.3862209E+000	-1.3860902E+000	3.4739079E+000	1.263004970044494E+002
-4.004899661806935E+002	-1.3871437E+000	-1.3869998E+000	3.4636166E+000	1.263913970021531E+002
-4.026150770982104E+002	-1.3874352E+000	-1.3873162E+000	3.4460588E+000	1.264230970013523E+002
-4.024383180851773E+002	-1.3877953E+000	-1.3876337E+000	3.4484673E+000	1.264547970005515E+002
-4.001320564952616E+002	-1.3883278E+000	-1.3882471E+000	3.4696741E+000	1.265161969990004E+002
-4.010179287405699E+002	-1.3888872E+000	-1.3887621E+000	3.4634042E+000	1.265676969976994E+002
-4.033386418940318E+002	-1.3894734E+000	-1.3893762E+000	3.4449301E+000	1.266290969961483E+002
-4.069861805278292E+002	-1.3905932E+000	-1.3904843E+000	3.4168069E+000	1.267397969933518E+002
-4.094972948779323E+002	-1.3923744E+000	-1.3922850E+000	3.4002042E+000	1.269197969888046E+002
-4.111971618410153E+002	-1.3943894E+000	-1.3942851E+000	3.3910482E+000	1.271197969837522E+002
-4.145825320699951E+002	-1.3963163E+000	-1.3961847E+000	3.3680055E+000	1.273097969789524E+002
-4.156064353591519E+002	-1.3980815E+000	-1.3979857E+000	3.3639555E+000	1.274898969744027E+002
-4.155562798506553E+002	-1.4000180E+000	-1.3998868E+000	3.3690214E+000	1.276799969696003E+002
-4.135285743692075E+002	-1.4019434E+000	-1.4017879E+000	3.3901973E+000	1.278700969647980E+002
-4.172816039916670E+002	-1.4037205E+000	-1.4035877E+000	3.3639646E+000	1.280500969602508E+002
-4.216630992802911E+002	-1.4055580E+000	-1.4054891E+000	3.3333673E+000	1.282401969554485E+002
-4.229746212688988E+002	-1.4075984E+000	-1.4074889E+000	3.3278553E+000	1.284401969503961E+002
-4.320426072209493E+002	-1.4093987E+000	-1.4092898E+000	3.2621751E+000	1.286202969458463E+002
-4.347551745750634E+002	-1.4111530E+000	-1.4109899E+000	3.2458565E+000	1.287902969415518E+002
-4.376229030390314E+002	-1.4128499E+000	-1.4126886E+000	3.2284644E+000	1.289601969372598E+002
-4.401261851987597E+002	-1.4146397E+000	-1.4144890E+000	3.2141685E+000	1.291401969327126E+002
-4.414863687441102E+002	-1.4164536E+000	-1.4162887E+000	3.2083745E+000	1.293201969281654E+002
-4.423239457111137E+002	-1.4180400E+000	-1.4178886E+000	3.2058856E+000	1.294801969241234E+002
-4.488940949176158E+002	-1.4197776E+000	-1.4195887E+000	3.1628342E+000	1.296501969198289E+002
-4.522560014011096E+002	-1.4216557E+000	-1.4214890E+000	3.1434755E+000	1.298401969150291E+002
-4.535451900931985E+002	-1.4236175E+000	-1.4234890E+000	3.1388657E+000	1.300401969099767E+002
-4.582143881012803E+002	-1.4256917E+000	-1.4254889E+000	3.1114075E+000	1.302401969049242E+002
-4.621713380896763E+002	-1.4275490E+000	-1.4273888E+000	3.0887873E+000	1.304301969001244E+002
-4.656533508975186E+002	-1.4293448E+000	-1.4291887E+000	3.0695469E+000	1.306101968955772E+002
-4.671493861579386E+002	-1.4310306E+000	-1.4308897E+000	3.0633254E+000	1.307802968912802E+002
-4.712229784066612E+002	-1.4328690E+000	-1.4326890E+000	3.0407450E+000	1.309601968867355E+002
-4.745270594091435E+002	-1.4346302E+000	-1.4344887E+000	3.0232842E+000	1.311401968821883E+002
-4.753942816362619E+002	-1.4363744E+000	-1.4361899E+000	3.0214381E+000	1.313102968778912E+002
-4.815847268273956E+002	-1.4382508E+000	-1.4380890E+000	2.9864957E+000	1.315001968730940E+002
-4.824459377793455E+002	-1.4399438E+000	-1.4397898E+000	2.9846740E+000	1.316702968687969E+002
-4.839600875412557E+002	-1.4415603E+000	-1.4413888E+000	2.9786758E+000	1.318301968647575E+002
-4.920295814721758E+002	-1.4434747E+000	-1.4432890E+000	2.9337151E+000	1.320201968599577E+002
-4.922689123200498E+002	-1.4453181E+000	-1.4451898E+000	2.9360337E+000	1.322102968551553E+002
-5.001866607057082E+002	-1.4474022E+000	-1.4469907E+000	2.8937242E+000	1.323903968506056E+002
-5.075743542193304E+002	-1.4495435E+000	-1.4488910E+000	2.8558249E+000	1.325803968458058E+002
-5.101057127868214E+002	-1.4515542E+000	-1.4508909E+000	2.8455949E+000	1.327803968407534E+002
-5.125897655809476E+002	-1.4532260E+000	-1.4525918E+000	2.8350663E+000	1.329504968364563E+002
-5.083413282902939E+002	-1.4550678E+000	-1.4543909E+000	2.8623834E+000	1.331303968319116E+002
-5.076197067922112E+002	-1.4567784E+000	-1.4560919E+000	2.8698225E+000	1.333004968276146E+002
-5.088178314394645E+002	-1.4583417E+000	-1.4576918E+000	2.8661373E+000	1.334604968235726E+002
-5.128942446460023E+002	-1.4601657E+000	-1.4594929E+000	2.8469138E+000	1.336405968190229E+002
-5.122911864300177E+002	-1.4621462E+000	-1.4614929E+000	2.8541310E+000	1.338405968139705E+002
-5.107114670060018E+002	-1.4640698E+000	-1.4633929E+000	2.8667259E+000	1.340305968091707E+002
-5.115920112635810E+002	-1.4659184E+000	-1.4652930E+000	2.8654053E+000	1.342205968043709E+002
-5.188949554645437E+002	-1.4678670E+000	-1.4671928E+000	2.8288326E+000	1.344105967995711E+002
-5.169753633928431E+002	-1.4696953E+000	-1.4689927E+000	2.8428731E+000	1.345905967950239E+002
-5.325831901753386E+002	-1.4714758E+000	-1.4707927E+000	2.7629032E+000	1.347705967904767E+002
-5.388291544925032E+002	-1.4733406E+000	-1.4726930E+000	2.7343373E+000	1.349605967856769E+002
-5.388310945990961E+002	-1.4754082E+000	-1.4746931E+000	2.7381644E+000	1.351605967806245E+002
-5.341689472965870E+002	-1.4772843E+000	-1.4765929E+000	2.7655749E+000	1.353505967758247E+002
-5.328887550882846E+002	-1.4790928E+000	-1.4783938E+000	2.7756128E+000	1.355306967712750E+002
-5.465921716956791E+002	-1.4810326E+000	-1.4802929E+000	2.7095752E+000	1.357205967664777E+002
-5.608139269989624E+002	-1.4828451E+000	-1.4821928E+000	2.6440945E+000	1.359105967616779E+002
-5.583230801434311E+002	-1.4845798E+000	-1.4838926E+000	2.6589978E+000	1.360805967573833E+002
-5.600499526909407E+002	-1.4862025E+000	-1.4854939E+000	2.6536963E+000	1.362406967533389E+002
-5.606038659179867E+002	-1.4878622E+000	-1.4871927E+000	2.6540349E+000	1.364105967490468E+002
-5.540237419534985E+002	-1.4898279E+000	-1.4890931E+000	2.6891048E+000	1.366005967442470E+002
-5.589667541487524E+002	-1.4909480E+000	-1.4902935E+000	2.6673286E+000	1.367206967412130E+002
-5.615530250950869E+002	-1.4915459E+000	-1.4907928E+000	2.6561089E+000	1.367581967402657E+002