EC-Lab ASCII FILE
Nb header lines : 61                          

Linear Sweep Voltammetry

Run on channel : 1 (SN 1340)
User : 
Electrode connection : standard
Potential control : Ewe
Ewe ctrl range : min = -5.00 V, max = 5.00 V
Ewe,I filtering : <None>
Channel : Grounded
Acquisition started on : 03/11/2026 18:33:08.109
Technique started on : 03/11/2026 18:33:10.948
Loaded Setting File :  NONE
Saved on :
	File : X225_N52magA_flat_3_11_02_LSV_C01.mpr
	Directory : C:\Users\volt\Documents\Platalytix\
	Host : 172.28.65.128
Device : SP-200 (SN 0262)
Address : USB
EC-LAB for windows v11.60 (software)
Internet server v11.60 (firmware)
Command interpretor v11.60 (firmware)
Electrode material : Pt22.5Pd22.5Ni22.5Co22.5Cr10
Initial state : 
Electrolyte : KOH (1M)
Comments : With magnet side A (+), flat position
Cable : standard
Reference electrode : Hg/HgO (0.140 V)
Electrode surface area : 1.000 cmｲ
Characteristic mass : 0.001 g
Equivalent Weight : 0.000 g/eq.
Density : 0.000 g/cm3
Volume (V) : 0.001 cmｳ
Cycle Definition : Charge/Discharge alternance
tR (h:m:s)          0:00:5.0000         
dER/dt (mV/h)       0.0                 
dER (mV)            0                   
dtR (s)             0.0000              
dE/dt               10.000              
dE/dt unit          mV/s                
Ei (V)              -0.200              
vs.                 Ref                 
EL (V)              -2.500              
vs.                 Ref                 
record              <I>                 
dI                  0.000               
unit dI             ｵA                  
tI (s)              0.0000              
step percent        50                  
N                   10                  
E range min (V)     -5.000              
E range max (V)     5.000               
I Range             Auto                
I Range min         Unset               
I Range max         Unset               
I Range init        Unset               
Bandwidth           8                   

<I>/mA	Ewe/V	control/V	Rwe/Ohm	time/s	
0.000000000000000E+000	-1.5456693E-001	0.0000000E+000	0.0000000E+000	2.839400134835159E+000
0.000000000000000E+000	-2.9195340E-002	-1.9981518E-001	0.0000000E+000	7.839200008529588E+000
-9.192235676571731E-002	-2.0159268E-001	-2.0171496E-001	2.1930757E+003	8.039200003477163E+000
-1.690935264512579E-001	-2.0276295E-001	-2.0291501E-001	1.1991172E+003	8.159200000445708E+000
-1.505344548904661E-001	-2.0486456E-001	-2.0501502E-001	1.3609148E+003	8.369199995140661E+000
-1.351694421749774E-001	-2.0686188E-001	-2.0701504E-001	1.5303894E+003	8.569199990088237E+000
-1.244367916008153E-001	-2.0884691E-001	-2.0901501E-001	1.6783373E+003	8.769199985035812E+000
-1.165013849532521E-001	-2.1088181E-001	-2.1101502E-001	1.8101228E+003	8.969199979983387E+000
-1.102921705631763E-001	-2.1288870E-001	-2.1301503E-001	1.9302250E+003	9.169199974930962E+000
-1.053411077767134E-001	-2.1488348E-001	-2.1501499E-001	2.0398824E+003	9.369199969878537E+000
-1.012078221304481E-001	-2.1689589E-001	-2.1701503E-001	2.1430745E+003	9.569199964826112E+000
-9.773118984505391E-002	-2.1888919E-001	-2.1901500E-001	2.2397065E+003	9.769199959773687E+000
-9.472535244852365E-002	-2.2081926E-001	-2.2101499E-001	2.3311528E+003	9.969199954721262E+000
-9.206235832999332E-002	-2.2292568E-001	-2.2301503E-001	2.4214639E+003	1.016919994966884E+001
-8.974591821438471E-002	-2.2484979E-001	-2.2501500E-001	2.5054041E+003	1.036919994461641E+001
-8.774789847600406E-002	-2.2688340E-001	-2.2701503E-001	2.5856277E+003	1.056919993956399E+001
-8.582368350213987E-002	-2.2886379E-001	-2.2901501E-001	2.6666741E+003	1.076919993451156E+001
-8.401678534765231E-002	-2.3086004E-001	-2.3101501E-001	2.7477847E+003	1.096919992945914E+001
-8.255932483950941E-002	-2.3284933E-001	-2.3301500E-001	2.8203879E+003	1.116919992440671E+001
-8.108835715152218E-002	-2.3491751E-001	-2.3501500E-001	2.8970559E+003	1.136919991935429E+001
-7.973533812931438E-002	-2.3685439E-001	-2.3701504E-001	2.9705071E+003	1.156919991430186E+001
-7.853265916305630E-002	-2.3888290E-001	-2.3901500E-001	3.0418286E+003	1.176919990924944E+001
-7.743198537878071E-002	-2.4086729E-001	-2.4101502E-001	3.1106951E+003	1.196919990419701E+001
-7.633283516168232E-002	-2.4286655E-001	-2.4301502E-001	3.1816785E+003	1.216919989914459E+001
-7.528890096719720E-002	-2.4486962E-001	-2.4501500E-001	3.2523999E+003	1.236919989409216E+001
-7.439141943385597E-002	-2.4686566E-001	-2.4701501E-001	3.3184695E+003	1.256919988903974E+001
-7.346373926658123E-002	-2.4888825E-001	-2.4901502E-001	3.3879063E+003	1.276919988398731E+001
-7.257729170309668E-002	-2.5087157E-001	-2.5101501E-001	3.4566125E+003	1.296919987893489E+001
-7.177253779237164E-002	-2.5293046E-001	-2.5301501E-001	3.5240564E+003	1.316919987388246E+001
-7.101547875274761E-002	-2.5486797E-001	-2.5501502E-001	3.5889072E+003	1.336919986883004E+001
-7.027722092170063E-002	-2.5685406E-001	-2.5701502E-001	3.6548694E+003	1.356919986377761E+001
-6.952120281297647E-002	-2.5886899E-001	-2.5901502E-001	3.7235977E+003	1.376919985872519E+001
-6.892624398579394E-002	-2.6086420E-001	-2.6101503E-001	3.7846860E+003	1.396919985367276E+001
-6.823084507160765E-002	-2.6282695E-001	-2.6301500E-001	3.8520254E+003	1.416919984862034E+001
-6.758263592276736E-002	-2.6483107E-001	-2.6501504E-001	3.9186260E+003	1.436919984356791E+001
-6.702970171267020E-002	-2.6683900E-001	-2.6701501E-001	3.9809067E+003	1.456919983851549E+001
-6.645978915414325E-002	-2.6887497E-001	-2.6901501E-001	4.0456790E+003	1.476919983346306E+001
-6.591607746509776E-002	-2.7082202E-001	-2.7101502E-001	4.1085884E+003	1.496919982841064E+001
-6.536128384097030E-002	-2.7285054E-001	-2.7301502E-001	4.1744980E+003	1.516919982335821E+001
-6.484469959867156E-002	-2.7487653E-001	-2.7501500E-001	4.2389976E+003	1.536919981830579E+001
-6.437910169303884E-002	-2.7681211E-001	-2.7701500E-001	4.2997197E+003	1.556919981325336E+001
-6.384981455769218E-002	-2.7883366E-001	-2.7901503E-001	4.3670239E+003	1.576919980820094E+001
-6.337231568054524E-002	-2.8082290E-001	-2.8101501E-001	4.4313184E+003	1.596919980314851E+001
-6.298204440921290E-002	-2.8290659E-001	-2.8301504E-001	4.4918608E+003	1.616919979809609E+001
-6.258430204654120E-002	-2.8487721E-001	-2.8501502E-001	4.5518955E+003	1.636919979304366E+001
-6.214613226810461E-002	-2.8683487E-001	-2.8701499E-001	4.6154902E+003	1.656919978799124E+001
-6.169019224303796E-002	-2.8890458E-001	-2.8901500E-001	4.6831523E+003	1.676919978293881E+001
-6.129087064185013E-002	-2.9086709E-001	-2.9101500E-001	4.7456836E+003	1.696919977788639E+001
-6.094911312758334E-002	-2.9287460E-001	-2.9301500E-001	4.8052314E+003	1.716919977283396E+001
-6.055640934516660E-002	-2.9488596E-001	-2.9501501E-001	4.8696079E+003	1.736919976778154E+001
-6.021429162341557E-002	-2.9689667E-001	-2.9701501E-001	4.9306680E+003	1.756919976272911E+001
-5.982069448829797E-002	-2.9884773E-001	-2.9901502E-001	4.9957251E+003	1.776919975767669E+001
-5.953961694423027E-002	-3.0086184E-001	-3.0101502E-001	5.0531367E+003	1.796919975262426E+001
-5.918646477059353E-002	-3.0287445E-001	-3.0301502E-001	5.1172925E+003	1.816919974757184E+001
-5.885751124275024E-002	-3.0486289E-001	-3.0501500E-001	5.1796768E+003	1.836919974251941E+001
-5.859629634731878E-002	-3.0688420E-001	-3.0701500E-001	5.2372627E+003	1.856919973746699E+001
-5.819729926189199E-002	-3.0884480E-001	-3.0901501E-001	5.3068579E+003	1.876919973241456E+001
-5.803832218902039E-002	-3.1089586E-001	-3.1101501E-001	5.3567339E+003	1.896919972736214E+001
-5.766989923791865E-002	-3.1290185E-001	-3.1301501E-001	5.4257397E+003	1.916919972230971E+001
-5.738274890891448E-002	-3.1487563E-001	-3.1501502E-001	5.4872876E+003	1.936919971725729E+001
-5.709421029103201E-002	-3.1684348E-001	-3.1701502E-001	5.5494854E+003	1.956919971220486E+001
-5.684401061071201E-002	-3.1882066E-001	-3.1901503E-001	5.6086938E+003	1.976919970715244E+001
-5.661592380114122E-002	-3.2085896E-001	-3.2101503E-001	5.6672915E+003	1.996919970210001E+001
-5.636161785359450E-002	-3.2290486E-001	-3.2301500E-001	5.7291621E+003	2.016919969704759E+001
-5.603061151287425E-002	-3.2484090E-001	-3.2501504E-001	5.7975610E+003	2.036919969199516E+001
-5.592948414412735E-002	-3.2685882E-001	-3.2701498E-001	5.8441235E+003	2.056919968694274E+001
-5.565702341773604E-002	-3.2890770E-001	-3.2901502E-001	5.9095454E+003	2.076919968189031E+001
-5.539279404020275E-002	-3.3082500E-001	-3.3101502E-001	5.9723472E+003	2.096919967683789E+001
-5.519121078100653E-002	-3.3287013E-001	-3.3301502E-001	6.0312163E+003	2.116919967178546E+001
-5.500782754688238E-002	-3.3485854E-001	-3.3501503E-001	6.0874707E+003	2.136919966673304E+001
-5.481555899330637E-002	-3.3685881E-001	-3.3701503E-001	6.1453140E+003	2.156919966168061E+001
-5.455307525798014E-002	-3.3887401E-001	-3.3901501E-001	6.2118223E+003	2.176919965662819E+001
-5.442523753403572E-002	-3.4088749E-001	-3.4101501E-001	6.2634082E+003	2.196919965157576E+001
-5.419469807009736E-002	-3.4284937E-001	-3.4301504E-001	6.3262529E+003	2.216919964652334E+001
-5.403859694720659E-002	-3.4484780E-001	-3.4501502E-001	6.3815093E+003	2.236919964147091E+001
-5.378341553056953E-002	-3.4689388E-001	-3.4701499E-001	6.4498296E+003	2.256919963641849E+001
-5.370553795674837E-002	-3.4884351E-001	-3.4901503E-001	6.4954849E+003	2.276919963136606E+001
-5.348863436253376E-002	-3.5088855E-001	-3.5101500E-001	6.5600581E+003	2.296919962631364E+001
-5.330599336663155E-002	-3.5289761E-001	-3.5301504E-001	6.6202241E+003	2.316919962126121E+001
-5.318258147604338E-002	-3.5488853E-001	-3.5501501E-001	6.6730220E+003	2.336919961620879E+001
-5.305935118121435E-002	-3.5689351E-001	-3.5701501E-001	6.7263076E+003	2.356919961115636E+001
-5.294407156555835E-002	-3.5887918E-001	-3.5901505E-001	6.7784580E+003	2.376919960610394E+001
-5.271993905185479E-002	-3.6089733E-001	-3.6101502E-001	6.8455566E+003	2.396919960105151E+001
-5.267640697039122E-002	-3.6289468E-001	-3.6301506E-001	6.8891313E+003	2.416919959599909E+001
-5.251875705330711E-002	-3.6485061E-001	-3.6501503E-001	6.9470532E+003	2.436919959094666E+001
-5.240821325517919E-002	-3.6680743E-001	-3.6701506E-001	6.9990449E+003	2.456919958589424E+001
-5.217176257651682E-002	-3.6886355E-001	-3.6901501E-001	7.0701763E+003	2.476919958084181E+001
-5.213616838279594E-002	-3.7086320E-001	-3.7101501E-001	7.1133574E+003	2.496919957578939E+001
-5.194866799806475E-002	-3.7280771E-001	-3.7301505E-001	7.1764634E+003	2.516919957073696E+001
-5.196333423683475E-002	-3.7487319E-001	-3.7501502E-001	7.2141865E+003	2.536919956568454E+001
-5.174676188407168E-002	-3.7690127E-001	-3.7701502E-001	7.2835723E+003	2.556919956063211E+001
-5.166989978024833E-002	-3.7881818E-001	-3.7901503E-001	7.3315059E+003	2.576919955557969E+001
-5.171367720502307E-002	-3.8084713E-001	-3.8101503E-001	7.3645337E+003	2.596919955052726E+001
-5.149330708827571E-002	-3.8283321E-001	-3.8301501E-001	7.4346206E+003	2.616919954547484E+001
-5.148402283912157E-002	-3.8485092E-001	-3.8501504E-001	7.4751523E+003	2.636919954042241E+001
-5.142670153912635E-002	-3.8686162E-001	-3.8701501E-001	7.5225830E+003	2.656919953536999E+001
-5.135735063475727E-002	-3.8884306E-001	-3.8901502E-001	7.5713223E+003	2.676919953031756E+001
-5.122323253914268E-002	-3.9084652E-001	-3.9101502E-001	7.6302588E+003	2.696919952526514E+001
-5.112365773211613E-002	-3.9287060E-001	-3.9301503E-001	7.6847124E+003	2.716919952021271E+001
-5.106666268962440E-002	-3.9486390E-001	-3.9501503E-001	7.7323223E+003	2.736919951516029E+001
-5.113497559433122E-002	-3.9687693E-001	-3.9701506E-001	7.7613594E+003	2.756919951010786E+001
-5.098514855140279E-002	-3.9883822E-001	-3.9901501E-001	7.8226353E+003	2.776919950505544E+001
-5.095280943672797E-002	-4.0084389E-001	-4.0101504E-001	7.8669634E+003	2.796919950000301E+001
-5.093208898826074E-002	-4.0288061E-001	-4.0301505E-001	7.9101528E+003	2.816919949495059E+001
-5.087005161488112E-002	-4.0486443E-001	-4.0501508E-001	7.9587974E+003	2.836919948989816E+001
-5.085556631931049E-002	-4.0689078E-001	-4.0701503E-001	8.0009092E+003	2.856919948484574E+001
-5.079599504534343E-002	-4.0887946E-001	-4.0901506E-001	8.0494429E+003	2.876919947979331E+001
-5.074021364868386E-002	-4.1088590E-001	-4.1101503E-001	8.0978354E+003	2.896919947474089E+001
-5.074000347599957E-002	-4.1293544E-001	-4.1301501E-001	8.1382617E+003	2.916919946968846E+001
-5.071193497478044E-002	-4.1491878E-001	-4.1501504E-001	8.1818765E+003	2.936919946463604E+001
-5.076651930568260E-002	-4.1688594E-001	-4.1701505E-001	8.2118281E+003	2.956919945958362E+001
-5.069156845212164E-002	-4.1891047E-001	-4.1901505E-001	8.2639082E+003	2.976919945453119E+001
-5.064649244373387E-002	-4.2090291E-001	-4.2101505E-001	8.3106035E+003	2.996919944947877E+001
-5.055422660242126E-002	-4.2289287E-001	-4.2301506E-001	8.3651338E+003	3.016919944442634E+001
-5.059701255459315E-002	-4.2489758E-001	-4.2501506E-001	8.3976816E+003	3.036919943937392E+001
-5.061995134057462E-002	-4.2690617E-001	-4.2701504E-001	8.4335557E+003	3.056919943432149E+001
-5.062481766891863E-002	-4.2886382E-001	-4.2901501E-001	8.4714150E+003	3.076919942926907E+001
-5.055156961883811E-002	-4.3090528E-001	-4.3101504E-001	8.5240732E+003	3.096919942421664E+001
-5.055751500106420E-002	-4.3287969E-001	-4.3301508E-001	8.5621230E+003	3.116919941916422E+001
-5.056345719071131E-002	-4.3491691E-001	-4.3501505E-001	8.6014082E+003	3.136919941411179E+001
-5.054628668836592E-002	-4.3692279E-001	-4.3701503E-001	8.6440137E+003	3.156919940905937E+001
-5.054836123157513E-002	-4.3894321E-001	-4.3901506E-001	8.6836289E+003	3.176919940400694E+001
-5.054578363848961E-002	-4.4088325E-001	-4.4101501E-001	8.7224531E+003	3.196919939895452E+001
-5.053146399057096E-002	-4.4290560E-001	-4.4301504E-001	8.7649473E+003	3.216919939390209E+001
-5.055496093232074E-002	-4.4493270E-001	-4.4501507E-001	8.8009697E+003	3.236919938884967E+001
-5.052524119195317E-002	-4.4692659E-001	-4.4701508E-001	8.8456104E+003	3.256919938379724E+001
-5.055520930084600E-002	-4.4883546E-001	-4.4901502E-001	8.8781250E+003	3.276919937874482E+001
-5.056128037835794E-002	-4.5089352E-001	-4.5101506E-001	8.9177627E+003	3.296919937369239E+001
-5.055479864725021E-002	-4.5291695E-001	-4.5301509E-001	8.9589307E+003	3.316919936863997E+001
-5.059288865823292E-002	-4.5491743E-001	-4.5501503E-001	8.9917266E+003	3.336919936358754E+001
-5.055574745535335E-002	-4.5688406E-001	-4.5701504E-001	9.0372324E+003	3.356919935853512E+001
-5.051614898425905E-002	-4.5891827E-001	-4.5901507E-001	9.0845859E+003	3.376919935348269E+001
-5.055338378188934E-002	-4.6089604E-001	-4.6101502E-001	9.1170166E+003	3.396919934843027E+001
-5.053806353081647E-002	-4.6286500E-001	-4.6301505E-001	9.1587402E+003	3.416919934337784E+001
-5.064763446748172E-002	-4.6489418E-001	-4.6501508E-001	9.1789912E+003	3.436919933832542E+001
-5.056979615439816E-002	-4.6695262E-001	-4.6701506E-001	9.2338242E+003	3.456919933327299E+001
-5.065050140200644E-002	-4.6892494E-001	-4.6901503E-001	9.2580518E+003	3.476919932822057E+001
-5.059185781824482E-002	-4.7084498E-001	-4.7101504E-001	9.3067344E+003	3.496919932316814E+001
-5.054363563114045E-002	-4.7289240E-001	-4.7301510E-001	9.3561221E+003	3.516919931811572E+001
-5.064577933996411E-002	-4.7491580E-001	-4.7501504E-001	9.3772041E+003	3.536919931306329E+001
-5.061476144943899E-002	-4.7689176E-001	-4.7701505E-001	9.4219893E+003	3.556919930801087E+001
-5.064651122646147E-002	-4.7883415E-001	-4.7901505E-001	9.4544355E+003	3.576919930295844E+001
-5.061388453426452E-002	-4.8084527E-001	-4.8101506E-001	9.5002637E+003	3.596919929790602E+001
-5.059860044268794E-002	-4.8289672E-001	-4.8301500E-001	9.5436777E+003	3.616919929285359E+001
-5.061145316727045E-002	-4.8485285E-001	-4.8501503E-001	9.5799033E+003	3.636919928780117E+001
-5.065188386008712E-002	-4.8689032E-001	-4.8701507E-001	9.6124814E+003	3.656919928274874E+001
-5.065568020121702E-002	-4.8890039E-001	-4.8901504E-001	9.6514424E+003	3.676919927769632E+001
-5.055373652612172E-002	-4.9087307E-001	-4.9101502E-001	9.7099268E+003	3.696919927264389E+001
-5.055043087742131E-002	-4.9283519E-001	-4.9301505E-001	9.7493770E+003	3.716919926759147E+001
-5.060028796065197E-002	-4.9489173E-001	-4.9501505E-001	9.7804131E+003	3.736919926253904E+001
-5.053060108588806E-002	-4.9692985E-001	-4.9701503E-001	9.8342363E+003	3.756919925748662E+001
-5.049766788349930E-002	-4.9889809E-001	-4.9901506E-001	9.8796260E+003	3.776919925243419E+001
-5.053197911754687E-002	-5.0090861E-001	-5.0101507E-001	9.9127051E+003	3.796919924738177E+001
-5.047125090652782E-002	-5.0289911E-001	-5.0301504E-001	9.9640703E+003	3.816919924232934E+001
-5.054020405115545E-002	-5.0489670E-001	-5.0501508E-001	9.9900010E+003	3.836919923727692E+001
-5.048740014925934E-002	-5.0691080E-001	-5.0701505E-001	1.0040343E+004	3.856919923222449E+001
-5.053336983504386E-002	-5.0888288E-001	-5.0901508E-001	1.0070234E+004	3.876919922717207E+001
-5.050374716446404E-002	-5.1088166E-001	-5.1101506E-001	1.0115718E+004	3.896919922211964E+001
-5.048514663689496E-002	-5.1292801E-001	-5.1301509E-001	1.0159979E+004	3.916919921706722E+001
-5.045677260168357E-002	-5.1493025E-001	-5.1501513E-001	1.0205374E+004	3.936919921201479E+001
-5.039129269947162E-002	-5.1686311E-001	-5.1701498E-001	1.0256992E+004	3.956919920696237E+001
-5.039535658571337E-002	-5.1889455E-001	-5.1901501E-001	1.0296476E+004	3.976919920190994E+001
-5.032739628427363E-002	-5.2089787E-001	-5.2101505E-001	1.0350186E+004	3.996919919685752E+001
-5.028823951772410E-002	-5.2288693E-001	-5.2301502E-001	1.0397798E+004	4.016919919180509E+001
-5.020097846560201E-002	-5.2488452E-001	-5.2501506E-001	1.0455663E+004	4.036919918675267E+001
-5.013356014427287E-002	-5.2688271E-001	-5.2701503E-001	1.0509581E+004	4.056919918170024E+001
-5.015331840400256E-002	-5.2889830E-001	-5.2901512E-001	1.0545629E+004	4.076919917664782E+001
-5.007421723915395E-002	-5.3087837E-001	-5.3101504E-001	1.0601830E+004	4.096919917159539E+001
-5.008611334656721E-002	-5.3290439E-001	-5.3301507E-001	1.0639764E+004	4.116919916654297E+001
-4.999605958696347E-002	-5.3488743E-001	-5.3501511E-001	1.0698592E+004	4.136919916149054E+001
-4.990689675038573E-002	-5.3687876E-001	-5.3701502E-001	1.0757606E+004	4.156919915643812E+001
-4.995287304887730E-002	-5.3884691E-001	-5.3901505E-001	1.0787105E+004	4.176919915138569E+001
-4.982925740824551E-002	-5.4089302E-001	-5.4101509E-001	1.0854929E+004	4.196919914633327E+001
-4.979229123487894E-002	-5.4289639E-001	-5.4301506E-001	1.0903222E+004	4.216919914128084E+001
-4.965389030246370E-002	-5.4489261E-001	-5.4501504E-001	1.0973815E+004	4.236919913622842E+001
-4.967914744863133E-002	-5.4691225E-001	-5.4701507E-001	1.1008890E+004	4.256919913117599E+001
-4.954837630513441E-002	-5.4891086E-001	-5.4901510E-001	1.1078281E+004	4.276919912612357E+001
-4.951973868293225E-002	-5.5089182E-001	-5.5101502E-001	1.1124691E+004	4.296919912107114E+001
-4.941246176535530E-002	-5.5286735E-001	-5.5301499E-001	1.1188824E+004	4.316919911601872E+001
-4.926992788839035E-002	-5.5491096E-001	-5.5501509E-001	1.1262670E+004	4.336919911096629E+001
-4.934802033110619E-002	-5.5690765E-001	-5.5701500E-001	1.1285309E+004	4.356919910591387E+001
-4.923792414223604E-002	-5.5893105E-001	-5.5901504E-001	1.1351638E+004	4.376919910086144E+001
-4.915804252801381E-002	-5.6090784E-001	-5.6101507E-001	1.1410297E+004	4.396919909580902E+001
-4.902409918262074E-002	-5.6293023E-001	-5.6301510E-001	1.1482725E+004	4.416919909075659E+001
-4.899826098540705E-002	-5.6492966E-001	-5.6501502E-001	1.1529586E+004	4.436919908570417E+001
-4.891398046857343E-002	-5.6688964E-001	-5.6701505E-001	1.1589521E+004	4.456919908065174E+001
-4.882622944204834E-002	-5.6893849E-001	-5.6901509E-001	1.1652313E+004	4.476919907559932E+001
-4.869283711677105E-002	-5.7090831E-001	-5.7101506E-001	1.1724688E+004	4.496919907054689E+001
-4.866083319797315E-002	-5.7290518E-001	-5.7301503E-001	1.1773436E+004	4.516919906549447E+001
-4.859872776597873E-002	-5.7493842E-001	-5.7501507E-001	1.1830318E+004	4.536919906044204E+001
-4.856018331736017E-002	-5.7689565E-001	-5.7701510E-001	1.1880014E+004	4.556919905538962E+001
-4.842664079071191E-002	-5.7890213E-001	-5.7901508E-001	1.1954208E+004	4.576919905033719E+001
-4.837986473796589E-002	-5.8086634E-001	-5.8101505E-001	1.2006365E+004	4.596919904528477E+001
-4.822191748242255E-002	-5.8290589E-001	-5.8301508E-001	1.2087986E+004	4.616919904023234E+001
-4.815692708868746E-002	-5.8492571E-001	-5.8501506E-001	1.2146242E+004	4.636919903517992E+001
-4.803623227759457E-002	-5.8688551E-001	-5.8701503E-001	1.2217560E+004	4.656919903012749E+001
-4.797856327063921E-002	-5.8887154E-001	-5.8901507E-001	1.2273639E+004	4.676919902507507E+001
-4.793048351886958E-002	-5.9090817E-001	-5.9101504E-001	1.2328441E+004	4.696919902002264E+001
-4.782449312285297E-002	-5.9292614E-001	-5.9301502E-001	1.2397960E+004	4.716919901497022E+001
-4.773015611147180E-002	-5.9487545E-001	-5.9501505E-001	1.2463304E+004	4.736919900991779E+001
-4.764623423751069E-002	-5.9691119E-001	-5.9701508E-001	1.2527982E+004	4.756919900486537E+001
-4.755874842330354E-002	-5.9887522E-001	-5.9901500E-001	1.2592325E+004	4.776919899981294E+001
-4.744170092879374E-002	-6.0093158E-001	-6.0101503E-001	1.2666737E+004	4.796919899476052E+001
-4.742276902514386E-002	-6.0290402E-001	-6.0301507E-001	1.2713387E+004	4.816919898970809E+001
-4.731567576897146E-002	-6.0488677E-001	-6.0501504E-001	1.2784067E+004	4.836919898465567E+001
-4.720533473940891E-002	-6.0689706E-001	-6.0701501E-001	1.2856535E+004	4.856919897960324E+001
-4.716499434422938E-002	-6.0888582E-001	-6.0901505E-001	1.2909698E+004	4.876919897455082E+001
-4.706496479546207E-002	-6.1088538E-001	-6.1101508E-001	1.2979620E+004	4.896919896949839E+001
-4.698691486519332E-002	-6.1293381E-001	-6.1301506E-001	1.3044776E+004	4.916919896444597E+001
-4.690545151414582E-002	-6.1490589E-001	-6.1501509E-001	1.3109476E+004	4.936919895939354E+001
-4.682866043106043E-002	-6.1690348E-001	-6.1701506E-001	1.3173631E+004	4.956919895434112E+001
-4.673481654600692E-002	-6.1890322E-001	-6.1901510E-001	1.3242873E+004	4.976919894928869E+001
-4.670731020909732E-002	-6.2092906E-001	-6.2101501E-001	1.3294045E+004	4.996919894423627E+001
-4.660680048434862E-002	-6.2289351E-001	-6.2301505E-001	1.3364863E+004	5.016919893918384E+001
-4.655061670697290E-002	-6.2486160E-001	-6.2501514E-001	1.3423272E+004	5.036919893413142E+001
-4.647848507481289E-002	-6.2689453E-001	-6.2701499E-001	1.3487844E+004	5.056919892907899E+001
-4.643354821414847E-002	-6.2891906E-001	-6.2901509E-001	1.3544497E+004	5.076919892402657E+001
-4.634891842125521E-002	-6.3089478E-001	-6.3101512E-001	1.3611855E+004	5.096919891897414E+001
-4.624284275378732E-002	-6.3292521E-001	-6.3301510E-001	1.3686987E+004	5.116919891392172E+001
-4.622927081481865E-002	-6.3491577E-001	-6.3501501E-001	1.3734064E+004	5.136919890886929E+001
-4.613197396103885E-002	-6.3690460E-001	-6.3701504E-001	1.3806143E+004	5.156919890381687E+001
-4.605703389107357E-002	-6.3891250E-001	-6.3901514E-001	1.3872202E+004	5.176919889876444E+001
-4.596544916677137E-002	-6.4093786E-001	-6.4101505E-001	1.3943905E+004	5.196919889371202E+001
-4.597266866374661E-002	-6.4290744E-001	-6.4301503E-001	1.3984558E+004	5.216919888865959E+001
-4.596014545708838E-002	-6.4491725E-001	-6.4501512E-001	1.4032098E+004	5.236919888360717E+001
-4.581765285872608E-002	-6.4695686E-001	-6.4701504E-001	1.4120253E+004	5.256919887855474E+001
-4.573829158113191E-002	-6.4897579E-001	-6.4901507E-001	1.4188895E+004	5.276919887350232E+001
-4.570388172245266E-002	-6.5095741E-001	-6.5101504E-001	1.4242935E+004	5.296919886844989E+001
-4.561977021426783E-002	-6.5291256E-001	-6.5301508E-001	1.4312053E+004	5.316919886339747E+001
-4.561160661120689E-002	-6.5491480E-001	-6.5501505E-001	1.4358512E+004	5.336919885834504E+001
-4.546558383805765E-002	-6.5693009E-001	-6.5701503E-001	1.4448953E+004	5.356919885329262E+001
-4.545256679549248E-002	-6.5891492E-001	-6.5901512E-001	1.4496760E+004	5.376919884824019E+001
-4.542718221493658E-002	-6.6092139E-001	-6.6101503E-001	1.4549029E+004	5.396919884318777E+001
-4.534717874660610E-002	-6.6292357E-001	-6.6301501E-001	1.4618850E+004	5.416919883813534E+001
-4.530843575099641E-002	-6.6490972E-001	-6.6501510E-001	1.4675186E+004	5.436919883308292E+001
-4.525097322918503E-002	-6.6686827E-001	-6.6701502E-001	1.4737104E+004	5.456919882803049E+001
-4.517832788313533E-002	-6.6894221E-001	-6.6901505E-001	1.4806706E+004	5.476919882297807E+001
-4.519614737951827E-002	-6.7084908E-001	-6.7101502E-001	1.4843059E+004	5.496919881792564E+001
-4.511573345742514E-002	-6.7292601E-001	-6.7301512E-001	1.4915551E+004	5.516919881287322E+001
-4.504791727736218E-002	-6.7495751E-001	-6.7501503E-001	1.4983102E+004	5.536919880782079E+001
-4.500228259791661E-002	-6.7689079E-001	-6.7701501E-001	1.5041255E+004	5.556919880276837E+001
-4.494652274046773E-002	-6.7888492E-001	-6.7901510E-001	1.5104281E+004	5.576919879771594E+001
-4.496752029119055E-002	-6.8097156E-001	-6.8101501E-001	1.5143632E+004	5.596919879266352E+001
-4.490014730504988E-002	-6.8292767E-001	-6.8301505E-001	1.5209921E+004	5.616919878761109E+001
-4.481886168060134E-002	-6.8490911E-001	-6.8501502E-001	1.5281716E+004	5.636919878255867E+001
-4.482819111289177E-002	-6.8690354E-001	-6.8701506E-001	1.5323026E+004	5.656919877750624E+001
-4.480689971722529E-002	-6.8889207E-001	-6.8901509E-001	1.5374688E+004	5.676919877245382E+001
-4.468164801235397E-002	-6.9094217E-001	-6.9101506E-001	1.5463668E+004	5.696919876740139E+001
-4.466896071183224E-002	-6.9284844E-001	-6.9301510E-001	1.5510735E+004	5.716919876234897E+001
-4.461860063231338E-002	-6.9488037E-001	-6.9501507E-001	1.5573782E+004	5.736919875729654E+001
-4.463303420041173E-002	-6.9695073E-001	-6.9701505E-001	1.5615132E+004	5.756919875224412E+001
-4.453150899721800E-002	-6.9894391E-001	-6.9901508E-001	1.5695491E+004	5.776919874719169E+001
-4.458695885676744E-002	-7.0090127E-001	-7.0101511E-001	1.5719872E+004	5.796919874213927E+001
-4.450323597249262E-002	-7.0290393E-001	-7.0301509E-001	1.5794445E+004	5.816919873708684E+001
-4.447596531589412E-002	-7.0493561E-001	-7.0501506E-001	1.5849811E+004	5.836919873203442E+001
-4.447463023937726E-002	-7.0696557E-001	-7.0701516E-001	1.5895929E+004	5.856919872698199E+001
-4.444228987290810E-002	-7.0891541E-001	-7.0901513E-001	1.5951370E+004	5.876919872192957E+001
-4.436479463683377E-002	-7.1090996E-001	-7.1101499E-001	1.6024191E+004	5.896919871687714E+001
-4.433564252807187E-002	-7.1292210E-001	-7.1301508E-001	1.6080112E+004	5.916919871182472E+001
-4.445241839184627E-002	-7.1491289E-001	-7.1501505E-001	1.6082654E+004	5.936919870677229E+001
-4.428580481571720E-002	-7.1689194E-001	-7.1701503E-001	1.6187850E+004	5.956919870171987E+001
-4.429148429610857E-002	-7.1893793E-001	-7.1901512E-001	1.6231968E+004	5.976919869666744E+001
-4.424034344700811E-002	-7.2091955E-001	-7.2101510E-001	1.6295523E+004	5.996919869161502E+001
-4.420429556957906E-002	-7.2292751E-001	-7.2301507E-001	1.6354236E+004	6.016919868656260E+001
-4.424218745488234E-002	-7.2493756E-001	-7.2501504E-001	1.6385662E+004	6.036919868151017E+001
-4.421509929447986E-002	-7.2693002E-001	-7.2701514E-001	1.6440764E+004	6.056919867645775E+001
-4.416869077599206E-002	-7.2894353E-001	-7.2901511E-001	1.6503625E+004	6.076919867140532E+001
-4.416673001622073E-002	-7.3093450E-001	-7.3101503E-001	1.6549438E+004	6.096919866635290E+001
-4.416036775257526E-002	-7.3294604E-001	-7.3301506E-001	1.6597371E+004	6.116919866130047E+001
-4.405276422707038E-002	-7.3511732E-001	-7.3521507E-001	1.6687201E+004	6.138919865574280E+001
-4.315549848113379E-002	-7.3734277E-001	-7.3741508E-001	1.7085721E+004	6.160919865018514E+001
-4.310763369698745E-002	-7.3929775E-001	-7.3941511E-001	1.7150043E+004	6.180919864513271E+001
-4.300506496902301E-002	-7.4133116E-001	-7.4141502E-001	1.7238229E+004	6.200919864008029E+001
-4.300006802506356E-002	-7.4331039E-001	-7.4341512E-001	1.7286262E+004	6.220919863502786E+001
-4.288269954420985E-002	-7.4530929E-001	-7.4541509E-001	1.7380186E+004	6.240919862997544E+001
-4.272580189079198E-002	-7.4736476E-001	-7.4741518E-001	1.7492117E+004	6.260919862492301E+001
-4.261626394717949E-002	-7.4929899E-001	-7.4941504E-001	1.7582465E+004	6.280919861987059E+001
-4.251205856920287E-002	-7.5130773E-001	-7.5141501E-001	1.7672814E+004	6.300919861481816E+001
-4.262376974533186E-002	-7.5331724E-001	-7.5341511E-001	1.7673643E+004	6.320919860976574E+001
-4.254029224264544E-002	-7.5540519E-001	-7.5541508E-001	1.7757404E+004	6.340919860471331E+001
-4.223168214261441E-002	-7.5731957E-001	-7.5741506E-001	1.7932498E+004	6.360919859966089E+001
-4.245547931868363E-002	-7.5931150E-001	-7.5941509E-001	1.7884889E+004	6.380919859460846E+001
-4.225428395375565E-002	-7.6135004E-001	-7.6141512E-001	1.8018293E+004	6.400919858955604E+001
-4.222695861442555E-002	-7.6333761E-001	-7.6341504E-001	1.8077021E+004	6.420919858450361E+001
-4.203547185309046E-002	-7.6540589E-001	-7.6541501E-001	1.8208572E+004	6.440919857945119E+001
-4.206641797238195E-002	-7.6731598E-001	-7.6741517E-001	1.8240582E+004	6.460919857439876E+001
-4.197608016704824E-002	-7.6934713E-001	-7.6941508E-001	1.8328227E+004	6.480919856934634E+001
-4.192631992974988E-002	-7.7136523E-001	-7.7141505E-001	1.8398115E+004	6.500919856429391E+001
-4.195103398154643E-002	-7.7335411E-001	-7.7341515E-001	1.8434686E+004	6.520919855924149E+001
-4.171453527060864E-002	-7.7536434E-001	-7.7541512E-001	1.8587391E+004	6.540919855418906E+001
-4.155179522847108E-002	-7.7726626E-001	-7.7741498E-001	1.8705961E+004	6.560919854913664E+001
-4.146509532195830E-002	-7.7933717E-001	-7.7941507E-001	1.8795018E+004	6.580919854408421E+001
-4.157283401978362E-002	-7.8133386E-001	-7.8141505E-001	1.8794338E+004	6.600919853903179E+001
-4.146696520544779E-002	-7.8321004E-001	-7.8341520E-001	1.8887566E+004	6.620919853397936E+001
-4.141653080464514E-002	-7.8523850E-001	-7.8541505E-001	1.8959543E+004	6.640919852892694E+001
-4.127094924688568E-002	-7.8729647E-001	-7.8741515E-001	1.9076287E+004	6.660919852387451E+001
-4.120494434404090E-002	-7.8932548E-001	-7.8941518E-001	1.9156086E+004	6.680919851882209E+001
-4.121586240436287E-002	-7.9130584E-001	-7.9141504E-001	1.9199061E+004	6.700919851376966E+001
-4.119610402267422E-002	-7.9332018E-001	-7.9341513E-001	1.9257166E+004	6.720919850871724E+001
-4.103401718294769E-002	-7.9531395E-001	-7.9541522E-001	1.9381820E+004	6.740919850366481E+001
-4.101771181723829E-002	-7.9733717E-001	-7.9741508E-001	1.9438852E+004	6.760919849861239E+001
-4.092665365527554E-002	-7.9932791E-001	-7.9941505E-001	1.9530742E+004	6.780919849355996E+001
-4.083476627595037E-002	-8.0134773E-001	-8.0141515E-001	1.9624154E+004	6.800919848850754E+001
-4.078138568977108E-002	-8.0333298E-001	-8.0341512E-001	1.9698521E+004	6.820919848345511E+001
-4.075947881474573E-002	-8.0530661E-001	-8.0541509E-001	1.9757529E+004	6.840919847840269E+001
-4.062921809699893E-002	-8.0734277E-001	-8.0741513E-001	1.9870990E+004	6.860919847335026E+001
-4.051073969082036E-002	-8.0930930E-001	-8.0941516E-001	1.9977648E+004	6.880919846829784E+001
-4.064369257465589E-002	-8.1132084E-001	-8.1141508E-001	1.9961789E+004	6.900919846324541E+001
-4.050393452046364E-002	-8.1325948E-001	-8.1341505E-001	2.0078531E+004	6.920919845819299E+001
-4.051172283853988E-002	-8.1533325E-001	-8.1541514E-001	2.0125859E+004	6.940919845314056E+001
-4.333784869216678E-002	-8.1741649E-001	-8.1751513E-001	1.8861492E+004	6.961919844783552E+001
-4.649310398930284E-002	-8.1954086E-001	-8.1961507E-001	1.7627148E+004	6.982919844253047E+001
-4.660455494339824E-002	-8.2150763E-001	-8.2161516E-001	1.7627195E+004	7.002919843747804E+001
-4.691970106499399E-002	-8.2353193E-001	-8.2361513E-001	1.7551943E+004	7.022919843242562E+001
-4.706742435924982E-002	-8.2552588E-001	-8.2561511E-001	1.7539219E+004	7.042919842737319E+001
-4.725184812487171E-002	-8.2749432E-001	-8.2761514E-001	1.7512422E+004	7.062919842232077E+001
-4.758466879547907E-002	-8.2952327E-001	-8.2961512E-001	1.7432574E+004	7.082919841726834E+001
-4.771196247709919E-002	-8.3147138E-001	-8.3161509E-001	1.7426895E+004	7.102919841221592E+001
-4.775830258719860E-002	-8.3349973E-001	-8.3361506E-001	1.7452457E+004	7.122919840716349E+001
-4.814924394855458E-002	-8.3552659E-001	-8.3561516E-001	1.7352850E+004	7.142919840211107E+001
-4.821841529931636E-002	-8.3752912E-001	-8.3761513E-001	1.7369486E+004	7.162919839705864E+001
-4.852792813654916E-002	-8.3950967E-001	-8.3961511E-001	1.7299516E+004	7.182919839200622E+001
-4.880021666092138E-002	-8.4150457E-001	-8.4161520E-001	1.7243869E+004	7.202919838695379E+001
-4.921603739491820E-002	-8.4351021E-001	-8.4361517E-001	1.7138930E+004	7.222919838190137E+001
-4.952056714821433E-002	-8.4550172E-001	-8.4561503E-001	1.7073748E+004	7.242919837684894E+001
-5.001179853616843E-002	-8.4750652E-001	-8.4761512E-001	1.6946131E+004	7.262919837179652E+001
-5.044391517930746E-002	-8.4952295E-001	-8.4961522E-001	1.6840939E+004	7.282919836674409E+001
-5.092954569730640E-002	-8.5152990E-001	-8.5161507E-001	1.6719762E+004	7.302919836169167E+001
-5.143764383706551E-002	-8.5349321E-001	-8.5361511E-001	1.6592773E+004	7.322919835663924E+001
-5.207938997786665E-002	-8.5547805E-001	-8.5561514E-001	1.6426422E+004	7.342919835158682E+001
-5.308169904513410E-002	-8.5749686E-001	-8.5761511E-001	1.6154284E+004	7.362919834653439E+001
-5.407768890447495E-002	-8.5950434E-001	-8.5961509E-001	1.5893881E+004	7.382919834148197E+001
-5.539869358013405E-002	-8.6156917E-001	-8.6161512E-001	1.5552157E+004	7.402919833642954E+001
-5.675006061982446E-002	-8.6349142E-001	-8.6361516E-001	1.5215691E+004	7.422919833137712E+001
-5.855760479381833E-002	-8.6554021E-001	-8.6561507E-001	1.4781004E+004	7.442919832632469E+001
-6.066414501196982E-002	-8.6749542E-001	-8.6761504E-001	1.4299970E+004	7.462919832127227E+001
-6.296195839943530E-002	-8.6952108E-001	-8.6961520E-001	1.3810261E+004	7.482919831621984E+001
-6.607022261998829E-002	-8.7152976E-001	-8.7161511E-001	1.3190962E+004	7.502919831116742E+001
-6.911894519678186E-002	-8.7349015E-001	-8.7361509E-001	1.2637492E+004	7.522919830611499E+001
-7.278384157253737E-002	-8.7550312E-001	-8.7561518E-001	1.2028812E+004	7.542919830106257E+001
-7.693746781542654E-002	-8.7748945E-001	-8.7761515E-001	1.1405229E+004	7.562919829601015E+001
-8.144832487310988E-002	-8.7949270E-001	-8.7961501E-001	1.0798168E+004	7.582919829095772E+001
-8.627380515647265E-002	-8.8150990E-001	-8.8161510E-001	1.0217585E+004	7.602919828590530E+001
-9.139832796248060E-002	-8.8351798E-001	-8.8361520E-001	9.6666758E+003	7.622919828085287E+001
-9.674516805530065E-002	-8.8552117E-001	-8.8561505E-001	9.1531309E+003	7.642919827580045E+001
-1.021583228289677E-001	-8.8752282E-001	-8.8761514E-001	8.6877188E+003	7.662919827074802E+001
-1.077894107290794E-001	-8.8943225E-001	-8.8961512E-001	8.2515732E+003	7.682919826569560E+001
-1.135157814297969E-001	-8.9156163E-001	-8.9161509E-001	7.8540767E+003	7.702919826064317E+001
-1.186790262146213E-001	-8.9353663E-001	-8.9361507E-001	7.5290190E+003	7.722919825559075E+001
-1.241886556716620E-001	-8.9544618E-001	-8.9561516E-001	7.2103701E+003	7.742919825053832E+001
-1.291740864563882E-001	-8.9752609E-001	-8.9761525E-001	6.9481899E+003	7.762919824548590E+001
-1.341154823996242E-001	-8.9954722E-001	-8.9961511E-001	6.7072588E+003	7.782919824043347E+001
-1.389207247974109E-001	-9.0150172E-001	-9.0161508E-001	6.4893247E+003	7.802919823538105E+001
-1.441334531908587E-001	-9.0350258E-001	-9.0361518E-001	6.2685142E+003	7.822919823032862E+001
-1.503193851427309E-001	-9.0546858E-001	-9.0561509E-001	6.0236313E+003	7.842919822527620E+001
-1.571844472769484E-001	-9.0751636E-001	-9.0761513E-001	5.7735762E+003	7.862919822022377E+001
-1.657836931607686E-001	-9.0948498E-001	-9.0961516E-001	5.4859736E+003	7.882919821517135E+001
-1.767492272591222E-001	-9.1149813E-001	-9.1161519E-001	5.1570132E+003	7.902919821011892E+001
-1.901828909837671E-001	-9.1344076E-001	-9.1361511E-001	4.8029595E+003	7.922919820506650E+001
-2.066080768100607E-001	-9.1551059E-001	-9.1561508E-001	4.4311460E+003	7.942919820001407E+001
-2.270993385907443E-001	-9.1752309E-001	-9.1761518E-001	4.0401838E+003	7.962919819496165E+001
-2.512440040640000E-001	-9.1950923E-001	-9.1961515E-001	3.6598257E+003	7.982919818990922E+001
-2.795465800155146E-001	-9.2150038E-001	-9.2161506E-001	3.2964109E+003	8.002919818485680E+001
-3.186646732343297E-001	-9.2346674E-001	-9.2361522E-001	2.8979263E+003	8.022919817980437E+001
-3.595521486091890E-001	-9.2551929E-001	-9.2561507E-001	2.5740891E+003	8.042919817475195E+001
-4.023427467734084E-001	-9.2748851E-001	-9.2761517E-001	2.3052200E+003	8.062919816969952E+001
-4.532242577286461E-001	-9.2949992E-001	-9.2961514E-001	2.0508608E+003	8.082919816464710E+001
-5.108988200886646E-001	-9.3157429E-001	-9.3161511E-001	1.8234027E+003	8.102919815959467E+001
-5.768371664257952E-001	-9.3355167E-001	-9.3361521E-001	1.6183972E+003	8.122919815454225E+001
-6.506775476570619E-001	-9.3552041E-001	-9.3561512E-001	1.4377634E+003	8.142919814948982E+001
-7.546966368345167E-001	-9.3751997E-001	-9.3761516E-001	1.2422474E+003	8.162919814443740E+001
-8.429993173263775E-001	-9.3952334E-001	-9.3961513E-001	1.1145007E+003	8.182919813938497E+001
-9.463227839798334E-001	-9.4157904E-001	-9.4161510E-001	9.9498718E+002	8.202919813433255E+001
-1.084577918779070E+000	-9.4366866E-001	-9.4371516E-001	8.7007916E+002	8.223919812902750E+001
-1.222995431895225E+000	-9.4574368E-001	-9.4581509E-001	7.7330109E+002	8.244919812372245E+001
-1.363432509212203E+000	-9.4768059E-001	-9.4781518E-001	6.9506970E+002	8.264919811867003E+001
-1.553118156670436E+000	-9.4969791E-001	-9.4981515E-001	6.1147821E+002	8.284919811361760E+001
-1.721541406193963E+000	-9.5170701E-001	-9.5181513E-001	5.5282263E+002	8.304919810856518E+001
-1.939241722428871E+000	-9.5371580E-001	-9.5381510E-001	4.9179831E+002	8.324919810351275E+001
-2.138018684508175E+000	-9.5571840E-001	-9.5581514E-001	4.4701126E+002	8.344919809846033E+001
-2.396602310493684E+000	-9.5773405E-001	-9.5781517E-001	3.9962161E+002	8.364919809340790E+001
-2.647538141024352E+000	-9.5974058E-001	-9.5981514E-001	3.6250302E+002	8.384919808835548E+001
-2.913244514272062E+000	-9.6169442E-001	-9.6181512E-001	3.3011111E+002	8.404919808330305E+001
-3.218064211342750E+000	-9.6372682E-001	-9.6381515E-001	2.9947409E+002	8.424919807825063E+001
-3.540667440987235E+000	-9.6574789E-001	-9.6581519E-001	2.7275870E+002	8.444919807319820E+001
-3.870280640296940E+000	-9.6771419E-001	-9.6781510E-001	2.5003722E+002	8.464919806814578E+001
-4.222096357080666E+000	-9.6974772E-001	-9.6981508E-001	2.2968394E+002	8.484919806309335E+001
-4.596660012696063E+000	-9.7173798E-001	-9.7181517E-001	2.1140088E+002	8.504919805804093E+001
-4.983533795627345E+000	-9.7371602E-001	-9.7381514E-001	1.9538666E+002	8.524919805298850E+001
-5.394455406637425E+000	-9.7570652E-001	-9.7581506E-001	1.8087210E+002	8.544919804793608E+001
-5.814031305969991E+000	-9.7769433E-001	-9.7781521E-001	1.6816118E+002	8.564919804288365E+001
-6.266958546881753E+000	-9.7972602E-001	-9.7981507E-001	1.5633197E+002	8.584919803783123E+001
-6.726131041912261E+000	-9.8169291E-001	-9.8181516E-001	1.4595209E+002	8.604919803277880E+001
-7.204365848278520E+000	-9.8372161E-001	-9.8381513E-001	1.3654521E+002	8.624919802772638E+001
-7.700791500120189E+000	-9.8572326E-001	-9.8581523E-001	1.2800285E+002	8.644919802267395E+001
-8.216443343159852E+000	-9.8771036E-001	-9.8781520E-001	1.2021143E+002	8.664919801762153E+001
-8.746202575308914E+000	-9.8973382E-001	-9.8981512E-001	1.1316154E+002	8.684919801256910E+001
-9.288950253708833E+000	-9.9171233E-001	-9.9181515E-001	1.0676258E+002	8.704919800751668E+001
-9.852449097871244E+000	-9.9374807E-001	-9.9381512E-001	1.0086305E+002	8.724919800246425E+001
-1.042367176829819E+001	-9.9574417E-001	-9.9581504E-001	9.5527199E+001	8.744919799741183E+001
-1.106670649075993E+001	-9.9784946E-001	-9.9791509E-001	9.0166794E+001	8.765919799210678E+001
-1.170303112238952E+001	-9.9994802E-001	-1.0000161E+000	8.5443504E+001	8.786929798679921E+001
-1.231899364226130E+001	-1.0019289E+000	-1.0020180E+000	8.1332047E+001	8.806949798174173E+001
-1.296047542573649E+001	-1.0039421E+000	-1.0040190E+000	7.7461830E+001	8.826959797668678E+001
-1.363271620809826E+001	-1.0058904E+000	-1.0060199E+000	7.3785027E+001	8.846969797163183E+001
-1.429821059790328E+001	-1.0079237E+000	-1.0080211E+000	7.0492996E+001	8.866979796657688E+001
-1.496959854064336E+001	-1.0099536E+000	-1.0100211E+000	6.7466980E+001	8.886979796152445E+001
-1.567065315492569E+001	-1.0119272E+000	-1.0120212E+000	6.4574669E+001	8.906979795647203E+001
-1.638307982896333E+001	-1.0139148E+000	-1.0140226E+000	6.1887924E+001	8.926999795141455E+001
-1.711355915573768E+001	-1.0159730E+000	-1.0160259E+000	5.9366550E+001	8.947029794635455E+001
-1.787125379860811E+001	-1.0179324E+000	-1.0180271E+000	5.6959206E+001	8.967039794129960E+001
-1.862648019701449E+001	-1.0199498E+000	-1.0200272E+000	5.4758053E+001	8.987039793624717E+001
-1.939103571965859E+001	-1.0219454E+000	-1.0220271E+000	5.2701946E+001	9.007039793119475E+001
-2.016564115577813E+001	-1.0239842E+000	-1.0240271E+000	5.0778656E+001	9.027039792614232E+001
-2.096164187166971E+001	-1.0259587E+000	-1.0260305E+000	4.8944576E+001	9.047079792107979E+001
-2.178687452279627E+001	-1.0279434E+000	-1.0280339E+000	4.7181774E+001	9.067109791601979E+001
-2.260836324656634E+001	-1.0299602E+000	-1.0300351E+000	4.5556599E+001	9.087119791096484E+001
-2.344756068394025E+001	-1.0319388E+000	-1.0320352E+000	4.4010498E+001	9.107119790591241E+001
-2.430486554596689E+001	-1.0339365E+000	-1.0340351E+000	4.2540310E+001	9.127119790085999E+001
-2.516736290933306E+001	-1.0359528E+000	-1.0360352E+000	4.1162548E+001	9.147119789580756E+001
-2.605562026818433E+001	-1.0379647E+000	-1.0380359E+000	3.9836498E+001	9.167129789075261E+001
-2.695555783967041E+001	-1.0399798E+000	-1.0400372E+000	3.8581276E+001	9.187139788569766E+001
-2.787220400666436E+001	-1.0420141E+000	-1.0420371E+000	3.7385422E+001	9.207139788064524E+001
-2.880701661299150E+001	-1.0439513E+000	-1.0440371E+000	3.6239479E+001	9.227139787559281E+001
-2.976000796253742E+001	-1.0459275E+000	-1.0460398E+000	3.5145405E+001	9.247169787053281E+001
-3.073937872421556E+001	-1.0479939E+000	-1.0480419E+000	3.4092876E+001	9.267189786547533E+001
-3.174688377510134E+001	-1.0500212E+000	-1.0500431E+000	3.3074780E+001	9.287199786042038E+001
-3.275445431538458E+001	-1.0520202E+000	-1.0520431E+000	3.2118385E+001	9.307199785536795E+001
-3.377557477449136E+001	-1.0539647E+000	-1.0540439E+000	3.1204939E+001	9.327209785031300E+001
-3.484249925534729E+001	-1.0559993E+000	-1.0560459E+000	3.0307795E+001	9.347229784525553E+001
-3.588055494420951E+001	-1.0579702E+000	-1.0580472E+000	2.9485891E+001	9.367239784020057E+001
-3.697838598250183E+001	-1.0599997E+000	-1.0600480E+000	2.8665386E+001	9.387249783514562E+001
-3.807920926120005E+001	-1.0619506E+000	-1.0620492E+000	2.7887936E+001	9.407259783009067E+001
-3.919954310455216E+001	-1.0640150E+000	-1.0640501E+000	2.7143557E+001	9.427269782503572E+001
-4.042298626980812E+001	-1.0660052E+000	-1.0660512E+000	2.6371264E+001	9.447279781998077E+001
-4.159768709570321E+001	-1.0679721E+000	-1.0680519E+000	2.5673832E+001	9.467289781492582E+001
-4.286928496599455E+001	-1.0700231E+000	-1.0700538E+000	2.4960133E+001	9.487309780986834E+001
-4.411460571267065E+001	-1.0719951E+000	-1.0720559E+000	2.4300232E+001	9.507329780481086E+001
-4.552634894704784E+001	-1.0739946E+000	-1.0740581E+000	2.3590616E+001	9.527349779975339E+001
-4.683519127418299E+001	-1.0759780E+000	-1.0760601E+000	2.2973709E+001	9.547369779469591E+001
-4.811063223726944E+001	-1.0780029E+000	-1.0780619E+000	2.2406750E+001	9.567389778963843E+001
-4.949111890440764E+001	-1.0800060E+000	-1.0800639E+000	2.1822218E+001	9.587409778458095E+001
-5.083334943719933E+001	-1.0820484E+000	-1.0820659E+000	2.1286192E+001	9.607429777952348E+001
-5.237841600363890E+001	-1.0839949E+000	-1.0840679E+000	2.0695450E+001	9.627449777446600E+001
-5.412133575969733E+001	-1.0860600E+000	-1.0860718E+000	2.0067133E+001	9.647489776940347E+001
-5.559042979675223E+001	-1.0880424E+000	-1.0880740E+000	1.9572477E+001	9.667509776434599E+001
-5.713651348457392E+001	-1.0900167E+000	-1.0900760E+000	1.9077410E+001	9.687529775928851E+001
-5.836915836199796E+001	-1.0920422E+000	-1.0920780E+000	1.8709234E+001	9.707549775423104E+001
-5.991340072427749E+001	-1.0940555E+000	-1.0940800E+000	1.8260614E+001	9.727569774917356E+001
-6.145530307693572E+001	-1.0960076E+000	-1.0960820E+000	1.7834223E+001	9.747589774411608E+001
-6.301386493380983E+001	-1.0980489E+000	-1.0980841E+000	1.7425512E+001	9.767609773905860E+001
-6.453540007057097E+001	-1.1000097E+000	-1.1000851E+000	1.7045059E+001	9.787619773400365E+001
-6.617134690987507E+001	-1.1020552E+000	-1.1020852E+000	1.6654568E+001	9.807619772895123E+001
-6.771734363033715E+001	-1.1040875E+000	-1.1040876E+000	1.6304354E+001	9.827649772389123E+001
-7.004800964758169E+001	-1.1060221E+000	-1.1060921E+000	1.5789487E+001	9.847689771882870E+001
-7.241699316562085E+001	-1.1080691E+000	-1.1080940E+000	1.5301229E+001	9.867709771377122E+001
-7.423236969931156E+001	-1.1100500E+000	-1.1100960E+000	1.4953718E+001	9.887729770871374E+001
-7.588274157588580E+001	-1.1120671E+000	-1.1120980E+000	1.4655073E+001	9.907749770365626E+001
-7.773338877285642E+001	-1.1140635E+000	-1.1141001E+000	1.4331853E+001	9.927769769859879E+001
-7.994777485086252E+001	-1.1160593E+000	-1.1161013E+000	1.3959854E+001	9.947779769354383E+001
-8.210796404541179E+001	-1.1180875E+000	-1.1181027E+000	1.3617285E+001	9.967799768848636E+001
-8.432861333693477E+001	-1.1200992E+000	-1.1201051E+000	1.3282552E+001	9.987819768342888E+001
-8.638534479292616E+001	-1.1221033E+000	-1.1221051E+000	1.2989511E+001	1.000781976783765E+002
-8.841178991032314E+001	-1.1240768E+000	-1.1241051E+000	1.2714106E+001	1.002781976733240E+002
-8.990578752742567E+001	-1.1260483E+000	-1.1261052E+000	1.2524759E+001	1.004781976682716E+002
-9.177237447754169E+001	-1.1280912E+000	-1.1281067E+000	1.2292274E+001	1.006783976632141E+002
-9.430131042403900E+001	-1.1300846E+000	-1.1301099E+000	1.1983764E+001	1.008786976581541E+002
-9.603524868532742E+001	-1.1320782E+000	-1.1321119E+000	1.1788153E+001	1.010788976530966E+002
-9.856249985203583E+001	-1.1340526E+000	-1.1341139E+000	1.1505924E+001	1.012790976480392E+002
-1.012828725741292E+002	-1.1360725E+000	-1.1361152E+000	1.1216827E+001	1.014791976429842E+002
-1.034196207813966E+002	-1.1380570E+000	-1.1381159E+000	1.1004266E+001	1.016792976379293E+002
-1.060592144942568E+002	-1.1400793E+000	-1.1401179E+000	1.0749460E+001	1.018794976328718E+002
-1.086653885569649E+002	-1.1421084E+000	-1.1421199E+000	1.0510324E+001	1.020796976278143E+002
-1.113256881217562E+002	-1.1441833E+000	-1.1442212E+000	1.0277802E+001	1.022897976225067E+002
-1.145578876558075E+002	-1.1462711E+000	-1.1463212E+000	1.0006042E+001	1.024997976172017E+002
-1.171097077490792E+002	-1.1482447E+000	-1.1483212E+000	9.8048639E+000	1.026997976121493E+002
-1.213875261941450E+002	-1.1502416E+000	-1.1503218E+000	9.4757814E+000	1.028998976070943E+002
-1.246582854373778E+002	-1.1522647E+000	-1.1523238E+000	9.2433863E+000	1.031000976020368E+002
-1.265514330476535E+002	-1.1542873E+000	-1.1543266E+000	9.1210928E+000	1.033003975969768E+002
-1.288553885617798E+002	-1.1562310E+000	-1.1563299E+000	8.9730902E+000	1.035006975919168E+002
-1.292472996982050E+002	-1.1582724E+000	-1.1583312E+000	8.9616756E+000	1.037007975868619E+002
-1.319866923306915E+002	-1.1602894E+000	-1.1603327E+000	8.7909575E+000	1.039009975818044E+002
-1.361043898415946E+002	-1.1623089E+000	-1.1623352E+000	8.5398340E+000	1.041011975767469E+002
-1.393892060618846E+002	-1.1642909E+000	-1.1643367E+000	8.3528051E+000	1.043013975716894E+002
-1.426733712861691E+002	-1.1663424E+000	-1.1663399E+000	8.1749125E+000	1.045016975666294E+002
-1.432907150084029E+002	-1.1683016E+000	-1.1683426E+000	8.1533651E+000	1.047019975615694E+002
-1.459530497097292E+002	-1.1703885E+000	-1.1703460E+000	8.0189381E+000	1.049022975565094E+002
-1.489884927292455E+002	-1.1723794E+000	-1.1723479E+000	7.8689256E+000	1.051024975514520E+002
-1.513920874604494E+002	-1.1743408E+000	-1.1743499E+000	7.7569499E+000	1.053026975463945E+002
-1.547590351104743E+002	-1.1763526E+000	-1.1763512E+000	7.6011887E+000	1.055027975413395E+002
-1.568650690959955E+002	-1.1783513E+000	-1.1783526E+000	7.5118780E+000	1.057029975362821E+002
-1.599896098202973E+002	-1.1803474E+000	-1.1803559E+000	7.3776507E+000	1.059032975312221E+002
-1.629296386017124E+002	-1.1823733E+000	-1.1823586E+000	7.2569566E+000	1.061035975261620E+002
-1.665990935169916E+002	-1.1843525E+000	-1.1843630E+000	7.1089973E+000	1.063039975210995E+002
-1.703663521461749E+002	-1.1863697E+000	-1.1863632E+000	6.9636383E+000	1.065039975160471E+002
-1.752646607974223E+002	-1.1883996E+000	-1.1883632E+000	6.7806001E+000	1.067039975109947E+002
-1.803467775904937E+002	-1.1903789E+000	-1.1903630E+000	6.6005001E+000	1.069039975059422E+002
-1.845671591715472E+002	-1.1923748E+000	-1.1923631E+000	6.4603844E+000	1.071039975008898E+002
-1.828216185407573E+002	-1.1943825E+000	-1.1943631E+000	6.5330486E+000	1.073039974958374E+002
-1.853415061005662E+002	-1.1963865E+000	-1.1963632E+000	6.4550381E+000	1.075039974907850E+002
-1.907773263367108E+002	-1.1983891E+000	-1.1983639E+000	6.2816114E+000	1.077040974857300E+002
-1.950124641185139E+002	-1.2003815E+000	-1.2003659E+000	6.1554093E+000	1.079042974806725E+002
-1.974596776360086E+002	-1.2023529E+000	-1.2023679E+000	6.0891061E+000	1.081044974756151E+002
-1.981787472171309E+002	-1.2044189E+000	-1.2043691E+000	6.0774374E+000	1.083045974705601E+002
-2.017366440180585E+002	-1.2063838E+000	-1.2063701E+000	5.9799933E+000	1.085046974655052E+002
-2.060033971576331E+002	-1.2084074E+000	-1.2083719E+000	5.8659587E+000	1.087048974604477E+002
-2.114370974955827E+002	-1.2103983E+000	-1.2103739E+000	5.7246261E+000	1.089050974553902E+002
-2.172960131031678E+002	-1.2124181E+000	-1.2123760E+000	5.5795689E+000	1.091052974503327E+002
-2.207843885112497E+002	-1.2143868E+000	-1.2143780E+000	5.5003290E+000	1.093054974452753E+002
-2.234030311048152E+002	-1.2163385E+000	-1.2163790E+000	5.4445925E+000	1.095055974402203E+002
-2.290737774582948E+002	-1.2184389E+000	-1.2183791E+000	5.3189802E+000	1.097055974351679E+002
-2.317284912969171E+002	-1.2204137E+000	-1.2203799E+000	5.2665672E+000	1.099056974301129E+002
-2.335103764037733E+002	-1.2223943E+000	-1.2223819E+000	5.2348609E+000	1.101058974250554E+002
-2.372497006825051E+002	-1.2244365E+000	-1.2243831E+000	5.1609612E+000	1.103059974200005E+002
-2.391312773390009E+002	-1.2263874E+000	-1.2263839E+000	5.1285110E+000	1.105060974149455E+002
-2.501543121725953E+002	-1.2284229E+000	-1.2283859E+000	4.9106603E+000	1.107062974098881E+002
-2.474876347784439E+002	-1.2304415E+000	-1.2303890E+000	4.9717288E+000	1.109065974048281E+002
-2.469928399235207E+002	-1.2324002E+000	-1.2323891E+000	4.9896193E+000	1.111065973997756E+002
-2.530929384426188E+002	-1.2344412E+000	-1.2343892E+000	4.8774223E+000	1.113065973947232E+002
-2.569204176408816E+002	-1.2364433E+000	-1.2363899E+000	4.8125534E+000	1.115066973896683E+002
-2.630326548466064E+002	-1.2384119E+000	-1.2383910E+000	4.7082057E+000	1.117067973846133E+002
-2.700336315700758E+002	-1.2404771E+000	-1.2403919E+000	4.5937872E+000	1.119068973795584E+002
-2.801740805935169E+002	-1.2424538E+000	-1.2423931E+000	4.4345779E+000	1.121069973745034E+002
-2.811181299134046E+002	-1.2445024E+000	-1.2443930E+000	4.4269733E+000	1.123069973694510E+002
-2.861317113647115E+002	-1.2464782E+000	-1.2463951E+000	4.3563094E+000	1.125071973643935E+002
-2.861628391629165E+002	-1.2484900E+000	-1.2483951E+000	4.3628654E+000	1.127071973593411E+002
-2.952122282384880E+002	-1.2504451E+000	-1.2503959E+000	4.2357497E+000	1.129072973542861E+002
-2.992543060694729E+002	-1.2525290E+000	-1.2523980E+000	4.1855006E+000	1.131074973492287E+002
-3.069219567867622E+002	-1.2544820E+000	-1.2543993E+000	4.0872998E+000	1.133075973441737E+002
-3.031117897985205E+002	-1.2565308E+000	-1.2563992E+000	4.1454368E+000	1.135075973391213E+002
-3.050929873178872E+002	-1.2585350E+000	-1.2583991E+000	4.1250868E+000	1.137075973340689E+002
-3.078658974730342E+002	-1.2605195E+000	-1.2603990E+000	4.0943785E+000	1.139075973290164E+002
-3.179216612730773E+002	-1.2624706E+000	-1.2624018E+000	3.9710116E+000	1.141078973239564E+002
-3.263756049735330E+002	-1.2645459E+000	-1.2644038E+000	3.8745112E+000	1.143080973188989E+002
-3.315557591639406E+002	-1.2665391E+000	-1.2664052E+000	3.8199883E+000	1.145081973138440E+002
-3.350081444938394E+002	-1.2685535E+000	-1.2684059E+000	3.7866347E+000	1.147082973087890E+002
-3.311601648931728E+002	-1.2705809E+000	-1.2704089E+000	3.8367565E+000	1.149085973037290E+002
-3.321901460792024E+002	-1.2725403E+000	-1.2724110E+000	3.8307588E+000	1.151087972986716E+002
-3.377218395593827E+002	-1.2745757E+000	-1.2744139E+000	3.7740400E+000	1.153090972936116E+002
-3.505435747263896E+002	-1.2765899E+000	-1.2764159E+000	3.6417437E+000	1.155092972885541E+002
-3.550240075874763E+002	-1.2785907E+000	-1.2784172E+000	3.6014204E+000	1.157093972834991E+002
-3.616654564431474E+002	-1.2805903E+000	-1.2804171E+000	3.5408144E+000	1.159093972784467E+002
-3.721821740468349E+002	-1.2825893E+000	-1.2824172E+000	3.4461331E+000	1.161093972733943E+002
-3.833606674841994E+002	-1.2846184E+000	-1.2844180E+000	3.3509395E+000	1.163094972683393E+002
-3.783612029230715E+002	-1.2865877E+000	-1.2864214E+000	3.4004219E+000	1.165098972632768E+002
-3.856354240333758E+002	-1.2886257E+000	-1.2884278E+000	3.3415647E+000	1.167104972582092E+002
-3.990638580387131E+002	-1.2905983E+000	-1.2904291E+000	3.2340646E+000	1.169105972531543E+002
-4.048850229700147E+002	-1.2925593E+000	-1.2924292E+000	3.1924107E+000	1.171105972481018E+002
-4.037554386381098E+002	-1.2946293E+000	-1.2944292E+000	3.2064691E+000	1.173105972430494E+002
-4.134882364554196E+002	-1.2966213E+000	-1.2964292E+000	3.1358118E+000	1.175105972379970E+002
-4.246688830317275E+002	-1.2986037E+000	-1.2984293E+000	3.0579205E+000	1.177105972329446E+002
-4.204958498861785E+002	-1.3006217E+000	-1.3004292E+000	3.0930667E+000	1.179105972278921E+002
-4.155957160906328E+002	-1.3025959E+000	-1.3024298E+000	3.1342862E+000	1.181106972228372E+002
-4.303894358190336E+002	-1.3046280E+000	-1.3044319E+000	3.0312734E+000	1.183108972177797E+002
-4.435084923471522E+002	-1.3066229E+000	-1.3064358E+000	2.9461057E+000	1.185112972127172E+002
-4.496014782409720E+002	-1.3086569E+000	-1.3084379E+000	2.9107041E+000	1.187114972076597E+002
-4.594716993990623E+002	-1.3106376E+000	-1.3104390E+000	2.8524883E+000	1.189115972026048E+002
-4.607425372194029E+002	-1.3126546E+000	-1.3124398E+000	2.8489981E+000	1.191116971975498E+002
-4.613247899987537E+002	-1.3146597E+000	-1.3144412E+000	2.8497486E+000	1.193117971924949E+002
-4.606250298840497E+002	-1.3166412E+000	-1.3164419E+000	2.8583796E+000	1.195118971874399E+002
-4.846228799538803E+002	-1.3186650E+000	-1.3184431E+000	2.7210128E+000	1.197119971823849E+002
-5.076823435668910E+002	-1.3206676E+000	-1.3204440E+000	2.6013660E+000	1.199120971773300E+002
-5.135364354970500E+002	-1.3226719E+000	-1.3224452E+000	2.5756145E+000	1.201121971722750E+002
-5.342256488400554E+002	-1.3247042E+000	-1.3244460E+000	2.4796717E+000	1.203122971672201E+002
-5.357415690822118E+002	-1.3266412E+000	-1.3264471E+000	2.4762709E+000	1.205123971621651E+002
-5.303346736909134E+002	-1.3286960E+000	-1.3284481E+000	2.5053916E+000	1.207124971571102E+002
-5.345826569743385E+002	-1.3307028E+000	-1.3304479E+000	2.4892368E+000	1.209124971520578E+002
-5.595009721336460E+002	-1.3327135E+000	-1.3324492E+000	2.3819680E+000	1.211125971470028E+002
-5.596747300282859E+002	-1.3347452E+000	-1.3344506E+000	2.3848588E+000	1.213127971419453E+002
-5.797973449959609E+002	-1.3367426E+000	-1.3364539E+000	2.3055344E+000	1.215130971368853E+002
-5.743060811755659E+002	-1.3386652E+000	-1.3383559E+000	2.3309264E+000	1.217032971320805E+002
-5.829292922990935E+002	-1.3400296E+000	-1.3397601E+000	2.2987859E+000	1.218437971285312E+002
-5.754984811744439E+002	-1.3412282E+000	-1.3409618E+000	2.3305504E+000	1.219639971254946E+002
-5.835277221679698E+002	-1.3417115E+000	-1.3415649E+000	2.2993107E+000	1.220233971239941E+002