EC-Lab ASCII FILE
Nb header lines : 63                          

Linear Sweep Voltammetry

Run on channel : 1 (SN 1340)
User : 
Electrode connection : standard
Potential control : Ewe
Ewe ctrl range : min = -5.00 V, max = 5.00 V
Ewe,I filtering : <None>
Safety Limits :
	Do not start on E overload
Channel : Floating
Acquisition started on : 02/17/2026 15:52:09.506
Technique started on : 02/17/2026 15:52:12.188
Loaded Setting File :  NONE
Saved on :
	File : Ni10Co10_2-17_02_LSV_C01.mpr
	Directory : C:\Users\volt\Documents\Platalytix\
	Host : 127.0.0.1
Device : SP-200 (SN 0262)
Address : USB
EC-LAB for windows v11.60 (software)
Internet server v11.60 (firmware)
Command interpretor v11.60 (firmware)
Electrode material : Pt22.5Pd22.5Ni22.5Co22.5Cr10
Initial state : 
Electrolyte : KOH (1M)
Comments : 
Cable : standard
Reference electrode : Hg/HgO (0.140 V)
Electrode surface area : 1.000 cm˛
Characteristic mass : 0.001 g
Equivalent Weight : 0.000 g/eq.
Density : 0.000 g/cm3
Volume (V) : 0.001 cmł
Cycle Definition : Charge/Discharge alternance
tR (h:m:s)          0:00:5.0000         
dER/dt (mV/h)       0.0                 
dER (mV)            0                   
dtR (s)             0.0000              
dE/dt               10.000              
dE/dt unit          mV/s                
Ei (V)              -0.200              
vs.                 Ref                 
EL (V)              -2.500              
vs.                 Ref                 
record              <I>                 
dI                  0.000               
unit dI             µA                  
tI (s)              0.0000              
step percent        50                  
N                   10                  
E range min (V)     -5.000              
E range max (V)     5.000               
I Range             Auto                
I Range min         Unset               
I Range max         Unset               
I Range init        Unset               
Bandwidth           8                   

Rwe/Ohm	time/s	Ewe/V	<I>/mA	Pwe/W	control/V	error	
0.0000000E+000	2.682400127378060E+000	-1.4937896E-001	0.000000000000000E+000	0.0000000E+000	0.0000000E+000	0
0.0000000E+000	7.682200001072488E+000	-2.2419456E-002	0.000000000000000E+000	0.0000000E+000	-1.9981687E-001	0
4.0121711E+003	7.882199996020063E+000	-2.0152152E-001	-5.022754794103101E-002	1.0121931E-005	-2.0171665E-001	0
1.3470948E+003	8.002199992988608E+000	-2.0277238E-001	-1.505256890195746E-001	3.0522453E-005	-2.0291670E-001	0
1.4791642E+003	8.212199987683562E+000	-2.0486055E-001	-1.384975121255172E-001	2.8372677E-005	-2.0501669E-001	0
1.6475121E+003	8.412199982631137E+000	-2.0687631E-001	-1.255689158459155E-001	2.5977233E-005	-2.0701668E-001	0
1.7938052E+003	8.612199977578712E+000	-2.0886187E-001	-1.164350926827498E-001	2.4318852E-005	-2.0901658E-001	0
1.9231989E+003	8.812199972526287E+000	-2.1086486E-001	-1.096427762361403E-001	2.3119808E-005	-2.1101646E-001	0
2.0377340E+003	9.012199967473862E+000	-2.1287356E-001	-1.044658229901736E-001	2.2238011E-005	-2.1301636E-001	0
2.1395862E+003	9.212199962421437E+000	-2.1489771E-001	-1.004389146344984E-001	2.1584092E-005	-2.1501625E-001	0
2.2410486E+003	9.412199957369012E+000	-2.1690577E-001	-9.678762234417948E-002	2.0993793E-005	-2.1701612E-001	0
2.3294634E+003	9.612199952316587E+000	-2.1886714E-001	-9.395603472187419E-002	2.0563888E-005	-2.1901600E-001	0
2.4167166E+003	9.812199947264162E+000	-2.2089152E-001	-9.140150257821293E-002	2.0189816E-005	-2.2101590E-001	0
2.4999856E+003	1.001219994221174E+001	-2.2286412E-001	-8.914616347666460E-002	1.9867481E-005	-2.2301580E-001	0
2.5781885E+003	1.021219993715931E+001	-2.2488196E-001	-8.722479633834893E-002	1.9615283E-005	-2.2501568E-001	0
2.6541980E+003	1.041219993210689E+001	-2.2686347E-001	-8.547345687880203E-002	1.9390805E-005	-2.2701554E-001	0
2.7269031E+003	1.061219992705446E+001	-2.2884944E-001	-8.392283374120568E-002	1.9205694E-005	-2.2901545E-001	0
2.7983838E+003	1.081219992200204E+001	-2.3087619E-001	-8.250340277988011E-002	1.9048071E-005	-2.3101532E-001	0
2.8673596E+003	1.101219991694961E+001	-2.3285961E-001	-8.121046655211650E-002	1.8910638E-005	-2.3301522E-001	0
2.9347729E+003	1.121219991189719E+001	-2.3487467E-001	-8.003163221503373E-002	1.8797404E-005	-2.3501512E-001	0
2.9992400E+003	1.141219990684476E+001	-2.3686637E-001	-7.897546263612276E-002	1.8706631E-005	-2.3701499E-001	0
3.0643735E+003	1.161209990179486E+001	-2.3882210E-001	-7.793504929455508E-002	1.8612613E-005	-2.3901510E-001	0
3.1287402E+003	1.181199989674496E+001	-2.4084853E-001	-7.697939381210328E-002	1.8540373E-005	-2.4101475E-001	0
3.1902864E+003	1.201199989169254E+001	-2.4281901E-001	-7.611198086595650E-002	1.8481436E-005	-2.4301465E-001	0
3.2539885E+003	1.221199988664011E+001	-2.4487163E-001	-7.525276363502059E-002	1.8427267E-005	-2.4501456E-001	0
3.3120947E+003	1.241199988158769E+001	-2.4685125E-001	-7.453024878679781E-002	1.8397885E-005	-2.4701443E-001	0
3.3725310E+003	1.261199987653526E+001	-2.4882683E-001	-7.378044551187712E-002	1.8358554E-005	-2.4901432E-001	0
3.4301865E+003	1.281199987148284E+001	-2.5090259E-001	-7.314546491217949E-002	1.8352386E-005	-2.5101420E-001	0
3.4873213E+003	1.301199986643041E+001	-2.5283572E-001	-7.250141432295498E-002	1.8330948E-005	-2.5301409E-001	0
3.5498994E+003	1.321199986137799E+001	-2.5484949E-001	-7.179062618544552E-002	1.8295805E-005	-2.5501400E-001	0
3.6039512E+003	1.341199985632556E+001	-2.5688961E-001	-7.127999015312980E-002	1.8311090E-005	-2.5701386E-001	0
3.6605850E+003	1.361199985127314E+001	-2.5881743E-001	-7.070384394058604E-002	1.8299388E-005	-2.5901374E-001	0
3.7178706E+003	1.381199984622072E+001	-2.6084372E-001	-7.015944101537286E-002	1.8300650E-005	-2.6101366E-001	0
3.7720122E+003	1.401199984116829E+001	-2.6282930E-001	-6.967880611219240E-002	1.8313633E-005	-2.6301354E-001	0
3.8280447E+003	1.421199983611587E+001	-2.6480448E-001	-6.917486564718756E-002	1.8317814E-005	-2.6501343E-001	0
3.8825642E+003	1.441199983106344E+001	-2.6681846E-001	-6.872222783115789E-002	1.8336359E-005	-2.6701331E-001	0
3.9352349E+003	1.461199982601102E+001	-2.6883033E-001	-6.831366698523711E-002	1.8364786E-005	-2.6901320E-001	0
3.9912656E+003	1.481199982095859E+001	-2.7086151E-001	-6.786356347057643E-002	1.8381626E-005	-2.7101308E-001	0
4.0415127E+003	1.501199981590617E+001	-2.7282223E-001	-6.750497829682200E-002	1.8416858E-005	-2.7301297E-001	0
4.0952939E+003	1.521179981085879E+001	-2.7481326E-001	-6.710465013914679E-002	1.8441247E-005	-2.7501264E-001	0
4.1468833E+003	1.541179980580637E+001	-2.7682561E-001	-6.675509982499495E-002	1.8479521E-005	-2.7701274E-001	0
4.1989741E+003	1.561179980075394E+001	-2.7881941E-001	-6.640179278994252E-002	1.8514109E-005	-2.7901262E-001	0
4.2512559E+003	1.581179979570152E+001	-2.8080648E-001	-6.605259189962931E-002	1.8547997E-005	-2.8101254E-001	0
4.3008335E+003	1.601179979064909E+001	-2.8276721E-001	-6.574707236848409E-002	1.8591116E-005	-2.8301239E-001	0
4.3503208E+003	1.621179978559667E+001	-2.8482512E-001	-6.547221034351325E-002	1.8648130E-005	-2.8501227E-001	0
4.4002358E+003	1.641179978054424E+001	-2.8686756E-001	-6.519367719489355E-002	1.8701950E-005	-2.8701216E-001	0
4.4559536E+003	1.661179977549182E+001	-2.8885609E-001	-6.482475116910191E-002	1.8725024E-005	-2.8901204E-001	0
4.5044146E+003	1.681179977043939E+001	-2.9089594E-001	-6.458018638210516E-002	1.8786113E-005	-2.9101196E-001	0
4.5540889E+003	1.701179976538697E+001	-2.9280517E-001	-6.429500667200894E-002	1.8825909E-005	-2.9301181E-001	0
4.6032998E+003	1.721179976033454E+001	-2.9485053E-001	-6.405199271396583E-002	1.8885763E-005	-2.9501173E-001	0
4.6519834E+003	1.741179975528212E+001	-2.9685968E-001	-6.381357364755647E-002	1.8943678E-005	-2.9701161E-001	0
4.6980493E+003	1.761179975022969E+001	-2.9883459E-001	-6.360822663718491E-002	1.9008339E-005	-2.9901147E-001	0
4.7458647E+003	1.781179974517727E+001	-3.0081677E-001	-6.338503027531217E-002	1.9067280E-005	-3.0101138E-001	0
4.7946357E+003	1.801179974012484E+001	-3.0281609E-001	-6.315726614367123E-002	1.9125036E-005	-3.0301124E-001	0
4.8385933E+003	1.821179973507242E+001	-3.0483049E-001	-6.299981569539703E-002	1.9204264E-005	-3.0501115E-001	0
4.8884019E+003	1.841179973001999E+001	-3.0679443E-001	-6.275965952812823E-002	1.9254314E-005	-3.0701104E-001	0
4.9329287E+003	1.861169972497009E+001	-3.0880266E-001	-6.260026988912144E-002	1.9331130E-005	-3.0901027E-001	0
4.9800244E+003	1.881159971992020E+001	-3.1082413E-001	-6.241417619613032E-002	1.9399831E-005	-3.1101081E-001	0
5.0276797E+003	1.901159971486777E+001	-3.1284490E-001	-6.222451243511573E-002	1.9466621E-005	-3.1301069E-001	0
5.0721519E+003	1.921159970981535E+001	-3.1482092E-001	-6.206851037770361E-002	1.9540465E-005	-3.1501061E-001	0
5.1176626E+003	1.941159970476292E+001	-3.1681159E-001	-6.190552351818912E-002	1.9612387E-005	-3.1701046E-001	0
5.1588574E+003	1.961159969971050E+001	-3.1884190E-001	-6.180474989204909E-002	1.9705943E-005	-3.1901035E-001	0
5.2004814E+003	1.981159969465807E+001	-3.2082409E-001	-6.169122654908765E-002	1.9792031E-005	-3.2101023E-001	0
5.2483540E+003	2.001159968960565E+001	-3.2282743E-001	-6.151022274435736E-002	1.9857187E-005	-3.2301012E-001	0
5.2951138E+003	2.021159968455322E+001	-3.2481280E-001	-6.134198701575100E-002	1.9924662E-005	-3.2501003E-001	0
5.3373589E+003	2.041159967950080E+001	-3.2682803E-001	-6.123403482225702E-002	2.0013000E-005	-3.2700992E-001	0
5.3792964E+003	2.061159967444837E+001	-3.2882464E-001	-6.112781339092710E-002	2.0100331E-005	-3.2900977E-001	0
5.4247642E+003	2.081159966939595E+001	-3.3085161E-001	-6.098912652030734E-002	2.0178351E-005	-3.3100966E-001	0
5.4675098E+003	2.101159966434352E+001	-3.3283713E-001	-6.087545231892794E-002	2.0261612E-005	-3.3300954E-001	0
5.5102847E+003	2.121159965929110E+001	-3.3486193E-001	-6.077035091544930E-002	2.0349677E-005	-3.3500946E-001	0
5.5481538E+003	2.141159965423867E+001	-3.3685622E-001	-6.071501062462803E-002	2.0452229E-005	-3.3700934E-001	0
5.5930249E+003	2.161159964918625E+001	-3.3886001E-001	-6.058618033097839E-002	2.0530233E-005	-3.3900923E-001	0
5.6332998E+003	2.181159964413382E+001	-3.4082308E-001	-6.050149933065474E-002	2.0620308E-005	-3.4100911E-001	0
5.6753545E+003	2.201159963908140E+001	-3.4284112E-001	-6.040876015837032E-002	2.0710608E-005	-3.4300900E-001	0
5.7137871E+003	2.221149963403150E+001	-3.4485233E-001	-6.035442589109180E-002	2.0813364E-005	-3.4500909E-001	0
5.7549570E+003	2.241139962898160E+001	-3.4685636E-001	-6.027088630173666E-002	2.0905340E-005	-3.4700876E-001	0
5.7957744E+003	2.261139962392917E+001	-3.4882706E-001	-6.018644656305994E-002	2.0994661E-005	-3.4900865E-001	0
5.8342329E+003	2.281139961887675E+001	-3.5082555E-001	-6.013224987722859E-002	2.1095930E-005	-3.5100856E-001	0
5.8774072E+003	2.301139961382432E+001	-3.5287163E-001	-6.003865707019462E-002	2.1185939E-005	-3.5300842E-001	0
5.9127339E+003	2.321139960877190E+001	-3.5486013E-001	-6.001625256982468E-002	2.1297375E-005	-3.5500830E-001	0
5.9534565E+003	2.341139960371947E+001	-3.5682979E-001	-5.993657411908226E-002	2.1387155E-005	-3.5700822E-001	0
5.9933413E+003	2.361139959866705E+001	-3.5884014E-001	-5.987313595313215E-002	2.1484884E-005	-3.5900813E-001	0
6.0295947E+003	2.381139959361462E+001	-3.6085439E-001	-5.984720407695820E-002	2.1596126E-005	-3.6100799E-001	0
6.0717666E+003	2.401139958856220E+001	-3.6282423E-001	-5.975596052847887E-002	2.1680911E-005	-3.6300787E-001	0
6.1076133E+003	2.421139958350977E+001	-3.6485752E-001	-5.973814953807000E-002	2.1795913E-005	-3.6500773E-001	0
6.1419854E+003	2.441139957845735E+001	-3.6687043E-001	-5.973157320433453E-002	2.1913747E-005	-3.6700764E-001	0
6.1787158E+003	2.461139957340492E+001	-3.6880761E-001	-5.969001224598203E-002	2.2014130E-005	-3.6900756E-001	0
6.2173330E+003	2.481139956835250E+001	-3.7083456E-001	-5.964527909101225E-002	2.2118531E-005	-3.7100744E-001	0
6.2553208E+003	2.501139956330007E+001	-3.7284046E-001	-5.960373395194418E-002	2.2222684E-005	-3.7300730E-001	0
6.2866113E+003	2.521139955824765E+001	-3.7485808E-001	-5.962800422774173E-002	2.2352040E-005	-3.7500721E-001	0
6.3254751E+003	2.541139955319522E+001	-3.7685466E-001	-5.957728757601144E-002	2.2451979E-005	-3.7700707E-001	0
6.3585288E+003	2.561139954814280E+001	-3.7883452E-001	-5.957895585825723E-002	2.2570564E-005	-3.7900698E-001	0
6.3950850E+003	2.581119954309543E+001	-3.8083303E-001	-5.955089250791003E-002	2.2678947E-005	-3.8100687E-001	0
6.4278594E+003	2.601119953804300E+001	-3.8281816E-001	-5.955608803388190E-002	2.2799151E-005	-3.8300672E-001	0
6.4669312E+003	2.621119953299058E+001	-3.8484487E-001	-5.950965966592192E-002	2.2901988E-005	-3.8500664E-001	0
6.4935063E+003	2.641119952793815E+001	-3.8681471E-001	-5.956946686807775E-002	2.3042347E-005	-3.8700652E-001	0
6.5323633E+003	2.661119952288573E+001	-3.8886350E-001	-5.952876089869355E-002	2.3148563E-005	-3.8900644E-001	0
6.5661152E+003	2.681119951783330E+001	-3.9082488E-001	-5.952147886689207E-002	2.3262475E-005	-3.9100629E-001	0
6.6012539E+003	2.701119951278088E+001	-3.9284018E-001	-5.950993088511169E-002	2.3377892E-005	-3.9300615E-001	0
6.6344097E+003	2.721119950772845E+001	-3.9481893E-001	-5.951078445492242E-002	2.3495984E-005	-3.9500609E-001	0
6.6666973E+003	2.741119950267603E+001	-3.9684734E-001	-5.952682591818459E-002	2.3623063E-005	-3.9700595E-001	0
6.7014800E+003	2.761119949762360E+001	-3.9886326E-001	-5.951868149487782E-002	2.3739814E-005	-3.9900586E-001	0
6.7302349E+003	2.781119949257118E+001	-4.0081933E-001	-5.955503069185331E-002	2.3870807E-005	-4.0100572E-001	0
6.7699526E+003	2.801119948751875E+001	-4.0280977E-001	-5.949964501647931E-002	2.3967039E-005	-4.0300563E-001	0
6.7997036E+003	2.821119948246633E+001	-4.0485176E-001	-5.953961818335407E-002	2.4104720E-005	-4.0500551E-001	0
6.8320156E+003	2.841119947741390E+001	-4.0686890E-001	-5.955327390967669E-002	2.4230376E-005	-4.0700537E-001	0
6.8630811E+003	2.861119947236148E+001	-4.0886489E-001	-5.957453670413099E-002	2.4357936E-005	-4.0900528E-001	0
6.8935693E+003	2.881119946730905E+001	-4.1087759E-001	-5.960302536434925E-002	2.4489547E-005	-4.1100514E-001	0
6.9347363E+003	2.901119946225663E+001	-4.1282916E-001	-5.953062138026000E-002	2.4575977E-005	-4.1300505E-001	0
6.9600498E+003	2.921109945720673E+001	-4.1487753E-001	-5.960841315105858E-002	2.4730192E-005	-4.1500431E-001	0
6.9959033E+003	2.941099945215683E+001	-4.1686332E-001	-5.958677678159940E-002	2.4839541E-005	-4.1700482E-001	0
7.0234238E+003	2.961099944710440E+001	-4.1886336E-001	-5.963805792726551E-002	2.4980198E-005	-4.1900471E-001	0
7.0575332E+003	2.981099944205198E+001	-4.2085865E-001	-5.963254178390565E-002	2.5096871E-005	-4.2100456E-001	0
7.0918716E+003	3.001099943699955E+001	-4.2286307E-001	-5.962644195576922E-002	2.5213820E-005	-4.2300451E-001	0
7.1272539E+003	3.021099943194713E+001	-4.2488280E-001	-5.961381542958877E-002	2.5328885E-005	-4.2500436E-001	0
7.1564463E+003	3.041099942689470E+001	-4.2685646E-001	-5.964642648464791E-002	2.5460462E-005	-4.2700425E-001	0
7.1875718E+003	3.061099942184228E+001	-4.2888173E-001	-5.966990518482951E-002	2.5591333E-005	-4.2900413E-001	0
7.2168496E+003	3.081099941678985E+001	-4.3085632E-001	-5.970143914157251E-002	2.5722742E-005	-4.3100399E-001	0
7.2535884E+003	3.101099941173743E+001	-4.3283609E-001	-5.967199367728665E-002	2.5828193E-005	-4.3300393E-001	0
7.2829053E+003	3.121099940668500E+001	-4.3486404E-001	-5.971024233146716E-002	2.5965837E-005	-4.3500379E-001	0
7.3188037E+003	3.141099940163258E+001	-4.3684670E-001	-5.968826511967718E-002	2.6074622E-005	-4.3700370E-001	0
7.3443257E+003	3.161099939658016E+001	-4.3886387E-001	-5.975550468514779E-002	2.6224532E-005	-4.3900359E-001	0
7.3803701E+003	3.181099939152773E+001	-4.4085535E-001	-5.973350104100805E-002	2.6333833E-005	-4.4100347E-001	0
7.4135728E+003	3.201099938647531E+001	-4.4284856E-001	-5.973483545995001E-002	2.6453486E-005	-4.4300336E-001	0
7.4449419E+003	3.221099938142288E+001	-4.4492728E-001	-5.976235614445435E-002	2.6589902E-005	-4.4500321E-001	0
7.4812168E+003	3.241099937637046E+001	-4.4686636E-001	-5.973177588367384E-002	2.6692122E-005	-4.4700316E-001	0
7.5122476E+003	3.261099937131803E+001	-4.4889396E-001	-5.975494676221027E-002	2.6823634E-005	-4.4900301E-001	0
7.5460840E+003	3.281089936626813E+001	-4.5085189E-001	-5.974647267873534E-002	2.6936810E-005	-4.5100245E-001	0
7.5756812E+003	3.301079936121823E+001	-4.5289007E-001	-5.978209384909250E-002	2.7074717E-005	-4.5300284E-001	0
7.6114438E+003	3.321079935616581E+001	-4.5485505E-001	-5.975936515237756E-002	2.7181850E-005	-4.5500264E-001	0
7.6429961E+003	3.341079935111338E+001	-4.5687458E-001	-5.977689603801850E-002	2.7310543E-005	-4.5700258E-001	0
7.6800449E+003	3.361079934606096E+001	-4.5885608E-001	-5.974653562005028E-002	2.7415061E-005	-4.5900247E-001	0
7.7036509E+003	3.381079934100853E+001	-4.6084464E-001	-5.982158769000223E-002	2.7568458E-005	-4.6100232E-001	0
7.7398970E+003	3.401079933595611E+001	-4.6286115E-001	-5.980197886900473E-002	2.7680013E-005	-4.6300226E-001	0
7.7744707E+003	3.421079933090368E+001	-4.6486005E-001	-5.979314578756234E-002	2.7795444E-005	-4.6500212E-001	0
7.8017920E+003	3.441079932585126E+001	-4.6683967E-001	-5.983749260785909E-002	2.7934515E-005	-4.6700200E-001	0
7.8297256E+003	3.461079932079883E+001	-4.6885240E-001	-5.988107878416971E-002	2.8075388E-005	-4.6900189E-001	0
7.8578730E+003	3.481079931574641E+001	-4.7086746E-001	-5.992301523921992E-002	2.8215798E-005	-4.7100177E-001	0
7.8824243E+003	3.501079931069398E+001	-4.7284177E-001	-5.998684601254256E-002	2.8364286E-005	-4.7300169E-001	0
7.9153535E+003	3.521079930564156E+001	-4.7488567E-001	-5.999550999663847E-002	2.8491007E-005	-4.7500154E-001	0
7.9513140E+003	3.541079930058913E+001	-4.7687504E-001	-5.997436872974902E-002	2.8600280E-005	-4.7700143E-001	0
7.9839785E+003	3.561079929553671E+001	-4.7884256E-001	-5.997543288986129E-002	2.8718790E-005	-4.7900131E-001	0
8.0293530E+003	3.581079929048428E+001	-4.8084304E-001	-5.988565233616316E-002	2.8795599E-005	-4.8100120E-001	0
8.0647007E+003	3.601079928543186E+001	-4.8284149E-001	-5.987097349180473E-002	2.8908191E-005	-4.8300114E-001	0
8.0937578E+003	3.621079928037943E+001	-4.8484570E-001	-5.990365707809708E-002	2.9044031E-005	-4.8500097E-001	0
8.1321660E+003	3.641069927532953E+001	-4.8685858E-001	-5.986825215915936E-002	2.9147372E-005	-4.8700136E-001	0
8.1643188E+003	3.661059927027964E+001	-4.8883364E-001	-5.987439333364078E-002	2.9268618E-005	-4.8900077E-001	0
8.2005781E+003	3.681059926522721E+001	-4.9088112E-001	-5.985933356251016E-002	2.9383817E-005	-4.9100062E-001	0
8.2386943E+003	3.701059926017479E+001	-4.9283889E-001	-5.982002183000912E-002	2.9481633E-005	-4.9300057E-001	0
8.2746182E+003	3.721059925512236E+001	-4.9480155E-001	-5.979750677098473E-002	2.9587900E-005	-4.9500039E-001	0
8.3048594E+003	3.741059925006994E+001	-4.9683782E-001	-5.982495348397954E-002	2.9723300E-005	-4.9700037E-001	0
8.3425771E+003	3.761059924501751E+001	-4.9882975E-001	-5.979324637145589E-002	2.9826650E-005	-4.9900019E-001	0
8.3801523E+003	3.781059923996509E+001	-5.0082505E-001	-5.976323663814598E-002	2.9930925E-005	-5.0100017E-001	0
8.4230723E+003	3.801059923491266E+001	-5.0284886E-001	-5.969898656481532E-002	3.0019568E-005	-5.0300002E-001	0
8.4537852E+003	3.821059922986024E+001	-5.0483167E-001	-5.971664277353089E-002	3.0146852E-005	-5.0499988E-001	0
8.5003262E+003	3.841059922480781E+001	-5.0682700E-001	-5.962442068801255E-002	3.0219266E-005	-5.0699979E-001	0
8.5272725E+003	3.861059921975539E+001	-5.0885284E-001	-5.967357653233285E-002	3.0365069E-005	-5.0899965E-001	0
8.5678486E+003	3.881059921470296E+001	-5.1086473E-001	-5.962579168723514E-002	3.0460715E-005	-5.1099956E-001	0
8.6118447E+003	3.901059920965054E+001	-5.1282781E-001	-5.954912588604278E-002	3.0538449E-005	-5.1299948E-001	0
8.6525654E+003	3.921059920459811E+001	-5.1485240E-001	-5.950285985330916E-002	3.0635190E-005	-5.1499927E-001	0
8.6873389E+003	3.941059919954569E+001	-5.1682031E-001	-5.949120890389242E-002	3.0746265E-005	-5.1699924E-001	0
8.7255293E+003	3.961059919449326E+001	-5.1884854E-001	-5.946327171757249E-002	3.0852432E-005	-5.1899910E-001	0
8.7709297E+003	3.981049918944336E+001	-5.2085197E-001	-5.938389705182612E-002	3.0930220E-005	-5.2099830E-001	0
8.8071357E+003	4.001039918439346E+001	-5.2285981E-001	-5.936774516756915E-002	3.1041007E-005	-5.2299893E-001	0
8.8561797E+003	4.021039917934104E+001	-5.2483302E-001	-5.926178857924880E-002	3.1102543E-005	-5.2499872E-001	0
8.8914063E+003	4.041039917428861E+001	-5.2684194E-001	-5.925293615174423E-002	3.1216932E-005	-5.2699864E-001	0
8.9362295E+003	4.061039916923619E+001	-5.2883214E-001	-5.917844299307240E-002	3.1295462E-005	-5.2899849E-001	0
8.9759258E+003	4.081039916418376E+001	-5.3083611E-001	-5.913998114310454E-002	3.1393636E-005	-5.3099847E-001	0
9.0134834E+003	4.101039915913134E+001	-5.3285462E-001	-5.911750194950316E-002	3.1501033E-005	-5.3299832E-001	0
9.0605820E+003	4.121039915407891E+001	-5.3485602E-001	-5.903109002281881E-002	3.1573134E-005	-5.3499818E-001	0
9.0965391E+003	4.141039914902649E+001	-5.3682828E-001	-5.901456038233133E-002	3.1680684E-005	-5.3699809E-001	0
9.1420498E+003	4.161039914397406E+001	-5.3884548E-001	-5.894142984203565E-002	3.1760323E-005	-5.3899795E-001	0
9.1786797E+003	4.181039913892164E+001	-5.4084116E-001	-5.892363396186018E-002	3.1868327E-005	-5.4099786E-001	0
9.2181543E+003	4.201039913386921E+001	-5.4283822E-001	-5.888795127507207E-002	3.1966629E-005	-5.4299778E-001	0
9.2584443E+003	4.221039912881679E+001	-5.4482257E-001	-5.884601511990403E-002	3.2060638E-005	-5.4499763E-001	0
9.3030732E+003	4.241039912376436E+001	-5.4683900E-001	-5.878046974845980E-002	3.2143453E-005	-5.4699755E-001	0
9.3369766E+003	4.261039911871194E+001	-5.4891241E-001	-5.878909612539085E-002	3.2270065E-005	-5.4899734E-001	0
9.3913115E+003	4.281039911365951E+001	-5.5083054E-001	-5.865320681315533E-002	3.2307977E-005	-5.5099732E-001	0
9.4312412E+003	4.301039910860709E+001	-5.5283159E-001	-5.861705781410442E-002	3.2405362E-005	-5.5299717E-001	0
9.4722813E+003	4.321039910355466E+001	-5.5483711E-001	-5.857481620519467E-002	3.2499480E-005	-5.5499709E-001	0
9.5151680E+003	4.341029909850477E+001	-5.5684841E-001	-5.852218343665695E-002	3.2587985E-005	-5.5699724E-001	0
9.5489268E+003	4.361019909345487E+001	-5.5886102E-001	-5.852605405426221E-002	3.2707929E-005	-5.5899686E-001	0
9.5992607E+003	4.381019908840244E+001	-5.6083483E-001	-5.842479427034675E-002	3.2766660E-005	-5.6099677E-001	0
9.6359541E+003	4.401019908335002E+001	-5.6286609E-001	-5.841311176419439E-002	3.2878761E-005	-5.6299663E-001	0
9.6807432E+003	4.421019907829759E+001	-5.6487924E-001	-5.835081055409808E-002	3.2961161E-005	-5.6499648E-001	0
9.7217373E+003	4.441019907324517E+001	-5.6683588E-001	-5.830602760557632E-002	3.3049950E-005	-5.6699640E-001	0
9.7517764E+003	4.461019906819274E+001	-5.6884354E-001	-5.833229994297828E-002	3.3181954E-005	-5.6899625E-001	0
9.7961514E+003	4.481019906314032E+001	-5.7082039E-001	-5.826986251692479E-002	3.3261626E-005	-5.7099622E-001	0
9.8435674E+003	4.501019905808789E+001	-5.7282889E-001	-5.819321979342007E-002	3.3334756E-005	-5.7299602E-001	0
9.8873818E+003	4.521019905303547E+001	-5.7483041E-001	-5.813777662313169E-002	3.3419361E-005	-5.7499599E-001	0
9.9387705E+003	4.541019904798304E+001	-5.7684946E-001	-5.804032293230721E-002	3.3480530E-005	-5.7699585E-001	0
9.9748428E+003	4.561019904293062E+001	-5.7883966E-001	-5.802995478681594E-002	3.3590040E-005	-5.7899570E-001	0
1.0009645E+004	4.581019903787819E+001	-5.8082056E-001	-5.802609256464475E-002	3.3702749E-005	-5.8099562E-001	0
1.0058066E+004	4.601019903282577E+001	-5.8283967E-001	-5.794748899478330E-002	3.3774097E-005	-5.8299547E-001	0
1.0095248E+004	4.621019902777334E+001	-5.8484536E-001	-5.793273657752551E-002	3.3881694E-005	-5.8499539E-001	0
1.0137265E+004	4.641019902272092E+001	-5.8682221E-001	-5.788763040357847E-002	3.3969747E-005	-5.8699524E-001	0
1.0175022E+004	4.661019901766849E+001	-5.8881652E-001	-5.786881876249844E-002	3.4074117E-005	-5.8899510E-001	0
1.0218408E+004	4.681019901261607E+001	-5.9081459E-001	-5.781865117822237E-002	3.4160104E-005	-5.9099507E-001	0
1.0254262E+004	4.700999900756869E+001	-5.9284443E-001	-5.781444403441283E-002	3.4274970E-005	-5.9299469E-001	0
1.0299799E+004	4.720999900251627E+001	-5.9482175E-001	-5.775081153954820E-002	3.4351440E-005	-5.9499484E-001	0
1.0338342E+004	4.740999899746384E+001	-5.9683740E-001	-5.773047600553916E-002	3.4455708E-005	-5.9699470E-001	0
1.0385317E+004	4.760999899241142E+001	-5.9887499E-001	-5.766554753657172E-002	3.4534452E-005	-5.9899455E-001	0
1.0422113E+004	4.780999898735899E+001	-6.0084289E-001	-5.765077285627007E-002	3.4639059E-005	-6.0099447E-001	0
1.0470681E+004	4.800999898230657E+001	-6.0284907E-001	-5.757496363901504E-002	3.4709014E-005	-6.0299432E-001	0
1.0508899E+004	4.820999897725414E+001	-6.0483164E-001	-5.755423157752537E-002	3.4810619E-005	-6.0499424E-001	0
1.0550803E+004	4.840999897220172E+001	-6.0683334E-001	-5.751537020759612E-002	3.4902245E-005	-6.0699415E-001	0
1.0591400E+004	4.860999896714929E+001	-6.0884476E-001	-5.748482153786871E-002	3.4999332E-005	-6.0899401E-001	0
1.0635223E+004	4.880999896209687E+001	-6.1081886E-001	-5.743357320918008E-002	3.5081510E-005	-6.1099392E-001	0
1.0675060E+004	4.900999895704445E+001	-6.1284775E-001	-5.740930350199580E-002	3.5183162E-005	-6.1299378E-001	0
1.0714856E+004	4.920999895199202E+001	-6.1480445E-001	-5.737869426356799E-002	3.5276676E-005	-6.1499369E-001	0
1.0757443E+004	4.940999894693960E+001	-6.1682630E-001	-5.733948650763526E-002	3.5368503E-005	-6.1699355E-001	0
1.0790021E+004	4.960999894188717E+001	-6.1888462E-001	-5.735712749630106E-002	3.5497444E-005	-6.1899340E-001	0
1.0827318E+004	4.980999893683475E+001	-6.2083173E-001	-5.733938130461387E-002	3.5598106E-005	-6.2099332E-001	0
1.0865401E+004	5.000999893178232E+001	-6.2285888E-001	-5.732497715870588E-002	3.5705372E-005	-6.2299317E-001	0
1.0913529E+004	5.020999892672990E+001	-6.2484092E-001	-5.725379215918730E-002	3.5774512E-005	-6.2499315E-001	0
1.0957780E+004	5.040999892167747E+001	-6.2687552E-001	-5.720825866870184E-002	3.5862457E-005	-6.2699342E-001	0
1.0988798E+004	5.060979891663010E+001	-6.2885398E-001	-5.722682043020932E-002	3.5987312E-005	-6.2899292E-001	0
1.1030676E+004	5.080979891157767E+001	-6.3085306E-001	-5.719078943669753E-002	3.6078985E-005	-6.3099277E-001	0
1.1069818E+004	5.100979890652525E+001	-6.3285041E-001	-5.716899666479081E-002	3.6179423E-005	-6.3299263E-001	0
1.1118304E+004	5.120979890147282E+001	-6.3486010E-001	-5.710044751036680E-002	3.6250796E-005	-6.3499254E-001	0
1.1146305E+004	5.140979889642040E+001	-6.3682973E-001	-5.713371097008829E-002	3.6384445E-005	-6.3699239E-001	0
1.1186607E+004	5.160979889136797E+001	-6.3884479E-001	-5.710800013678093E-002	3.6483147E-005	-6.3899231E-001	0
1.1230337E+004	5.180979888631555E+001	-6.4086157E-001	-5.706521265246722E-002	3.6570902E-005	-6.4099222E-001	0
1.1267627E+004	5.200979888126312E+001	-6.4287496E-001	-5.705504653533988E-002	3.6679259E-005	-6.4299208E-001	0
1.1304115E+004	5.220979887621070E+001	-6.4485031E-001	-5.704562417590514E-002	3.6785888E-005	-6.4499199E-001	0
1.1341607E+004	5.240979887115827E+001	-6.4684260E-001	-5.703271017937839E-002	3.6891186E-005	-6.4699185E-001	0
1.1383246E+004	5.260979886610585E+001	-6.4883256E-001	-5.699890696014920E-002	3.6982747E-005	-6.4899176E-001	0
1.1411491E+004	5.280979886105342E+001	-6.5089607E-001	-5.703865193398627E-002	3.7126236E-005	-6.5099162E-001	0
1.1462837E+004	5.300979885600100E+001	-6.5289813E-001	-5.695781510855480E-002	3.7187652E-005	-6.5299147E-001	0
1.1497273E+004	5.320979885094857E+001	-6.5485674E-001	-5.695757023407255E-002	3.7299047E-005	-6.5499145E-001	0
1.1531071E+004	5.340979884589615E+001	-6.5687799E-001	-5.696591271495111E-002	3.7419653E-005	-6.5699124E-001	0
1.1567445E+004	5.360979884084372E+001	-6.5887928E-001	-5.695979367696613E-002	3.7529629E-005	-6.5899122E-001	0
1.1600496E+004	5.380979883579130E+001	-6.6091317E-001	-5.697283591460572E-002	3.7654099E-005	-6.6099107E-001	0
1.1643027E+004	5.400969883074140E+001	-6.6287261E-001	-5.693301252177163E-002	3.7739333E-005	-6.6299117E-001	0
1.1676785E+004	5.420959882569150E+001	-6.6486371E-001	-5.693893318060272E-002	3.7856629E-005	-6.6499084E-001	0
1.1719521E+004	5.440959882063908E+001	-6.6688508E-001	-5.690378209105074E-002	3.7948284E-005	-6.6699070E-001	0
1.1734099E+004	5.460959881558665E+001	-6.6888255E-001	-5.700331611681270E-002	3.8128524E-005	-6.6899061E-001	0
1.1783501E+004	5.480959881053423E+001	-6.7087191E-001	-5.693315940723265E-002	3.8194859E-005	-6.7099047E-001	0
1.1813422E+004	5.500959880548180E+001	-6.7284948E-001	-5.695635662942111E-002	3.8323054E-005	-6.7299038E-001	0
1.1858589E+004	5.520959880042938E+001	-6.7484713E-001	-5.690787880958104E-002	3.8404120E-005	-6.7499030E-001	0
1.1865441E+004	5.540959879537695E+001	-6.7685205E-001	-5.704398472242218E-002	3.8610338E-005	-6.7699015E-001	0
1.1918403E+004	5.560959879032453E+001	-6.7884368E-001	-5.695760074069467E-002	3.8665308E-005	-6.7899013E-001	0
1.1933574E+004	5.580959878527210E+001	-6.8084586E-001	-5.705297246465535E-002	3.8844279E-005	-6.8098998E-001	0
1.1982087E+004	5.600959878021968E+001	-6.8283349E-001	-5.698785981978544E-002	3.8913218E-005	-6.8298984E-001	0
1.2019589E+004	5.620959877516725E+001	-6.8482113E-001	-5.697541940923556E-002	3.9017970E-005	-6.8498969E-001	0
1.2035590E+004	5.640959877011483E+001	-6.8683028E-001	-5.706660560270982E-002	3.9195074E-005	-6.8698961E-001	0
1.2070310E+004	5.660959876506240E+001	-6.8882662E-001	-5.706785227300894E-002	3.9309856E-005	-6.8898952E-001	0
1.2115759E+004	5.680959876000998E+001	-6.9082940E-001	-5.701907787127763E-002	3.9390456E-005	-6.9098938E-001	0
1.2117800E+004	5.700959875495755E+001	-6.9284040E-001	-5.717542944655540E-002	3.9613446E-005	-6.9298923E-001	0
1.2160583E+004	5.720959874990513E+001	-6.9485801E-001	-5.714019082640781E-002	3.9704319E-005	-6.9498914E-001	0
1.2178124E+004	5.740959874485270E+001	-6.9686991E-001	-5.722309319965554E-002	3.9877053E-005	-6.9698906E-001	0
1.2224022E+004	5.760939873980533E+001	-6.9883740E-001	-5.716918603291776E-002	3.9951967E-005	-6.9898880E-001	0
1.2251660E+004	5.780939873475290E+001	-7.0086825E-001	-5.720598019855871E-002	4.0093855E-005	-7.0098883E-001	0
1.2279556E+004	5.800939872970048E+001	-7.0288575E-001	-5.724032372056775E-002	4.0233408E-005	-7.0298874E-001	0
1.2297259E+004	5.820939872464805E+001	-7.0483875E-001	-5.731673576275628E-002	4.0399056E-005	-7.0498866E-001	0
1.2313902E+004	5.840939871959563E+001	-7.0686752E-001	-5.740402180167165E-002	4.0577037E-005	-7.0698845E-001	0
1.2329463E+004	5.860939871454320E+001	-7.0887065E-001	-5.749404263342672E-002	4.0755840E-005	-7.0898837E-001	0
1.2374577E+004	5.880939870949078E+001	-7.1082819E-001	-5.744262321328397E-002	4.0831837E-005	-7.1098828E-001	0
1.2388490E+004	5.900939870443835E+001	-7.1286070E-001	-5.754217657296512E-002	4.1019557E-005	-7.1298820E-001	0
1.2413758E+004	5.920939869938593E+001	-7.1482754E-001	-5.758349095416304E-002	4.1162264E-005	-7.1498805E-001	0
1.2442621E+004	5.940939869433350E+001	-7.1685511E-001	-5.761286839230362E-002	4.1300078E-005	-7.1698791E-001	0
1.2489283E+004	5.960939868928108E+001	-7.1881694E-001	-5.755469716437034E-002	4.1371291E-005	-7.1898788E-001	0
1.2500438E+004	5.980939868422865E+001	-7.2089243E-001	-5.766936956509905E-002	4.1573410E-005	-7.2098768E-001	0
1.2534657E+004	6.000939867917623E+001	-7.2283828E-001	-5.766717711138351E-002	4.1684045E-005	-7.2298759E-001	0
1.2533119E+004	6.020939867412380E+001	-7.2485846E-001	-5.783544131501846E-002	4.1922511E-005	-7.2498751E-001	0
1.2571102E+004	6.040939866907138E+001	-7.2680944E-001	-5.781588955072781E-002	4.2021133E-005	-7.2698730E-001	0
1.2602881E+004	6.060939866401895E+001	-7.2882557E-001	-5.783007778501881E-002	4.2148040E-005	-7.2898722E-001	0
1.2617861E+004	6.080939865896653E+001	-7.3089880E-001	-5.792572773367921E-002	4.2337844E-005	-7.3098713E-001	0
1.2627446E+004	6.100929865391663E+001	-7.3282391E-001	-5.803421310353163E-002	4.2528860E-005	-7.3298657E-001	0
1.2665204E+004	6.120919864886673E+001	-7.3485142E-001	-5.802128646288329E-002	4.2637024E-005	-7.3498690E-001	0
1.2683229E+004	6.140919864381431E+001	-7.3683345E-001	-5.809509617069519E-002	4.2806409E-005	-7.3698676E-001	0
1.2710473E+004	6.160919863876188E+001	-7.3880941E-001	-5.812603588767190E-002	4.2944062E-005	-7.3898673E-001	0
1.2727216E+004	6.180919863370946E+001	-7.4083519E-001	-5.820873734021677E-002	4.3123080E-005	-7.4098653E-001	0
1.2724272E+004	6.200919862865703E+001	-7.4283779E-001	-5.837958654052997E-002	4.3366563E-005	-7.4298644E-001	0
1.2734660E+004	6.220919862360461E+001	-7.4489766E-001	-5.849372154965465E-002	4.3571836E-005	-7.4498636E-001	0
1.2755508E+004	6.240919861855218E+001	-7.4682969E-001	-5.854958431666413E-002	4.3726566E-005	-7.4698615E-001	0
1.2806771E+004	6.260919861349976E+001	-7.4885154E-001	-5.847309753478247E-002	4.3787670E-005	-7.4898612E-001	0
1.2796931E+004	6.280919860844733E+001	-7.5087166E-001	-5.867592054271364E-002	4.4058084E-005	-7.5098598E-001	0
1.2791429E+004	6.300919860339491E+001	-7.5283200E-001	-5.885440973003231E-002	4.4307482E-005	-7.5298589E-001	0
1.2804515E+004	6.320919859834248E+001	-7.5489414E-001	-5.895531078211369E-002	4.4505017E-005	-7.5498575E-001	0
1.2825087E+004	6.340919859329006E+001	-7.5686508E-001	-5.901442227680254E-002	4.4665954E-005	-7.5698560E-001	0
1.2846888E+004	6.360919858823763E+001	-7.5885934E-001	-5.906950832923275E-002	4.4825447E-005	-7.5898558E-001	0
1.2842096E+004	6.380919858318521E+001	-7.6086593E-001	-5.924779973351851E-002	4.5079632E-005	-7.6098537E-001	0
1.2845606E+004	6.400919857813278E+001	-7.6284015E-001	-5.938529624031352E-002	4.5301487E-005	-7.6298529E-001	0
1.2828382E+004	6.420919857308036E+001	-7.6487625E-001	-5.962375181044988E-002	4.5604793E-005	-7.6498520E-001	0
1.2845765E+004	6.440919856802793E+001	-7.6687002E-001	-5.969827943122485E-002	4.5780820E-005	-7.6698512E-001	0
1.2870482E+004	6.460909856297803E+001	-7.6886886E-001	-5.973893124779062E-002	4.5931403E-005	-7.6898527E-001	0
1.2903874E+004	6.480899855792813E+001	-7.7087241E-001	-5.973960895222225E-002	4.6051617E-005	-7.7098483E-001	0
1.2888570E+004	6.500899855287571E+001	-7.7281892E-001	-5.996157261891433E-002	4.6339439E-005	-7.7298480E-001	0
1.2881891E+004	6.520899854782328E+001	-7.7484334E-001	-6.014981305663802E-002	4.6606681E-005	-7.7498460E-001	0
1.2883999E+004	6.540899854277086E+001	-7.7682799E-001	-6.029401130471646E-002	4.6838075E-005	-7.7698451E-001	0
1.2894223E+004	6.560899853771843E+001	-7.7887630E-001	-6.040505869599166E-002	4.7048070E-005	-7.7898443E-001	0
1.2880728E+004	6.580899853266601E+001	-7.8084326E-001	-6.062105068379431E-002	4.7335539E-005	-7.8098422E-001	0
1.2861947E+004	6.600899852761358E+001	-7.8285354E-001	-6.086586617976608E-002	4.7649060E-005	-7.8298426E-001	0
1.2849189E+004	6.620899852256116E+001	-7.8485423E-001	-6.108200248983398E-002	4.7940470E-005	-7.8498411E-001	0
1.2853615E+004	6.640899851750874E+001	-7.8684175E-001	-6.121559939167731E-002	4.8166989E-005	-7.8698403E-001	0
1.2873750E+004	6.660899851245631E+001	-7.8883809E-001	-6.127492906346210E-002	4.8335998E-005	-7.8898388E-001	0
1.2840432E+004	6.680899850740389E+001	-7.9080957E-001	-6.158745806461496E-002	4.8703951E-005	-7.9098374E-001	0
1.2833966E+004	6.700899850235146E+001	-7.9281604E-001	-6.177483016969254E-002	4.8976075E-005	-7.9298365E-001	0
1.2785506E+004	6.720899849729904E+001	-7.9487252E-001	-6.216981437832314E-002	4.9417078E-005	-7.9498357E-001	0
1.2790000E+004	6.740899849224661E+001	-7.9686481E-001	-6.230373926726873E-002	4.9647657E-005	-7.9698348E-001	0
1.2761118E+004	6.760899848719419E+001	-7.9882067E-001	-6.259801352920358E-002	5.0004586E-005	-7.9898328E-001	0
1.2762176E+004	6.780899848214176E+001	-8.0084890E-001	-6.275175296165059E-002	5.0254672E-005	-8.0098319E-001	0
1.2721304E+004	6.800889847709186E+001	-8.0280918E-001	-6.310746035861409E-002	5.0663250E-005	-8.0298221E-001	0
1.2669583E+004	6.820889847203944E+001	-8.0482781E-001	-6.352441115626173E-002	5.1126211E-005	-8.0498385E-001	0
1.2666313E+004	6.840879846698954E+001	-8.0682528E-001	-6.369851377017599E-002	5.1393570E-005	-8.0698287E-001	0
1.2627009E+004	6.860879846193711E+001	-8.0887997E-001	-6.405950970673202E-002	5.1816456E-005	-8.0898273E-001	0
1.2588075E+004	6.880879845688469E+001	-8.1083542E-001	-6.441297949726810E-002	5.2228326E-005	-8.1098258E-001	0
1.2532815E+004	6.900879845183226E+001	-8.1283545E-001	-6.485657240982157E-002	5.2717722E-005	-8.1298256E-001	0
1.2462350E+004	6.920879844677984E+001	-8.1483084E-001	-6.538340275211740E-002	5.3276413E-005	-8.1498241E-001	0
1.2457593E+004	6.940879844172741E+001	-8.1685430E-001	-6.557080016446104E-002	5.3561791E-005	-8.1698233E-001	0
1.2395912E+004	6.960879843667499E+001	-8.1882823E-001	-6.605631057669309E-002	5.4088770E-005	-8.1898212E-001	0
1.2331969E+004	6.980879843162256E+001	-8.2086825E-001	-6.656424903211566E-002	5.4640477E-005	-8.2098204E-001	0
1.2282279E+004	7.000879842657014E+001	-8.2288200E-001	-6.699749771896263E-002	5.5131033E-005	-8.2298195E-001	0
1.2207093E+004	7.020879842151771E+001	-8.2486045E-001	-6.757222921133488E-002	5.5737659E-005	-8.2498181E-001	0
1.2124674E+004	7.040879841646529E+001	-8.2683498E-001	-6.819441178792460E-002	5.6385525E-005	-8.2698172E-001	0
1.2045556E+004	7.060879841141286E+001	-8.2886124E-001	-6.881054360609540E-002	5.7034391E-005	-8.2898164E-001	0
1.1990252E+004	7.080879840636044E+001	-8.3085597E-001	-6.929428732104981E-002	5.7573572E-005	-8.3098143E-001	0
1.1891429E+004	7.100879840130801E+001	-8.3283889E-001	-7.003690970453347E-002	5.8329464E-005	-8.3298141E-001	0
1.1766696E+004	7.120879839625559E+001	-8.3484036E-001	-7.094942785951545E-002	5.9231446E-005	-8.3498126E-001	0
1.1627069E+004	7.140879839120316E+001	-8.3684641E-001	-7.197397741459532E-002	6.0231163E-005	-8.3698124E-001	0
1.1480236E+004	7.160879838615074E+001	-8.3885735E-001	-7.306969652634554E-002	6.1295053E-005	-8.3898097E-001	0
1.1297305E+004	7.180869838110084E+001	-8.4088457E-001	-7.443231592738875E-002	6.2588988E-005	-8.4098178E-001	0
1.1069355E+004	7.200859837605094E+001	-8.4280610E-001	-7.613867632421722E-002	6.4170141E-005	-8.4298086E-001	0
1.0812071E+004	7.220859837099852E+001	-8.4483546E-001	-7.813816695197462E-002	6.6013898E-005	-8.4498066E-001	0
1.0480520E+004	7.240859836594609E+001	-8.4690845E-001	-8.080786647953020E-002	6.8436864E-005	-8.4698057E-001	0
1.0133945E+004	7.260859836089367E+001	-8.4885132E-001	-8.376316123065486E-002	7.1102470E-005	-8.4898049E-001	0
9.7618467E+003	7.280859835584124E+001	-8.5087001E-001	-8.716281125313574E-002	7.4164222E-005	-8.5098028E-001	0
9.3719238E+003	7.300859835078882E+001	-8.5289311E-001	-9.100512231281954E-002	7.7617646E-005	-8.5298032E-001	0
9.0122178E+003	7.320859834573639E+001	-8.5482562E-001	-9.485186300189774E-002	8.1081802E-005	-8.5498011E-001	0
8.6722764E+003	7.340859834068397E+001	-8.5686761E-001	-9.880538678267703E-002	8.4663137E-005	-8.5698009E-001	0
8.3583936E+003	7.360859833563154E+001	-8.5889190E-001	-1.027580078484285E-001	8.8258021E-005	-8.5897988E-001	0
8.1193403E+003	7.380859833057912E+001	-8.6085975E-001	-1.060258270454615E-001	9.1273367E-005	-8.6097980E-001	0
7.9169663E+003	7.400859832552669E+001	-8.6284131E-001	-1.089863525883059E-001	9.4037925E-005	-8.6297971E-001	0
7.7582285E+003	7.420859832047427E+001	-8.6483109E-001	-1.114727498513651E-001	9.6405100E-005	-8.6497962E-001	0
7.6539282E+003	7.440859831542184E+001	-8.6683339E-001	-1.132533964922740E-001	9.8171826E-005	-8.6697954E-001	0
7.5672461E+003	7.460859831036942E+001	-8.6882418E-001	-1.148137896830665E-001	9.9753001E-005	-8.6897933E-001	0
7.5320952E+003	7.480859830531699E+001	-8.7087202E-001	-1.156214827696989E-001	1.0069151E-004	-8.7097925E-001	0
7.5130161E+003	7.500859830026457E+001	-8.7286496E-001	-1.161803627120594E-001	1.0140977E-004	-8.7297916E-001	0
7.5362788E+003	7.520849829521467E+001	-8.7487662E-001	-1.160886709540108E-001	1.0156327E-004	-8.7497836E-001	0
7.5348423E+003	7.540839829016477E+001	-8.7680626E-001	-1.163669037326429E-001	1.0203123E-004	-8.7697893E-001	0
7.5559067E+003	7.560839828511234E+001	-8.7884349E-001	-1.163121122643014E-001	1.0222014E-004	-8.7897873E-001	0
7.5811050E+003	7.580839828005992E+001	-8.8081300E-001	-1.161853038249723E-001	1.0233753E-004	-8.8097864E-001	0
7.5589482E+003	7.600839827500749E+001	-8.8281167E-001	-1.167902801768712E-001	1.0310382E-004	-8.8297856E-001	0
7.5060947E+003	7.620839826995507E+001	-8.8483459E-001	-1.178821524892362E-001	1.0430621E-004	-8.8497847E-001	0
7.4240820E+003	7.640839826490264E+001	-8.8685238E-001	-1.194561636254878E-001	1.0593998E-004	-8.8697839E-001	0
7.3132998E+003	7.660839825985022E+001	-8.8884068E-001	-1.215375685777151E-001	1.0802753E-004	-8.8897818E-001	0
7.1627256E+003	7.680839825479779E+001	-8.9081055E-001	-1.243675366939465E-001	1.1078791E-004	-8.9097810E-001	0
6.9762607E+003	7.700839824974537E+001	-8.9285696E-001	-1.279850318075461E-001	1.1427233E-004	-8.9297837E-001	0
6.7777573E+003	7.720839824469294E+001	-8.9482075E-001	-1.320231363479287E-001	1.1813704E-004	-8.9497882E-001	0
6.5277896E+003	7.740839823964052E+001	-8.9684319E-001	-1.373884970746731E-001	1.2321594E-004	-8.9697880E-001	0
6.2306250E+003	7.760839823458809E+001	-8.9886892E-001	-1.442662477419368E-001	1.2967645E-004	-8.9897877E-001	0
5.8648149E+003	7.780839822953567E+001	-9.0086633E-001	-1.536052420338332E-001	1.3837779E-004	-9.0097880E-001	0
5.4831353E+003	7.800839822448324E+001	-9.0284479E-001	-1.646584976779177E-001	1.4866107E-004	-9.0297884E-001	0
5.0751108E+003	7.820839821943082E+001	-9.0485352E-001	-1.782923675070427E-001	1.6132848E-004	-9.0497881E-001	0
4.6703940E+003	7.840839821437839E+001	-9.0685898E-001	-1.941718336906444E-001	1.7608647E-004	-9.0697879E-001	0
4.2798647E+003	7.860839820932597E+001	-9.0881455E-001	-2.123465588793598E-001	1.9298364E-004	-9.0897888E-001	0
3.8942942E+003	7.880839820427354E+001	-9.1082835E-001	-2.338879165110797E-001	2.1303174E-004	-9.1097891E-001	0
3.4868721E+003	7.900839819922112E+001	-9.1283792E-001	-2.617927766880213E-001	2.3897437E-004	-9.1297883E-001	0
3.1294255E+003	7.920839819416869E+001	-9.1486239E-001	-2.923419498384432E-001	2.6745265E-004	-9.1497880E-001	0
2.8271431E+003	7.940839818911627E+001	-9.1685075E-001	-3.243029172703329E-001	2.9733736E-004	-9.1697890E-001	0
2.5451045E+003	7.960839818406384E+001	-9.1883641E-001	-3.610210967547944E-001	3.3171932E-004	-9.1897875E-001	0
2.2212524E+003	7.980839817901142E+001	-9.2088139E-001	-4.145775629237045E-001	3.8177677E-004	-9.2097878E-001	0
1.9982096E+003	8.000839817395899E+001	-9.2286038E-001	-4.618436389321851E-001	4.2621719E-004	-9.2297882E-001	0
1.7673655E+003	8.020839816890657E+001	-9.2484778E-001	-5.232917562025721E-001	4.8396521E-004	-9.2497879E-001	0
1.5638378E+003	8.040839816385414E+001	-9.2685544E-001	-5.926800316828986E-001	5.4932869E-004	-9.2697877E-001	0
1.3715034E+003	8.060839815880172E+001	-9.2886299E-001	-6.772589822154060E-001	6.2908081E-004	-9.2897880E-001	0
1.2187218E+003	8.080839815374929E+001	-9.3086869E-001	-7.638073539627444E-001	7.1100437E-004	-9.3097878E-001	0
1.0752289E+003	8.100839814869687E+001	-9.3282843E-001	-8.675626761822759E-001	8.0928713E-004	-9.3297875E-001	0
9.4111920E+002	8.120839814364444E+001	-9.3487418E-001	-9.933642757942458E-001	9.2867063E-004	-9.3497884E-001	0
8.2578601E+002	8.142839813808678E+001	-9.3703783E-001	-1.134722314236154E+000	1.0632777E-003	-9.3717891E-001	0
7.2415656E+002	8.162839813303435E+001	-9.3901306E-001	-1.296699028267877E+000	1.2176173E-003	-9.3917876E-001	0
6.3921924E+002	8.182839812798193E+001	-9.4100493E-001	-1.472116043288562E+000	1.3852684E-003	-9.4117880E-001	0
5.6258575E+002	8.202839812292950E+001	-9.4304848E-001	-1.676275145304708E+000	1.5808088E-003	-9.4317883E-001	0
4.9856006E+002	8.222839811787708E+001	-9.4504255E-001	-1.895544095813825E+000	1.7913699E-003	-9.4517881E-001	0
4.4172644E+002	8.242839811282465E+001	-9.4702858E-001	-2.143925479395726E+000	2.0303586E-003	-9.4717878E-001	0
3.9116043E+002	8.262839810777223E+001	-9.4901609E-001	-2.426155627753730E+000	2.3024608E-003	-9.4917881E-001	0
3.4863895E+002	8.282839810271980E+001	-9.5107096E-001	-2.727953982833036E+000	2.5944777E-003	-9.5117879E-001	0
3.1034811E+002	8.302839809766738E+001	-9.5306140E-001	-3.070942980463272E+000	2.9267971E-003	-9.5317876E-001	0
2.7754343E+002	8.322839809261495E+001	-9.5506424E-001	-3.441134476641404E+000	3.2865044E-003	-9.5517886E-001	0
2.4863614E+002	8.342839808756253E+001	-9.5701009E-001	-3.849038679989022E+000	3.6835689E-003	-9.5717883E-001	0
2.2367520E+002	8.362839808251010E+001	-9.5905191E-001	-4.287698768907118E+000	4.1121258E-003	-9.5917881E-001	0
2.0124611E+002	8.382839807745768E+001	-9.6111387E-001	-4.775813454369299E+000	4.5901006E-003	-9.6117884E-001	0
1.8227271E+002	8.402839807240525E+001	-9.6304846E-001	-5.283558236092915E+000	5.0883228E-003	-9.6317887E-001	0
1.6524138E+002	8.422839806735283E+001	-9.6506017E-001	-5.840305758711974E+000	5.6362464E-003	-9.6517891E-001	0
1.5047981E+002	8.442839806230040E+001	-9.6704859E-001	-6.426433832129135E+000	6.2146736E-003	-9.6717882E-001	0
1.3723334E+002	8.462839805724798E+001	-9.6904737E-001	-7.061312044356185E+000	6.8427459E-003	-9.6917880E-001	0
1.2581617E+002	8.482839805219555E+001	-9.7102571E-001	-7.717813267864614E+000	7.4941949E-003	-9.7117889E-001	0
1.1540117E+002	8.502839804714313E+001	-9.7307795E-001	-8.432132817652764E+000	8.2051223E-003	-9.7317874E-001	0
1.0626131E+002	8.522839804209070E+001	-9.7508311E-001	-9.176276334694464E+000	8.9476323E-003	-9.7517878E-001	0
9.8094238E+001	8.542839803703828E+001	-9.7700697E-001	-9.959881624059051E+000	9.7308736E-003	-9.7717881E-001	0
9.0315269E+001	8.563839803173323E+001	-9.7913933E-001	-1.084134834335771E+001	1.0615190E-002	-9.7927880E-001	0
8.3397224E+001	8.584839802642819E+001	-9.8121846E-001	-1.176560057000245E+001	1.1544624E-002	-9.8137879E-001	0
7.7628922E+001	8.604839802137576E+001	-9.8323220E-001	-1.266579740611061E+001	1.2453420E-002	-9.8337871E-001	0
7.2571457E+001	8.624839801632334E+001	-9.8525548E-001	-1.357634957266498E+001	1.3376173E-002	-9.8537874E-001	0
6.7960503E+001	8.644839801127091E+001	-9.8724365E-001	-1.452672639996013E+001	1.4341419E-002	-9.8737878E-001	0
6.3795689E+001	8.664839800621849E+001	-9.8924702E-001	-1.550648678024877E+001	1.5339746E-002	-9.8937881E-001	0
6.0011032E+001	8.684839800116606E+001	-9.9121201E-001	-1.651716362429846E+001	1.6372010E-002	-9.9137872E-001	0
5.6607029E+001	8.704839799611364E+001	-9.9327570E-001	-1.754686207511799E+001	1.7428871E-002	-9.9337870E-001	0
5.3476360E+001	8.724839799106121E+001	-9.9525958E-001	-1.861120625607276E+001	1.8522982E-002	-9.9537879E-001	0
5.0605938E+001	8.744839798600879E+001	-9.9725538E-001	-1.970629254449790E+001	1.9652206E-002	-9.9737883E-001	0
4.7949905E+001	8.764839798095636E+001	-9.9925828E-001	-2.083963063014613E+001	2.0824173E-002	-9.9937874E-001	0
4.5544533E+001	8.784839797590394E+001	-1.0012853E+000	-2.198475309645502E+001	2.2013010E-002	-1.0013789E+000	0
4.3294704E+001	8.804839797085151E+001	-1.0032469E+000	-2.317250788820039E+001	2.3247747E-002	-1.0033789E+000	0
4.1270187E+001	8.824839796579909E+001	-1.0052867E+000	-2.435866632712930E+001	2.4487443E-002	-1.0053788E+000	0
3.9345005E+001	8.844839796074666E+001	-1.0072880E+000	-2.560142053606290E+001	2.5788004E-002	-1.0073787E+000	0
3.7633339E+001	8.864839795569424E+001	-1.0092732E+000	-2.681859121192883E+001	2.7067285E-002	-1.0093789E+000	0
3.5989059E+001	8.884839795064181E+001	-1.0112908E+000	-2.809995147268239E+001	2.8417222E-002	-1.0113789E+000	0
3.4484314E+001	8.904839794558939E+001	-1.0132923E+000	-2.938415057075269E+001	2.9774735E-002	-1.0133789E+000	0
3.3098434E+001	8.924839794053696E+001	-1.0152650E+000	-3.067410756400915E+001	3.1142347E-002	-1.0153788E+000	0
3.1809084E+001	8.944839793548454E+001	-1.0172795E+000	-3.198078633733348E+001	3.2533400E-002	-1.0173788E+000	0
3.0583490E+001	8.964839793043211E+001	-1.0192542E+000	-3.332694192619272E+001	3.3968627E-002	-1.0193789E+000	0
2.9403931E+001	8.984839792537969E+001	-1.0212743E+000	-3.473257817135354E+001	3.5471492E-002	-1.0213789E+000	0
2.8309856E+001	9.004839792032726E+001	-1.0232794E+000	-3.614569579041188E+001	3.6987148E-002	-1.0233788E+000	0
2.7275017E+001	9.024839791527484E+001	-1.0252597E+000	-3.758970164063294E+001	3.8539208E-002	-1.0253788E+000	0
2.6279625E+001	9.044839791022241E+001	-1.0272874E+000	-3.909063991343339E+001	4.0157322E-002	-1.0273787E+000	0
2.5352781E+001	9.064839790516999E+001	-1.0292933E+000	-4.059883210718505E+001	4.1788105E-002	-1.0293788E+000	0
2.4440056E+001	9.084849790011504E+001	-1.0312493E+000	-4.219504491578738E+001	4.3513611E-002	-1.0313796E+000	0
2.3578793E+001	9.104859789506008E+001	-1.0332662E+000	-4.382184576555704E+001	4.5279633E-002	-1.0333809E+000	0
2.2788393E+001	9.124859789000766E+001	-1.0353132E+000	-4.543160551610714E+001	4.7035944E-002	-1.0353808E+000	0
2.2010843E+001	9.144859788495523E+001	-1.0372993E+000	-4.712673820038253E+001	4.8884530E-002	-1.0373807E+000	0
2.1272850E+001	9.164859787990281E+001	-1.0392854E+000	-4.885501714358236E+001	5.0774306E-002	-1.0393808E+000	0
2.0572132E+001	9.184859787485038E+001	-1.0412917E+000	-5.061661811047964E+001	5.2706666E-002	-1.0413809E+000	0
1.9867262E+001	9.204859786979796E+001	-1.0433279E+000	-5.251493525396955E+001	5.4790299E-002	-1.0433809E+000	0
1.9210346E+001	9.224859786474553E+001	-1.0452722E+000	-5.441194341944981E+001	5.6875292E-002	-1.0453808E+000	0
1.8559336E+001	9.244859785969311E+001	-1.0473139E+000	-5.643057380836308E+001	5.9100527E-002	-1.0473808E+000	0
1.7918003E+001	9.264859785464068E+001	-1.0492855E+000	-5.856040455749007E+001	6.1446585E-002	-1.0493809E+000	0
1.7310699E+001	9.284859784958826E+001	-1.0513064E+000	-6.073159080784353E+001	6.3847505E-002	-1.0513809E+000	0
1.6723213E+001	9.304859784453583E+001	-1.0533394E+000	-6.298665758811967E+001	6.6346325E-002	-1.0533808E+000	0
1.6192204E+001	9.324859783948341E+001	-1.0553378E+000	-6.517567288037606E+001	6.8782352E-002	-1.0553808E+000	0
1.5679648E+001	9.344859783443098E+001	-1.0572921E+000	-6.743085708693866E+001	7.1294114E-002	-1.0573807E+000	0
1.5166373E+001	9.364859782937856E+001	-1.0593249E+000	-6.984694474678736E+001	7.3990606E-002	-1.0593809E+000	0
1.4739413E+001	9.384859782432613E+001	-1.0613419E+000	-7.200706554594473E+001	7.6424114E-002	-1.0613809E+000	0
1.4335163E+001	9.404859781927371E+001	-1.0633594E+000	-7.417839624822227E+001	7.8878291E-002	-1.0633808E+000	0
1.3946534E+001	9.424859781422128E+001	-1.0653329E+000	-7.638692602008371E+001	8.1377506E-002	-1.0653808E+000	0
1.3598180E+001	9.444859780916886E+001	-1.0672973E+000	-7.848825064105509E+001	8.3770297E-002	-1.0673808E+000	0
1.3261334E+001	9.464859780411643E+001	-1.0693063E+000	-8.063338473540591E+001	8.6221784E-002	-1.0693809E+000	0
1.2929466E+001	9.484859779906401E+001	-1.0712911E+000	-8.285655793473268E+001	8.8763490E-002	-1.0713809E+000	0
1.2584635E+001	9.504859779401158E+001	-1.0732921E+000	-8.528592090703967E+001	9.1536708E-002	-1.0733807E+000	0
1.2290090E+001	9.524859778895916E+001	-1.0752668E+000	-8.749056307150386E+001	9.4075702E-002	-1.0753808E+000	0
1.2011806E+001	9.544859778390673E+001	-1.0772991E+000	-8.968669414195847E+001	9.6619397E-002	-1.0773808E+000	0
1.1720308E+001	9.564859777885431E+001	-1.0793312E+000	-9.209067727162483E+001	9.9396341E-002	-1.0793808E+000	0
1.1430211E+001	9.584859777380188E+001	-1.0813384E+000	-9.460353492879472E+001	1.0229844E-001	-1.0813808E+000	0
1.1182489E+001	9.604859776874946E+001	-1.0833781E+000	-9.688165156424975E+001	1.0495946E-001	-1.0833808E+000	0
1.0949165E+001	9.624859776369703E+001	-1.0853493E+000	-9.912621764152800E+001	1.0758657E-001	-1.0853808E+000	0
1.0738629E+001	9.644859775864461E+001	-1.0873696E+000	-1.012577567651967E+002	1.1010461E-001	-1.0873808E+000	0
1.0531701E+001	9.664859775359218E+001	-1.0894109E+000	-1.034411147922076E+002	1.1268988E-001	-1.0893809E+000	0
1.0331101E+001	9.684859774853976E+001	-1.0913926E+000	-1.056414565261530E+002	1.1529630E-001	-1.0913808E+000	0
1.0119467E+001	9.704859774348733E+001	-1.0934082E+000	-1.080499882946750E+002	1.1814275E-001	-1.0933808E+000	0
9.8556166E+000	9.725859773818229E+001	-1.0954616E+000	-1.111509960670865E+002	1.2176165E-001	-1.0954809E+000	0
9.6358013E+000	9.746859773287724E+001	-1.0975713E+000	-1.139055461656476E+002	1.2501945E-001	-1.0975808E+000	0
9.4507895E+000	9.766859772782482E+001	-1.0995431E+000	-1.163440518854961E+002	1.2792529E-001	-1.0995808E+000	0
9.2823343E+000	9.786859772277239E+001	-1.1015353E+000	-1.186700810456221E+002	1.3071929E-001	-1.1015809E+000	0
9.1273890E+000	9.806859771771997E+001	-1.1034658E+000	-1.208961065934629E+002	1.3340472E-001	-1.1035808E+000	0
8.9772224E+000	9.826859771266754E+001	-1.1055379E+000	-1.231492182294792E+002	1.3614613E-001	-1.1055808E+000	0
8.8308506E+000	9.846859770761512E+001	-1.1075425E+000	-1.254174235726705E+002	1.3890512E-001	-1.1075808E+000	0
8.6825390E+000	9.866859770256269E+001	-1.1095042E+000	-1.277856875439084E+002	1.4177877E-001	-1.1095809E+000	0
8.5322971E+000	9.886859769751027E+001	-1.1115656E+000	-1.302774173797125E+002	1.4481190E-001	-1.1115808E+000	0
8.3853550E+000	9.906859769245784E+001	-1.1135749E+000	-1.327999706733251E+002	1.4788271E-001	-1.1135808E+000	0
8.1999846E+000	9.926859768740542E+001	-1.1155787E+000	-1.360464356134814E+002	1.5177050E-001	-1.1155808E+000	0
8.0863142E+000	9.946859768235299E+001	-1.1175209E+000	-1.381990556900737E+002	1.5444034E-001	-1.1175808E+000	0
7.9485049E+000	9.966859767730057E+001	-1.1195630E+000	-1.408520212270779E+002	1.5769272E-001	-1.1195809E+000	0
7.8471732E+000	9.986859767224814E+001	-1.1215379E+000	-1.429225411750294E+002	1.6029304E-001	-1.1215808E+000	0
7.7351642E+000	1.000685976671957E+002	-1.1235480E+000	-1.452519970729500E+002	1.6319759E-001	-1.1235808E+000	0
7.5829110E+000	1.002685976621433E+002	-1.1255636E+000	-1.484342342731366E+002	1.6707218E-001	-1.1255808E+000	0
7.4985390E+000	1.004685976570909E+002	-1.1275436E+000	-1.503684365484453E+002	1.6954696E-001	-1.1275808E+000	0
7.4140038E+000	1.006685976520384E+002	-1.1295327E+000	-1.523512461526066E+002	1.7208572E-001	-1.1295809E+000	0
7.3302655E+000	1.008685976469860E+002	-1.1315737E+000	-1.543700832152845E+002	1.7468113E-001	-1.1315808E+000	0
7.1891127E+000	1.010685976419336E+002	-1.1335378E+000	-1.576742205014302E+002	1.7872968E-001	-1.1335808E+000	0
7.0651913E+000	1.012685976368812E+002	-1.1355649E+000	-1.607267026706622E+002	1.8251561E-001	-1.1355808E+000	0
6.9526572E+000	1.014685976318287E+002	-1.1375753E+000	-1.636173417335734E+002	1.8612704E-001	-1.1375809E+000	0
6.8863516E+000	1.016685976267763E+002	-1.1395454E+000	-1.654788372013841E+002	1.8857065E-001	-1.1395808E+000	0
6.8252044E+000	1.018685976217239E+002	-1.1415069E+000	-1.672487483619291E+002	1.9091560E-001	-1.1415808E+000	0
6.7649064E+000	1.020685976166715E+002	-1.1435394E+000	-1.690399516488424E+002	1.9330385E-001	-1.1435809E+000	0
6.7272663E+000	1.022685976116190E+002	-1.1455669E+000	-1.702871421513375E+002	1.9507532E-001	-1.1455808E+000	0
6.5912766E+000	1.024685976065666E+002	-1.1475723E+000	-1.741047099398925E+002	1.9979773E-001	-1.1475809E+000	0
6.4950657E+000	1.026685976015142E+002	-1.1495278E+000	-1.769847822848901E+002	2.0344892E-001	-1.1495808E+000	0
6.4059691E+000	1.028685975964618E+002	-1.1515487E+000	-1.797618374175761E+002	2.0700452E-001	-1.1515809E+000	0
6.3143687E+000	1.030685975914093E+002	-1.1535655E+000	-1.826889732894983E+002	2.1074370E-001	-1.1535808E+000	0
6.2338982E+000	1.032685975863569E+002	-1.1555208E+000	-1.853608647971469E+002	2.1418834E-001	-1.1555808E+000	0
6.1234560E+000	1.034685975813045E+002	-1.1575431E+000	-1.890342700886887E+002	2.1881531E-001	-1.1575809E+000	0
6.0372806E+000	1.036685975762521E+002	-1.1595250E+000	-1.920608181304669E+002	2.2269933E-001	-1.1595808E+000	0
5.9936686E+000	1.038685975711996E+002	-1.1615461E+000	-1.937955141456764E+002	2.2510242E-001	-1.1615808E+000	0
5.9505200E+000	1.040685975661472E+002	-1.1635853E+000	-1.955434643286967E+002	2.2753151E-001	-1.1635808E+000	0
5.8908243E+000	1.042685975610948E+002	-1.1655669E+000	-1.978614311953515E+002	2.3062074E-001	-1.1655807E+000	0
5.8357339E+000	1.044685975560424E+002	-1.1675656E+000	-2.000717688082568E+002	2.3359691E-001	-1.1675807E+000	0
5.7750463E+000	1.046685975509899E+002	-1.1695611E+000	-2.025197869601434E+002	2.3685928E-001	-1.1695808E+000	0
5.7137809E+000	1.048685975459375E+002	-1.1715739E+000	-2.050435392505187E+002	2.4022366E-001	-1.1715809E+000	0
5.6872625E+000	1.050685975408851E+002	-1.1735388E+000	-2.063451028335130E+002	2.4215399E-001	-1.1735808E+000	0
5.6384339E+000	1.052685975358327E+002	-1.1755224E+000	-2.084838496725029E+002	2.4507745E-001	-1.1755807E+000	0
5.5218229E+000	1.054685975307802E+002	-1.1775327E+000	-2.132507072024887E+002	2.5110969E-001	-1.1775808E+000	0
5.3864837E+000	1.056685975257278E+002	-1.1795526E+000	-2.189837879907527E+002	2.5830290E-001	-1.1795809E+000	0
5.3576865E+000	1.058685975206754E+002	-1.1815727E+000	-2.205378515974471E+002	2.6058149E-001	-1.1815808E+000	0
5.3124366E+000	1.060685975156230E+002	-1.1836137E+000	-2.228005231848647E+002	2.6370975E-001	-1.1835808E+000	0
5.2523108E+000	1.062685975105705E+002	-1.1855383E+000	-2.257174608291143E+002	2.6759669E-001	-1.1855808E+000	0
5.2030530E+000	1.064685975055181E+002	-1.1875827E+000	-2.282472846621562E+002	2.7106252E-001	-1.1875808E+000	0
5.1587620E+000	1.066685975004657E+002	-1.1895605E+000	-2.305903118159486E+002	2.7430114E-001	-1.1895808E+000	0
5.0810037E+000	1.068685974954133E+002	-1.1915778E+000	-2.345162139987724E+002	2.7944431E-001	-1.1915808E+000	0
5.0553632E+000	1.070685974903608E+002	-1.1935941E+000	-2.361045155882016E+002	2.8181297E-001	-1.1935809E+000	0
5.0414901E+000	1.072685974853084E+002	-1.1955962E+000	-2.371513579729740E+002	2.8353727E-001	-1.1955808E+000	0
5.0046926E+000	1.074685974802560E+002	-1.1975210E+000	-2.392796244480696E+002	2.8654236E-001	-1.1975808E+000	0
4.9544086E+000	1.076685974752036E+002	-1.1996012E+000	-2.421280318063405E+002	2.9045707E-001	-1.1995809E+000	0
4.8615961E+000	1.078685974701511E+002	-1.2016073E+000	-2.471631296378414E+002	2.9699305E-001	-1.2015809E+000	0
4.7562952E+000	1.080685974650987E+002	-1.2036153E+000	-2.530573291237935E+002	3.0458367E-001	-1.2035809E+000	0
4.7028394E+000	1.082685974600463E+002	-1.2055860E+000	-2.563527829955224E+002	3.0905533E-001	-1.2055808E+000	0
4.6847873E+000	1.084685974549939E+002	-1.2075733E+000	-2.577648053353068E+002	3.1126991E-001	-1.2075808E+000	0
4.6096258E+000	1.086685974499414E+002	-1.2096182E+000	-2.624113706017843E+002	3.1741756E-001	-1.2095809E+000	0
4.5647197E+000	1.088685974448890E+002	-1.2115916E+000	-2.654251813369547E+002	3.2158691E-001	-1.2115809E+000	0
4.5376611E+000	1.090685974398366E+002	-1.2135761E+000	-2.674452781028481E+002	3.2456520E-001	-1.2135807E+000	0
4.4859657E+000	1.092685974347842E+002	-1.2156007E+000	-2.709785987114419E+002	3.2940179E-001	-1.2155808E+000	0
4.4441638E+000	1.094487974302319E+002	-1.2174451E+000	-2.739424488974732E+002	3.3350989E-001	-1.2173823E+000	0
4.4154410E+000	1.096190974259298E+002	-1.2191566E+000	-2.761120962032483E+002	3.3662388E-001	-1.2190855E+000	0
4.3599415E+000	1.097994974213725E+002	-1.2209231E+000	-2.800319863774571E+002	3.4189752E-001	-1.2208890E+000	0
4.3258686E+000	1.099500974175680E+002	-1.2224067E+000	-2.825806354757306E+002	3.4542847E-001	-1.2223952E+000	0
4.3231411E+000	1.101204974132634E+002	-1.2241246E+000	-2.831562800123402E+002	3.4661856E-001	-1.2240993E+000	0
4.3108492E+000	1.103108974084535E+002	-1.2260903E+000	-2.844196797285867E+002	3.4872422E-001	-1.2260035E+000	0
4.2919960E+000	1.105010974036486E+002	-1.2278799E+000	-2.860859886351955E+002	3.5127923E-001	-1.2279054E+000	0
4.2679729E+000	1.106814973990913E+002	-1.2297162E+000	-2.881265324918718E+002	3.5431385E-001	-1.2297093E+000	0
4.2150440E+000	1.108617973945366E+002	-1.2315325E+000	-2.921754681190059E+002	3.5982358E-001	-1.2315125E+000	0
4.1346312E+000	1.110519973897317E+002	-1.2334332E+000	-2.983175946064782E+002	3.6795485E-001	-1.2334143E+000	0
4.1045766E+000	1.112425973849167E+002	-1.2352948E+000	-3.009554978314072E+002	3.7176877E-001	-1.2353200E+000	0
4.0635719E+000	1.114331973801018E+002	-1.2372378E+000	-3.044704961193706E+002	3.7670240E-001	-1.2372262E+000	0
4.0329504E+000	1.116137973755394E+002	-1.2390521E+000	-3.072321561920653E+002	3.8067663E-001	-1.2390320E+000	0
4.0285153E+000	1.117842973712322E+002	-1.2407706E+000	-3.079970016209099E+002	3.8215363E-001	-1.2407374E+000	0
4.0256128E+000	1.119645973666775E+002	-1.2425652E+000	-3.086648258642811E+002	3.8353616E-001	-1.2425401E+000	0
4.0100532E+000	1.121350973623703E+002	-1.2443274E+000	-3.103019675914456E+002	3.8611725E-001	-1.2442453E+000	0
3.9703708E+000	1.123156973578079E+002	-1.2461230E+000	-3.138555626278996E+002	3.9110261E-001	-1.2460511E+000	0
3.9561470E+000	1.124960973532507E+002	-1.2478865E+000	-3.154297796477894E+002	3.9362058E-001	-1.2478553E+000	0
3.9230511E+000	1.126763973486959E+002	-1.2496923E+000	-3.185511252303295E+002	3.9809090E-001	-1.2496585E+000	0
3.8796704E+000	1.128767973436334E+002	-1.2516850E+000	-3.226266505485360E+002	4.0382695E-001	-1.2516625E+000	0
3.8717525E+000	1.130371973395813E+002	-1.2533092E+000	-3.237059302794728E+002	4.0570363E-001	-1.2532661E+000	0
3.8581979E+000	1.132172973350316E+002	-1.2551030E+000	-3.253080979720280E+002	4.0829515E-001	-1.2550676E+000	0
3.8464248E+000	1.133975973304769E+002	-1.2569138E+000	-3.267745692028054E+002	4.1072747E-001	-1.2568703E+000	0
3.8413815E+000	1.135778973259221E+002	-1.2587497E+000	-3.276815192801010E+002	4.1246903E-001	-1.2586735E+000	0
3.8374119E+000	1.137780973208646E+002	-1.2607040E+000	-3.285297622157086E+002	4.1417879E-001	-1.2606757E+000	0
3.7509475E+000	1.139684973160547E+002	-1.2626438E+000	-3.366199658925678E+002	4.2503113E-001	-1.2625790E+000	0
3.6862860E+000	1.141491973114898E+002	-1.2644609E+000	-3.430175805323818E+002	4.3373233E-001	-1.2643862E+000	0
3.6526883E+000	1.143394973066825E+002	-1.2663347E+000	-3.466856619161599E+002	4.3902007E-001	-1.2662892E+000	0
3.6447496E+000	1.145197973021277E+002	-1.2681626E+000	-3.479423007370542E+002	4.4124740E-001	-1.2680924E+000	0
3.6226611E+000	1.146902972978205E+002	-1.2698370E+000	-3.505260399624094E+002	4.4511095E-001	-1.2697968E+000	0
3.6198597E+000	1.148608972935108E+002	-1.2715608E+000	-3.512735012201767E+002	4.4666561E-001	-1.2715031E+000	0
3.5796287E+000	1.150315972891985E+002	-1.2732545E+000	-3.556945763458775E+002	4.5288971E-001	-1.2732102E+000	0
3.5519419E+000	1.152219972843886E+002	-1.2751673E+000	-3.590056872291225E+002	4.5779234E-001	-1.2751144E+000	0
3.4874132E+000	1.153924972800814E+002	-1.2769421E+000	-3.661573987209131E+002	4.6756181E-001	-1.2768196E+000	0
3.4358978E+000	1.155728972755242E+002	-1.2786940E+000	-3.721571700973132E+002	4.7587514E-001	-1.2786232E+000	0
3.4246876E+000	1.157633972707117E+002	-1.2806057E+000	-3.739335805312294E+002	4.7886145E-001	-1.2805283E+000	0
3.4308615E+000	1.159438972661519E+002	-1.2824060E+000	-3.737854023843593E+002	4.7934464E-001	-1.2823334E+000	0
3.4286687E+000	1.161243972615921E+002	-1.2842519E+000	-3.745628471640057E+002	4.8103306E-001	-1.2841384E+000	0
3.3893805E+000	1.163047972570348E+002	-1.2860271E+000	-3.794283582430153E+002	4.8795515E-001	-1.2859421E+000	0
3.3796864E+000	1.164552972532329E+002	-1.2875085E+000	-3.809550280502599E+002	4.9048284E-001	-1.2874471E+000	0
3.3597128E+000	1.166257972489257E+002	-1.2892348E+000	-3.837336231754598E+002	4.9472272E-001	-1.2891523E+000	0
3.3266888E+000	1.167859972448787E+002	-1.2908608E+000	-3.880317357114100E+002	5.0089496E-001	-1.2907546E+000	0
3.3014948E+000	1.169560972405816E+002	-1.2925401E+000	-3.915014597199283E+002	5.0603133E-001	-1.2924558E+000	0
3.3058989E+000	1.171362972360294E+002	-1.2943591E+000	-3.915301601142728E+002	5.0678062E-001	-1.2942573E+000	0
3.2904744E+000	1.173164972314771E+002	-1.2961431E+000	-3.939076553983934E+002	5.1056069E-001	-1.2960594E+000	0
3.2912924E+000	1.174769972274225E+002	-1.2977865E+000	-3.943090709773505E+002	5.1172900E-001	-1.2976638E+000	0
3.2651467E+000	1.176473972231179E+002	-1.2994418E+000	-3.979734697154290E+002	5.1714337E-001	-1.2993681E+000	0
3.2396097E+000	1.178277972185606E+002	-1.3012606E+000	-4.016720105276054E+002	5.2267998E-001	-1.3011724E+000	0
3.2140911E+000	1.180181972137507E+002	-1.3031572E+000	-4.054512427393829E+002	5.2836668E-001	-1.3030760E+000	0
3.2140427E+000	1.181984972091959E+002	-1.3049644E+000	-4.060196278183139E+002	5.2984118E-001	-1.3048794E+000	0
3.2157760E+000	1.183786972046437E+002	-1.3067695E+000	-4.063621002968148E+002	5.3102160E-001	-1.3066815E+000	0
3.2024343E+000	1.185490972003390E+002	-1.3084393E+000	-4.085764660943532E+002	5.3459752E-001	-1.3083853E+000	0
3.1721804E+000	1.187194971960344E+002	-1.3101969E+000	-4.130272315313114E+002	5.4114699E-001	-1.3100890E+000	0
3.1665285E+000	1.189000971914720E+002	-1.3120233E+000	-4.143412301708277E+002	5.4362535E-001	-1.3118951E+000	0
3.1482012E+000	1.190704971871673E+002	-1.3136961E+000	-4.172846736015335E+002	5.4818529E-001	-1.3135989E+000	0
3.1327097E+000	1.192410971828576E+002	-1.3154089E+000	-4.198949442583416E+002	5.5233359E-001	-1.3153050E+000	0
3.1323347E+000	1.194315971780452E+002	-1.3173096E+000	-4.205520003971981E+002	5.5399722E-001	-1.3172106E+000	0
3.1227176E+000	1.196117971734930E+002	-1.3191200E+000	-4.224269319223040E+002	5.5723184E-001	-1.3190123E+000	0
3.0736690E+000	1.197821971691883E+002	-1.3208044E+000	-4.297158737634568E+002	5.6757063E-001	-1.3207161E+000	0
3.0641177E+000	1.199626971646285E+002	-1.3226200E+000	-4.316479416228212E+002	5.7090622E-001	-1.3225212E+000	0
3.0724368E+000	1.201328971603289E+002	-1.3243091E+000	-4.310289246942771E+002	5.7081550E-001	-1.3242234E+000	0
3.0532577E+000	1.203031971560267E+002	-1.3260282E+000	-4.342994812667021E+002	5.7589334E-001	-1.3259263E+000	0
3.0446138E+000	1.204831971514795E+002	-1.3278229E+000	-4.361219443808400E+002	5.7909274E-001	-1.3277264E+000	0
3.0505056E+000	1.206532971471825E+002	-1.3295035E+000	-4.358305330626772E+002	5.7943821E-001	-1.3294276E+000	0
3.0483983E+000	1.208531971421326E+002	-1.3315399E+000	-4.367998342319406E+002	5.8161640E-001	-1.3314266E+000	0
3.0330210E+000	1.210531971370801E+002	-1.3335270E+000	-4.396695389304314E+002	5.8631116E-001	-1.3334266E+000	0
3.0036066E+000	1.212332971325304E+002	-1.3353182E+000	-4.445716251844426E+002	5.9364456E-001	-1.3352276E+000	0
2.9510560E+000	1.214133971279807E+002	-1.3371041E+000	-4.530934437862048E+002	6.0583311E-001	-1.3370286E+000	0
2.9225917E+000	1.216133971229283E+002	-1.3391591E+000	-4.582094372600091E+002	6.1361533E-001	-1.3390286E+000	0
2.9150281E+000	1.218033971181285E+002	-1.3410101E+000	-4.600333374201864E+002	6.1690933E-001	-1.3409283E+000	0
2.9202654E+000	1.219833971135813E+002	-1.3428152E+000	-4.598263989528359E+002	6.1746186E-001	-1.3427284E+000	0
2.8813448E+000	1.221335971097869E+002	-1.3443328E+000	-4.665643604752205E+002	6.2721777E-001	-1.3442301E+000	0
2.8793948E+000	1.222935971057450E+002	-1.3459855E+000	-4.674543076923910E+002	6.2918675E-001	-1.3458306E+000	0
2.8588321E+000	1.224537971016980E+002	-1.3475636E+000	-4.713685874652147E+002	6.3519919E-001	-1.3474324E+000	0
2.8457313E+000	1.226237970974034E+002	-1.3492475E+000	-4.741303125175029E+002	6.3971913E-001	-1.3491324E+000	0
2.8417065E+000	1.227937970931089E+002	-1.3509740E+000	-4.754094027869814E+002	6.4226574E-001	-1.3508323E+000	0
2.8136315E+000	1.229637970888143E+002	-1.3526700E+000	-4.807559150503184E+002	6.5030408E-001	-1.3525325E+000	0
2.7808747E+000	1.231537970840145E+002	-1.3545606E+000	-4.870987420244292E+002	6.5980476E-001	-1.3544327E+000	0
2.7784874E+000	1.233437970792147E+002	-1.3564500E+000	-4.881972743421265E+002	6.6221517E-001	-1.3563323E+000	0
2.7771499E+000	1.235137970749201E+002	-1.3581563E+000	-4.890468357596019E+002	6.6420203E-001	-1.3580322E+000	0
2.7840548E+000	1.236937970703730E+002	-1.3599836E+000	-4.884902440717697E+002	6.6433871E-001	-1.3598325E+000	0
2.7983475E+000	1.238837970655732E+002	-1.3618640E+000	-4.866672081321938E+002	6.6277456E-001	-1.3617325E+000	0
2.8085675E+000	1.240538970612761E+002	-1.3635458E+000	-4.854950866557850E+002	6.6199476E-001	-1.3634335E+000	0
2.7848010E+000	1.242437970564788E+002	-1.3654665E+000	-4.903281935335608E+002	6.6952670E-001	-1.3653324E+000	0
2.7649333E+000	1.244337970516790E+002	-1.3673406E+000	-4.945292980168139E+002	6.7618996E-001	-1.3672326E+000	0
2.7163715E+000	1.246238970468767E+002	-1.3692968E+000	-5.040904091998700E+002	6.9024938E-001	-1.3691334E+000	0
2.7125216E+000	1.248139970420743E+002	-1.3711683E+000	-5.054958175693760E+002	6.9311982E-001	-1.3710345E+000	0
2.7166717E+000	1.249940970375246E+002	-1.3729537E+000	-5.053807673867805E+002	6.9386435E-001	-1.3728355E+000	0
2.7074914E+000	1.251739970329800E+002	-1.3747475E+000	-5.077569399486993E+002	6.9803756E-001	-1.3746343E+000	0
2.6325896E+000	1.253439970286854E+002	-1.3764936E+000	-5.228667369481846E+002	7.1972269E-001	-1.3763343E+000	0
2.6419127E+000	1.255140970243883E+002	-1.3781841E+000	-5.216614807349270E+002	7.1894556E-001	-1.3780357E+000	0
2.6108429E+000	1.256939970198437E+002	-1.3803033E+000	-5.286810756619907E+002	7.2974020E-001	-1.3798345E+000	0
2.5805285E+000	1.258939970147912E+002	-1.3824941E+000	-5.357406748168351E+002	7.4065834E-001	-1.3818346E+000	0
2.5834880E+000	1.260939970097388E+002	-1.3844960E+000	-5.359018374592270E+002	7.4195391E-001	-1.3838346E+000	0
2.5771937E+000	1.262740970051891E+002	-1.3862711E+000	-5.378994793620104E+002	7.4567449E-001	-1.3856354E+000	0
2.5939202E+000	1.264441970008920E+002	-1.3879938E+000	-5.350950356759727E+002	7.4270862E-001	-1.3873364E+000	0
2.6125836E+000	1.266341969960922E+002	-1.3898927E+000	-5.319993111270906E+002	7.3942196E-001	-1.3892366E+000	0
2.6129377E+000	1.268341969910398E+002	-1.3919237E+000	-5.327045104141380E+002	7.4148399E-001	-1.3912367E+000	0
2.5874012E+000	1.270341969859874E+002	-1.3939174E+000	-5.387326585030064E+002	7.5094885E-001	-1.3932366E+000	0
2.5609212E+000	1.272341969809349E+002	-1.3958817E+000	-5.450701232053793E+002	7.6085341E-001	-1.3952366E+000	0
2.5630219E+000	1.274341969758825E+002	-1.3979326E+000	-5.454235871676131E+002	7.6246542E-001	-1.3972367E+000	0
2.5116594E+000	1.276141969713353E+002	-1.3997138E+000	-5.572864437469120E+002	7.8004152E-001	-1.3990362E+000	0
2.5180342E+000	1.277941969667881E+002	-1.4015454E+000	-5.566030263749386E+002	7.8010440E-001	-1.4008366E+000	0
2.5139947E+000	1.279941969617357E+002	-1.4035442E+000	-5.582924135731460E+002	7.8358805E-001	-1.4028367E+000	0
2.5315948E+000	1.281941969566833E+002	-1.4055372E+000	-5.551983685871896E+002	7.8035200E-001	-1.4048365E+000	0
2.5204375E+000	1.283841969518835E+002	-1.4074711E+000	-5.584232935230757E+002	7.8596461E-001	-1.4067364E+000	0
2.4864831E+000	1.284841969493573E+002	-1.4084959E+000	-5.664610707808515E+002	7.9785812E-001	-1.4077363E+000	0
2.4731774E+000	1.285023969488975E+002	-1.4086754E+000	-5.695812332153323E+002	8.0235511E-001	-1.4079363E+000	1